SpectraSuite Data File
++++++++++++++++++++++++++++++++++++
Date: Wed May 13 16:05:38 PDT 2015
User: schluterlab
Dark Spectrum Present: Yes
Reference Spectrum Present: Yes
Number of Sampled Component Spectra: 1
Spectrometers: USB2E3373
Integration Time (usec): 3000 (USB2E3373)
Spectra Averaged: 3 (USB2E3373)
Boxcar Smoothing: 0 (USB2E3373)
Correct for Electrical Dark: No (USB2E3373)
Strobe/Lamp Enabled: No (USB2E3373)
Correct for Detector Non-linearity: No (USB2E3373)
Correct for Stray Light: No (USB2E3373)
Number of Pixels in Processed Spectrum: 2048
>>>>>Begin Processed Spectral Data<<<<<
178.53	0.000
178.91	-850.000
179.29	-800.000
179.67	-111.111
180.04	-750.000
180.42	1300.000
180.80	480.000
181.18	-450.000
181.56	357.143
181.94	0.000
182.31	-242.857
182.69	900.000
183.07	-200.000
183.45	-266.667
183.83	309.091
184.20	-310.000
184.58	1350.000
184.96	2800.000
185.34	-560.000
185.72	-325.000
186.09	-1200.000
186.47	1800.000
186.85	900.000
187.23	1500.000
187.61	-900.000
187.98	875.000
188.36	318.182
188.74	281.818
189.12	-480.000
189.49	330.000
189.87	-2600.000
190.25	-625.000
190.63	264.286
191.00	238.462
191.38	366.667
191.76	-500.000
192.14	875.000
192.51	187.500
192.89	500.000
193.27	187.500
193.65	-575.000
194.02	290.000
194.40	520.000
194.78	300.000
195.15	283.333
195.53	450.000
195.91	-550.000
196.29	168.750
196.66	178.947
197.04	-90.000
197.42	0.000
197.79	450.000
198.17	-2100.000
198.55	400.000
198.92	362.500
199.30	440.000
199.68	0.000
200.05	216.667
200.43	528.571
200.81	2500.000
201.18	833.333
201.56	-833.333
201.94	411.111
202.31	277.778
202.69	275.000
203.07	400.000
203.44	0.000
203.82	750.000
204.19	385.714
204.57	285.714
204.95	400.000
205.32	1033.333
205.70	345.455
206.08	185.714
206.45	1400.000
206.83	237.500
207.20	550.000
207.58	340.000
207.96	222.222
208.33	537.500
208.71	-466.667
209.08	500.000
209.46	366.667
209.84	290.909
210.21	-766.667
210.59	700.000
210.96	-212.500
211.34	1100.000
211.71	390.000
212.09	350.000
212.46	0.000
212.84	933.333
213.22	525.000
213.59	-2400.000
213.97	383.333
214.34	542.857
214.72	445.455
215.09	540.000
215.47	-1600.000
215.84	-1450.000
216.22	933.333
216.59	264.286
216.97	850.000
217.34	209.091
217.72	-283.333
218.09	0.000
218.47	-2800.000
218.84	400.000
219.22	285.714
219.59	1233.333
219.97	-285.714
220.34	480.000
220.72	-1100.000
221.09	214.286
221.47	875.000
221.84	-566.667
222.22	0.000
222.59	850.000
222.97	-1650.000
223.34	780.000
223.72	284.615
224.09	760.000
224.46	1550.000
224.84	-2300.000
225.21	-600.000
225.59	-2900.000
225.96	360.000
226.34	185.000
226.71	1500.000
227.08	375.000
227.46	220.000
227.83	-500.000
228.21	-850.000
228.58	344.444
228.95	-1050.000
229.33	-700.000
229.70	900.000
230.08	371.429
230.45	-320.000
230.82	316.667
231.20	500.000
231.57	314.286
231.95	275.000
232.32	131.818
232.69	190.909
233.07	385.714
233.44	238.462
233.81	-1200.000
234.19	121.053
234.56	191.667
234.93	200.000
235.31	200.000
235.68	153.846
236.05	114.286
236.43	93.939
236.80	121.053
237.17	1400.000
237.55	95.238
237.92	114.286
238.29	114.286
238.67	67.742
239.04	93.103
239.41	58.333
239.79	58.696
240.16	47.619
240.53	34.091
240.91	39.216
241.28	50.000
241.65	34.000
242.02	43.478
242.40	33.871
242.77	26.667
243.14	39.785
243.51	39.326
243.89	41.176
244.26	15.556
244.63	23.656
245.00	22.340
245.38	23.762
245.75	19.626
246.12	13.761
246.49	32.847
246.87	37.600
247.24	16.923
247.61	25.714
247.98	20.915
248.36	14.189
248.73	16.561
249.10	23.567
249.47	15.819
249.84	20.856
250.22	19.786
250.59	12.426
250.96	17.172
251.33	18.957
251.70	15.347
252.08	15.238
252.45	12.556
252.82	12.609
253.19	15.745
253.56	16.863
253.94	14.108
254.31	12.500
254.68	16.538
255.05	11.808
255.42	9.350
255.79	9.926
256.16	13.718
256.54	8.834
256.91	10.676
257.28	6.475
257.65	13.201
258.02	13.665
258.39	9.779
258.76	8.027
259.14	12.500
259.51	7.903
259.88	6.832
260.25	8.761
260.62	8.671
260.99	6.522
261.36	10.811
261.73	10.602
262.10	7.558
262.47	8.732
262.85	6.407
263.22	7.123
263.59	10.541
263.96	9.066
264.33	8.616
264.70	7.105
265.07	11.253
265.44	9.343
265.81	5.596
266.18	8.291
266.55	6.585
266.92	7.862
267.29	8.565
267.66	10.321
268.03	7.955
268.40	6.776
268.77	6.444
269.14	6.982
269.51	5.643
269.88	7.226
270.25	4.740
270.62	7.191
270.99	10.108
271.36	8.584
271.73	4.907
272.10	8.043
272.47	8.387
272.84	7.792
273.21	7.757
273.58	5.022
273.95	5.241
274.32	3.926
274.69	5.996
275.06	7.480
275.43	6.809
275.80	7.014
276.17	6.517
276.54	6.445
276.91	8.498
277.28	5.664
277.65	8.124
278.02	6.418
278.39	9.961
278.76	6.909
279.13	8.679
279.50	6.518
279.87	6.375
280.23	6.587
280.60	5.803
280.97	5.915
281.34	7.257
281.71	6.727
282.08	6.910
282.45	5.818
282.82	7.282
283.19	5.882
283.56	6.842
283.92	7.614
284.29	6.526
284.66	3.993
285.03	7.414
285.40	7.218
285.77	5.219
286.14	5.009
286.51	7.167
286.87	6.154
287.24	6.840
287.61	5.457
287.98	7.468
288.35	6.498
288.72	5.763
289.08	5.634
289.45	6.096
289.82	7.317
290.19	5.808
290.56	5.666
290.93	4.230
291.29	4.908
291.66	6.047
292.03	8.430
292.40	7.342
292.77	4.734
293.13	5.522
293.50	5.102
293.87	5.037
294.24	3.556
294.60	4.658
294.97	5.087
295.34	7.052
295.71	5.114
296.08	4.701
296.44	4.539
296.81	4.095
297.18	8.130
297.55	3.298
297.91	5.277
298.28	5.087
298.65	6.005
299.02	6.456
299.38	3.054
299.75	3.369
300.12	3.704
300.48	5.250
300.85	5.302
301.22	3.312
301.59	3.030
301.95	5.668
302.32	5.006
302.69	4.182
303.05	4.121
303.42	4.321
303.79	5.096
304.15	3.497
304.52	3.360
304.89	4.994
305.25	4.988
305.62	4.304
305.99	4.841
306.35	5.145
306.72	4.709
307.09	4.661
307.45	5.293
307.82	4.576
308.19	5.629
308.55	4.746
308.92	5.156
309.29	4.435
309.65	4.030
310.02	5.074
310.38	4.946
310.75	4.646
311.12	4.504
311.48	4.493
311.85	5.451
312.22	4.266
312.58	3.222
312.95	5.174
313.31	4.466
313.68	4.262
314.05	6.903
314.41	5.729
314.78	5.136
315.14	4.667
315.51	5.767
315.87	4.752
316.24	3.873
316.61	4.386
316.97	4.501
317.34	3.914
317.70	5.258
318.07	3.946
318.43	4.403
318.80	5.342
319.16	5.367
319.53	4.597
319.89	5.238
320.26	5.900
320.62	5.060
320.99	6.263
321.35	4.141
321.72	6.057
322.08	5.133
322.45	6.169
322.81	5.717
323.18	5.973
323.54	5.844
323.91	5.755
324.27	4.971
324.64	4.753
325.00	4.869
325.37	4.914
325.73	5.117
326.10	4.943
326.46	4.301
326.83	5.436
327.19	4.611
327.56	4.704
327.92	5.337
328.29	5.856
328.65	5.433
329.01	5.505
329.38	4.440
329.74	5.910
330.11	4.618
330.47	5.601
330.84	6.710
331.20	5.100
331.56	5.321
331.93	4.815
332.29	4.880
332.66	5.929
333.02	5.393
333.38	5.149
333.75	5.615
334.11	5.516
334.48	5.235
334.84	5.423
335.20	6.182
335.57	5.258
335.93	4.107
336.29	6.136
336.66	4.959
337.02	4.525
337.38	4.907
337.75	5.258
338.11	4.745
338.47	3.775
338.84	5.591
339.20	4.771
339.56	5.292
339.93	4.273
340.29	4.438
340.65	4.545
341.02	5.585
341.38	5.516
341.74	4.474
342.11	5.153
342.47	4.581
342.83	4.795
343.20	5.368
343.56	4.802
343.92	4.123
344.28	5.187
344.65	4.299
345.01	4.377
345.37	4.202
345.73	4.738
346.10	5.286
346.46	4.746
346.82	5.189
347.19	4.344
347.55	4.516
347.91	4.935
348.27	6.409
348.63	5.686
349.00	4.531
349.36	5.008
349.72	4.972
350.08	4.214
350.45	4.312
350.81	3.818
351.17	4.700
351.53	4.750
351.89	4.125
352.26	5.919
352.62	4.892
352.98	4.862
353.34	4.355
353.70	3.519
354.07	4.677
354.43	4.921
354.79	4.425
355.15	4.310
355.51	4.716
355.87	4.408
356.24	5.130
356.60	4.330
356.96	3.701
357.32	4.252
357.68	4.961
358.04	4.513
358.40	4.434
358.77	4.304
359.13	4.341
359.49	4.471
359.85	3.571
360.21	3.509
360.57	4.591
360.93	4.154
361.29	4.535
361.66	3.406
362.02	5.149
362.38	4.106
362.74	3.795
363.10	3.109
363.46	3.668
363.82	4.611
364.18	4.772
364.54	5.201
364.90	4.674
365.26	4.118
365.62	5.259
365.98	3.871
366.35	3.367
366.71	4.411
367.07	4.370
367.43	3.774
367.79	3.926
368.15	5.532
368.51	3.779
368.87	4.711
369.23	3.658
369.59	5.069
369.95	3.750
370.31	4.915
370.67	3.696
371.03	5.094
371.39	4.665
371.75	4.191
372.11	4.410
372.47	5.132
372.83	4.827
373.19	4.191
373.55	4.065
373.91	4.418
374.27	4.399
374.63	4.582
374.99	5.014
375.35	4.187
375.71	4.524
376.07	4.664
376.42	4.746
376.78	4.705
377.14	3.799
377.50	4.768
377.86	3.657
378.22	4.994
378.58	4.135
378.94	4.463
379.30	4.071
379.66	5.013
380.02	4.545
380.38	4.736
380.74	5.402
381.09	4.768
381.45	4.917
381.81	4.791
382.17	4.713
382.53	3.648
382.89	4.568
383.25	4.565
383.61	5.019
383.97	4.816
384.32	4.866
384.68	5.204
385.04	4.917
385.40	4.334
385.76	4.484
386.12	4.339
386.48	4.783
386.83	4.939
387.19	5.504
387.55	4.947
387.91	5.018
388.27	5.089
388.62	5.409
388.98	4.177
389.34	5.069
389.70	5.273
390.06	5.133
390.42	4.410
390.77	4.517
391.13	5.041
391.49	4.569
391.85	4.137
392.20	4.416
392.56	5.177
392.92	4.650
393.28	4.024
393.64	5.516
393.99	5.559
394.35	4.156
394.71	4.517
395.07	4.798
395.42	5.439
395.78	4.707
396.14	4.469
396.50	5.138
396.85	4.323
397.21	4.562
397.57	4.092
397.92	5.168
398.28	4.596
398.64	5.376
399.00	4.365
399.35	4.117
399.71	4.456
400.07	5.086
400.42	4.908
400.78	4.524
401.14	3.598
401.49	4.955
401.85	4.779
402.21	5.090
402.57	4.195
402.92	5.233
403.28	4.997
403.63	4.146
403.99	4.395
404.35	4.727
404.70	3.897
405.06	4.135
405.42	3.805
405.77	3.829
406.13	3.781
406.49	4.613
406.84	4.548
407.20	3.310
407.55	4.148
407.91	4.467
408.27	2.553
408.62	4.335
408.98	4.228
409.34	4.367
409.69	4.000
410.05	3.965
410.40	4.220
410.76	3.823
411.11	5.127
411.47	4.409
411.83	5.437
412.18	4.143
412.54	4.047
412.89	4.639
413.25	4.191
413.60	4.324
413.96	4.311
414.31	5.043
414.67	5.070
415.03	3.709
415.38	5.026
415.74	4.180
416.09	4.050
416.45	4.083
416.80	5.023
417.16	5.764
417.51	5.242
417.87	4.432
418.22	4.353
418.58	5.100
418.93	4.484
419.29	4.901
419.64	4.282
420.00	4.024
420.35	4.522
420.71	4.244
421.06	4.415
421.42	4.620
421.77	4.428
422.12	3.874
422.48	3.886
422.83	4.193
423.19	4.475
423.54	4.411
423.90	4.406
424.25	4.634
424.61	4.464
424.96	4.023
425.31	4.762
425.67	3.989
426.02	4.400
426.38	4.640
426.73	4.272
427.09	4.316
427.44	4.255
427.79	4.313
428.15	4.881
428.50	4.389
428.85	4.827
429.21	4.362
429.56	4.095
429.92	4.479
430.27	4.320
430.62	4.045
430.98	4.152
431.33	4.536
431.68	4.921
432.04	4.260
432.39	4.512
432.74	4.249
433.10	3.848
433.45	3.732
433.80	3.714
434.16	4.861
434.51	4.158
434.86	4.960
435.22	4.169
435.57	4.438
435.92	3.862
436.28	4.389
436.63	5.298
436.98	3.549
437.34	4.770
437.69	5.018
438.04	4.778
438.39	4.239
438.75	4.590
439.10	4.302
439.45	4.486
439.81	4.048
440.16	4.461
440.51	4.218
440.86	4.806
441.22	3.726
441.57	4.724
441.92	4.401
442.27	4.252
442.63	4.371
442.98	4.394
443.33	4.511
443.68	4.078
444.03	3.904
444.39	3.651
444.74	4.654
445.09	4.474
445.44	4.319
445.79	4.948
446.15	4.923
446.50	4.523
446.85	4.162
447.20	4.284
447.55	4.578
447.91	4.192
448.26	4.341
448.61	4.466
448.96	4.928
449.31	5.062
449.66	4.277
450.02	3.510
450.37	3.741
450.72	4.174
451.07	3.839
451.42	4.073
451.77	4.874
452.12	4.446
452.47	4.291
452.83	4.545
453.18	4.034
453.53	4.762
453.88	3.957
454.23	5.021
454.58	4.967
454.93	4.832
455.28	4.364
455.63	5.097
455.98	5.357
456.34	4.711
456.69	4.133
457.04	4.520
457.39	3.974
457.74	4.121
458.09	4.543
458.44	4.789
458.79	4.393
459.14	4.345
459.49	4.670
459.84	3.823
460.19	3.536
460.54	4.456
460.89	4.498
461.24	4.857
461.59	5.636
461.94	4.501
462.29	4.807
462.64	4.722
462.99	5.010
463.34	5.200
463.69	5.441
464.04	4.754
464.39	4.580
464.74	4.278
465.09	4.041
465.44	4.432
465.79	3.803
466.14	4.598
466.49	4.338
466.84	5.020
467.19	5.069
467.54	4.750
467.89	4.322
468.24	4.421
468.59	4.823
468.94	4.826
469.29	5.334
469.64	5.689
469.99	4.398
470.34	4.624
470.68	4.670
471.03	4.354
471.38	5.281
471.73	4.464
472.08	5.263
472.43	4.397
472.78	4.082
473.13	4.300
473.48	5.056
473.83	4.817
474.17	4.294
474.52	4.839
474.87	5.371
475.22	4.179
475.57	4.621
475.92	4.355
476.27	4.059
476.61	5.019
476.96	4.508
477.31	4.239
477.66	4.650
478.01	3.764
478.36	4.654
478.70	3.946
479.05	3.887
479.40	4.452
479.75	3.915
480.10	4.026
480.45	3.665
480.79	4.061
481.14	4.061
481.49	4.082
481.84	4.161
482.19	4.044
482.53	4.220
482.88	4.793
483.23	4.112
483.58	4.004
483.92	4.124
484.27	3.965
484.62	4.009
484.97	3.981
485.31	3.938
485.66	3.466
486.01	3.298
486.36	3.029
486.70	3.203
487.05	3.112
487.40	3.550
487.75	3.450
488.09	3.761
488.44	3.369
488.79	3.689
489.13	4.163
489.48	4.160
489.83	3.410
490.17	4.428
490.52	3.809
490.87	3.935
491.22	4.229
491.56	3.235
491.91	4.235
492.26	4.226
492.60	4.147
492.95	3.227
493.30	4.346
493.64	4.200
493.99	4.039
494.34	4.024
494.68	4.762
495.03	4.182
495.37	3.909
495.72	4.240
496.07	4.316
496.41	3.673
496.76	4.090
497.11	4.367
497.45	4.285
497.80	4.031
498.14	4.010
498.49	3.756
498.84	4.410
499.18	3.619
499.53	3.561
499.87	4.473
500.22	4.428
500.56	4.660
500.91	4.519
501.26	4.505
501.60	4.461
501.95	4.262
502.29	4.545
502.64	4.236
502.98	3.647
503.33	4.113
503.67	4.037
504.02	4.116
504.36	4.492
504.71	4.250
505.06	4.530
505.40	4.035
505.75	4.581
506.09	4.956
506.44	3.651
506.78	4.043
507.13	4.240
507.47	4.848
507.82	4.509
508.16	4.053
508.51	4.617
508.85	4.419
509.19	4.082
509.54	4.082
509.88	4.379
510.23	3.907
510.57	5.366
510.92	4.298
511.26	4.471
511.61	4.409
511.95	3.810
512.30	4.030
512.64	4.352
512.98	4.716
513.33	4.711
513.67	4.803
514.02	4.708
514.36	5.134
514.70	4.483
515.05	3.960
515.39	4.655
515.74	4.448
516.08	4.584
516.42	4.550
516.77	4.961
517.11	4.162
517.46	5.135
517.80	5.285
518.14	4.285
518.49	5.484
518.83	4.773
519.17	4.619
519.52	4.527
519.86	4.735
520.20	5.665
520.55	5.266
520.89	4.927
521.23	4.946
521.58	5.102
521.92	5.266
522.26	4.637
522.61	4.424
522.95	4.788
523.29	4.382
523.64	4.756
523.98	4.498
524.32	4.885
524.66	5.232
525.01	3.922
525.35	5.204
525.69	4.680
526.04	5.171
526.38	4.759
526.72	4.233
527.06	4.331
527.41	4.394
527.75	5.273
528.09	5.074
528.43	4.525
528.78	4.856
529.12	4.242
529.46	5.205
529.80	5.569
530.15	5.234
530.49	4.800
530.83	5.253
531.17	5.157
531.51	5.447
531.86	5.290
532.20	5.867
532.54	5.958
532.88	5.071
533.22	4.622
533.57	5.247
533.91	5.418
534.25	4.860
534.59	5.369
534.93	5.175
535.27	5.069
535.62	5.067
535.96	5.148
536.30	4.768
536.64	4.379
536.98	4.579
537.32	4.937
537.66	4.667
538.01	4.477
538.35	5.107
538.69	5.680
539.03	4.029
539.37	4.217
539.71	3.500
540.05	4.706
540.39	4.718
540.73	4.916
541.07	4.737
541.42	4.501
541.76	6.129
542.10	4.981
542.44	3.709
542.78	5.468
543.12	5.118
543.46	4.721
543.80	5.075
544.14	5.006
544.48	4.508
544.82	4.682
545.16	4.750
545.50	5.141
545.84	4.368
546.18	4.646
546.52	4.336
546.86	4.674
547.20	5.394
547.54	4.476
547.88	6.122
548.22	5.168
548.56	5.031
548.90	3.841
549.24	5.051
549.58	4.570
549.92	5.357
550.26	5.185
550.60	5.187
550.94	4.789
551.28	3.658
551.62	4.457
551.96	4.491
552.30	5.324
552.64	5.274
552.98	4.542
553.32	5.260
553.66	5.930
554.00	5.216
554.34	5.659
554.68	5.222
555.02	4.513
555.36	4.871
555.69	4.465
556.03	4.778
556.37	4.911
556.71	5.389
557.05	4.342
557.39	4.619
557.73	4.587
558.07	5.076
558.41	4.342
558.75	5.511
559.08	4.773
559.42	5.291
559.76	4.632
560.10	5.353
560.44	5.101
560.78	4.591
561.12	4.683
561.45	5.671
561.79	5.339
562.13	5.366
562.47	4.645
562.81	4.603
563.15	4.682
563.48	5.172
563.82	5.023
564.16	4.186
564.50	4.297
564.84	5.057
565.17	4.569
565.51	4.792
565.85	4.442
566.19	3.632
566.52	4.813
566.86	4.702
567.20	4.894
567.54	4.509
567.88	3.639
568.21	4.339
568.55	3.994
568.89	3.745
569.23	4.234
569.56	3.968
569.90	3.547
570.24	3.839
570.57	3.706
570.91	3.458
571.25	3.521
571.59	3.888
571.92	3.255
572.26	3.293
572.60	3.754
572.93	3.478
573.27	3.756
573.61	3.434
573.95	3.566
574.28	3.417
574.62	3.134
574.96	3.274
575.29	2.934
575.63	3.252
575.97	3.567
576.30	3.240
576.64	3.285
576.98	3.087
577.31	3.235
577.65	3.301
577.98	3.016
578.32	3.038
578.66	3.312
578.99	3.378
579.33	3.171
579.67	2.968
580.00	2.973
580.34	3.227
580.67	3.214
581.01	3.598
581.35	2.823
581.68	3.087
582.02	3.026
582.35	2.948
582.69	3.316
583.02	3.181
583.36	3.228
583.70	3.721
584.03	3.292
584.37	3.742
584.70	3.265
585.04	3.620
585.37	3.262
585.71	3.665
586.04	3.382
586.38	3.448
586.72	3.728
587.05	3.396
587.39	3.298
587.72	3.427
588.06	3.308
588.39	3.182
588.73	3.755
589.06	3.646
589.40	3.300
589.73	3.766
590.07	3.915
590.40	3.398
590.73	3.747
591.07	4.029
591.40	4.133
591.74	4.589
592.07	4.232
592.41	4.341
592.74	3.858
593.08	3.964
593.41	3.638
593.75	3.592
594.08	3.285
594.41	3.959
594.75	3.808
595.08	4.259
595.42	4.238
595.75	3.739
596.09	3.868
596.42	4.283
596.75	3.883
597.09	4.502
597.42	3.752
597.75	3.838
598.09	4.261
598.42	3.393
598.76	3.486
599.09	3.269
599.42	4.112
599.76	3.770
600.09	3.643
600.42	3.543
600.76	3.929
601.09	4.117
601.42	3.995
601.76	3.719
602.09	3.834
602.42	4.339
602.76	4.514
603.09	3.973
603.42	4.061
603.76	3.849
604.09	3.684
604.42	3.873
604.76	4.133
605.09	3.713
605.42	4.019
605.75	4.015
606.09	3.863
606.42	3.596
606.75	3.650
607.09	4.395
607.42	3.637
607.75	4.177
608.08	3.734
608.42	4.886
608.75	4.283
609.08	3.885
609.41	4.236
609.75	3.954
610.08	4.194
610.41	3.538
610.74	3.453
611.07	3.804
611.41	4.514
611.74	4.123
612.07	4.141
612.40	4.565
612.73	3.632
613.07	5.011
613.40	4.160
613.73	3.985
614.06	3.871
614.39	4.195
614.72	4.789
615.06	4.517
615.39	3.769
615.72	4.294
616.05	3.881
616.38	4.669
616.71	3.385
617.05	4.829
617.38	4.510
617.71	4.264
618.04	3.726
618.37	4.317
618.70	4.792
619.03	5.066
619.36	4.277
619.69	4.437
620.03	4.464
620.36	5.281
620.69	4.932
621.02	4.794
621.35	4.620
621.68	5.296
622.01	5.495
622.34	5.144
622.67	4.335
623.00	4.622
623.33	4.718
623.66	4.646
623.99	4.639
624.32	4.850
624.65	4.590
624.99	4.249
625.32	3.983
625.65	4.658
625.98	5.380
626.31	5.910
626.64	5.388
626.97	4.489
627.30	3.990
627.63	5.168
627.96	5.299
628.29	5.337
628.62	6.496
628.95	6.321
629.28	6.204
629.61	5.866
629.94	5.810
630.26	4.957
630.59	5.338
630.92	5.843
631.25	4.344
631.58	5.706
631.91	4.970
632.24	4.641
632.57	5.876
632.90	5.482
633.23	5.369
633.56	7.232
633.89	5.663
634.22	6.129
634.55	5.444
634.88	5.509
635.20	6.691
635.53	6.988
635.86	5.569
636.19	5.765
636.52	6.228
636.85	5.842
637.18	6.221
637.51	6.028
637.83	3.453
638.16	6.010
638.49	7.431
638.82	6.700
639.15	7.875
639.48	6.608
639.81	5.362
640.13	6.380
640.46	5.369
640.79	7.398
641.12	4.677
641.45	6.425
641.77	5.449
642.10	5.117
642.43	4.204
642.76	6.037
643.09	6.442
643.41	7.436
643.74	8.642
644.07	6.402
644.40	7.669
644.73	7.244
645.05	8.082
645.38	5.213
645.71	6.763
646.04	6.645
646.36	7.513
646.69	8.863
647.02	7.143
647.35	6.873
647.67	8.319
648.00	9.593
648.33	5.446
648.66	7.273
648.98	8.246
649.31	6.428
649.64	6.577
649.96	6.408
650.29	8.689
650.62	5.987
650.94	9.238
651.27	6.588
651.60	8.319
651.92	7.029
652.25	6.026
652.58	5.763
652.90	6.319
653.23	7.858
653.56	6.614
653.88	8.241
654.21	8.847
654.54	6.766
654.86	7.632
655.19	5.676
655.52	3.945
655.84	2.540
656.17	2.887
656.49	3.869
656.82	3.853
657.15	3.256
657.47	2.274
657.80	1.900
658.13	2.005
658.45	2.964
658.78	3.141
659.10	3.541
659.43	3.676
659.75	4.645
660.08	3.987
660.41	5.587
660.73	7.243
661.06	5.732
661.38	7.455
661.71	8.462
662.03	10.256
662.36	6.759
662.68	7.430
663.01	8.485
663.33	6.582
663.66	7.773
663.98	6.048
664.31	6.303
664.63	7.895
664.96	7.243
665.28	9.426
665.61	9.357
665.93	6.439
666.26	9.533
666.58	10.042
666.91	10.359
667.23	5.618
667.56	5.832
667.88	10.256
668.21	8.529
668.53	9.761
668.86	6.494
669.18	8.955
669.50	8.043
669.83	11.111
670.15	7.778
670.48	6.754
670.80	7.543
671.13	8.493
671.45	5.957
671.77	9.980
672.10	8.688
672.42	7.597
672.75	6.302
673.07	7.923
673.39	5.606
673.72	7.031
674.04	8.039
674.37	7.961
674.69	5.930
675.01	5.649
675.34	11.704
675.66	9.895
675.98	9.776
676.31	9.454
676.63	9.554
676.95	8.595
677.28	5.607
677.60	8.352
677.92	11.603
678.25	8.214
678.57	8.765
678.89	9.018
679.22	5.501
679.54	7.443
679.86	8.807
680.18	6.440
680.51	8.865
680.83	8.897
681.15	9.245
681.48	9.263
681.80	6.770
682.12	6.513
682.44	6.770
682.77	9.165
683.09	10.730
683.41	9.756
683.73	6.181
684.06	9.091
684.38	8.415
684.70	7.752
685.02	9.568
685.34	7.326
685.67	4.895
685.99	7.216
686.31	6.314
686.63	5.124
686.96	5.000
687.28	8.484
687.60	6.884
687.92	9.689
688.24	7.034
688.56	8.434
688.89	9.336
689.21	9.825
689.53	8.351
689.85	9.978
690.17	7.867
690.49	7.643
690.82	9.112
691.14	6.920
691.46	7.384
691.78	10.241
692.10	9.504
692.42	9.581
692.74	7.884
693.06	8.511
693.39	11.088
693.71	6.987
694.03	8.842
694.35	7.143
694.67	9.153
694.99	8.780
695.31	8.088
695.63	9.091
695.95	11.491
696.27	6.853
696.59	9.067
696.91	11.658
697.23	5.399
697.56	10.235
697.88	5.317
698.20	6.458
698.52	5.591
698.84	8.018
699.16	8.295
699.48	8.551
699.80	6.522
700.12	12.987
700.44	9.814
700.76	11.050
701.08	8.908
701.40	8.939
701.72	12.828
702.04	13.352
702.36	6.516
702.68	7.082
703.00	8.587
703.32	8.511
703.64	11.528
703.96	6.964
704.28	6.977
704.60	8.798
704.91	11.869
705.23	13.196
705.55	11.960
705.87	11.628
706.19	6.360
706.51	10.592
706.83	11.515
707.15	12.325
707.47	10.859
707.79	9.091
708.11	11.416
708.43	9.286
708.74	7.143
709.06	10.649
709.38	10.761
709.70	12.500
710.02	8.902
710.34	8.182
710.66	11.642
710.98	11.364
711.29	11.047
711.61	12.389
711.93	8.654
712.25	14.791
712.57	13.235
712.89	9.343
713.20	12.462
713.52	8.882
713.84	11.709
714.16	12.195
714.48	10.345
714.80	15.502
715.11	10.086
715.43	10.682
715.75	12.754
716.07	7.348
716.39	9.718
716.70	11.628
717.02	11.511
717.34	13.074
717.66	13.433
717.97	12.749
718.29	8.889
718.61	14.234
718.93	12.500
719.24	11.765
719.56	13.898
719.88	12.203
720.20	14.865
720.51	15.331
720.83	12.268
721.15	10.448
721.46	11.702
721.78	15.054
722.10	10.943
722.42	16.165
722.73	11.610
723.05	8.607
723.37	12.955
723.68	11.583
724.00	12.195
724.32	11.694
724.63	13.008
724.95	11.715
725.27	13.360
725.58	16.797
725.90	11.679
726.22	14.340
726.53	10.764
726.85	12.628
727.16	13.879
727.48	11.702
727.80	12.500
728.11	12.681
728.43	12.308
728.74	9.319
729.06	14.964
729.38	15.074
729.69	13.167
730.01	10.922
730.32	10.764
730.64	15.385
730.96	10.561
731.27	13.907
731.59	12.232
731.90	13.120
732.22	13.354
732.53	8.669
732.85	15.385
733.16	8.360
733.48	11.628
733.80	10.714
734.11	12.102
734.43	13.314
734.74	9.143
735.06	12.894
735.37	15.607
735.69	8.280
736.00	9.150
736.32	13.396
736.63	10.543
736.95	14.377
737.26	5.442
737.58	6.452
737.89	13.043
738.21	13.652
738.52	17.143
738.83	9.434
739.15	10.769
739.46	14.964
739.78	13.542
740.09	11.692
740.41	13.871
740.72	11.150
741.04	11.481
741.35	11.667
741.66	18.222
741.98	10.377
742.29	15.789
742.61	18.534
742.92	13.122
743.23	16.239
743.55	15.200
743.86	11.404
744.18	14.159
744.49	19.139
744.80	17.840
745.12	18.636
745.43	14.097
745.74	15.315
746.06	11.009
746.37	11.659
746.68	18.552
747.00	17.130
747.31	10.000
747.62	12.832
747.94	9.692
748.25	11.064
748.56	17.181
748.88	8.416
749.19	16.500
749.50	13.488
749.82	15.447
750.13	9.388
750.44	13.139
750.75	11.579
751.07	18.328
751.38	14.983
751.69	11.913
752.01	12.782
752.32	13.357
752.63	12.766
752.94	8.197
753.26	21.600
753.57	11.789
753.88	15.234
754.19	11.429
754.51	16.667
754.82	10.830
755.13	12.075
755.44	13.910
755.75	10.949
756.07	14.539
756.38	5.839
756.69	11.409
757.00	9.880
757.31	12.463
757.63	9.357
757.94	8.847
758.25	10.049
758.56	8.642
758.87	9.677
759.18	10.303
759.50	10.972
759.81	12.150
760.12	10.625
760.43	14.613
760.74	11.141
761.05	9.040
761.36	8.824
761.67	9.659
761.99	9.317
762.30	7.639
762.61	12.977
762.92	11.328
763.23	15.546
763.54	18.400
763.85	14.844
764.16	12.692
764.47	14.068
764.78	11.661
765.10	7.595
765.41	10.029
765.72	12.874
766.03	10.345
766.34	12.667
766.65	15.319
766.96	17.521
767.27	13.706
767.58	19.271
767.89	21.579
768.20	17.241
768.51	14.721
768.82	17.890
769.13	10.163
769.44	12.146
769.75	13.734
770.06	10.092
770.37	18.100
770.68	17.593
770.99	16.889
771.30	13.115
771.61	14.350
771.92	12.295
772.23	19.328
772.54	11.282
772.85	20.419
773.16	19.681
773.47	15.217
773.78	21.827
774.09	19.643
774.39	19.298
774.70	24.074
775.01	19.565
775.32	21.569
775.63	21.711
775.94	18.705
776.25	29.134
776.56	23.881
776.87	29.508
777.18	22.656
777.48	31.298
777.79	25.758
778.10	19.259
778.41	19.643
778.72	16.788
779.03	19.463
779.34	28.188
779.65	14.865
779.95	22.086
780.26	18.954
780.57	24.138
780.88	32.031
781.19	24.060
781.50	25.676
781.80	16.352
782.11	13.559
782.42	6.962
782.73	12.883
783.04	20.270
783.34	25.352
783.65	26.027
783.96	22.388
784.27	25.175
784.57	21.583
784.88	13.889
785.19	33.333
785.50	17.925
785.81	32.090
786.11	29.508
786.42	26.357
786.73	15.044
787.04	25.472
787.34	33.036
787.65	28.000
787.96	27.027
788.26	19.008
788.57	27.966
788.88	29.752
789.19	29.167
789.49	30.303
789.80	21.374
790.11	40.000
790.41	34.653
790.72	33.735
791.03	38.043
791.33	36.047
791.64	38.144
791.95	37.624
792.25	34.444
792.56	33.766
792.87	44.872
793.17	46.835
793.48	35.632
793.79	33.333
794.09	36.364
794.40	26.050
794.70	36.029
795.01	22.222
795.32	20.863
795.62	24.409
795.93	34.483
796.23	29.204
796.54	23.529
796.85	28.378
797.15	40.845
797.46	39.394
797.76	34.940
798.07	41.772
798.37	24.615
798.68	43.939
798.99	26.761
799.29	36.364
799.60	32.955
799.90	49.315
800.21	37.313
800.51	43.103
800.82	38.596
801.12	39.344
801.43	46.970
801.73	32.432
802.04	46.032
802.34	48.148
802.65	34.375
802.95	59.322
803.26	45.312
803.56	34.286
803.87	30.769
804.17	41.176
804.48	59.259
804.78	34.483
805.09	54.412
805.39	46.154
805.70	32.143
806.00	63.934
806.30	34.848
806.61	45.122
806.91	30.380
807.22	40.789
807.52	28.358
807.83	46.479
808.13	57.813
808.43	58.333
808.74	44.737
809.04	28.986
809.35	53.731
809.65	35.526
809.95	62.903
810.26	52.542
810.56	52.381
810.86	72.727
811.17	80.952
811.47	55.000
811.77	61.111
812.08	52.727
812.38	54.000
812.69	83.333
812.99	79.545
813.29	71.429
813.59	26.190
813.90	69.388
814.20	38.182
814.50	43.077
814.81	69.118
815.11	57.143
815.41	73.770
815.72	83.333
816.02	65.455
816.32	66.667
816.62	45.000
816.93	51.220
817.23	73.810
817.53	88.636
817.84	78.788
818.14	54.348
818.44	71.111
818.74	85.294
819.04	90.000
819.35	68.571
819.65	70.588
819.95	82.143
820.25	80.000
820.56	97.436
820.86	79.545
821.16	62.791
821.46	61.538
821.76	84.000
822.07	57.143
822.37	82.500
822.67	93.939
822.97	74.510
823.27	85.714
823.57	59.459
823.88	112.500
824.18	106.667
824.48	71.429
824.78	120.000
825.08	50.000
825.38	45.946
825.69	58.537
825.99	150.000
826.29	55.172
826.59	121.053
826.89	68.421
827.19	100.000
827.49	96.774
827.79	111.364
828.09	84.091
828.39	74.468
828.70	67.347
829.00	96.296
829.30	51.613
829.60	85.000
829.90	106.667
830.20	67.857
830.50	100.000
830.80	126.087
831.10	83.333
831.40	83.333
831.70	108.696
832.00	123.077
832.30	85.185
832.60	193.750
832.90	140.000
833.20	278.571
833.50	135.484
833.80	82.759
834.10	112.500
834.40	103.846
834.70	150.000
835.00	200.000
835.30	117.143
835.60	115.385
835.90	120.690
836.20	214.286
836.50	96.552
836.80	108.000
837.10	105.556
837.40	114.286
837.70	141.176
838.00	118.519
838.30	104.762
838.60	161.905
838.90	107.692
839.19	135.000
839.49	185.714
839.79	175.000
840.09	115.000
840.39	90.476
840.69	91.304
840.99	133.333
841.29	160.000
841.59	66.667
841.88	162.500
842.18	96.552
842.48	142.857
842.78	96.667
843.08	100.000
843.38	81.250
843.68	283.333
843.97	126.923
844.27	100.000
844.57	138.095
844.87	175.000
845.17	133.333
845.47	500.000
845.76	166.667
846.06	129.412
846.36	275.000
846.66	242.857
846.96	131.250
847.25	100.000
847.55	163.636
847.85	130.435
848.15	330.000
848.44	164.286
848.74	111.111
849.04	105.882
849.34	250.000
849.63	68.421
849.93	327.273
850.23	400.000
850.53	185.714
850.82	1050.000
851.12	-1800.000
851.42	3100.000
851.71	145.000
852.01	-266.667
852.31	104.167
852.61	733.333
852.90	147.619
853.20	152.000
853.50	164.706
853.79	133.333
854.09	120.833
854.39	193.750
854.68	94.595
854.98	96.774
855.28	120.000
855.57	113.793
855.87	118.519
856.17	131.579
856.46	120.000
856.76	135.294
857.05	96.552
857.35	125.000
857.65	186.667
857.94	152.174
858.24	115.385
858.53	190.000
858.83	168.182
859.13	186.667
859.42	0.000
859.72	322.222
860.01	181.818
860.31	140.909
860.60	115.789
860.90	126.087
861.20	377.778
861.49	391.667
861.79	-2400.000
862.08	250.000
862.38	195.238
862.67	115.385
862.97	182.353
863.26	300.000
863.56	166.667
863.85	191.667
864.15	375.000
864.44	213.333
864.74	400.000
865.03	262.500
865.33	173.684
865.62	236.364
865.92	246.154
866.21	150.000
866.51	0.000
866.80	254.545
867.10	660.000
867.39	215.385
867.69	227.273
867.98	157.895
868.27	236.364
868.57	173.684
868.86	-2600.000
869.16	237.500
869.45	1350.000
869.75	-1300.000
870.04	283.333
870.33	357.143
870.63	350.000
870.92	1200.000
871.22	242.857
871.51	229.412
871.80	104.762
872.10	185.714
>>>>>End Processed Spectral Data<<<<<
