SpectraSuite Data File
++++++++++++++++++++++++++++++++++++
Date: Wed May 13 16:32:24 PDT 2015
User: schluterlab
Dark Spectrum Present: Yes
Reference Spectrum Present: Yes
Number of Sampled Component Spectra: 1
Spectrometers: USB2E3373
Integration Time (usec): 3000 (USB2E3373)
Spectra Averaged: 3 (USB2E3373)
Boxcar Smoothing: 0 (USB2E3373)
Correct for Electrical Dark: No (USB2E3373)
Strobe/Lamp Enabled: No (USB2E3373)
Correct for Detector Non-linearity: No (USB2E3373)
Correct for Stray Light: No (USB2E3373)
Number of Pixels in Processed Spectrum: 2048
>>>>>Begin Processed Spectral Data<<<<<
178.53	0.000
178.91	-1075.000
179.29	-1150.000
179.67	-200.000
180.04	-925.000
180.42	2350.000
180.80	1060.000
181.18	-975.000
181.56	642.857
181.94	0.000
182.31	-628.571
182.69	1500.000
183.07	-437.500
183.45	-455.556
183.83	536.364
184.20	-420.000
184.58	2000.000
184.96	5300.000
185.34	-680.000
185.72	-362.500
186.09	-2250.000
186.47	2400.000
186.85	2150.000
187.23	4700.000
187.61	-1433.333
187.98	1525.000
188.36	509.091
188.74	609.091
189.12	-840.000
189.49	450.000
189.87	-3700.000
190.25	-900.000
190.63	392.857
191.00	392.308
191.38	700.000
191.76	-850.000
192.14	1200.000
192.51	562.500
192.89	1050.000
193.27	575.000
193.65	-1100.000
194.02	440.000
194.40	760.000
194.78	440.000
195.15	508.333
195.53	550.000
195.91	-2650.000
196.29	306.250
196.66	305.263
197.04	-390.000
197.42	0.000
197.79	610.000
198.17	-5400.000
198.55	828.571
198.92	625.000
199.30	760.000
199.68	0.000
200.05	316.667
200.43	771.429
200.81	4800.000
201.18	1500.000
201.56	-1500.000
201.94	466.667
202.31	600.000
202.69	383.333
203.07	520.000
203.44	0.000
203.82	1325.000
204.19	728.571
204.57	442.857
204.95	575.000
205.32	1700.000
205.70	454.545
206.08	307.143
206.45	2450.000
206.83	325.000
207.20	916.667
207.58	620.000
207.96	366.667
208.33	625.000
208.71	-666.667
209.08	628.571
209.46	488.889
209.84	545.455
210.21	-1433.333
210.59	1375.000
210.96	-500.000
211.34	2600.000
211.71	630.000
212.09	683.333
212.46	0.000
212.84	1766.667
213.22	1250.000
213.59	-3800.000
213.97	833.333
214.34	814.286
214.72	581.818
215.09	1000.000
215.47	-2050.000
215.84	-2350.000
216.22	1900.000
216.59	407.143
216.97	1250.000
217.34	436.364
217.72	-666.667
218.09	0.000
218.47	-4800.000
218.84	577.778
219.22	785.714
219.59	1500.000
219.97	-542.857
220.34	760.000
220.72	-1800.000
221.09	471.429
221.47	1375.000
221.84	-783.333
222.22	0.000
222.59	1525.000
222.97	-2650.000
223.34	1100.000
223.72	415.385
224.09	1060.000
224.46	1750.000
224.84	-5100.000
225.21	-860.000
225.59	-4300.000
225.96	460.000
226.34	285.000
226.71	2550.000
227.08	550.000
227.46	580.000
227.83	-925.000
228.21	-2100.000
228.58	655.556
228.95	-2850.000
229.33	-1800.000
229.70	1733.333
230.08	671.429
230.45	-860.000
230.82	416.667
231.20	783.333
231.57	614.286
231.95	433.333
232.32	245.455
232.69	400.000
233.07	600.000
233.44	361.538
233.81	-1633.333
234.19	363.158
234.56	433.333
234.93	416.667
235.31	418.182
235.68	338.462
236.05	357.143
236.43	175.758
236.80	294.737
237.17	4000.000
237.55	276.190
237.92	217.857
238.29	261.905
238.67	180.645
239.04	213.793
239.41	163.889
239.79	121.739
240.16	166.667
240.53	159.091
240.91	105.882
241.28	106.000
241.65	128.000
242.02	102.899
242.40	109.677
242.77	106.667
243.14	86.022
243.51	101.124
243.89	84.706
244.26	90.000
244.63	81.720
245.00	89.362
245.38	74.257
245.75	78.505
246.12	66.972
246.49	75.182
246.87	88.800
247.24	77.692
247.61	65.000
247.98	64.052
248.36	65.541
248.73	62.420
249.10	70.701
249.47	64.407
249.84	60.963
250.22	55.615
250.59	58.580
250.96	62.121
251.33	53.555
251.70	65.347
252.08	57.619
252.45	51.570
252.82	56.087
253.19	57.447
253.56	48.627
253.94	50.207
254.31	56.250
254.68	54.231
255.05	50.185
255.42	57.724
255.79	52.941
256.16	51.986
256.54	51.943
256.91	50.178
257.28	49.640
257.65	48.845
258.02	50.311
258.39	46.372
258.76	47.826
259.14	49.702
259.51	44.985
259.88	44.410
260.25	50.755
260.62	47.688
260.99	45.031
261.36	49.249
261.73	46.418
262.10	47.384
262.47	47.606
262.85	44.290
263.22	43.590
263.59	47.293
263.96	48.352
264.33	44.125
264.70	45.263
265.07	45.524
265.44	45.202
265.81	39.903
266.18	47.236
266.55	46.341
266.92	43.980
267.29	45.602
267.66	43.119
268.03	43.182
268.40	43.224
268.77	43.437
269.14	43.468
269.51	44.470
269.88	45.921
270.25	41.084
270.62	44.494
270.99	42.796
271.36	43.991
271.73	44.159
272.10	41.522
272.47	44.086
272.84	42.424
273.21	42.767
273.58	41.921
273.95	41.509
274.32	39.669
274.69	42.398
275.06	42.717
275.43	42.340
275.80	41.884
276.17	40.122
276.54	44.491
276.91	42.490
277.28	40.820
277.65	39.845
278.02	40.994
278.39	41.016
278.76	38.545
279.13	42.642
279.50	40.596
279.87	40.837
280.23	40.719
280.60	37.718
280.97	39.926
281.34	41.593
281.71	41.091
282.08	41.459
282.45	39.636
282.82	40.675
283.19	38.503
283.56	38.947
283.92	39.763
284.29	39.683
284.66	40.472
285.03	39.783
285.40	39.613
285.77	38.721
286.14	38.515
286.51	40.333
286.87	39.658
287.24	37.785
287.61	36.597
287.98	38.149
288.35	36.292
288.72	36.760
289.08	35.524
289.45	39.044
289.82	36.748
290.19	36.107
290.56	34.456
290.93	36.405
291.29	36.350
291.66	36.873
292.03	37.936
292.40	36.123
292.77	33.284
293.13	36.866
293.50	34.257
293.87	37.037
294.24	34.519
294.60	34.061
294.97	33.576
295.34	36.530
295.71	34.801
296.08	32.336
296.44	34.250
296.81	34.346
297.18	34.959
297.55	34.037
297.91	34.169
298.28	34.806
298.65	33.943
299.02	36.364
299.38	34.130
299.75	32.345
300.12	33.333
300.48	34.500
300.85	32.799
301.22	34.777
301.59	33.333
301.95	33.123
302.32	32.478
302.69	34.528
303.05	32.121
303.42	34.321
303.79	33.182
304.15	32.517
304.52	32.793
304.89	31.707
305.25	33.063
305.62	34.088
305.99	33.884
306.35	34.004
306.72	35.426
307.09	33.407
307.45	35.023
307.82	33.259
308.19	33.775
308.55	35.383
308.92	34.694
309.29	33.580
309.65	33.828
310.02	33.298
310.38	33.978
310.75	35.269
311.12	34.596
311.48	34.796
311.85	36.478
312.22	35.068
312.58	35.655
312.95	36.853
313.31	35.146
313.68	36.486
314.05	38.955
314.41	36.583
314.78	37.563
315.14	36.743
315.51	36.354
315.87	37.228
316.24	35.948
316.61	37.329
316.97	38.356
317.34	35.421
317.70	39.101
318.07	38.691
318.43	40.020
318.80	40.206
319.16	39.171
319.53	38.931
319.89	40.000
320.26	41.000
320.62	40.377
320.99	42.222
321.35	40.000
321.72	43.224
322.08	43.040
322.45	44.577
322.81	43.702
323.18	45.472
323.54	44.434
323.91	45.377
324.27	47.323
324.64	46.785
325.00	46.979
325.37	48.954
325.73	50.180
326.10	50.309
326.46	49.821
326.83	50.302
327.19	50.897
327.56	51.655
327.92	52.931
328.29	54.392
328.65	53.775
329.01	52.527
329.38	55.967
329.74	53.555
330.11	55.137
330.47	55.005
330.84	55.607
331.20	55.009
331.56	55.138
331.93	56.111
332.29	56.078
332.66	54.336
333.02	56.399
333.38	56.007
333.75	56.684
334.11	55.160
334.48	56.256
334.84	56.526
335.20	57.455
335.57	55.394
335.93	54.286
336.29	55.678
336.66	55.906
337.02	56.018
337.38	56.389
337.75	54.724
338.11	55.953
338.47	56.262
338.84	55.729
339.20	56.147
339.56	57.664
339.93	55.909
340.29	55.616
340.65	55.526
341.02	54.887
341.38	57.206
341.74	55.000
342.11	55.633
342.47	55.330
342.83	54.623
343.20	55.411
343.56	53.665
343.92	56.667
344.28	55.442
344.65	55.976
345.01	55.387
345.37	54.117
345.73	54.738
346.10	54.390
346.46	54.068
346.82	54.613
347.19	54.637
347.55	53.530
347.91	54.531
348.27	56.122
348.63	54.682
349.00	53.883
349.36	56.732
349.72	54.050
350.08	53.971
350.45	56.469
350.81	54.509
351.17	54.781
351.53	54.627
351.89	54.043
352.26	54.854
352.62	53.889
352.98	54.700
353.34	54.889
353.70	54.910
354.07	54.113
354.43	54.286
354.79	54.224
355.15	55.227
355.51	56.675
355.87	55.184
356.24	55.537
356.60	54.050
356.96	56.798
357.32	55.274
357.68	55.354
358.04	54.869
358.40	55.186
358.77	55.634
359.13	54.775
359.49	55.294
359.85	55.714
360.21	54.147
360.57	55.486
360.93	54.615
361.29	55.480
361.66	54.489
362.02	56.567
362.38	55.437
362.74	55.655
363.10	54.626
363.46	54.806
363.82	55.556
364.18	54.626
364.54	56.018
364.90	56.374
365.26	58.382
365.62	57.049
365.98	56.903
366.35	56.519
366.71	56.471
367.07	56.664
367.43	57.547
367.79	57.459
368.15	57.112
368.51	57.267
368.87	58.315
369.23	58.230
369.59	59.450
369.95	57.426
370.31	57.621
370.67	58.188
371.03	58.951
371.39	57.289
371.75	58.162
372.11	56.188
372.47	60.484
372.83	57.781
373.19	59.249
373.55	59.202
373.91	61.046
374.27	58.144
374.63	60.655
374.99	59.110
375.35	58.897
375.71	58.944
376.07	59.465
376.42	61.073
376.78	61.564
377.14	59.430
377.50	60.927
377.86	59.907
378.22	61.631
378.58	59.586
378.94	61.911
379.30	60.941
379.66	62.310
380.02	61.302
380.38	62.052
380.74	62.425
381.09	63.814
381.45	62.815
381.81	63.575
382.17	62.611
382.53	63.082
382.89	64.568
383.25	64.415
383.61	65.551
383.97	64.103
384.32	64.130
384.68	64.994
385.04	64.290
385.40	64.768
385.76	64.189
386.12	65.350
386.48	65.702
386.83	67.736
387.19	65.986
387.55	66.234
387.91	66.868
388.27	65.113
388.62	67.179
388.98	65.909
389.34	68.085
389.70	67.014
390.06	66.350
390.42	68.353
390.77	67.176
391.13	69.879
391.49	68.338
391.85	68.300
392.20	67.571
392.56	68.687
392.92	67.981
393.28	67.633
393.64	67.986
393.99	67.563
394.35	68.672
394.71	67.189
395.07	68.723
395.42	69.716
395.78	69.020
396.14	67.349
396.50	70.301
396.85	70.248
397.21	67.509
397.57	68.444
397.92	69.411
398.28	68.666
398.64	67.324
399.00	68.607
399.35	68.020
399.71	67.650
400.07	69.840
400.42	70.798
400.78	69.662
401.14	70.366
401.49	69.493
401.85	69.087
402.21	69.820
402.57	70.080
402.92	69.924
403.28	70.144
403.63	69.802
403.99	71.592
404.35	69.273
404.70	69.305
405.06	68.725
405.42	70.742
405.77	70.114
406.13	67.269
406.49	68.539
406.84	68.163
407.20	69.444
407.55	70.262
407.91	71.400
408.27	70.262
408.62	68.633
408.98	70.098
409.34	70.541
409.69	71.032
410.05	69.827
410.40	70.214
410.76	69.713
411.11	68.456
411.47	69.393
411.83	70.373
412.18	69.326
412.54	70.859
412.89	69.217
413.25	69.717
413.60	70.290
413.96	68.549
414.31	69.320
414.67	70.406
415.03	71.589
415.38	70.039
415.74	69.453
416.09	70.869
416.45	71.084
416.80	70.522
417.16	70.777
417.51	70.737
417.87	70.970
418.22	71.987
418.58	71.853
418.93	70.147
419.29	71.165
419.64	70.718
420.00	69.939
420.35	70.319
420.71	71.309
421.06	71.122
421.42	70.526
421.77	71.132
422.12	71.870
422.48	70.318
422.83	70.879
423.19	71.492
423.54	71.097
423.90	70.435
424.25	70.854
424.61	70.536
424.96	72.070
425.31	70.155
425.67	69.551
426.02	71.543
426.38	73.199
426.73	71.445
427.09	71.307
427.44	72.685
427.79	71.708
428.15	72.619
428.50	72.791
428.85	72.348
429.21	71.728
429.56	73.924
429.92	72.018
430.27	71.648
430.62	71.019
430.98	70.939
431.33	70.876
431.68	71.990
432.04	70.341
432.39	71.274
432.74	71.933
433.10	73.175
433.45	73.469
433.80	72.727
434.16	72.917
434.51	70.842
434.86	71.893
435.22	72.707
435.57	73.070
435.92	72.791
436.28	75.030
436.63	72.406
436.98	73.440
437.34	72.987
437.69	72.229
438.04	72.232
438.39	73.552
438.75	73.446
439.10	73.687
439.45	73.081
439.81	72.931
440.16	71.485
440.51	73.697
440.86	72.554
441.22	72.080
441.57	72.346
441.92	73.030
442.27	72.121
442.63	71.617
442.98	73.803
443.33	72.500
443.68	72.173
444.03	72.670
444.39	72.833
444.74	74.567
445.09	72.507
445.44	72.717
445.79	72.489
446.15	72.049
446.50	72.321
446.85	73.176
447.20	72.514
447.55	73.143
447.91	74.462
448.26	73.957
448.61	74.505
448.96	74.197
449.31	74.916
449.66	72.876
450.02	73.092
450.37	73.469
450.72	74.224
451.07	73.370
451.42	73.009
451.77	74.281
452.12	73.557
452.47	73.010
452.83	75.350
453.18	73.227
453.53	74.830
453.88	74.011
454.23	74.178
454.58	74.319
454.93	74.317
455.28	74.065
455.63	72.633
455.98	75.357
456.34	73.492
456.69	74.953
457.04	74.861
457.39	73.758
457.74	73.476
458.09	74.698
458.44	74.458
458.79	72.505
459.14	73.476
459.49	74.489
459.84	72.022
460.19	73.718
460.54	72.627
460.89	73.944
461.24	74.013
461.59	74.375
461.94	72.565
462.29	74.659
462.64	72.814
462.99	73.390
463.34	73.933
463.69	74.922
464.04	72.406
464.39	72.058
464.74	73.024
465.09	73.945
465.44	73.241
465.79	72.204
466.14	71.976
466.49	72.080
466.84	73.380
467.19	71.635
467.54	72.688
467.89	72.449
468.24	72.484
468.59	72.833
468.94	72.327
469.29	72.429
469.64	74.565
469.99	74.560
470.34	72.985
470.68	74.425
471.03	72.177
471.38	75.539
471.73	72.885
472.08	75.395
472.43	73.492
472.78	74.128
473.13	72.914
473.48	72.222
473.83	74.268
474.17	72.246
474.52	74.504
474.87	73.205
475.22	73.070
475.57	71.521
475.92	73.765
476.27	71.533
476.61	72.201
476.96	73.557
477.31	72.318
477.66	72.538
478.01	71.040
478.36	72.924
478.70	71.703
479.05	73.216
479.40	72.108
479.75	73.106
480.10	71.869
480.45	71.728
480.79	70.807
481.14	72.945
481.49	71.903
481.84	71.605
482.19	72.058
482.53	71.193
482.88	70.824
483.23	72.150
483.58	71.884
483.92	72.071
484.27	69.325
484.62	72.716
484.97	70.556
485.31	72.568
485.66	71.927
486.01	69.344
486.36	66.001
486.70	64.733
487.05	65.201
487.40	67.390
487.75	67.935
488.09	68.426
488.44	68.779
488.79	70.669
489.13	70.168
489.48	70.432
489.83	70.565
490.17	71.767
490.52	70.018
490.87	70.330
491.22	70.487
491.56	70.296
491.91	71.336
492.26	70.280
492.60	70.553
492.95	69.270
493.30	69.252
493.64	70.275
493.99	70.009
494.34	70.352
494.68	70.101
495.03	69.596
495.37	69.335
495.72	70.419
496.07	70.673
496.41	68.805
496.76	69.437
497.11	68.663
497.45	69.306
497.80	69.194
498.14	69.565
498.49	69.024
498.84	69.655
499.18	69.857
499.53	68.756
499.87	69.199
500.22	68.865
500.56	69.369
500.91	69.471
501.26	67.520
501.60	70.527
501.95	67.278
502.29	70.431
502.64	69.693
502.98	67.321
503.33	68.144
503.67	68.260
504.02	67.399
504.36	68.320
504.71	68.930
505.06	67.807
505.40	68.255
505.75	67.454
506.09	68.270
506.44	70.054
506.78	69.508
507.13	69.914
507.47	69.596
507.82	69.605
508.16	69.200
508.51	70.167
508.85	66.832
509.19	69.490
509.54	68.571
509.88	68.934
510.23	68.843
510.57	69.608
510.92	68.514
511.26	68.191
511.61	68.309
511.95	67.484
512.30	68.399
512.64	69.586
512.98	68.221
513.33	68.255
513.67	68.356
514.02	68.290
514.36	68.214
514.70	67.239
515.05	68.042
515.39	68.480
515.74	69.369
516.08	67.244
516.42	68.424
516.77	68.952
517.11	67.758
517.46	67.889
517.80	68.873
518.14	67.111
518.49	69.545
518.83	68.295
519.17	68.187
519.52	69.100
519.86	68.454
520.20	68.613
520.55	69.001
520.89	69.951
521.23	68.697
521.58	67.887
521.92	68.953
522.26	66.992
522.61	70.530
522.95	68.017
523.29	68.107
523.64	68.354
523.98	69.809
524.32	66.948
524.66	68.370
525.01	67.341
525.35	67.968
525.69	66.133
526.04	66.604
526.38	67.114
526.72	68.221
527.06	67.922
527.41	65.903
527.75	68.167
528.09	68.337
528.43	67.495
528.78	67.548
529.12	66.727
529.46	67.361
529.80	66.894
530.15	66.604
530.49	65.231
530.83	65.823
531.17	67.885
531.51	68.807
531.86	67.613
532.20	67.536
532.54	66.624
532.88	66.945
533.22	66.084
533.57	65.617
533.91	65.081
534.25	65.492
534.59	65.650
534.93	64.961
535.27	65.238
535.62	66.361
535.96	66.729
536.30	65.989
536.64	65.229
536.98	66.755
537.32	65.438
537.66	65.800
538.01	65.701
538.35	65.352
538.69	66.114
539.03	64.457
539.37	63.898
539.71	63.837
540.05	65.098
540.39	66.711
540.73	64.877
541.07	65.282
541.42	66.667
541.76	64.839
542.10	64.424
542.44	65.099
542.78	64.427
543.12	62.828
543.46	64.721
543.80	65.062
544.14	63.350
544.48	63.429
544.82	64.015
545.16	64.281
545.50	63.368
545.84	64.718
546.18	63.838
546.52	64.831
546.86	65.155
547.20	64.531
547.54	63.527
547.88	62.628
548.22	62.578
548.56	62.830
548.90	62.676
549.24	63.704
549.58	64.870
549.92	64.354
550.26	64.986
550.60	64.661
550.94	63.169
551.28	62.911
551.62	63.480
551.96	64.211
552.30	63.345
552.64	63.827
552.98	64.000
553.32	62.980
553.66	63.054
554.00	63.967
554.34	61.767
554.68	64.235
555.02	63.611
555.36	62.491
555.69	61.976
556.03	62.180
556.37	62.074
556.71	61.255
557.05	62.255
557.39	62.281
557.73	63.232
558.07	64.032
558.41	63.748
558.75	63.997
559.08	63.162
559.42	64.021
559.76	63.382
560.10	62.170
560.44	61.635
560.78	61.544
561.12	61.609
561.45	61.278
561.79	62.755
562.13	62.441
562.47	63.525
562.81	64.156
563.15	60.134
563.48	61.737
563.82	62.753
564.16	61.216
564.50	60.872
564.84	60.177
565.17	61.004
565.51	59.936
565.85	60.406
566.19	60.301
566.52	61.558
566.86	58.710
567.20	60.908
567.54	61.016
567.88	58.990
568.21	60.265
568.55	58.797
568.89	59.630
569.23	57.665
569.56	57.449
569.90	57.170
570.24	56.728
570.57	56.987
570.91	55.301
571.25	54.540
571.59	55.052
571.92	54.579
572.26	54.795
572.60	56.096
572.93	54.333
573.27	55.191
573.61	55.388
573.95	55.271
574.28	53.894
574.62	53.790
574.96	53.381
575.29	53.565
575.63	53.430
575.97	53.372
576.30	53.956
576.64	53.677
576.98	53.500
577.31	53.789
577.65	53.464
577.98	52.975
578.32	52.701
578.66	52.285
578.99	53.230
579.33	53.111
579.67	52.274
580.00	53.057
580.34	53.441
580.67	53.132
581.01	52.890
581.35	53.058
581.68	52.780
582.02	51.793
582.35	52.477
582.69	52.492
583.02	52.459
583.36	53.009
583.70	53.197
584.03	53.187
584.37	53.992
584.70	53.527
585.04	52.838
585.37	52.819
585.71	52.702
586.04	53.080
586.38	53.710
586.72	53.853
587.05	52.839
587.39	52.137
587.72	52.358
588.06	53.255
588.39	52.346
588.73	53.183
589.06	54.222
589.40	54.545
589.73	54.241
590.07	53.950
590.40	53.782
590.73	54.411
591.07	54.660
591.40	54.829
591.74	55.887
592.07	54.232
592.41	55.023
592.74	53.296
593.08	53.398
593.41	52.768
593.75	51.843
594.08	51.861
594.41	53.164
594.75	53.715
595.08	52.720
595.42	52.750
595.75	53.205
596.09	53.211
596.42	53.399
596.75	54.833
597.09	54.502
597.42	52.909
597.75	54.377
598.09	52.652
598.42	53.737
598.76	53.223
599.09	53.022
599.42	52.875
599.76	51.757
600.09	52.313
600.42	51.278
600.76	51.643
601.09	52.386
601.42	52.702
601.76	52.220
602.09	52.055
602.42	53.861
602.76	53.849
603.09	53.265
603.42	53.299
603.76	52.172
604.09	52.113
604.42	52.915
604.76	53.480
605.09	52.818
605.42	52.715
605.75	53.022
606.09	52.094
606.42	54.025
606.75	52.426
607.09	51.779
607.42	52.118
607.75	51.688
608.08	51.455
608.42	52.667
608.75	52.254
609.08	52.313
609.41	51.642
609.75	52.072
610.08	52.828
610.41	53.026
610.74	53.784
611.07	53.656
611.41	53.484
611.74	54.047
612.07	53.675
612.40	54.355
612.73	53.632
613.07	53.610
613.40	53.555
613.73	52.543
614.06	54.247
614.39	52.910
614.72	52.684
615.06	51.418
615.39	51.752
615.72	52.198
616.05	51.994
616.38	53.029
616.71	54.097
617.05	54.653
617.38	53.999
617.71	54.114
618.04	55.048
618.37	53.400
618.70	54.947
619.03	54.145
619.36	54.243
619.69	55.211
620.03	54.876
620.36	54.880
620.69	55.685
621.02	55.162
621.35	55.599
621.68	55.530
622.01	56.424
622.34	55.219
622.67	55.894
623.00	54.659
623.33	55.182
623.66	53.824
623.99	55.302
624.32	53.709
624.65	54.590
624.99	54.462
625.32	54.526
625.65	55.372
625.98	56.649
626.31	55.910
626.64	56.571
626.97	56.941
627.30	55.445
627.63	56.768
627.96	57.611
628.29	55.993
628.62	58.005
628.95	58.962
629.28	57.117
629.61	57.654
629.94	59.238
630.26	56.625
630.59	57.102
630.92	58.429
631.25	57.453
631.58	57.057
631.91	58.316
632.24	58.228
632.57	58.552
632.90	58.443
633.23	59.843
633.56	60.678
633.89	59.230
634.22	58.910
634.55	60.237
634.88	59.641
635.20	59.498
635.53	59.639
635.86	61.757
636.19	58.235
636.52	59.054
636.85	59.336
637.18	58.065
637.51	59.338
637.83	57.953
638.16	60.870
638.49	58.690
638.82	59.924
639.15	58.750
639.48	58.853
639.81	62.466
640.13	60.026
640.46	60.000
640.79	60.238
641.12	56.671
641.45	60.615
641.77	61.708
642.10	61.988
642.43	61.712
642.76	63.932
643.09	62.423
643.41	60.395
643.74	63.580
644.07	60.823
644.40	63.497
644.73	61.417
645.05	61.965
645.38	62.401
645.71	61.836
646.04	63.123
646.36	63.439
646.69	62.709
647.02	62.585
647.35	64.089
647.67	64.425
648.00	61.463
648.33	61.221
648.66	59.697
648.98	62.669
649.31	60.987
649.64	59.492
649.96	58.420
650.29	61.295
650.62	58.091
650.94	61.588
651.27	64.020
651.60	62.895
651.92	60.863
652.25	60.098
652.58	59.034
652.90	62.717
653.23	57.935
653.56	59.843
653.88	60.063
654.21	60.348
654.54	59.406
654.86	60.125
655.19	56.486
655.52	43.933
655.84	41.767
656.17	52.917
656.49	70.581
656.82	70.404
657.15	53.367
657.47	39.206
657.80	30.435
658.13	32.162
658.45	47.758
658.78	47.661
659.10	49.181
659.43	51.055
659.75	53.819
660.08	56.772
660.41	62.570
660.73	65.057
661.06	64.172
661.38	65.091
661.71	64.423
662.03	66.075
662.36	59.046
662.68	60.643
663.01	65.253
663.33	64.119
663.66	63.235
663.98	64.147
664.31	61.765
664.63	60.121
664.96	61.972
665.28	64.344
665.61	61.209
665.93	62.173
666.26	63.489
666.58	65.690
666.91	63.636
667.23	64.719
667.56	60.043
667.88	65.812
668.21	65.245
668.53	62.690
668.86	60.823
669.18	63.113
669.50	63.261
669.83	62.745
670.15	66.667
670.48	61.438
670.80	65.302
671.13	66.454
671.45	61.489
671.77	61.711
672.10	59.889
672.42	59.717
672.75	57.214
673.07	60.211
673.39	59.494
673.72	60.352
674.04	60.000
674.37	61.942
674.69	61.350
675.01	59.623
675.34	64.476
675.66	66.105
675.98	62.322
676.31	61.765
676.63	61.996
676.95	62.264
677.28	63.318
677.60	61.099
677.92	62.236
678.25	60.780
678.57	60.159
678.89	61.323
679.22	58.546
679.54	60.878
679.86	61.101
680.18	60.107
680.51	59.220
680.83	57.473
681.15	60.755
681.48	58.412
681.80	61.702
682.12	62.069
682.44	60.155
682.77	59.878
683.09	64.807
683.41	58.980
683.73	62.693
684.06	60.950
684.38	59.100
684.70	60.659
685.02	59.662
685.34	57.326
685.67	54.895
685.99	56.357
686.31	57.679
686.63	57.951
686.96	58.571
687.28	55.596
687.60	56.884
687.92	59.598
688.24	58.935
688.56	61.245
688.89	63.071
689.21	65.284
689.53	58.664
689.85	61.419
690.17	55.694
690.49	60.085
690.82	62.383
691.14	57.589
691.46	56.540
691.78	63.253
692.10	58.058
692.42	58.683
692.74	60.788
693.06	60.426
693.39	60.986
693.71	64.629
694.03	57.263
694.35	60.173
694.67	57.895
694.99	62.439
695.31	62.010
695.63	59.091
695.95	66.748
696.27	62.437
696.59	63.472
696.91	65.544
697.23	55.634
697.56	60.341
697.88	54.192
698.20	57.708
698.52	59.570
698.84	58.797
699.16	60.829
699.48	60.808
699.80	62.802
700.12	66.494
700.44	66.313
700.76	61.050
701.08	63.218
701.40	61.732
701.72	65.306
702.04	68.466
702.36	62.890
702.68	62.606
703.00	62.604
703.32	60.106
703.64	61.394
703.96	63.510
704.28	67.442
704.60	67.155
704.91	67.359
705.23	65.396
705.55	68.106
705.87	74.086
706.19	68.198
706.51	61.994
706.83	66.970
707.15	63.025
707.47	60.354
707.79	61.179
708.11	58.219
708.43	58.095
708.74	59.694
709.06	61.558
709.38	59.843
709.70	64.535
710.02	65.282
710.34	63.333
710.66	66.269
710.98	62.500
711.29	62.209
711.61	64.602
711.93	61.218
712.25	68.810
712.57	69.853
712.89	68.166
713.20	62.614
713.52	65.132
713.84	64.557
714.16	62.500
714.48	58.333
714.80	67.477
715.11	63.112
715.43	59.941
715.75	62.029
716.07	66.134
716.39	63.009
716.70	66.445
717.02	65.827
717.34	65.724
717.66	67.164
717.97	70.120
718.29	64.815
718.61	71.533
718.93	65.441
719.24	68.166
719.56	66.780
719.88	66.780
720.20	62.500
720.51	65.505
720.83	69.145
721.15	65.672
721.46	67.376
721.78	66.308
722.10	65.660
722.42	71.429
722.73	62.547
723.05	66.803
723.37	66.802
723.68	69.112
724.00	73.171
724.32	68.145
724.63	65.854
724.95	69.038
725.27	74.899
725.58	66.797
725.90	67.883
726.22	62.642
726.53	63.889
726.85	61.433
727.16	66.904
727.48	63.475
727.80	67.045
728.11	69.565
728.43	65.769
728.74	61.290
729.06	67.883
729.38	70.221
729.69	70.107
730.01	60.410
730.32	66.667
730.64	61.204
730.96	55.116
731.27	64.901
731.59	61.774
731.90	61.224
732.22	63.043
732.53	58.514
732.85	63.782
733.16	62.379
733.48	64.120
733.80	61.688
734.11	61.465
734.43	58.284
734.74	60.286
735.06	58.166
735.37	61.272
735.69	61.146
736.00	64.052
736.32	61.682
736.63	60.064
736.95	60.703
737.26	59.184
737.58	60.645
737.89	66.555
738.21	66.212
738.52	61.429
738.83	58.491
739.15	64.615
739.46	63.139
739.78	62.153
740.09	59.385
740.41	60.645
740.72	61.324
741.04	60.370
741.35	67.917
741.66	74.222
741.98	64.623
742.29	68.900
742.61	70.690
742.92	70.588
743.23	75.214
743.55	67.600
743.86	67.105
744.18	73.451
744.49	73.206
744.80	70.892
745.12	75.455
745.43	66.520
745.74	72.973
746.06	71.101
746.37	66.816
746.68	70.136
747.00	70.370
747.31	70.952
747.62	64.602
747.94	67.841
748.25	64.255
748.56	69.163
748.88	70.297
749.19	76.000
749.50	71.163
749.82	68.699
750.13	65.714
750.44	66.788
750.75	66.316
751.07	61.415
751.38	61.672
751.69	58.484
752.01	66.541
752.32	65.704
752.63	64.184
752.94	68.852
753.26	70.800
753.57	62.195
753.88	64.062
754.19	62.500
754.51	70.139
754.82	60.289
755.13	63.774
755.44	67.293
755.75	62.044
756.07	59.574
756.38	60.949
756.69	58.389
757.00	58.383
757.31	59.347
757.63	54.386
757.94	56.836
758.25	56.127
758.56	57.531
758.87	56.720
759.18	56.667
759.50	56.740
759.81	55.452
760.12	55.625
760.43	59.885
760.74	57.337
761.05	58.757
761.36	54.813
761.67	57.386
761.99	59.627
762.30	58.333
762.61	60.305
762.92	59.766
763.23	66.807
763.54	62.000
763.85	61.328
764.16	68.077
764.47	66.920
764.78	57.597
765.10	54.747
765.41	55.752
765.72	56.287
766.03	60.188
766.34	55.667
766.65	72.766
766.96	62.821
767.27	75.127
767.58	76.042
767.89	73.684
768.20	68.391
768.51	68.528
768.82	68.807
769.13	60.163
769.44	65.182
769.75	66.094
770.06	64.679
770.37	66.063
770.68	75.463
770.99	65.778
771.30	61.475
771.61	70.852
771.92	61.066
772.23	66.807
772.54	69.231
772.85	70.681
773.16	72.340
773.47	70.652
773.78	69.036
774.09	73.214
774.39	68.421
774.70	78.395
775.01	76.087
775.32	83.660
775.63	82.237
775.94	83.453
776.25	80.315
776.56	82.090
776.87	83.607
777.18	95.312
777.48	83.206
777.79	79.545
778.10	86.667
778.41	83.036
778.72	75.182
779.03	79.866
779.34	72.483
779.65	77.703
779.95	70.552
780.26	77.778
780.57	78.621
780.88	89.062
781.19	80.451
781.50	79.054
781.80	70.440
782.11	67.797
782.42	75.949
782.73	73.006
783.04	73.649
783.34	80.986
783.65	81.507
783.96	76.866
784.27	78.322
784.57	79.137
784.88	86.111
785.19	80.952
785.50	85.849
785.81	85.821
786.11	94.262
786.42	79.070
786.73	88.496
787.04	100.943
787.34	102.679
787.65	108.000
787.96	83.784
788.26	86.777
788.57	88.136
788.88	92.562
789.19	79.861
789.49	89.394
789.80	83.206
790.11	99.048
790.41	92.079
790.72	101.205
791.03	94.565
791.33	95.349
791.64	91.753
791.95	100.990
792.25	93.333
792.56	115.584
792.87	111.538
793.17	103.797
793.48	103.448
793.79	91.954
794.09	102.273
794.40	76.471
794.70	80.882
795.01	68.889
795.32	71.223
795.62	75.591
795.93	89.655
796.23	89.381
796.54	90.588
796.85	101.351
797.15	122.535
797.46	104.545
797.76	103.614
798.07	108.861
798.37	96.923
798.68	113.636
798.99	97.183
799.29	103.896
799.60	101.136
799.90	119.178
800.21	138.806
800.51	127.586
800.82	133.333
801.12	134.426
801.43	124.242
801.73	113.514
802.04	133.333
802.34	97.531
802.65	114.062
802.95	138.983
803.26	118.750
803.56	95.714
803.87	104.615
804.17	113.235
804.48	161.111
804.78	112.069
805.09	97.059
805.39	113.462
805.70	144.643
806.00	126.230
806.30	112.121
806.61	104.878
806.91	96.203
807.22	103.947
807.52	97.015
807.83	119.718
808.13	134.375
808.43	126.667
808.74	93.421
809.04	114.493
809.35	122.388
809.65	110.526
809.95	141.935
810.26	122.034
810.56	120.635
810.86	165.909
811.17	157.143
811.47	123.333
811.77	124.074
812.08	134.545
812.38	150.000
812.69	202.778
812.99	170.455
813.29	136.735
813.59	126.190
813.90	140.816
814.20	147.273
814.50	116.923
814.81	119.118
815.11	142.857
815.41	136.066
815.72	166.667
816.02	130.909
816.32	130.952
816.62	147.500
816.93	139.024
817.23	147.619
817.53	150.000
817.84	212.121
818.14	150.000
818.44	142.222
818.74	158.824
819.04	137.500
819.35	160.000
819.65	211.765
819.95	203.571
820.25	245.000
820.56	205.128
820.86	168.182
821.16	137.209
821.46	158.974
821.76	154.000
822.07	165.714
822.37	197.500
822.67	206.061
822.97	147.059
823.27	210.714
823.57	162.162
823.88	185.000
824.18	190.000
824.48	159.524
824.78	268.000
825.08	191.667
825.38	159.459
825.69	139.024
825.99	291.667
826.29	182.759
826.59	173.684
826.89	152.632
827.19	188.235
827.49	187.097
827.79	170.455
828.09	152.273
828.39	112.766
828.70	148.980
829.00	200.000
829.30	158.065
829.60	155.000
829.90	326.667
830.20	185.714
830.50	252.174
830.80	217.391
831.10	200.000
831.40	176.667
831.70	200.000
832.00	230.769
832.30	211.111
832.60	350.000
832.90	220.000
833.20	464.286
833.50	225.806
833.80	203.448
834.10	218.750
834.40	242.308
834.70	350.000
835.00	357.143
835.30	185.714
835.60	361.538
835.90	196.552
836.20	364.286
836.50	213.793
836.80	212.000
837.10	163.889
837.40	247.619
837.70	364.706
838.00	251.852
838.30	247.619
838.60	276.190
838.90	238.462
839.19	255.000
839.49	342.857
839.79	300.000
840.09	270.000
840.39	285.714
840.69	260.870
840.99	300.000
841.29	510.000
841.59	441.667
841.88	318.750
842.18	165.517
842.48	242.857
842.78	213.333
843.08	252.174
843.38	209.375
843.68	800.000
843.97	269.231
844.27	189.655
844.57	304.762
844.87	356.250
845.17	185.185
845.47	1500.000
845.76	444.444
846.06	347.059
846.36	300.000
846.66	357.143
846.96	312.500
847.25	445.455
847.55	390.909
847.85	291.304
848.15	490.000
848.44	357.143
848.74	311.111
849.04	305.882
849.34	640.000
849.63	247.368
849.93	400.000
850.23	960.000
850.53	492.857
850.82	2150.000
851.12	-4900.000
851.42	4700.000
851.71	265.000
852.01	-1033.333
852.31	254.167
852.61	1766.667
852.90	219.048
853.20	196.000
853.50	305.882
853.79	271.429
854.09	225.000
854.39	406.250
854.68	181.081
854.98	170.968
855.28	176.667
855.57	234.483
855.87	237.037
856.17	268.421
856.46	320.000
856.76	288.235
857.05	220.690
857.35	250.000
857.65	333.333
857.94	269.565
858.24	246.154
858.53	305.000
858.83	227.273
859.13	373.333
859.42	0.000
859.72	522.222
860.01	372.727
860.31	254.545
860.60	252.632
860.90	182.609
861.20	600.000
861.49	500.000
861.79	-3800.000
862.08	750.000
862.38	276.190
862.67	384.615
862.97	300.000
863.26	422.222
863.56	294.444
863.85	366.667
864.15	537.500
864.44	373.333
864.74	800.000
865.03	637.500
865.33	315.789
865.62	381.818
865.92	438.462
866.21	366.667
866.51	0.000
866.80	381.818
867.10	1080.000
867.39	415.385
867.69	372.727
867.98	284.211
868.27	436.364
868.57	289.474
868.86	-4200.000
869.16	306.250
869.45	2050.000
869.75	-3600.000
870.04	425.000
870.33	671.429
870.63	1050.000
870.92	2900.000
871.22	828.571
871.51	323.529
871.80	252.381
872.10	350.000
>>>>>End Processed Spectral Data<<<<<
