SpectraSuite Data File
++++++++++++++++++++++++++++++++++++
Date: Wed May 13 16:13:11 PDT 2015
User: schluterlab
Dark Spectrum Present: Yes
Reference Spectrum Present: Yes
Number of Sampled Component Spectra: 1
Spectrometers: USB2E3373
Integration Time (usec): 3000 (USB2E3373)
Spectra Averaged: 3 (USB2E3373)
Boxcar Smoothing: 0 (USB2E3373)
Correct for Electrical Dark: No (USB2E3373)
Strobe/Lamp Enabled: No (USB2E3373)
Correct for Detector Non-linearity: No (USB2E3373)
Correct for Stray Light: No (USB2E3373)
Number of Pixels in Processed Spectrum: 2048
>>>>>Begin Processed Spectral Data<<<<<
178.53	0.000
178.91	-1125.000
179.29	-1075.000
179.67	-238.889
180.04	-975.000
180.42	2000.000
180.80	840.000
181.18	-800.000
181.56	542.857
181.94	0.000
182.31	-571.429
182.69	1466.667
183.07	-462.500
183.45	-477.778
183.83	400.000
184.20	-250.000
184.58	2100.000
184.96	3600.000
185.34	-780.000
185.72	-450.000
186.09	-1600.000
186.47	1800.000
186.85	2100.000
187.23	4300.000
187.61	-1366.667
187.98	950.000
188.36	372.727
188.74	418.182
189.12	-520.000
189.49	470.000
189.87	-2400.000
190.25	-1050.000
190.63	307.143
191.00	361.538
191.38	616.667
191.76	-875.000
192.14	1250.000
192.51	437.500
192.89	733.333
193.27	475.000
193.65	-1100.000
194.02	430.000
194.40	940.000
194.78	380.000
195.15	383.333
195.53	450.000
195.91	-1550.000
196.29	287.500
196.66	257.895
197.04	-230.000
197.42	0.000
197.79	500.000
198.17	-2700.000
198.55	400.000
198.92	475.000
199.30	860.000
199.68	0.000
200.05	277.778
200.43	442.857
200.81	2900.000
201.18	1100.000
201.56	-1300.000
201.94	344.444
202.31	488.889
202.69	291.667
203.07	430.000
203.44	0.000
203.82	850.000
204.19	628.571
204.57	321.429
204.95	462.500
205.32	1233.333
205.70	372.727
206.08	292.857
206.45	2250.000
206.83	287.500
207.20	633.333
207.58	740.000
207.96	288.889
208.33	437.500
208.71	-750.000
209.08	528.571
209.46	366.667
209.84	290.909
210.21	-1200.000
210.59	1075.000
210.96	-325.000
211.34	1700.000
211.71	440.000
212.09	566.667
212.46	0.000
212.84	1266.667
213.22	1125.000
213.59	-4400.000
213.97	616.667
214.34	571.429
214.72	472.727
215.09	900.000
215.47	-1750.000
215.84	-1650.000
216.22	1433.333
216.59	300.000
216.97	1025.000
217.34	272.727
217.72	-450.000
218.09	0.000
218.47	-2300.000
218.84	533.333
219.22	514.286
219.59	1300.000
219.97	-328.571
220.34	720.000
220.72	-1466.667
221.09	335.714
221.47	1050.000
221.84	-683.333
222.22	0.000
222.59	1175.000
222.97	-1600.000
223.34	980.000
223.72	376.923
224.09	960.000
224.46	1650.000
224.84	-3800.000
225.21	-600.000
225.59	-3500.000
225.96	440.000
226.34	230.000
226.71	1550.000
227.08	412.500
227.46	430.000
227.83	-875.000
228.21	-1200.000
228.58	400.000
228.95	-1900.000
229.33	-1500.000
229.70	1133.333
230.08	585.714
230.45	-520.000
230.82	341.667
231.20	600.000
231.57	428.571
231.95	366.667
232.32	163.636
232.69	209.091
233.07	428.571
233.44	276.923
233.81	-1266.667
234.19	221.053
234.56	325.000
234.93	200.000
235.31	327.273
235.68	269.231
236.05	192.857
236.43	103.030
236.80	173.684
237.17	3300.000
237.55	161.905
237.92	135.714
238.29	161.905
238.67	109.677
239.04	155.172
239.41	91.667
239.79	82.609
240.16	85.714
240.53	88.636
240.91	54.902
241.28	68.000
241.65	68.000
242.02	68.116
242.40	56.452
242.77	66.667
243.14	51.613
243.51	53.933
243.89	41.176
244.26	22.222
244.63	34.409
245.00	30.851
245.38	34.653
245.75	38.318
246.12	34.862
246.49	36.496
246.87	38.400
247.24	35.385
247.61	28.571
247.98	33.333
248.36	16.892
248.73	22.930
249.10	24.841
249.47	24.294
249.84	25.668
250.22	20.321
250.59	18.343
250.96	22.222
251.33	18.957
251.70	21.287
252.08	18.571
252.45	13.004
252.82	12.174
253.19	15.745
253.56	16.863
253.94	19.087
254.31	14.062
254.68	18.077
255.05	12.177
255.42	15.447
255.79	15.809
256.16	15.523
256.54	14.488
256.91	14.947
257.28	11.871
257.65	12.871
258.02	13.975
258.39	11.672
258.76	11.706
259.14	13.393
259.51	12.462
259.88	7.453
260.25	13.897
260.62	11.850
260.99	10.248
261.36	13.213
261.73	9.742
262.10	9.012
262.47	9.859
262.85	13.370
263.22	6.838
263.59	12.821
263.96	8.516
264.33	9.922
264.70	12.368
265.07	11.253
265.44	10.859
265.81	7.786
266.18	9.799
266.55	9.268
266.92	9.337
267.29	9.491
267.66	11.697
268.03	7.500
268.40	8.178
268.77	7.399
269.14	7.658
269.51	9.481
269.88	7.459
270.25	7.675
270.62	7.416
270.99	10.538
271.36	8.155
271.73	6.308
272.10	9.348
272.47	9.462
272.84	10.173
273.21	9.224
273.58	7.642
273.95	7.128
274.32	5.579
274.69	8.137
275.06	7.283
275.43	6.170
275.80	8.216
276.17	6.925
276.54	9.563
276.91	8.300
277.28	6.836
277.65	7.930
278.02	8.075
278.39	10.742
278.76	8.545
279.13	8.491
279.50	8.007
279.87	7.371
280.23	4.790
280.60	6.963
280.97	7.209
281.34	8.673
281.71	7.636
282.08	6.718
282.45	5.636
282.82	6.217
283.19	4.100
283.56	6.842
283.92	6.768
284.29	6.173
284.66	6.171
285.03	5.606
285.40	7.394
285.77	5.724
286.14	5.699
286.51	6.333
286.87	8.376
287.24	6.840
287.61	6.260
287.98	8.279
288.35	7.132
288.72	4.829
289.08	6.729
289.45	6.260
289.82	6.341
290.19	5.651
290.56	6.279
290.93	5.287
291.29	5.215
291.66	6.047
292.03	7.849
292.40	7.195
292.77	5.769
293.13	5.970
293.50	6.122
293.87	5.926
294.24	6.074
294.60	3.348
294.97	7.267
295.34	6.911
295.71	5.824
296.08	4.558
296.44	5.365
296.81	5.812
297.18	5.691
297.55	3.694
297.91	4.617
298.28	6.024
298.65	6.527
299.02	5.534
299.38	4.117
299.75	3.100
300.12	5.619
300.48	5.500
300.85	4.562
301.22	5.096
301.59	5.429
301.95	5.290
302.32	6.418
302.69	5.496
303.05	4.970
303.42	4.568
303.79	6.002
304.15	3.263
304.52	3.476
304.89	4.065
305.25	3.828
305.62	5.663
305.99	5.195
306.35	4.027
306.72	3.475
307.09	5.105
307.45	5.068
307.82	4.241
308.19	4.084
308.55	4.531
308.92	3.759
309.29	4.118
309.65	3.499
310.02	4.228
310.38	4.839
310.75	4.435
311.12	4.504
311.48	4.389
311.85	4.507
312.22	4.579
312.58	2.703
312.95	4.857
313.31	4.175
313.68	4.886
314.05	5.325
314.41	4.020
314.78	4.330
315.14	4.171
315.51	4.325
315.87	4.653
316.24	4.171
316.61	3.996
316.97	3.718
317.34	3.914
317.70	3.920
318.07	4.716
318.43	4.795
318.80	5.248
319.16	4.896
319.53	4.784
319.89	4.571
320.26	4.900
320.62	3.968
320.99	5.354
321.35	4.545
321.72	4.723
322.08	4.541
322.45	5.771
322.81	5.233
323.18	4.913
323.54	5.473
323.91	5.094
324.27	5.258
324.64	4.007
325.00	4.509
325.37	4.550
325.73	5.027
326.10	5.207
326.46	4.211
326.83	5.781
327.19	5.124
327.56	4.617
327.92	4.287
328.29	5.235
328.65	4.328
329.01	5.144
329.38	4.810
329.74	4.524
330.11	4.807
330.47	5.234
330.84	6.158
331.20	5.373
331.56	5.413
331.93	3.333
332.29	6.034
332.66	5.664
333.02	4.388
333.38	4.065
333.75	5.793
334.11	5.427
334.48	5.058
334.84	5.147
335.20	4.273
335.57	4.442
335.93	3.304
336.29	4.670
336.66	4.959
337.02	3.982
337.38	4.907
337.75	4.635
338.11	4.834
338.47	3.959
338.84	4.950
339.20	3.670
339.56	5.109
339.93	3.455
340.29	4.257
340.65	3.922
341.02	4.799
341.38	4.537
341.74	4.386
342.11	4.454
342.47	4.317
342.83	4.281
343.20	5.801
343.56	4.802
343.92	5.000
344.28	5.272
344.65	4.987
345.01	4.630
345.37	3.602
345.73	4.484
346.10	4.433
346.46	3.644
346.82	5.189
347.19	3.425
347.55	4.433
347.91	5.178
348.27	4.519
348.63	5.100
349.00	3.883
349.36	4.433
349.72	4.491
350.08	4.376
350.45	4.150
350.81	4.224
351.17	4.700
351.53	4.177
351.89	2.723
352.26	5.130
352.62	3.929
352.98	3.971
353.34	4.684
353.70	3.928
354.07	4.274
354.43	4.206
354.79	3.781
355.15	4.150
355.51	4.796
355.87	4.571
356.24	3.909
356.60	4.411
356.96	3.862
357.32	4.579
357.68	4.961
358.04	4.513
358.40	4.671
358.77	4.460
359.13	3.631
359.49	4.078
359.85	2.619
360.21	2.711
360.57	4.436
360.93	4.462
361.29	4.006
361.66	3.793
362.02	4.851
362.38	3.954
362.74	4.092
363.10	4.293
363.46	4.182
363.82	3.779
364.18	4.552
364.54	4.829
364.90	4.958
365.26	3.603
365.62	4.456
365.98	3.433
366.35	3.152
366.71	4.772
367.07	4.516
367.43	3.991
367.79	4.568
368.15	5.388
368.51	3.198
368.87	4.568
369.23	3.584
369.59	4.634
369.95	2.941
370.31	4.345
370.67	4.058
371.03	4.494
371.39	4.155
371.75	3.897
372.11	4.694
372.47	4.619
372.83	4.611
373.19	3.468
373.55	3.548
373.91	4.566
374.27	4.055
374.63	4.000
374.99	4.379
375.35	3.629
375.71	4.387
376.07	5.213
376.42	3.714
376.78	5.500
377.14	4.138
377.50	4.570
377.86	3.657
378.22	4.109
378.58	2.506
378.94	3.394
379.30	3.880
379.66	4.251
380.02	4.668
380.38	3.825
380.74	4.502
381.09	4.462
381.45	4.610
381.81	4.730
382.17	5.159
382.53	3.962
382.89	4.444
383.25	3.752
383.61	5.081
383.97	4.378
384.32	4.242
384.68	3.903
385.04	3.872
385.40	3.777
385.76	4.975
386.12	5.181
386.48	4.531
386.83	4.041
387.19	4.824
387.55	4.082
387.91	4.293
388.27	4.231
388.62	4.671
388.98	3.870
389.34	5.131
389.70	4.782
390.06	5.387
390.42	4.799
390.77	5.216
391.13	4.467
391.49	4.759
391.85	4.328
392.20	3.596
392.56	4.672
392.92	4.885
393.28	4.142
393.64	5.156
393.99	5.070
394.35	4.777
394.71	4.329
395.07	4.486
395.42	3.956
395.78	4.898
396.14	5.276
396.50	5.201
396.85	4.641
397.21	4.932
397.57	4.588
397.92	4.748
398.28	4.148
398.64	4.958
399.00	4.924
399.35	4.399
399.71	5.324
400.07	5.322
400.42	5.583
400.78	5.308
401.14	4.756
401.49	5.134
401.85	4.658
402.21	4.431
402.57	3.886
402.92	4.603
403.28	5.122
403.63	4.765
403.99	4.459
404.35	4.545
404.70	4.376
405.06	4.718
405.42	5.115
405.77	3.771
406.13	4.740
406.49	5.145
406.84	4.843
407.20	3.783
407.55	4.467
407.91	4.667
408.27	4.276
408.62	4.816
408.98	4.657
409.34	4.613
409.69	4.452
410.05	4.585
410.40	5.199
410.76	3.943
411.11	5.247
411.47	5.176
411.83	4.459
412.18	4.576
412.54	5.044
412.89	5.482
413.25	4.841
413.60	5.065
413.96	4.614
414.31	4.496
414.67	4.436
415.03	4.040
415.38	5.735
415.74	4.244
416.09	5.617
416.45	4.418
416.80	4.362
417.16	5.027
417.51	5.309
417.87	4.239
418.22	4.479
418.58	5.487
418.93	5.283
419.29	5.602
419.64	5.164
420.00	5.122
420.35	5.275
420.71	5.140
421.06	5.131
421.42	4.795
421.77	4.596
422.12	3.706
422.48	4.209
422.83	5.242
423.19	4.972
423.54	4.991
423.90	4.464
424.25	4.858
424.61	4.762
424.96	4.315
425.31	4.651
425.67	4.663
426.02	4.686
426.38	5.006
426.73	4.447
427.09	4.681
427.44	4.715
427.79	4.888
428.15	5.595
428.50	4.681
428.85	5.364
429.21	3.810
429.56	4.717
429.92	4.227
430.27	3.923
430.62	3.943
430.98	4.255
431.33	5.155
431.68	4.398
432.04	4.526
432.39	4.740
432.74	5.506
433.10	5.093
433.45	4.723
433.80	4.047
434.16	4.808
434.51	4.684
434.86	5.416
435.22	4.614
435.57	4.559
435.92	4.213
436.28	5.101
436.63	5.740
436.98	4.579
437.34	4.651
437.69	4.726
438.04	4.834
438.39	5.254
438.75	5.404
439.10	4.190
439.45	4.545
439.81	4.592
440.16	4.517
440.51	5.682
440.86	5.675
441.22	4.338
441.57	4.989
441.92	4.862
442.27	5.059
442.63	3.897
442.98	4.732
443.33	5.109
443.68	4.956
444.03	4.588
444.39	4.090
444.74	4.654
445.09	5.013
445.44	5.139
445.79	4.404
446.15	5.770
446.50	4.254
446.85	4.882
447.20	4.284
447.55	4.690
447.91	4.578
448.26	5.175
448.61	4.862
448.96	5.869
449.31	5.512
449.66	4.783
450.02	4.234
450.37	4.535
450.72	4.738
451.07	4.875
451.42	4.863
451.77	5.696
452.12	4.446
452.47	5.224
452.83	4.662
453.18	4.584
453.53	5.009
453.88	4.666
454.23	5.140
454.58	4.785
454.93	5.531
455.28	4.925
455.63	5.158
455.98	5.595
456.34	5.590
456.69	4.446
457.04	4.706
457.39	4.793
457.74	4.991
458.09	5.175
458.44	4.675
458.79	4.447
459.14	5.248
459.49	4.904
459.84	5.208
460.19	4.478
460.54	5.035
460.89	5.540
461.24	5.282
461.59	5.927
461.94	5.549
462.29	5.401
462.64	4.659
462.99	4.880
463.34	6.133
463.69	5.128
464.04	5.739
464.39	5.623
464.74	5.229
465.09	5.308
465.44	4.432
465.79	4.866
466.14	4.379
466.49	4.561
466.84	5.663
467.19	5.009
467.54	6.000
467.89	5.222
468.24	5.294
468.59	6.105
468.94	4.887
469.29	5.270
469.64	5.154
469.99	5.548
470.34	5.020
470.68	6.034
471.03	4.490
471.38	6.115
471.73	5.263
472.08	5.658
472.43	4.774
472.78	4.872
473.13	5.327
473.48	5.680
473.83	5.183
474.17	4.792
474.52	5.397
474.87	5.604
475.22	4.991
475.57	5.051
475.92	4.620
476.27	4.115
476.61	4.633
476.96	5.058
477.31	4.553
477.66	5.252
478.01	4.496
478.36	4.918
478.70	4.050
479.05	5.165
479.40	4.708
479.75	4.830
480.10	4.523
480.45	4.379
480.79	4.443
481.14	5.039
481.49	5.221
481.84	4.435
482.19	4.589
482.53	5.092
482.88	5.584
483.23	5.000
483.58	4.732
483.92	4.733
484.27	4.052
484.62	4.828
484.97	4.651
485.31	4.178
485.66	3.491
486.01	3.537
486.36	3.352
486.70	3.276
487.05	3.360
487.40	3.779
487.75	3.368
488.09	3.852
488.44	3.736
488.79	4.123
489.13	4.851
489.48	4.364
489.83	4.575
490.17	4.691
490.52	4.340
490.87	4.251
491.22	4.184
491.56	4.191
491.91	4.095
492.26	4.318
492.60	5.023
492.95	4.022
493.30	4.579
493.64	4.106
493.99	4.596
494.34	4.255
494.68	4.625
495.03	4.981
495.37	4.374
495.72	4.483
496.07	4.316
496.41	3.805
496.76	4.573
497.11	4.593
497.45	4.425
497.80	4.175
498.14	4.348
498.49	3.902
498.84	5.417
499.18	4.429
499.53	4.036
499.87	4.753
500.22	4.381
500.56	4.854
500.91	4.615
501.26	4.078
501.60	4.841
501.95	4.720
502.29	4.545
502.64	4.190
502.98	4.488
503.33	4.525
503.67	4.501
504.02	4.537
504.36	4.586
504.71	4.836
505.06	5.060
505.40	4.181
505.75	4.388
506.09	4.616
506.44	4.292
506.78	5.114
507.13	4.190
507.47	4.747
507.82	4.661
508.16	4.965
508.51	4.262
508.85	4.369
509.19	4.337
509.54	4.592
509.88	4.791
510.23	4.319
510.57	5.676
510.92	4.505
511.26	4.779
511.61	4.927
511.95	4.071
512.30	4.666
512.64	4.890
512.98	5.359
513.33	4.550
513.67	5.123
514.02	3.896
514.36	4.315
514.70	5.036
515.05	4.350
515.39	5.440
515.74	4.730
516.08	4.919
516.42	4.828
516.77	4.849
517.11	4.661
517.46	5.361
517.80	4.588
518.14	4.980
518.49	5.309
518.83	5.114
519.17	4.503
519.52	4.584
519.86	5.533
520.20	5.434
520.55	4.608
520.89	5.231
521.23	5.066
521.58	5.222
521.92	5.450
522.26	5.186
522.61	5.296
522.95	4.850
523.29	5.539
523.64	5.305
523.98	5.299
524.32	5.549
524.66	5.171
525.01	6.066
525.35	4.585
525.69	4.865
526.04	4.984
526.38	5.003
526.72	4.847
527.06	5.022
527.41	4.765
527.75	5.723
528.09	4.881
528.43	4.844
528.78	5.900
529.12	4.909
529.46	5.328
529.80	5.755
530.15	5.981
530.49	4.923
530.83	4.684
531.17	5.875
531.51	5.966
531.86	5.161
532.20	6.258
532.54	6.214
532.88	6.033
533.22	5.434
533.57	6.111
533.91	5.358
534.25	5.468
534.59	5.247
534.93	5.711
535.27	5.009
535.62	5.739
535.96	5.461
536.30	4.895
536.64	5.924
536.98	5.508
537.32	5.662
537.66	4.800
538.01	5.398
538.35	6.141
538.69	6.318
539.03	4.873
539.37	5.112
539.71	3.759
540.05	5.359
540.39	4.518
540.73	5.304
541.07	5.775
541.42	5.349
541.76	6.129
542.10	5.951
542.44	5.033
542.78	5.731
543.12	4.990
543.46	5.180
543.80	5.465
544.14	5.263
544.48	5.460
544.82	5.131
545.16	5.856
545.50	5.784
545.84	5.309
546.18	5.589
546.52	5.162
546.86	5.223
547.20	6.271
547.54	5.745
547.88	6.505
548.22	5.666
548.56	5.472
548.90	5.122
549.24	4.242
549.58	5.593
549.92	5.632
550.26	5.185
550.60	5.602
550.94	5.775
551.28	5.340
551.62	4.673
551.96	4.842
552.30	6.007
552.64	5.612
552.98	4.949
553.32	5.934
553.66	6.339
554.00	5.353
554.34	5.728
554.68	6.152
555.02	5.853
555.36	5.358
555.69	5.345
556.03	5.451
556.37	5.252
556.71	5.116
557.05	5.742
557.39	5.108
557.73	4.869
558.07	6.164
558.41	5.789
558.75	5.217
559.08	6.189
559.42	4.837
559.76	5.515
560.10	5.068
560.44	6.080
560.78	4.391
561.12	5.277
561.45	6.323
561.79	5.537
562.13	5.298
562.47	5.464
562.81	5.858
563.15	5.217
563.48	5.570
563.82	5.088
564.16	4.644
564.50	4.362
564.84	5.752
565.17	4.762
565.51	5.431
565.85	5.647
566.19	4.759
566.52	4.813
566.86	4.762
567.20	5.483
567.54	5.080
567.88	4.834
568.21	5.344
568.55	4.954
568.89	4.426
569.23	4.501
569.56	4.615
569.90	4.340
570.24	4.198
570.57	4.114
570.91	3.620
571.25	4.107
571.59	4.124
571.92	3.543
572.26	3.871
572.60	3.784
572.93	3.688
573.27	3.963
573.61	4.383
573.95	4.057
574.28	3.794
574.62	3.717
574.96	3.465
575.29	3.710
575.63	4.014
575.97	3.489
576.30	4.036
576.64	3.740
576.98	3.330
577.31	3.420
577.65	3.757
577.98	3.378
578.32	3.455
578.66	3.606
578.99	3.470
579.33	3.413
579.67	3.624
580.00	3.620
580.34	3.654
580.67	3.498
581.01	3.755
581.35	3.395
581.68	3.422
582.02	3.236
582.35	3.363
582.69	3.373
583.02	3.474
583.36	3.551
583.70	3.347
584.03	3.710
584.37	3.821
584.70	3.605
585.04	4.012
585.37	3.658
585.71	3.806
586.04	3.672
586.38	3.892
586.72	4.087
587.05	3.559
587.39	3.456
587.72	3.891
588.06	3.575
588.39	4.280
588.73	4.077
589.06	3.926
589.40	3.737
589.73	3.766
590.07	4.235
590.40	3.215
590.73	4.098
591.07	4.803
591.40	4.260
591.74	4.502
592.07	4.188
592.41	5.043
592.74	4.082
593.08	4.597
593.41	3.954
593.75	3.841
594.08	4.224
594.41	3.853
594.75	3.697
595.08	4.080
595.42	4.238
595.75	4.309
596.09	4.281
596.42	4.479
596.75	4.559
597.09	4.892
597.42	4.132
597.75	4.140
598.09	4.522
598.42	4.124
598.76	3.891
599.09	4.105
599.42	4.258
599.76	4.209
600.09	4.335
600.42	4.346
600.76	4.429
601.09	4.226
601.42	3.957
601.76	4.288
602.09	4.466
602.42	4.299
602.76	4.232
603.09	4.209
603.42	4.412
603.76	4.040
604.09	3.955
604.42	4.240
604.76	4.766
605.09	4.150
605.42	4.190
605.75	4.801
606.09	3.741
606.42	3.760
606.75	4.023
607.09	4.814
607.42	4.108
607.75	4.093
608.08	4.255
608.42	4.617
608.75	4.644
609.08	4.394
609.41	4.664
609.75	4.621
610.08	4.194
610.41	3.957
610.74	3.832
611.07	4.002
611.41	4.465
611.74	5.229
612.07	4.762
612.40	5.037
612.73	4.421
613.07	4.741
613.40	4.687
613.73	3.985
614.06	3.925
614.39	4.615
614.72	4.842
615.06	4.727
615.39	4.406
615.72	4.346
616.05	4.147
616.38	4.614
616.71	5.523
617.05	5.183
617.38	4.991
617.71	4.144
618.04	4.928
618.37	4.790
618.70	4.978
619.03	5.395
619.36	4.888
619.69	5.282
620.03	5.495
620.36	5.214
620.69	5.274
621.02	5.310
621.35	5.482
621.68	5.841
622.01	5.031
622.34	4.766
622.67	5.247
623.00	5.282
623.33	4.575
623.66	5.718
623.99	5.376
624.32	5.278
624.65	5.155
624.99	4.887
625.32	5.576
625.65	4.583
625.98	5.611
626.31	6.921
626.64	5.061
626.97	4.904
627.30	5.154
627.63	5.824
627.96	5.803
628.29	6.037
628.62	7.228
628.95	7.830
629.28	6.752
629.61	6.599
629.94	5.714
630.26	6.006
630.59	6.196
630.92	6.609
631.25	5.035
631.58	7.508
631.91	5.882
632.24	5.591
632.57	7.975
632.90	5.373
633.23	7.047
633.56	7.119
633.89	7.135
634.22	7.151
634.55	6.864
634.88	5.150
635.20	7.407
635.53	5.181
635.86	5.693
636.19	6.941
636.52	5.882
636.85	6.644
637.18	6.452
637.51	8.392
637.83	4.439
638.16	7.289
638.49	6.549
638.82	7.206
639.15	6.875
639.48	7.980
639.81	6.568
640.13	8.724
640.46	7.517
640.79	7.926
641.12	6.465
641.45	6.983
641.77	6.922
642.10	7.895
642.43	6.156
642.76	7.276
643.09	8.742
643.41	7.739
643.74	7.870
644.07	8.994
644.40	9.969
644.73	8.346
645.05	8.241
645.38	8.215
645.71	7.085
646.04	8.472
646.36	8.681
646.69	9.699
647.02	8.163
647.35	10.309
647.67	7.788
648.00	11.382
648.33	7.756
648.66	7.424
648.98	8.096
649.31	6.278
649.64	8.969
649.96	8.644
650.29	6.319
650.62	6.958
650.94	9.887
651.27	9.122
651.60	7.654
651.92	10.064
652.25	7.003
652.58	8.411
652.90	8.689
653.23	8.937
653.56	7.087
653.88	8.558
654.21	8.847
654.54	7.261
654.86	7.788
655.19	5.676
655.52	3.467
655.84	2.424
656.17	2.870
656.49	3.768
656.82	3.811
657.15	2.968
657.47	2.249
657.80	1.824
658.13	1.865
658.45	2.964
658.78	2.921
659.10	3.594
659.43	3.370
659.75	4.064
660.08	4.810
660.41	5.587
660.73	7.751
661.06	7.962
661.38	9.818
661.71	8.077
662.03	8.284
662.36	8.946
662.68	10.241
663.01	10.303
663.33	9.130
663.66	9.244
663.98	7.991
664.31	8.824
664.63	9.717
664.96	9.859
665.28	9.426
665.61	10.526
665.93	9.859
666.26	8.722
666.58	9.623
666.91	10.782
667.23	10.112
667.56	9.935
667.88	10.470
668.21	10.021
668.53	9.328
668.86	10.606
669.18	11.727
669.50	9.565
669.83	11.983
670.15	9.778
670.48	10.240
670.80	9.914
671.13	11.677
671.45	8.723
671.77	10.591
672.10	9.612
672.42	9.541
672.75	8.955
673.07	8.451
673.39	7.233
673.72	8.008
674.04	9.804
674.37	8.738
674.69	6.953
675.01	7.322
675.34	12.731
675.66	9.684
675.98	11.609
676.31	12.185
676.63	11.040
676.95	8.176
677.28	10.280
677.60	8.791
677.92	11.392
678.25	10.472
678.57	9.761
678.89	9.619
679.22	9.627
679.54	9.924
679.86	8.440
680.18	9.660
680.51	10.106
680.83	9.609
681.15	9.245
681.48	11.909
681.80	8.317
682.12	9.770
682.44	7.737
682.77	11.609
683.09	10.944
683.41	9.978
683.73	11.700
684.06	9.917
684.38	9.980
684.70	8.333
685.02	10.507
685.34	8.791
685.67	7.867
685.99	7.560
686.31	8.191
686.63	5.654
686.96	8.929
687.28	7.401
687.60	6.884
687.92	9.141
688.24	8.555
688.56	11.044
688.89	8.921
689.21	10.699
689.53	10.021
689.85	8.869
690.17	7.867
690.49	9.554
690.82	10.047
691.14	8.482
691.46	9.283
691.78	9.036
692.10	10.331
692.42	10.180
692.74	8.506
693.06	11.277
693.39	11.088
693.71	10.044
694.03	9.474
694.35	9.091
694.67	10.755
694.99	11.707
695.31	10.049
695.63	10.526
695.95	9.046
696.27	8.629
696.59	9.845
696.91	11.917
697.23	7.746
697.56	11.727
697.88	8.793
698.20	8.333
698.52	10.108
698.84	11.581
699.16	9.908
699.48	9.026
699.80	10.145
700.12	15.584
700.44	10.610
700.76	10.221
701.08	11.494
701.40	10.615
701.72	10.496
702.04	18.182
702.36	10.482
702.68	11.615
703.00	9.141
703.32	11.702
703.64	13.405
703.96	12.535
704.28	11.337
704.60	13.196
704.91	12.760
705.23	14.956
705.55	14.286
705.87	18.937
706.19	12.367
706.51	12.461
706.83	13.636
707.15	12.045
707.47	10.859
707.79	13.268
708.11	13.014
708.43	10.476
708.74	9.949
709.06	10.649
709.38	11.024
709.70	12.209
710.02	12.760
710.34	13.333
710.66	14.627
710.98	13.352
711.29	13.081
711.61	14.749
711.93	10.577
712.25	13.826
712.57	10.294
712.89	12.803
713.20	15.805
713.52	13.816
713.84	14.873
714.16	11.890
714.48	15.230
714.80	12.766
715.11	14.121
715.43	10.979
715.75	12.754
716.07	13.099
716.39	12.539
716.70	15.947
717.02	16.187
717.34	17.668
717.66	15.299
717.97	15.538
718.29	17.407
718.61	16.058
718.93	18.015
719.24	14.533
719.56	13.220
719.88	15.932
720.20	16.554
720.51	16.028
720.83	15.985
721.15	17.164
721.46	15.603
721.78	12.903
722.10	15.094
722.42	17.669
722.73	13.483
723.05	15.574
723.37	17.004
723.68	16.988
724.00	16.667
724.32	15.726
724.63	16.667
724.95	13.389
725.27	12.551
725.58	13.672
725.90	18.978
726.22	18.113
726.53	18.056
726.85	15.700
727.16	17.438
727.48	15.248
727.80	18.182
728.11	12.681
728.43	14.231
728.74	13.262
729.06	17.153
729.38	18.382
729.69	15.302
730.01	11.604
730.32	15.972
730.64	16.388
730.96	9.571
731.27	15.894
731.59	13.761
731.90	13.120
732.22	15.217
732.53	13.003
732.85	14.103
733.16	13.505
733.48	16.611
733.80	12.338
734.11	14.650
734.43	17.456
734.74	12.286
735.06	10.315
735.37	15.318
735.69	10.510
736.00	14.052
736.32	16.511
736.63	12.460
736.95	14.696
737.26	8.503
737.58	10.645
737.89	13.043
738.21	16.041
738.52	16.786
738.83	14.340
739.15	11.538
739.46	14.234
739.78	17.014
740.09	12.000
740.41	14.516
740.72	15.331
741.04	17.407
741.35	17.083
741.66	21.333
741.98	15.094
742.29	21.053
742.61	25.000
742.92	15.837
743.23	14.957
743.55	19.200
743.86	15.351
744.18	20.354
744.49	19.617
744.80	20.188
745.12	22.727
745.43	17.621
745.74	20.270
746.06	17.431
746.37	21.973
746.68	17.195
747.00	19.444
747.31	18.095
747.62	16.372
747.94	18.943
748.25	17.447
748.56	16.740
748.88	11.881
749.19	26.000
749.50	17.209
749.82	15.041
750.13	13.469
750.44	14.234
750.75	14.035
751.07	15.756
751.38	17.770
751.69	13.357
752.01	13.534
752.32	14.440
752.63	17.376
752.94	15.574
753.26	23.200
753.57	17.073
753.88	17.187
754.19	17.500
754.51	16.319
754.82	14.440
755.13	14.717
755.44	16.165
755.75	12.409
756.07	14.894
756.38	13.504
756.69	16.779
757.00	11.677
757.31	13.650
757.63	12.281
757.94	11.528
758.25	10.784
758.56	11.605
758.87	10.753
759.18	13.333
759.50	10.658
759.81	12.150
760.12	13.125
760.43	14.040
760.74	14.674
761.05	12.429
761.36	10.963
761.67	13.352
761.99	11.180
762.30	12.153
762.61	14.885
762.92	18.359
763.23	17.227
763.54	20.000
763.85	16.016
764.16	18.846
764.47	19.392
764.78	14.841
765.10	12.975
765.41	12.979
765.72	15.569
766.03	11.912
766.34	15.333
766.65	14.894
766.96	17.521
767.27	17.766
767.58	22.917
767.89	28.947
768.20	20.115
768.51	20.812
768.82	20.183
769.13	16.667
769.44	16.194
769.75	16.738
770.06	13.761
770.37	20.814
770.68	19.444
770.99	17.778
771.30	14.344
771.61	18.834
771.92	15.574
772.23	21.849
772.54	20.000
772.85	25.654
773.16	30.319
773.47	24.457
773.78	23.858
774.09	17.262
774.39	21.053
774.70	26.543
775.01	21.739
775.32	29.412
775.63	31.579
775.94	25.899
776.25	29.134
776.56	31.343
776.87	26.230
777.18	23.438
777.48	37.405
777.79	30.303
778.10	28.148
778.41	30.357
778.72	28.467
779.03	30.872
779.34	24.161
779.65	26.351
779.95	26.994
780.26	33.333
780.57	31.724
780.88	34.375
781.19	33.083
781.50	35.811
781.80	26.415
782.11	25.989
782.42	26.582
782.73	24.540
783.04	27.703
783.34	23.239
783.65	32.877
783.96	22.388
784.27	27.273
784.57	20.863
784.88	20.370
785.19	35.714
785.50	37.736
785.81	38.806
786.11	33.607
786.42	34.884
786.73	33.628
787.04	33.019
787.34	26.786
787.65	26.000
787.96	37.838
788.26	33.884
788.57	33.051
788.88	36.364
789.19	37.500
789.49	38.636
789.80	27.481
790.11	41.905
790.41	41.584
790.72	34.940
791.03	45.652
791.33	38.372
791.64	38.144
791.95	46.535
792.25	48.889
792.56	55.844
792.87	44.872
793.17	60.759
793.48	44.828
793.79	42.529
794.09	35.227
794.40	28.571
794.70	37.500
795.01	34.074
795.32	33.094
795.62	33.071
795.93	39.655
796.23	29.204
796.54	38.824
796.85	44.595
797.15	60.563
797.46	53.030
797.76	72.289
798.07	49.367
798.37	43.077
798.68	53.030
798.99	40.845
799.29	50.649
799.60	53.409
799.90	61.644
800.21	55.224
800.51	58.621
800.82	77.193
801.12	75.410
801.43	59.091
801.73	50.000
802.04	68.254
802.34	53.086
802.65	56.250
802.95	50.847
803.26	68.750
803.56	34.286
803.87	41.538
804.17	54.412
804.48	88.889
804.78	77.586
805.09	55.882
805.39	42.308
805.70	75.000
806.00	77.049
806.30	66.667
806.61	48.780
806.91	44.304
807.22	46.053
807.52	28.358
807.83	61.972
808.13	60.937
808.43	63.333
808.74	53.947
809.04	65.217
809.35	56.716
809.65	55.263
809.95	87.097
810.26	67.797
810.56	61.905
810.86	100.000
811.17	95.238
811.47	88.333
811.77	70.370
812.08	70.909
812.38	88.000
812.69	102.778
812.99	111.364
813.29	65.306
813.59	59.524
813.90	89.796
814.20	70.909
814.50	47.692
814.81	66.176
815.11	77.551
815.41	75.410
815.72	97.619
816.02	69.091
816.32	85.714
816.62	80.000
816.93	75.610
817.23	111.905
817.53	86.364
817.84	112.121
818.14	86.957
818.44	73.333
818.74	126.471
819.04	90.000
819.35	140.000
819.65	114.706
819.95	135.714
820.25	140.000
820.56	115.385
820.86	90.909
821.16	95.349
821.46	76.923
821.76	82.000
822.07	94.286
822.37	115.000
822.67	133.333
822.97	76.471
823.27	135.714
823.57	91.892
823.88	110.000
824.18	130.000
824.48	121.429
824.78	156.000
825.08	104.167
825.38	127.027
825.69	112.195
825.99	145.833
826.29	103.448
826.59	100.000
826.89	121.053
827.19	117.647
827.49	119.355
827.79	115.909
828.09	97.727
828.39	76.596
828.70	95.918
829.00	144.444
829.30	74.194
829.60	95.000
829.90	206.667
830.20	146.429
830.50	152.174
830.80	147.826
831.10	146.667
831.40	120.000
831.70	95.652
832.00	165.385
832.30	125.926
832.60	237.500
832.90	143.333
833.20	271.429
833.50	125.806
833.80	151.724
834.10	137.500
834.40	169.231
834.70	138.889
835.00	242.857
835.30	117.143
835.60	161.538
835.90	168.966
836.20	257.143
836.50	137.931
836.80	140.000
837.10	116.667
837.40	157.143
837.70	223.529
838.00	155.556
838.30	171.429
838.60	176.190
838.90	161.538
839.19	140.000
839.49	271.429
839.79	255.000
840.09	215.000
840.39	185.714
840.69	195.652
840.99	205.556
841.29	310.000
841.59	258.333
841.88	218.750
842.18	144.828
842.48	233.333
842.78	153.333
843.08	156.522
843.38	128.125
843.68	500.000
843.97	188.462
844.27	131.034
844.57	247.619
844.87	231.250
845.17	166.667
845.47	666.667
845.76	277.778
846.06	235.294
846.36	325.000
846.66	321.429
846.96	225.000
847.25	236.364
847.55	281.818
847.85	182.609
848.15	300.000
848.44	278.571
848.74	188.889
849.04	241.176
849.34	430.000
849.63	157.895
849.93	327.273
850.23	660.000
850.53	278.571
850.82	1550.000
851.12	-3100.000
851.42	3600.000
851.71	250.000
852.01	-666.667
852.31	191.667
852.61	1366.667
852.90	200.000
853.20	192.000
853.50	288.235
853.79	200.000
854.09	158.333
854.39	200.000
854.68	140.541
854.98	122.581
855.28	116.667
855.57	137.931
855.87	162.963
856.17	184.211
856.46	233.333
856.76	217.647
857.05	151.724
857.35	154.167
857.65	253.333
857.94	160.870
858.24	169.231
858.53	195.000
858.83	177.273
859.13	220.000
859.42	0.000
859.72	422.222
860.01	254.545
860.31	200.000
860.60	168.421
860.90	152.174
861.20	422.222
861.49	358.333
861.79	-3100.000
862.08	400.000
862.38	200.000
862.67	192.308
862.97	205.882
863.26	488.889
863.56	216.667
863.85	216.667
864.15	350.000
864.44	266.667
864.74	633.333
865.03	525.000
865.33	231.579
865.62	354.545
865.92	284.615
866.21	325.000
866.51	0.000
866.80	372.727
867.10	840.000
867.39	269.231
867.69	263.636
867.98	231.579
868.27	354.545
868.57	221.053
868.86	-3500.000
869.16	275.000
869.45	1700.000
869.75	-2900.000
870.04	341.667
870.33	385.714
870.63	750.000
870.92	2150.000
871.22	571.429
871.51	300.000
871.80	204.762
872.10	271.429
>>>>>End Processed Spectral Data<<<<<
