SpectraSuite Data File
++++++++++++++++++++++++++++++++++++
Date: Wed May 13 16:38:13 PDT 2015
User: schluterlab
Dark Spectrum Present: Yes
Reference Spectrum Present: Yes
Number of Sampled Component Spectra: 1
Spectrometers: USB2E3373
Integration Time (usec): 3000 (USB2E3373)
Spectra Averaged: 3 (USB2E3373)
Boxcar Smoothing: 0 (USB2E3373)
Correct for Electrical Dark: No (USB2E3373)
Strobe/Lamp Enabled: No (USB2E3373)
Correct for Detector Non-linearity: No (USB2E3373)
Correct for Stray Light: No (USB2E3373)
Number of Pixels in Processed Spectrum: 2048
>>>>>Begin Processed Spectral Data<<<<<
178.53	0.000
178.91	-1525.000
179.29	-1375.000
179.67	-261.111
180.04	-1350.000
180.42	2600.000
180.80	1160.000
181.18	-1150.000
181.56	671.429
181.94	0.000
182.31	-785.714
182.69	1700.000
183.07	-637.500
183.45	-544.444
183.83	536.364
184.20	-500.000
184.58	2050.000
184.96	5400.000
185.34	-980.000
185.72	-700.000
186.09	-2150.000
186.47	2700.000
186.85	2900.000
187.23	5500.000
187.61	-1700.000
187.98	1100.000
188.36	600.000
188.74	518.182
189.12	-940.000
189.49	560.000
189.87	-5100.000
190.25	-1375.000
190.63	407.143
191.00	400.000
191.38	850.000
191.76	-1125.000
192.14	1575.000
192.51	525.000
192.89	1000.000
193.27	500.000
193.65	-1175.000
194.02	620.000
194.40	1000.000
194.78	550.000
195.15	475.000
195.53	690.000
195.91	-2600.000
196.29	387.500
196.66	305.263
197.04	-420.000
197.42	0.000
197.79	650.000
198.17	-4500.000
198.55	885.714
198.92	662.500
199.30	800.000
199.68	0.000
200.05	327.778
200.43	785.714
200.81	4400.000
201.18	1966.667
201.56	-1600.000
201.94	455.556
202.31	611.111
202.69	433.333
203.07	510.000
203.44	0.000
203.82	1150.000
204.19	728.571
204.57	428.571
204.95	562.500
205.32	1466.667
205.70	527.273
206.08	435.714
206.45	2800.000
206.83	387.500
207.20	783.333
207.58	880.000
207.96	288.889
208.33	775.000
208.71	-883.333
209.08	900.000
209.46	655.556
209.84	509.091
210.21	-1666.667
210.59	1375.000
210.96	-450.000
211.34	2500.000
211.71	530.000
212.09	750.000
212.46	0.000
212.84	1400.000
213.22	1375.000
213.59	-4300.000
213.97	783.333
214.34	828.571
214.72	581.818
215.09	880.000
215.47	-2500.000
215.84	-3000.000
216.22	1566.667
216.59	500.000
216.97	1200.000
217.34	518.182
217.72	-816.667
218.09	0.000
218.47	-5100.000
218.84	611.111
219.22	828.571
219.59	1800.000
219.97	-714.286
220.34	980.000
220.72	-1766.667
221.09	392.857
221.47	1475.000
221.84	-916.667
222.22	0.000
222.59	1450.000
222.97	-2450.000
223.34	1060.000
223.72	453.846
224.09	1040.000
224.46	2600.000
224.84	-3700.000
225.21	-920.000
225.59	-5000.000
225.96	640.000
226.34	290.000
226.71	2950.000
227.08	687.500
227.46	610.000
227.83	-1100.000
228.21	-1950.000
228.58	588.889
228.95	-2550.000
229.33	-2850.000
229.70	1633.333
230.08	628.571
230.45	-800.000
230.82	441.667
231.20	916.667
231.57	685.714
231.95	475.000
232.32	277.273
232.69	418.182
233.07	700.000
233.44	446.154
233.81	-1966.667
234.19	305.263
234.56	458.333
234.93	325.000
235.31	427.273
235.68	346.154
236.05	314.286
236.43	166.667
236.80	231.579
237.17	4100.000
237.55	242.857
237.92	182.143
238.29	233.333
238.67	148.387
239.04	206.897
239.41	130.556
239.79	89.130
240.16	135.714
240.53	115.909
240.91	80.392
241.28	90.000
241.65	92.000
242.02	82.609
242.40	59.677
242.77	70.000
243.14	66.667
243.51	64.045
243.89	57.647
244.26	47.778
244.63	44.086
245.00	58.511
245.38	49.505
245.75	41.121
246.12	42.202
246.49	56.934
246.87	50.400
247.24	37.692
247.61	41.429
247.98	35.294
248.36	27.027
248.73	23.567
249.10	38.217
249.47	32.768
249.84	29.947
250.22	28.342
250.59	25.444
250.96	27.273
251.33	28.910
251.70	26.733
252.08	24.286
252.45	25.112
252.82	19.565
253.19	24.255
253.56	19.216
253.94	23.237
254.31	23.437
254.68	24.615
255.05	19.557
255.42	19.919
255.79	19.485
256.16	22.744
256.54	15.901
256.91	18.149
257.28	14.748
257.65	20.132
258.02	21.429
258.39	16.404
258.76	16.388
259.14	17.857
259.51	14.286
259.88	18.634
260.25	19.637
260.62	14.740
260.99	13.975
261.36	16.216
261.73	14.327
262.10	12.500
262.47	15.775
262.85	17.270
263.22	13.960
263.59	15.100
263.96	14.011
264.33	13.055
264.70	14.737
265.07	14.834
265.44	14.141
265.81	13.139
266.18	12.814
266.55	14.634
266.92	12.531
267.29	15.972
267.66	13.761
268.03	12.045
268.40	12.617
268.77	15.036
269.14	11.937
269.51	15.124
269.88	13.287
270.25	12.415
270.62	9.888
270.99	13.548
271.36	13.305
271.73	11.682
272.10	9.783
272.47	13.118
272.84	12.771
273.21	13.417
273.58	10.917
273.95	10.482
274.32	9.091
274.69	11.563
275.06	10.827
275.43	12.766
275.80	11.623
276.17	10.998
276.54	10.187
276.91	12.253
277.28	11.328
277.65	10.251
278.02	10.145
278.39	12.109
278.76	11.273
279.13	10.566
279.50	12.663
279.87	9.163
280.23	11.178
280.60	9.865
280.97	9.797
281.34	11.504
281.71	9.636
282.08	12.092
282.45	8.909
282.82	11.368
283.19	10.160
283.56	8.246
283.92	10.998
284.29	9.877
284.66	8.711
285.03	7.052
285.40	9.331
285.77	8.418
286.14	8.636
286.51	11.333
286.87	9.402
287.24	9.446
287.61	8.828
287.98	9.416
288.35	8.558
288.72	9.034
289.08	9.233
289.45	7.743
289.82	9.919
290.19	7.378
290.56	8.576
290.93	8.157
291.29	8.282
291.66	7.965
292.03	9.884
292.40	10.866
292.77	7.101
293.13	9.701
293.50	8.017
293.87	8.593
294.24	7.407
294.60	6.259
294.97	6.831
295.34	8.181
295.71	7.955
296.08	8.547
296.44	7.978
296.81	7.398
297.18	8.808
297.55	5.013
297.91	6.992
298.28	8.032
298.65	10.052
299.02	8.564
299.38	6.773
299.75	5.795
300.12	6.897
300.48	7.125
300.85	7.275
301.22	5.096
301.59	7.955
301.95	7.683
302.32	6.675
302.69	7.527
303.05	6.667
303.42	7.654
303.79	6.342
304.15	6.177
304.52	5.330
304.89	6.039
305.25	7.309
305.62	7.588
305.99	6.966
306.35	6.264
306.72	6.614
307.09	6.326
307.45	7.770
307.82	5.915
308.19	6.512
308.55	6.904
308.92	7.519
309.29	6.758
309.65	6.787
310.02	7.400
310.38	6.129
310.75	6.864
311.12	6.244
311.48	6.270
311.85	7.233
312.22	8.117
312.58	6.965
312.95	6.864
313.31	6.311
313.68	6.965
314.05	8.185
314.41	7.538
314.78	6.647
315.14	6.554
315.51	7.415
315.87	7.426
316.24	6.753
316.61	7.407
316.97	8.023
317.34	6.849
317.70	7.935
318.07	8.085
318.43	8.219
318.80	9.653
319.16	7.721
319.53	8.161
319.89	8.762
320.26	9.900
320.62	9.127
320.99	10.101
321.35	10.000
321.72	9.651
322.08	9.773
322.45	11.542
322.81	10.756
323.18	11.946
323.54	10.761
323.91	11.415
324.27	10.803
324.64	9.879
325.00	10.550
325.37	11.647
325.73	12.747
326.10	11.915
326.46	10.753
326.83	11.993
327.19	12.297
327.56	10.801
327.92	13.036
328.29	13.043
328.65	11.418
329.01	12.455
329.38	11.193
329.74	13.019
330.11	12.158
330.47	12.764
330.84	13.143
331.20	12.477
331.56	13.578
331.93	12.222
332.29	12.777
332.66	13.186
333.02	12.614
333.38	13.279
333.75	13.815
334.11	13.523
334.48	13.576
334.84	12.960
335.20	13.545
335.57	12.965
335.93	11.964
336.29	13.004
336.66	12.444
337.02	12.489
337.38	12.963
337.75	12.567
338.11	12.444
338.47	12.431
338.84	12.924
339.20	10.826
339.56	13.686
339.93	13.182
340.29	13.406
340.65	13.369
341.02	13.351
341.38	13.879
341.74	13.333
342.11	12.664
342.47	13.480
342.83	13.014
343.20	13.939
343.56	12.805
343.92	13.596
344.28	12.925
344.65	12.812
345.01	12.795
345.37	12.521
345.73	13.029
346.10	12.702
346.46	13.051
346.82	13.097
347.19	12.197
347.55	12.069
347.91	12.540
348.27	14.051
348.63	13.043
349.00	12.540
349.36	12.151
349.72	13.633
350.08	12.804
350.45	12.775
350.81	13.485
351.17	13.371
351.53	12.613
351.89	11.634
352.26	13.102
352.62	13.873
352.98	12.480
353.34	14.626
353.70	11.457
354.07	11.774
354.43	13.175
354.79	12.309
355.15	13.408
355.51	13.030
355.87	13.469
356.24	13.518
356.60	12.350
356.96	13.274
357.32	12.837
357.68	13.228
358.04	13.698
358.40	13.698
358.77	14.319
359.13	12.628
359.49	13.882
359.85	12.937
360.21	12.520
360.57	14.475
360.93	12.692
361.29	13.681
361.66	12.771
362.02	13.955
362.38	13.384
362.74	13.095
363.10	13.101
363.46	13.646
363.82	13.530
364.18	13.803
364.54	14.933
364.90	14.235
365.26	13.529
365.62	14.025
365.98	13.952
366.35	12.321
366.71	14.317
367.07	12.600
367.43	13.062
367.79	14.989
368.15	14.511
368.51	13.663
368.87	13.419
369.23	13.460
369.59	14.193
369.95	13.309
370.31	14.601
370.67	13.768
371.03	15.206
371.39	14.723
371.75	14.412
372.11	13.585
372.47	14.736
372.83	15.346
373.19	14.595
373.55	15.004
373.91	15.979
374.27	14.433
374.63	14.618
374.99	15.749
375.35	15.003
375.71	15.627
376.07	15.775
376.42	15.543
376.78	15.905
377.14	15.332
377.50	15.828
377.86	15.492
378.22	15.550
378.58	14.850
378.94	14.833
379.30	15.076
379.66	15.736
380.02	15.725
380.38	15.726
380.74	16.687
381.09	15.831
381.45	16.472
381.81	16.339
382.17	16.879
382.53	16.667
382.89	16.481
383.25	16.573
383.61	17.100
383.97	16.823
384.32	16.220
384.68	17.162
385.04	16.472
385.40	16.718
385.76	17.752
386.12	17.422
386.48	17.495
386.83	18.024
387.19	17.873
387.55	17.130
387.91	17.533
388.27	16.677
388.62	18.254
388.98	17.199
389.34	18.273
389.70	17.106
390.06	18.504
390.42	17.899
390.77	18.321
391.13	17.741
391.49	17.893
391.85	17.696
392.20	17.981
392.56	18.119
392.92	17.657
393.28	17.160
393.64	18.705
393.99	18.693
394.35	18.734
394.71	18.068
395.07	18.069
395.42	18.603
395.78	18.003
396.14	18.870
396.50	19.674
396.85	19.135
397.21	18.126
397.57	18.413
397.92	19.291
398.28	18.049
398.64	18.220
399.00	18.523
399.35	18.500
399.71	18.576
400.07	18.510
400.42	19.202
400.78	19.542
401.14	18.841
401.49	18.627
401.85	18.633
402.21	18.922
402.57	18.384
402.92	19.168
403.28	18.988
403.63	18.379
403.99	18.599
404.35	19.091
404.70	18.285
405.06	18.754
405.42	18.777
405.77	18.743
406.13	18.397
406.49	19.219
406.84	19.846
407.20	17.967
407.55	19.209
407.91	19.000
408.27	18.507
408.62	19.085
408.98	18.566
409.34	19.004
409.69	19.355
410.05	18.463
410.40	18.899
410.76	19.116
411.11	19.602
411.47	19.042
411.83	19.670
412.18	18.924
412.54	18.742
412.89	18.976
413.25	19.362
413.60	19.209
413.96	19.915
414.31	19.259
414.67	19.075
415.03	19.073
415.38	20.361
415.74	19.871
416.09	20.444
416.45	18.942
416.80	18.837
417.16	20.241
417.51	19.841
417.87	19.011
418.22	19.748
418.58	20.788
418.93	19.410
419.29	19.351
419.64	19.395
420.00	19.512
420.35	18.899
420.71	19.307
421.06	19.153
421.42	20.000
421.77	19.170
422.12	18.417
422.48	18.133
422.83	19.511
423.19	18.619
423.54	19.965
423.90	19.826
424.25	20.212
424.61	18.750
424.96	19.650
425.31	19.324
425.67	19.326
426.02	19.314
426.38	19.780
426.73	19.310
427.09	19.635
427.44	19.264
427.79	18.516
428.15	20.119
428.50	19.895
428.85	19.547
429.21	18.995
429.56	18.922
429.92	18.923
430.27	18.918
430.62	18.945
430.98	19.460
431.33	18.660
431.68	19.267
432.04	18.743
432.39	19.532
432.74	19.988
433.10	19.525
433.45	19.242
433.80	19.290
434.16	19.551
434.51	18.789
434.86	20.182
435.22	19.511
435.57	20.243
435.92	19.193
436.28	20.285
436.63	19.923
436.98	19.805
437.34	18.962
437.69	19.253
438.04	20.180
438.39	19.522
438.75	19.930
439.10	20.279
439.45	20.012
439.81	19.758
440.16	20.610
440.51	20.152
440.86	19.803
441.22	19.410
441.57	19.745
441.92	19.652
442.27	19.806
442.63	19.273
442.98	20.169
443.33	19.293
443.68	19.824
444.03	18.643
444.39	17.770
444.74	19.426
445.09	19.623
445.44	19.464
445.79	19.594
446.15	19.322
446.50	19.332
446.85	19.579
447.20	19.021
447.55	19.710
447.91	19.084
448.26	20.089
448.61	19.559
448.96	20.100
449.31	18.898
449.66	19.696
450.02	18.886
450.37	19.388
450.72	19.515
451.07	19.927
451.42	19.514
451.77	19.319
452.12	19.804
452.47	19.714
452.83	19.930
453.18	19.560
453.53	19.728
453.88	19.905
454.23	20.084
454.58	20.957
454.93	20.343
455.28	20.449
455.63	19.296
455.98	20.595
456.34	19.347
456.69	19.787
457.04	20.248
457.39	18.469
457.74	19.501
458.09	19.724
458.44	19.669
458.79	18.492
459.14	20.034
459.49	19.148
459.84	18.449
460.19	19.387
460.54	19.097
460.89	19.309
461.24	19.976
461.59	20.163
461.94	18.866
462.29	19.881
462.64	18.953
462.99	19.649
463.34	21.267
463.69	20.263
464.04	19.826
464.39	19.478
464.74	18.954
465.09	18.697
465.44	19.003
465.79	18.624
466.14	19.485
466.49	18.409
466.84	19.556
467.19	19.916
467.54	20.250
467.89	19.628
468.24	19.023
468.59	20.024
468.94	19.426
469.29	19.859
469.64	20.616
469.99	19.689
470.34	19.221
470.68	19.397
471.03	19.728
471.38	19.597
471.73	19.520
472.08	20.855
472.43	19.661
472.78	19.684
473.13	19.448
473.48	19.101
473.83	19.756
474.17	18.979
474.52	19.479
474.87	19.556
475.22	19.559
475.57	18.431
475.92	19.543
476.27	18.546
476.61	19.195
476.96	18.747
477.31	18.681
477.66	18.764
478.01	18.662
478.36	19.619
478.70	19.107
479.05	19.276
479.40	18.066
479.75	19.217
480.10	18.837
480.45	18.753
480.79	18.060
481.14	18.640
481.49	18.367
481.84	17.924
482.19	18.083
482.53	19.083
482.88	18.381
483.23	18.832
483.58	18.471
483.92	18.791
484.27	17.342
484.62	17.371
484.97	17.540
485.31	17.979
485.66	16.790
486.01	15.899
486.36	15.179
486.70	15.245
487.05	15.832
487.40	15.909
487.75	16.457
488.09	16.894
488.44	17.078
488.79	17.468
489.13	18.144
489.48	17.863
489.83	18.170
490.17	18.106
490.52	17.892
490.87	17.051
491.22	17.417
491.56	18.041
491.91	17.822
492.26	17.547
492.60	18.203
492.95	17.119
493.30	17.850
493.64	17.732
493.99	17.595
494.34	17.761
494.68	18.773
495.03	18.139
495.37	18.008
495.72	18.080
496.07	17.448
496.41	17.832
496.76	17.414
497.11	17.199
497.45	17.606
497.80	17.946
498.14	18.454
498.49	17.220
498.84	18.552
499.18	17.810
499.53	17.901
499.87	17.195
500.22	17.946
500.56	18.641
500.91	17.740
501.26	18.065
501.60	18.178
501.95	18.103
502.29	18.276
502.64	18.250
502.98	17.251
503.33	17.733
503.67	17.958
504.02	17.820
504.36	17.127
504.71	17.098
505.06	17.976
505.40	17.550
505.75	17.888
506.09	17.979
506.44	17.908
506.78	17.730
507.13	18.173
507.47	18.333
507.82	18.896
508.16	17.680
508.51	18.113
508.85	18.123
509.19	17.500
509.54	18.112
509.88	18.032
510.23	17.841
510.57	18.111
510.92	18.177
511.26	18.294
511.61	17.583
511.95	17.954
512.30	17.869
512.64	17.894
512.98	18.917
513.33	17.880
513.67	17.503
514.02	17.965
514.36	18.187
514.70	18.484
515.05	17.178
515.39	18.508
515.74	18.074
516.08	18.558
516.42	18.923
516.77	18.952
517.11	17.925
517.46	18.679
517.80	18.699
518.14	18.124
518.49	19.078
518.83	18.580
519.17	18.707
519.52	17.940
519.86	18.369
520.20	19.711
520.55	19.090
520.89	19.221
521.23	19.300
521.58	18.908
521.92	19.045
522.26	18.121
522.61	19.065
522.95	18.355
523.29	18.198
523.64	18.841
523.98	19.717
524.32	18.577
524.66	19.182
525.01	18.811
525.35	18.835
525.69	17.549
526.04	18.692
526.38	18.975
526.72	19.448
527.06	18.895
527.41	18.626
527.75	19.228
528.09	18.561
528.43	19.312
528.78	18.808
529.12	18.848
529.46	19.228
529.80	18.502
530.15	18.754
530.49	18.646
530.83	18.734
531.17	18.930
531.51	19.650
531.86	18.710
532.20	19.231
532.54	19.218
532.88	19.705
533.22	18.426
533.57	19.321
533.91	18.483
534.25	18.469
534.59	18.121
534.93	17.668
535.27	17.683
535.62	19.292
535.96	18.519
536.30	18.373
536.64	18.480
536.98	19.177
537.32	18.499
537.66	18.533
538.01	19.092
538.35	18.423
538.69	19.272
539.03	18.064
539.37	17.891
539.71	18.017
540.05	17.908
540.39	18.140
540.73	18.176
541.07	19.403
541.42	19.113
541.76	19.226
542.10	19.017
542.44	18.609
542.78	19.104
543.12	16.699
543.46	18.295
543.80	18.933
544.14	17.394
544.48	18.540
544.82	18.089
545.16	17.697
545.50	17.802
545.84	18.481
546.18	18.249
546.52	18.032
546.86	18.076
547.20	18.206
547.54	19.238
547.88	18.559
548.22	18.306
548.56	17.547
548.90	16.901
549.24	18.316
549.58	18.622
549.92	18.613
550.26	20.099
550.60	19.018
550.94	19.085
551.28	17.630
551.62	18.692
551.96	17.895
552.30	18.908
552.64	18.729
552.98	17.966
553.32	19.016
553.66	18.337
554.00	17.845
554.34	17.805
554.68	18.741
555.02	18.477
555.36	18.441
555.69	17.794
556.03	18.035
556.37	18.349
556.71	17.531
557.05	18.137
557.39	18.684
557.73	18.066
558.07	18.347
558.41	18.307
558.75	18.369
559.08	17.972
559.42	17.838
559.76	19.191
560.10	17.987
560.44	18.029
560.78	17.365
561.12	16.887
561.45	18.253
561.79	17.007
562.13	17.639
562.47	18.852
562.81	17.434
563.15	17.458
563.48	17.639
563.82	16.634
564.16	17.266
564.50	17.253
564.84	18.142
565.17	17.310
565.51	17.444
565.85	17.703
566.19	16.969
566.52	17.479
566.86	16.516
567.20	17.748
567.54	17.123
567.88	16.350
568.21	17.831
568.55	16.582
568.89	15.661
569.23	15.419
569.56	15.344
569.90	15.472
570.24	15.178
570.57	15.199
570.91	14.641
571.25	14.947
571.59	14.728
571.92	14.343
572.26	14.500
572.60	15.075
572.93	14.123
573.27	14.907
573.61	14.322
573.95	14.470
574.28	13.945
574.62	13.751
574.96	14.122
575.29	14.113
575.63	14.151
575.97	14.059
576.30	14.259
576.64	13.798
576.98	13.952
577.31	13.748
577.65	14.007
577.98	14.274
578.32	13.423
578.66	13.774
578.99	13.650
579.33	13.822
579.67	13.622
580.00	13.762
580.34	14.191
580.67	13.827
581.01	14.144
581.35	13.847
581.68	13.744
582.02	13.364
582.35	13.255
582.69	13.493
583.02	13.622
583.36	13.696
583.70	14.011
584.03	13.871
584.37	14.730
584.70	13.845
585.04	14.335
585.37	13.700
585.71	13.910
586.04	13.916
586.38	14.263
586.72	14.416
587.05	13.556
587.39	13.404
587.72	14.043
588.06	13.981
588.39	14.294
588.73	13.992
589.06	14.459
589.40	14.848
589.73	14.185
590.07	14.164
590.40	14.140
590.73	14.481
591.07	15.303
591.40	15.099
591.74	15.887
592.07	15.227
592.41	14.924
592.74	14.569
593.08	14.357
593.41	13.793
593.75	13.585
594.08	14.381
594.41	14.457
594.75	13.863
595.08	14.281
595.42	14.116
595.75	13.640
596.09	14.420
596.42	14.578
596.75	14.605
597.09	15.498
597.42	14.376
597.75	14.661
598.09	14.913
598.42	15.163
598.76	14.147
599.09	13.949
599.42	13.755
599.76	14.056
600.09	13.443
600.42	13.769
600.76	13.643
601.09	14.171
601.42	13.737
601.76	13.928
602.09	14.585
602.42	14.172
602.76	14.873
603.09	14.713
603.42	14.447
603.76	14.634
604.09	14.114
604.42	14.594
604.76	14.382
605.09	14.504
605.42	14.365
605.75	14.197
606.09	14.233
606.42	14.017
606.75	14.102
607.09	14.860
607.42	14.377
607.75	14.304
608.08	14.459
608.42	15.374
608.75	13.886
609.08	13.969
609.41	15.183
609.75	14.340
610.08	14.797
610.41	14.199
610.74	14.333
611.07	14.625
611.41	14.720
611.74	15.586
612.07	14.803
612.40	15.058
612.73	15.263
613.07	15.302
613.40	15.534
613.73	15.207
614.06	15.215
614.39	14.683
614.72	14.737
615.06	15.494
615.39	13.800
615.72	14.724
616.05	14.195
616.38	15.175
616.71	14.905
617.05	16.431
617.38	15.454
617.71	15.435
618.04	15.865
618.37	15.198
618.70	15.557
619.03	16.184
619.36	16.701
619.69	16.268
620.03	15.865
620.36	15.241
620.69	16.575
621.02	15.560
621.35	15.740
621.68	17.290
622.01	16.254
622.34	16.188
622.67	15.513
623.00	15.407
623.33	15.511
623.66	16.440
623.99	15.464
624.32	16.476
624.65	15.537
624.99	15.085
625.32	15.496
625.65	16.003
625.98	15.911
626.31	16.796
626.64	16.408
626.97	17.041
627.30	15.129
627.63	17.145
627.96	17.914
628.29	16.710
628.62	16.560
628.95	18.208
629.28	16.332
629.61	17.140
629.94	17.524
630.26	18.208
630.59	17.636
630.92	17.337
631.25	17.177
631.58	17.317
631.91	17.546
632.24	17.827
632.57	17.733
632.90	17.434
633.23	17.562
633.56	18.192
633.89	20.045
634.22	18.161
634.55	19.053
634.88	19.281
635.20	18.160
635.53	19.036
635.86	19.059
636.19	16.941
636.52	17.878
636.85	18.099
637.18	18.318
637.51	19.267
637.83	17.139
638.16	19.565
638.49	19.018
638.82	19.090
639.15	19.250
639.48	19.825
639.81	20.777
640.13	18.880
640.46	19.060
640.79	19.022
641.12	18.019
641.45	20.112
641.77	18.851
642.10	20.614
642.43	19.670
642.76	20.279
643.09	21.626
643.41	19.272
643.74	20.062
644.07	19.970
644.40	21.626
644.73	21.732
645.05	21.236
645.38	19.747
645.71	22.222
646.04	21.262
646.36	20.701
646.69	22.575
647.02	21.939
647.35	21.134
647.67	21.062
648.00	22.439
648.33	19.472
648.66	20.758
648.98	20.540
649.31	18.087
649.64	20.329
649.96	20.417
650.29	19.431
650.62	18.932
650.94	23.015
651.27	22.973
651.60	21.963
651.92	21.086
652.25	17.264
652.58	19.159
652.90	19.905
653.23	20.031
653.56	18.740
653.88	21.236
654.21	22.749
654.54	19.637
654.86	19.626
655.19	16.486
655.52	11.656
655.84	9.387
656.17	11.573
656.49	15.554
656.82	16.203
657.15	12.424
657.47	9.352
657.80	7.482
658.13	7.922
658.45	12.158
658.78	12.497
659.10	13.293
659.43	14.261
659.75	15.185
660.08	16.519
660.41	19.460
660.73	20.203
661.06	19.904
661.38	23.091
661.71	22.692
662.03	22.288
662.36	19.682
662.68	22.892
663.01	23.030
663.33	20.807
663.66	21.639
663.98	24.622
664.31	23.950
664.63	21.053
664.96	19.920
665.28	24.385
665.61	21.832
665.93	24.547
666.26	22.515
666.58	23.013
666.91	26.004
667.23	24.270
667.56	24.622
667.88	23.077
668.21	23.881
668.53	22.993
668.86	24.892
669.18	24.520
669.50	20.870
669.83	23.094
670.15	24.444
670.48	22.440
670.80	22.845
671.13	22.718
671.45	22.766
671.77	23.625
672.10	21.811
672.42	20.141
672.75	20.730
673.07	17.077
673.39	20.253
673.72	17.969
674.04	22.157
674.37	22.913
674.69	21.063
675.01	20.711
675.34	25.051
675.66	22.737
675.98	21.996
676.31	22.899
676.63	22.081
676.95	21.384
677.28	21.495
677.60	23.297
677.92	24.895
678.25	22.177
678.57	21.116
678.89	22.244
679.22	20.825
679.54	21.183
679.86	20.734
680.18	20.394
680.51	20.390
680.83	20.996
681.15	20.566
681.48	22.684
681.80	22.437
682.12	20.690
682.44	21.083
682.77	21.996
683.09	23.605
683.41	24.169
683.73	23.400
684.06	24.587
684.38	21.331
684.70	21.512
685.02	21.201
685.34	18.498
685.67	17.832
685.99	19.072
686.31	17.747
686.63	19.435
686.96	18.929
687.28	18.953
687.60	18.841
687.92	20.110
688.24	19.392
688.56	23.293
688.89	22.614
689.21	24.891
689.53	22.338
689.85	24.169
690.17	21.532
690.49	21.656
690.82	22.430
691.14	24.107
691.46	17.932
691.78	22.088
692.10	19.835
692.42	21.557
692.74	20.124
693.06	21.915
693.39	22.793
693.71	22.271
694.03	22.737
694.35	22.294
694.67	21.510
694.99	25.366
695.31	21.324
695.63	25.359
695.95	25.428
696.27	24.112
696.59	19.171
696.91	25.389
697.23	20.423
697.56	23.667
697.88	18.609
698.20	21.458
698.52	18.495
698.84	22.049
699.16	20.737
699.48	20.903
699.80	23.430
700.12	26.234
700.44	27.056
700.76	24.586
701.08	23.276
701.40	22.626
701.72	27.114
702.04	30.398
702.36	27.479
702.68	22.946
703.00	24.377
703.32	24.202
703.64	23.592
703.96	23.955
704.28	26.163
704.60	29.032
704.91	29.080
705.23	28.446
705.55	29.900
705.87	27.907
706.19	31.095
706.51	25.857
706.83	26.667
707.15	25.490
707.47	22.475
707.79	23.342
708.11	23.288
708.43	23.333
708.74	21.429
709.06	25.714
709.38	21.522
709.70	27.035
710.02	27.003
710.34	24.848
710.66	27.164
710.98	26.989
711.29	27.035
711.61	30.678
711.93	27.564
712.25	28.939
712.57	24.632
712.89	25.606
713.20	27.356
713.52	27.303
713.84	27.215
714.16	25.610
714.48	25.287
714.80	27.660
715.11	24.207
715.43	24.926
715.75	25.507
716.07	24.281
716.39	26.959
716.70	27.575
717.02	31.655
717.34	28.975
717.66	32.836
717.97	34.263
718.29	31.481
718.61	28.102
718.93	27.574
719.24	26.644
719.56	26.441
719.88	30.847
720.20	30.405
720.51	32.056
720.83	33.086
721.15	29.104
721.46	28.014
721.78	27.240
722.10	28.302
722.42	28.195
722.73	25.468
723.05	30.738
723.37	32.794
723.68	33.205
724.00	29.268
724.32	29.435
724.63	30.488
724.95	28.870
725.27	30.769
725.58	31.250
725.90	32.482
726.22	29.811
726.53	31.250
726.85	26.621
727.16	28.114
727.48	25.532
727.80	32.197
728.11	25.362
728.43	25.000
728.74	25.090
729.06	29.927
729.38	30.147
729.69	29.181
730.01	23.891
730.32	25.347
730.64	26.421
730.96	25.083
731.27	27.152
731.59	26.606
731.90	26.531
732.22	25.155
732.53	22.601
732.85	25.321
733.16	27.010
733.48	28.571
733.80	28.247
734.11	26.752
734.43	26.923
734.74	20.000
735.06	22.350
735.37	29.191
735.69	24.204
736.00	29.739
736.32	25.545
736.63	24.601
736.95	27.476
737.26	23.129
737.58	27.097
737.89	28.428
738.21	27.645
738.52	33.214
738.83	30.189
739.15	31.154
739.46	26.277
739.78	28.819
740.09	28.308
740.41	27.742
740.72	27.178
741.04	30.370
741.35	30.417
741.66	36.889
741.98	30.660
742.29	35.407
742.61	36.207
742.92	31.222
743.23	35.043
743.55	33.200
743.86	31.140
744.18	33.628
744.49	35.407
744.80	35.211
745.12	37.273
745.43	33.040
745.74	31.532
746.06	32.569
746.37	34.529
746.68	35.747
747.00	34.259
747.31	35.238
747.62	30.088
747.94	33.480
748.25	28.936
748.56	34.361
748.88	32.673
749.19	37.500
749.50	34.884
749.82	26.829
750.13	28.571
750.44	27.372
750.75	28.070
751.07	30.868
751.38	31.707
751.69	24.910
752.01	31.579
752.32	25.271
752.63	29.787
752.94	26.639
753.26	34.800
753.57	27.236
753.88	30.078
754.19	31.429
754.51	29.167
754.82	25.271
755.13	29.057
755.44	23.308
755.75	29.197
756.07	26.241
756.38	22.993
756.69	29.195
757.00	25.449
757.31	22.552
757.63	22.222
757.94	24.129
758.25	21.569
758.56	20.494
758.87	22.581
759.18	24.242
759.50	24.138
759.81	25.545
760.12	21.562
760.43	27.221
760.74	22.826
761.05	26.271
761.36	22.995
761.67	24.716
761.99	21.739
762.30	29.861
762.61	27.099
762.92	37.500
763.23	30.672
763.54	34.000
763.85	26.953
764.16	31.154
764.47	31.179
764.78	24.735
765.10	25.316
765.41	26.254
765.72	23.653
766.03	28.527
766.34	24.000
766.65	31.489
766.96	26.923
767.27	32.487
767.58	39.062
767.89	37.368
768.20	44.253
768.51	39.594
768.82	34.404
769.13	28.455
769.44	28.745
769.75	30.043
770.06	29.817
770.37	33.484
770.68	32.407
770.99	28.000
771.30	25.820
771.61	34.081
771.92	27.869
772.23	38.235
772.54	31.282
772.85	34.555
773.16	37.766
773.47	41.848
773.78	38.071
774.09	39.881
774.39	40.351
774.70	38.889
775.01	45.652
775.32	49.673
775.63	43.421
775.94	48.921
776.25	51.969
776.56	40.299
776.87	50.820
777.18	55.469
777.48	45.802
777.79	48.485
778.10	46.667
778.41	48.214
778.72	40.146
779.03	45.638
779.34	44.295
779.65	38.514
779.95	42.331
780.26	50.327
780.57	48.276
780.88	55.469
781.19	38.346
781.50	44.595
781.80	44.025
782.11	37.853
782.42	43.671
782.73	34.356
783.04	45.946
783.34	44.366
783.65	48.630
783.96	43.284
784.27	41.259
784.57	37.410
784.88	53.704
785.19	50.000
785.50	53.774
785.81	50.000
786.11	44.262
786.42	58.915
786.73	50.442
787.04	52.830
787.34	53.571
787.65	51.000
787.96	54.955
788.26	44.628
788.57	55.085
788.88	58.678
789.19	56.944
789.49	61.364
789.80	45.802
790.11	62.857
790.41	59.406
790.72	61.446
791.03	65.217
791.33	66.279
791.64	58.763
791.95	71.287
792.25	73.333
792.56	72.727
792.87	75.641
793.17	75.949
793.48	66.667
793.79	60.920
794.09	60.227
794.40	57.983
794.70	50.000
795.01	45.185
795.32	48.921
795.62	51.969
795.93	49.138
796.23	61.062
796.54	62.353
796.85	81.081
797.15	90.141
797.46	78.788
797.76	71.084
798.07	65.823
798.37	84.615
798.68	71.212
798.99	49.296
799.29	63.636
799.60	54.545
799.90	73.973
800.21	89.552
800.51	94.828
800.82	100.000
801.12	95.082
801.43	83.333
801.73	74.324
802.04	96.825
802.34	87.654
802.65	100.000
802.95	100.000
803.26	109.375
803.56	68.571
803.87	76.923
804.17	88.235
804.48	100.000
804.78	86.207
805.09	91.176
805.39	103.846
805.70	105.357
806.00	95.082
806.30	86.364
806.61	79.268
806.91	64.557
807.22	85.526
807.52	80.597
807.83	74.648
808.13	85.938
808.43	85.000
808.74	60.526
809.04	63.768
809.35	97.015
809.65	80.263
809.95	109.677
810.26	81.356
810.56	87.302
810.86	125.000
811.17	130.952
811.47	100.000
811.77	103.704
812.08	114.545
812.38	136.000
812.69	147.222
812.99	125.000
813.29	112.245
813.59	121.429
813.90	108.163
814.20	103.636
814.50	86.154
814.81	98.529
815.11	118.367
815.41	95.082
815.72	147.619
816.02	116.364
816.32	116.667
816.62	135.000
816.93	112.195
817.23	133.333
817.53	118.182
817.84	145.455
818.14	119.565
818.44	102.222
818.74	138.235
819.04	145.000
819.35	142.857
819.65	132.353
819.95	157.143
820.25	220.000
820.56	138.462
820.86	129.545
821.16	125.581
821.46	135.897
821.76	112.000
822.07	162.857
822.37	140.000
822.67	139.394
822.97	98.039
823.27	167.857
823.57	135.135
823.88	157.500
824.18	183.333
824.48	152.381
824.78	180.000
825.08	200.000
825.38	129.730
825.69	109.756
825.99	241.667
826.29	179.310
826.59	123.684
826.89	160.526
827.19	132.353
827.49	154.839
827.79	138.636
828.09	120.455
828.39	110.638
828.70	126.531
829.00	133.333
829.30	119.355
829.60	122.500
829.90	300.000
830.20	196.429
830.50	234.783
830.80	204.348
831.10	183.333
831.40	156.667
831.70	182.609
832.00	234.615
832.30	203.704
832.60	331.250
832.90	220.000
833.20	414.286
833.50	196.774
833.80	172.414
834.10	193.750
834.40	246.154
834.70	288.889
835.00	319.048
835.30	148.571
835.60	284.615
835.90	200.000
836.20	335.714
836.50	175.862
836.80	180.000
837.10	186.111
837.40	242.857
837.70	364.706
838.00	211.111
838.30	228.571
838.60	266.667
838.90	223.077
839.19	300.000
839.49	371.429
839.79	300.000
840.09	285.000
840.39	252.381
840.69	234.783
840.99	322.222
841.29	470.000
841.59	275.000
841.88	362.500
842.18	189.655
842.48	276.190
842.78	206.667
843.08	226.087
843.38	159.375
843.68	683.333
843.97	223.077
844.27	182.759
844.57	257.143
844.87	368.750
845.17	200.000
845.47	1700.000
845.76	355.556
846.06	276.471
846.36	612.500
846.66	378.571
846.96	256.250
847.25	436.364
847.55	372.727
847.85	247.826
848.15	520.000
848.44	364.286
848.74	288.889
849.04	305.882
849.34	550.000
849.63	231.579
849.93	463.636
850.23	1180.000
850.53	435.714
850.82	2150.000
851.12	-4700.000
851.42	5500.000
851.71	285.000
852.01	-1166.667
852.31	245.833
852.61	1566.667
852.90	309.524
853.20	256.000
853.50	341.176
853.79	252.381
854.09	191.667
854.39	268.750
854.68	170.270
854.98	161.290
855.28	170.000
855.57	213.793
855.87	203.704
856.17	242.105
856.46	273.333
856.76	323.529
857.05	213.793
857.35	266.667
857.65	340.000
857.94	239.130
858.24	219.231
858.53	305.000
858.83	218.182
859.13	373.333
859.42	0.000
859.72	566.667
860.01	509.091
860.31	236.364
860.60	310.526
860.90	208.696
861.20	555.556
861.49	491.667
861.79	-4100.000
862.08	650.000
862.38	309.524
862.67	269.231
862.97	352.941
863.26	633.333
863.56	244.444
863.85	450.000
864.15	562.500
864.44	386.667
864.74	900.000
865.03	625.000
865.33	263.158
865.62	436.364
865.92	376.923
866.21	375.000
866.51	0.000
866.80	390.909
867.10	1080.000
867.39	400.000
867.69	454.545
867.98	305.263
868.27	500.000
868.57	342.105
868.86	-3900.000
869.16	356.250
869.45	2450.000
869.75	-4200.000
870.04	350.000
870.33	742.857
870.63	1200.000
870.92	2600.000
871.22	757.143
871.51	352.941
871.80	195.238
872.10	407.143
>>>>>End Processed Spectral Data<<<<<
