SpectraSuite Data File
++++++++++++++++++++++++++++++++++++
Date: Wed May 13 15:59:43 PDT 2015
User: schluterlab
Dark Spectrum Present: Yes
Reference Spectrum Present: Yes
Number of Sampled Component Spectra: 1
Spectrometers: USB2E3373
Integration Time (usec): 3000 (USB2E3373)
Spectra Averaged: 3 (USB2E3373)
Boxcar Smoothing: 0 (USB2E3373)
Correct for Electrical Dark: No (USB2E3373)
Strobe/Lamp Enabled: No (USB2E3373)
Correct for Detector Non-linearity: No (USB2E3373)
Correct for Stray Light: No (USB2E3373)
Number of Pixels in Processed Spectrum: 2048
>>>>>Begin Processed Spectral Data<<<<<
178.53	0.000
178.91	-350.000
179.29	-350.000
179.67	-50.000
180.04	-275.000
180.42	550.000
180.80	180.000
181.18	-0.000
181.56	214.286
181.94	0.000
182.31	-214.286
182.69	633.333
183.07	-125.000
183.45	-77.778
183.83	218.182
184.20	-110.000
184.58	250.000
184.96	1700.000
185.34	-160.000
185.72	-137.500
186.09	-300.000
186.47	750.000
186.85	900.000
187.23	1100.000
187.61	-433.333
187.98	325.000
188.36	254.545
188.74	100.000
189.12	-0.000
189.49	170.000
189.87	-1000.000
190.25	-175.000
190.63	100.000
191.00	153.846
191.38	250.000
191.76	-25.000
192.14	550.000
192.51	137.500
192.89	300.000
193.27	-12.500
193.65	125.000
194.02	110.000
194.40	100.000
194.78	170.000
195.15	108.333
195.53	190.000
195.91	-800.000
196.29	93.750
196.66	63.158
197.04	10.000
197.42	0.000
197.79	180.000
198.17	-1300.000
198.55	128.571
198.92	137.500
199.30	180.000
199.68	0.000
200.05	111.111
200.43	300.000
200.81	900.000
201.18	566.667
201.56	-566.667
201.94	77.778
202.31	211.111
202.69	83.333
203.07	130.000
203.44	0.000
203.82	125.000
204.19	271.429
204.57	157.143
204.95	212.500
205.32	133.333
205.70	127.273
206.08	85.714
206.45	550.000
206.83	50.000
207.20	216.667
207.58	200.000
207.96	105.556
208.33	237.500
208.71	-283.333
209.08	314.286
209.46	177.778
209.84	90.909
210.21	-266.667
210.59	475.000
210.96	-12.500
211.34	300.000
211.71	190.000
212.09	183.333
212.46	0.000
212.84	233.333
213.22	450.000
213.59	-1000.000
213.97	150.000
214.34	228.571
214.72	281.818
215.09	240.000
215.47	-550.000
215.84	-400.000
216.22	666.667
216.59	235.714
216.97	425.000
217.34	127.273
217.72	-100.000
218.09	0.000
218.47	-600.000
218.84	222.222
219.22	171.429
219.59	500.000
219.97	-85.714
220.34	140.000
220.72	-466.667
221.09	92.857
221.47	300.000
221.84	-300.000
222.22	0.000
222.59	425.000
222.97	-900.000
223.34	280.000
223.72	176.923
224.09	340.000
224.46	350.000
224.84	-1200.000
225.21	-300.000
225.59	-200.000
225.96	200.000
226.34	85.000
226.71	950.000
227.08	162.500
227.46	130.000
227.83	-50.000
228.21	-800.000
228.58	111.111
228.95	-400.000
229.33	-100.000
229.70	666.667
230.08	200.000
230.45	-80.000
230.82	50.000
231.20	166.667
231.57	185.714
231.95	166.667
232.32	50.000
232.69	54.545
233.07	42.857
233.44	53.846
233.81	-366.667
234.19	105.263
234.56	58.333
234.93	58.333
235.31	81.818
235.68	53.846
236.05	107.143
236.43	39.394
236.80	73.684
237.17	1600.000
237.55	66.667
237.92	78.571
238.29	66.667
238.67	93.548
239.04	82.759
239.41	63.889
239.79	52.174
240.16	83.333
240.53	77.273
240.91	47.059
241.28	44.000
241.65	54.000
242.02	57.971
242.40	41.935
242.77	65.000
243.14	59.140
243.51	42.697
243.89	45.882
244.26	46.667
244.63	40.860
245.00	37.234
245.38	42.574
245.75	45.794
246.12	39.450
246.49	51.825
246.87	51.200
247.24	50.769
247.61	38.571
247.98	46.405
248.36	41.892
248.73	33.121
249.10	41.401
249.47	40.113
249.84	37.433
250.22	37.968
250.59	39.645
250.96	39.899
251.33	38.863
251.70	38.614
252.08	36.190
252.45	34.529
252.82	35.217
253.19	40.851
253.56	38.431
253.94	39.419
254.31	37.891
254.68	39.615
255.05	37.269
255.42	40.244
255.79	38.603
256.16	38.989
256.54	33.569
256.91	34.520
257.28	34.532
257.65	36.304
258.02	38.509
258.39	36.278
258.76	35.452
259.14	34.524
259.51	37.994
259.88	36.335
260.25	39.275
260.62	36.416
260.99	34.783
261.36	34.535
261.73	36.103
262.10	34.884
262.47	34.930
262.85	36.490
263.22	34.758
263.59	37.037
263.96	33.242
264.33	34.204
264.70	35.526
265.07	35.038
265.44	33.838
265.81	33.577
266.18	36.935
266.55	33.171
266.92	35.872
267.29	34.954
267.66	34.633
268.03	37.500
268.40	34.112
268.77	32.936
269.14	37.838
269.51	37.472
269.88	32.401
270.25	33.634
270.62	36.854
270.99	37.204
271.36	33.476
271.73	36.682
272.10	34.565
272.47	35.484
272.84	33.117
273.21	32.704
273.58	31.878
273.95	31.447
274.32	34.091
274.69	37.687
275.06	29.331
275.43	31.915
275.80	33.267
276.17	34.012
276.54	35.343
276.91	33.004
277.28	32.812
277.65	34.623
278.02	33.333
278.39	33.984
278.76	30.909
279.13	34.528
279.50	33.520
279.87	34.263
280.23	33.134
280.60	32.108
280.97	31.978
281.34	31.150
281.71	31.455
282.08	34.933
282.45	32.000
282.82	30.728
283.19	31.373
283.56	31.404
283.92	34.518
284.29	30.688
284.66	33.757
285.03	30.199
285.40	30.810
285.77	30.808
286.14	31.088
286.51	31.667
286.87	32.479
287.24	31.270
287.61	30.016
287.98	28.896
288.35	31.062
288.72	29.439
289.08	30.829
289.45	29.489
289.82	29.756
290.19	30.455
290.56	29.096
290.93	26.737
291.29	28.528
291.66	26.696
292.03	29.506
292.40	29.662
292.77	28.698
293.13	28.060
293.50	27.551
293.87	28.148
294.24	25.481
294.60	23.581
294.97	26.744
295.34	26.234
295.71	26.420
296.08	25.926
296.44	28.473
296.81	24.439
297.18	26.965
297.55	24.670
297.91	23.879
298.28	25.703
298.65	25.718
299.02	25.823
299.38	25.232
299.75	22.372
300.12	21.967
300.48	23.875
300.85	22.811
301.22	24.968
301.59	23.359
301.95	24.055
302.32	23.492
302.69	23.536
303.05	23.152
303.42	24.815
303.79	22.650
304.15	23.310
304.52	21.900
304.89	21.254
305.25	21.926
305.62	21.744
305.99	24.321
306.35	22.595
306.72	22.085
307.09	23.751
307.45	23.986
307.82	22.098
308.19	22.848
308.55	23.517
308.92	23.201
309.29	21.119
309.65	22.481
310.02	22.199
310.38	21.398
310.75	22.914
311.12	22.723
311.48	22.675
311.85	24.738
312.22	22.581
312.58	21.310
312.95	23.020
313.31	20.971
313.68	22.765
314.05	23.866
314.41	21.809
314.78	21.954
315.14	21.549
315.51	23.275
315.87	22.673
316.24	21.946
316.61	22.515
316.97	21.233
317.34	20.254
317.70	23.327
318.07	22.137
318.43	22.896
318.80	22.118
319.16	23.164
319.53	20.263
319.89	22.095
320.26	23.200
320.62	22.421
320.99	22.020
321.35	21.010
321.72	22.485
322.08	23.495
322.45	22.886
322.81	23.062
323.18	22.254
323.54	22.913
323.91	22.642
324.27	21.606
324.64	21.622
325.00	21.190
325.37	21.656
325.73	22.352
326.10	21.801
326.46	22.312
326.83	22.088
327.19	22.032
327.56	21.167
327.92	20.997
328.29	22.183
328.65	22.007
329.01	21.209
329.38	21.462
329.74	20.776
330.11	21.395
330.47	21.488
330.84	21.232
331.20	21.311
331.56	21.284
331.93	21.574
332.29	21.295
332.66	21.327
333.02	21.024
333.38	21.409
333.75	21.480
334.11	22.064
334.48	20.763
334.84	21.232
335.20	21.000
335.57	20.490
335.93	19.821
336.29	21.886
336.66	21.190
337.02	19.548
337.38	21.296
337.75	20.143
338.11	20.680
338.47	19.613
338.84	20.073
339.20	19.908
339.56	22.263
339.93	20.455
340.29	19.565
340.65	20.053
341.02	20.768
341.38	21.174
341.74	19.211
342.11	20.961
342.47	19.912
342.83	19.777
343.20	20.866
343.56	20.472
343.92	19.825
344.28	21.003
344.65	19.433
345.01	19.276
345.37	20.326
345.73	20.389
346.10	20.205
346.46	19.915
346.82	20.593
347.19	19.632
347.55	18.555
347.91	20.227
348.27	20.707
348.63	20.736
349.00	18.366
349.36	19.787
349.72	19.888
350.08	19.773
350.45	20.342
350.81	20.390
351.17	21.475
351.53	19.984
351.89	18.894
352.26	19.811
352.62	19.727
352.98	19.206
353.34	20.049
353.70	18.903
354.07	18.871
354.43	19.683
354.79	18.745
355.15	19.314
355.51	19.584
355.87	18.776
356.24	19.218
356.60	19.006
356.96	19.308
357.32	19.052
357.68	19.764
358.04	18.606
358.40	19.002
358.77	19.484
359.13	18.074
359.49	18.824
359.85	19.127
360.21	18.660
360.57	19.611
360.93	19.000
361.29	19.350
361.66	17.957
362.02	18.657
362.38	18.859
362.74	19.271
363.10	17.469
363.46	17.975
363.82	18.745
364.18	18.355
364.54	19.316
364.90	19.618
365.26	18.235
365.62	18.919
365.98	18.554
366.35	18.123
366.71	19.089
367.07	18.572
367.43	19.811
367.79	18.986
368.15	18.534
368.51	17.805
368.87	18.701
369.23	19.093
369.59	18.827
369.95	18.309
370.31	18.875
370.67	17.536
371.03	20.225
371.39	19.388
371.75	18.529
372.11	18.706
372.47	18.548
372.83	19.308
373.19	18.497
373.55	18.921
373.91	19.735
374.27	18.625
374.63	17.309
374.99	19.209
375.35	17.516
375.71	18.574
376.07	18.656
376.42	18.157
376.78	18.555
377.14	18.996
377.50	18.411
377.86	19.082
378.22	18.331
378.58	17.544
378.94	18.228
379.30	18.830
379.66	18.718
380.02	18.612
380.38	18.094
380.74	19.388
381.09	18.276
381.45	18.931
381.81	18.612
382.17	18.662
382.53	18.239
382.89	18.827
383.25	18.199
383.61	18.463
383.97	19.637
384.32	18.403
384.68	18.340
385.04	18.623
385.40	18.762
385.76	18.305
386.12	19.365
386.48	19.257
386.83	18.666
387.19	19.109
387.55	18.924
387.91	19.166
388.27	18.639
388.62	18.931
388.98	18.366
389.34	19.274
389.70	19.191
390.06	19.455
390.42	18.807
390.77	18.511
391.13	19.336
391.49	18.528
391.85	19.096
392.20	17.603
392.56	18.434
392.92	19.070
393.28	17.574
393.64	19.065
393.99	19.181
394.35	18.672
394.71	18.632
395.07	17.570
395.42	18.603
395.78	19.020
396.14	18.374
396.50	19.173
396.85	18.881
397.21	18.866
397.57	18.909
397.92	18.089
398.28	18.386
398.64	18.817
399.00	18.019
399.35	18.274
399.71	18.808
400.07	19.160
400.42	19.080
400.78	19.300
401.14	18.780
401.49	18.269
401.85	18.270
402.21	18.802
402.57	18.137
402.92	18.663
403.28	17.926
403.63	18.626
403.99	18.153
404.35	18.242
404.70	18.345
405.06	18.346
405.42	17.966
405.77	18.457
406.13	17.889
406.49	19.397
406.84	18.015
407.20	18.381
407.55	18.060
407.91	17.600
408.27	18.188
408.62	17.700
408.98	18.260
409.34	18.143
409.69	18.903
410.05	18.649
410.40	18.349
410.76	18.519
411.11	18.758
411.47	18.466
411.83	19.059
412.18	18.120
412.54	17.684
412.89	18.193
413.25	18.359
413.60	18.468
413.96	17.547
414.31	18.287
414.67	18.124
415.03	17.682
415.38	18.428
415.74	18.778
416.09	18.027
416.45	18.809
416.80	17.383
417.16	19.169
417.51	19.244
417.87	17.855
418.22	17.792
418.58	17.883
418.93	17.936
419.29	18.141
419.64	18.703
420.00	18.476
420.35	18.377
420.71	18.410
421.06	17.661
421.42	17.895
421.77	18.105
422.12	18.136
422.48	16.945
422.83	17.938
423.19	18.453
423.54	18.166
423.90	18.145
424.25	18.090
424.61	16.726
424.96	18.309
425.31	17.996
425.67	17.865
426.02	17.486
426.38	19.109
426.73	17.671
427.09	17.812
427.44	18.229
427.79	18.171
428.15	17.619
428.50	18.607
428.85	18.594
429.21	18.112
429.56	17.989
429.92	18.369
430.27	17.875
430.62	17.460
430.98	18.371
431.33	17.990
431.68	18.377
432.04	18.317
432.39	18.218
432.74	18.791
433.10	18.676
433.45	18.542
433.80	17.738
434.16	18.643
434.51	18.053
434.86	18.073
435.22	18.677
435.57	18.784
435.92	18.081
436.28	18.268
436.63	18.653
436.98	17.401
437.34	16.875
437.69	18.903
438.04	18.437
438.39	18.149
438.75	19.756
439.10	18.101
439.45	18.418
439.81	18.550
440.16	17.617
440.51	18.629
440.86	18.819
441.22	18.131
441.57	17.941
441.92	17.912
442.27	19.107
442.63	18.167
442.98	19.211
443.33	18.750
443.68	18.431
444.03	18.253
444.39	18.014
444.74	18.398
445.09	18.383
445.44	19.027
445.79	19.198
446.15	18.846
446.50	17.663
446.85	18.705
447.20	18.409
447.55	18.928
447.91	18.533
448.26	18.865
448.61	18.994
448.96	18.992
449.31	19.741
449.66	18.627
450.02	18.329
450.37	18.141
450.72	18.838
451.07	18.464
451.42	18.055
451.77	19.143
452.12	18.764
452.47	18.843
452.83	18.706
453.18	18.460
453.53	19.233
453.88	17.070
454.23	18.051
454.58	18.716
454.93	18.055
455.28	18.267
455.63	19.114
455.98	20.000
456.34	17.776
456.69	18.723
457.04	19.195
457.39	18.469
457.74	19.327
458.09	18.919
458.44	18.814
458.79	19.089
459.14	19.018
459.49	18.622
459.84	19.169
460.19	17.914
460.54	18.229
460.89	18.486
461.24	19.369
461.59	19.465
461.94	18.866
462.29	18.991
462.64	17.741
462.99	17.892
463.34	19.467
463.69	18.824
464.04	19.188
464.39	18.435
464.74	18.241
465.09	18.758
465.44	18.560
465.79	18.680
466.14	18.774
466.49	18.242
466.84	18.739
467.19	18.829
467.54	18.875
467.89	18.007
468.24	19.663
468.59	18.987
468.94	18.326
469.29	18.702
469.64	19.880
469.99	19.283
470.34	17.900
470.68	19.325
471.03	17.823
471.38	19.110
471.73	19.254
472.08	18.684
472.43	19.410
472.78	18.828
473.13	18.742
473.48	19.226
473.83	18.902
474.17	18.855
474.52	18.300
474.87	19.323
475.22	19.095
475.57	18.485
475.92	19.331
476.27	18.940
476.61	18.974
476.96	18.637
477.31	18.629
477.66	19.475
478.01	19.132
478.36	19.672
478.70	18.536
479.05	19.010
479.40	19.601
479.75	18.353
480.10	18.539
480.45	18.467
480.79	18.538
481.14	19.080
481.49	18.130
481.84	18.427
482.19	19.264
482.53	18.578
482.88	19.218
483.23	18.785
483.58	18.926
483.92	18.791
484.27	17.821
484.62	18.664
484.97	18.408
485.31	19.007
485.66	17.748
486.01	17.612
486.36	17.338
486.70	17.606
487.05	18.042
487.40	18.054
487.75	18.154
488.09	18.441
488.44	18.412
488.79	18.698
489.13	18.717
489.48	18.638
489.83	18.817
490.17	19.071
490.52	18.335
490.87	17.910
491.22	18.645
491.56	18.269
491.91	18.613
492.26	17.915
492.60	18.710
492.95	18.428
493.30	18.037
493.64	19.132
493.99	18.477
494.34	18.640
494.68	18.452
495.03	18.891
495.37	18.474
495.72	18.324
496.07	18.933
496.41	18.053
496.76	19.041
497.11	18.865
497.45	18.724
497.80	18.810
498.14	18.068
498.49	17.756
498.84	18.744
499.18	18.619
499.53	18.519
499.87	18.733
500.22	18.653
500.56	19.466
500.91	17.596
501.26	18.682
501.60	18.462
501.95	18.698
502.29	19.072
502.64	18.994
502.98	18.747
503.33	18.327
503.67	19.165
504.02	18.428
504.36	18.999
504.71	18.613
505.06	18.602
505.40	18.911
505.75	17.743
506.09	18.610
506.44	18.007
506.78	18.266
507.13	18.980
507.47	18.535
507.82	19.048
508.16	19.453
508.51	19.381
508.85	18.173
509.19	18.980
509.54	18.469
509.88	18.496
510.23	18.869
510.57	19.195
510.92	18.799
511.26	18.808
511.61	19.606
511.95	18.528
512.30	18.664
512.64	18.592
512.98	19.078
513.33	19.165
513.67	18.463
514.02	18.452
514.36	18.569
514.70	18.594
515.05	19.297
515.39	19.069
515.74	18.863
516.08	19.508
516.42	19.145
516.77	19.454
517.11	18.590
517.46	19.131
517.80	18.641
518.14	18.587
518.49	19.778
518.83	19.375
519.17	19.688
519.52	19.128
519.86	19.338
520.20	19.595
520.55	19.210
520.89	19.891
521.23	19.843
521.58	18.848
521.92	20.147
522.26	18.121
522.61	19.315
522.95	19.521
523.29	18.807
523.64	19.695
523.98	19.347
524.32	19.059
524.66	18.701
525.01	19.056
525.35	18.525
525.69	18.658
526.04	19.252
526.38	19.402
526.72	19.202
527.06	19.021
527.41	18.255
527.75	19.357
528.09	18.626
528.43	18.674
528.78	19.238
529.12	19.394
529.46	19.657
529.80	19.431
530.15	20.187
530.49	18.462
530.83	19.114
531.17	19.974
531.51	19.715
531.86	19.613
532.20	19.883
532.54	20.243
532.88	19.641
533.22	18.676
533.57	19.568
533.91	20.169
534.25	19.198
534.59	19.524
534.93	19.572
535.27	18.648
535.62	19.353
535.96	18.581
536.30	18.500
536.64	19.189
536.98	19.177
537.32	19.421
537.66	19.000
538.01	19.289
538.35	19.005
538.69	19.145
539.03	17.934
539.37	18.978
539.71	18.017
540.05	19.150
540.39	19.867
540.73	19.017
541.07	19.922
541.42	19.178
541.76	19.484
542.10	19.534
542.44	18.940
542.78	19.302
543.12	18.682
543.46	19.803
543.80	19.974
544.14	18.164
544.48	19.746
544.82	18.409
545.16	19.128
545.50	19.344
545.84	18.280
546.18	18.721
546.52	19.064
546.86	19.313
547.20	19.690
547.54	18.971
547.88	20.599
548.22	19.178
548.56	18.742
548.90	18.886
549.24	18.384
549.58	19.304
549.92	19.299
550.26	19.460
550.60	18.465
550.94	19.014
551.28	18.947
551.62	19.626
551.96	18.807
552.30	19.317
552.64	19.202
552.98	18.983
553.32	19.083
553.66	20.382
554.00	19.835
554.34	18.150
554.68	19.456
555.02	18.547
555.36	18.650
555.69	18.471
556.03	19.515
556.37	19.031
556.71	18.486
557.05	19.398
557.39	17.985
557.73	18.490
558.07	18.999
558.41	19.247
558.75	18.883
559.08	19.612
559.42	19.501
559.76	18.015
560.10	19.129
560.44	18.798
560.78	18.829
561.12	18.865
561.45	19.231
561.79	18.985
562.13	18.645
562.47	18.648
562.81	18.340
563.15	18.462
563.48	18.767
563.82	18.069
564.16	19.359
564.50	18.099
564.84	18.521
565.17	19.176
565.51	19.681
565.85	18.528
566.19	18.159
566.52	19.126
566.86	18.324
567.20	19.163
567.54	18.550
567.88	18.848
568.21	18.889
568.55	18.504
568.89	18.191
569.23	18.672
569.56	17.895
569.90	19.057
570.24	18.622
570.57	18.293
570.91	17.485
571.25	17.974
571.59	17.467
571.92	18.289
572.26	17.851
572.60	18.078
572.93	17.781
573.27	18.219
573.61	17.979
573.95	18.140
574.28	18.166
574.62	17.590
574.96	17.276
575.29	17.532
575.63	17.226
575.97	17.339
576.30	18.216
576.64	17.892
576.98	17.623
577.31	17.699
577.65	17.698
577.98	17.933
578.32	17.276
578.66	17.568
578.99	17.827
579.33	17.865
579.67	17.514
580.00	17.646
580.34	17.584
580.67	17.703
581.01	17.922
581.35	17.509
581.68	17.686
582.02	17.439
582.35	17.486
582.69	17.927
583.02	17.284
583.36	17.478
583.70	17.882
584.03	17.947
584.37	17.997
584.70	18.495
585.04	17.857
585.37	18.103
585.71	18.210
586.04	17.927
586.38	17.973
586.72	18.531
587.05	17.550
587.39	17.335
587.72	17.495
588.06	17.823
588.39	18.052
588.73	17.630
589.06	18.105
589.40	18.114
589.73	18.585
590.07	18.719
590.40	17.757
590.73	18.189
591.07	18.641
591.40	18.895
591.74	18.874
592.07	18.237
592.41	18.520
592.74	17.566
593.08	18.055
593.41	18.190
593.75	17.739
594.08	18.069
594.41	17.745
594.75	18.004
595.08	17.717
595.42	18.109
595.75	18.162
596.09	17.987
596.42	18.468
596.75	18.700
597.09	18.788
597.42	17.707
597.75	18.327
598.09	18.522
598.42	18.643
598.76	18.200
599.09	17.636
599.42	17.722
599.76	18.302
600.09	18.251
600.42	18.006
600.76	17.893
601.09	17.741
601.42	18.341
601.76	18.406
602.09	18.221
602.42	18.432
602.76	18.904
603.09	18.332
603.42	18.079
603.76	18.178
604.09	17.875
604.42	18.916
604.76	18.515
605.09	18.785
605.42	18.085
605.75	18.129
606.09	18.259
606.42	17.940
606.75	18.208
607.09	18.585
607.42	18.571
607.75	17.932
608.08	18.411
608.42	18.467
608.75	17.719
609.08	18.085
609.41	18.991
609.75	17.913
610.08	19.321
610.41	18.156
610.74	18.307
611.07	18.676
611.41	18.008
611.74	19.005
612.07	18.478
612.40	17.786
612.73	18.368
613.07	18.588
613.40	18.378
613.73	17.462
614.06	18.118
614.39	17.934
614.72	19.000
615.06	18.908
615.39	18.047
615.72	18.661
616.05	17.544
616.38	18.121
616.71	18.646
617.05	18.198
617.38	18.761
617.71	18.498
618.04	18.870
618.37	18.273
618.70	18.917
619.03	19.934
619.36	18.601
619.69	18.521
620.03	20.055
620.36	19.318
620.69	18.699
621.02	19.174
621.35	18.481
621.68	19.081
622.01	17.570
622.34	18.457
622.67	18.783
623.00	18.635
623.33	17.798
623.66	19.299
623.99	18.925
624.32	17.404
624.65	18.644
624.99	17.918
625.32	19.189
625.65	19.159
625.98	18.294
626.31	19.907
626.64	19.265
626.97	18.371
627.30	18.204
627.63	19.196
627.96	19.008
628.29	19.335
628.62	19.030
628.95	21.792
629.28	20.164
629.61	20.990
629.94	19.619
630.26	19.638
630.59	20.019
630.92	18.008
631.25	18.954
631.58	19.319
631.91	18.154
632.24	19.831
632.57	18.888
632.90	18.640
633.23	19.575
633.56	18.983
633.89	19.479
634.22	19.864
634.55	20.710
634.88	19.401
635.20	21.027
635.53	20.241
635.86	19.431
636.19	20.000
636.52	19.377
636.85	18.442
637.18	18.779
637.51	19.267
637.83	17.633
638.16	19.565
638.49	20.151
638.82	20.354
639.15	20.500
639.48	19.327
639.81	20.777
640.13	20.182
640.46	20.268
640.79	20.740
641.12	19.532
641.45	19.413
641.77	19.882
642.10	20.175
642.43	18.168
642.76	19.195
643.09	20.706
643.41	18.513
643.74	20.679
644.07	19.665
644.40	21.166
644.73	19.055
645.05	21.395
645.38	18.167
645.71	19.002
646.04	20.100
646.36	22.037
646.69	20.401
647.02	18.027
647.35	22.680
647.67	21.947
648.00	20.976
648.33	21.287
648.66	18.788
648.98	19.790
649.31	17.489
649.64	21.076
649.96	18.629
650.29	18.799
650.62	19.741
650.94	20.583
651.27	19.932
651.60	19.468
651.92	20.447
652.25	16.287
652.58	19.626
652.90	19.905
653.23	17.720
653.56	18.425
653.88	20.444
654.21	21.801
654.54	20.132
654.86	21.184
655.19	19.730
655.52	17.573
655.84	16.518
656.17	20.396
656.49	27.263
656.82	27.041
657.15	20.293
657.47	15.216
657.80	11.808
658.13	12.201
658.45	17.971
658.78	17.790
659.10	18.261
659.43	19.673
659.75	19.652
660.08	20.000
660.41	20.205
660.73	19.949
661.06	19.268
661.38	20.727
661.71	22.308
662.03	21.893
662.36	18.489
662.68	19.478
663.01	21.212
663.33	20.382
663.66	23.950
663.98	19.654
664.31	20.168
664.63	19.838
664.96	20.322
665.28	21.311
665.61	20.663
665.93	20.121
666.26	17.850
666.58	19.038
666.91	23.467
667.23	18.427
667.56	18.790
667.88	20.085
668.21	20.896
668.53	19.306
668.86	17.749
669.18	22.814
669.50	20.000
669.83	23.529
670.15	20.222
670.48	20.261
670.80	20.043
671.13	21.868
671.45	21.702
671.77	20.163
672.10	20.333
672.42	23.145
672.75	20.398
673.07	17.782
673.39	19.711
673.72	18.359
674.04	19.608
674.37	18.058
674.69	20.245
675.01	18.201
675.34	21.355
675.66	20.211
675.98	20.774
676.31	19.748
676.63	19.958
676.95	21.593
677.28	19.393
677.60	21.538
677.92	21.941
678.25	18.070
678.57	19.721
678.89	19.439
679.22	20.236
679.54	19.275
679.86	21.835
680.18	17.889
680.51	18.085
680.83	20.641
681.15	19.245
681.48	21.550
681.80	20.503
682.12	18.774
682.44	16.248
682.77	20.978
683.09	22.103
683.41	20.843
683.73	21.634
684.06	21.074
684.38	17.613
684.70	19.186
685.02	19.700
685.34	21.612
685.67	15.909
685.99	19.072
686.31	16.724
686.63	16.608
686.96	18.214
687.28	18.412
687.60	19.565
687.92	21.389
688.24	20.722
688.56	21.687
688.89	20.954
689.21	22.707
689.53	18.372
689.85	20.399
690.17	19.669
690.49	19.321
690.82	18.925
691.14	17.187
691.46	19.620
691.78	20.482
692.10	19.008
692.42	21.158
692.74	18.257
693.06	22.128
693.39	19.713
693.71	21.616
694.03	21.474
694.35	19.264
694.67	18.307
694.99	19.756
695.31	19.118
695.63	17.943
695.95	19.804
696.27	17.259
696.59	18.394
696.91	21.762
697.23	17.840
697.56	20.682
697.88	17.996
698.20	19.167
698.52	19.355
698.84	18.931
699.16	17.742
699.48	18.290
699.80	15.700
700.12	25.455
700.44	18.833
700.76	19.337
701.08	20.402
701.40	20.391
701.72	24.490
702.04	25.000
702.36	18.697
702.68	19.547
703.00	20.776
703.32	15.160
703.64	17.158
703.96	20.613
704.28	18.023
704.60	21.408
704.91	19.585
705.23	20.821
705.55	19.269
705.87	26.246
706.19	18.375
706.51	19.315
706.83	23.030
707.15	21.008
707.47	20.202
707.79	20.639
708.11	22.146
708.43	20.714
708.74	16.327
709.06	19.481
709.38	22.572
709.70	19.477
710.02	20.475
710.34	19.697
710.66	22.985
710.98	21.307
711.29	20.930
711.61	25.664
711.93	22.115
712.25	22.830
712.57	17.647
712.89	22.837
713.20	17.629
713.52	23.026
713.84	20.570
714.16	20.732
714.48	20.690
714.80	22.188
715.11	23.055
715.43	21.068
715.75	17.101
716.07	19.169
716.39	21.317
716.70	20.266
717.02	23.022
717.34	19.081
717.66	21.642
717.97	19.124
718.29	20.741
718.61	20.438
718.93	15.441
719.24	22.145
719.56	18.644
719.88	22.712
720.20	21.959
720.51	22.300
720.83	23.420
721.15	18.657
721.46	19.149
721.78	23.297
722.10	21.887
722.42	16.917
722.73	23.596
723.05	20.492
723.37	21.053
723.68	19.691
724.00	21.138
724.32	18.952
724.63	17.886
724.95	15.900
725.27	23.077
725.58	25.000
725.90	19.343
726.22	22.264
726.53	22.222
726.85	17.406
727.16	19.929
727.48	20.567
727.80	19.697
728.11	18.116
728.43	17.692
728.74	20.789
729.06	26.642
729.38	20.956
729.69	21.708
730.01	18.089
730.32	18.056
730.64	21.739
730.96	18.812
731.27	21.523
731.59	21.407
731.90	23.324
732.22	19.565
732.53	19.814
732.85	21.154
733.16	20.257
733.48	19.934
733.80	21.429
734.11	23.248
734.43	21.302
734.74	18.286
735.06	18.911
735.37	21.098
735.69	20.064
736.00	21.242
736.32	20.249
736.63	17.891
736.95	22.045
737.26	13.605
737.58	19.677
737.89	18.729
738.21	20.819
738.52	20.714
738.83	21.509
739.15	21.923
739.46	19.343
739.78	19.792
740.09	22.769
740.41	21.613
740.72	19.861
741.04	17.407
741.35	18.750
741.66	26.667
741.98	17.925
742.29	22.488
742.61	23.707
742.92	17.647
743.23	22.650
743.55	22.000
743.86	21.930
744.18	20.796
744.49	23.445
744.80	23.005
745.12	22.727
745.43	22.907
745.74	21.171
746.06	21.560
746.37	21.973
746.68	24.434
747.00	25.463
747.31	26.190
747.62	19.469
747.94	17.621
748.25	17.872
748.56	26.872
748.88	16.337
749.19	24.500
749.50	22.326
749.82	21.138
750.13	17.551
750.44	18.978
750.75	22.105
751.07	25.080
751.38	22.997
751.69	19.495
752.01	23.308
752.32	16.968
752.63	18.794
752.94	19.262
753.26	21.600
753.57	18.699
753.88	25.000
754.19	20.000
754.51	23.264
754.82	17.329
755.13	21.509
755.44	23.308
755.75	21.898
756.07	20.213
756.38	18.248
756.69	22.819
757.00	22.455
757.31	20.772
757.63	19.006
757.94	21.984
758.25	20.098
758.56	20.247
758.87	18.548
759.18	19.697
759.50	17.241
759.81	23.364
760.12	20.000
760.43	22.350
760.74	17.120
761.05	18.644
761.36	19.519
761.67	20.739
761.99	18.944
762.30	21.528
762.61	21.756
762.92	24.219
763.23	23.950
763.54	25.200
763.85	16.797
764.16	24.615
764.47	18.251
764.78	16.961
765.10	18.987
765.41	19.174
765.72	19.162
766.03	21.317
766.34	17.000
766.65	19.149
766.96	24.786
767.27	23.858
767.58	21.354
767.89	25.789
768.20	25.862
768.51	19.289
768.82	23.853
769.13	15.854
769.44	21.053
769.75	15.451
770.06	15.138
770.37	23.529
770.68	27.315
770.99	19.556
771.30	20.492
771.61	24.664
771.92	21.721
772.23	24.370
772.54	23.077
772.85	21.990
773.16	21.277
773.47	23.913
773.78	24.365
774.09	15.476
774.39	21.637
774.70	22.222
775.01	21.739
775.32	29.412
775.63	26.316
775.94	23.022
776.25	31.496
776.56	23.134
776.87	22.131
777.18	22.656
777.48	30.534
777.79	23.485
778.10	28.889
778.41	23.214
778.72	21.898
779.03	26.174
779.34	21.477
779.65	24.324
779.95	24.540
780.26	25.490
780.57	28.966
780.88	32.812
781.19	25.564
781.50	29.730
781.80	31.447
782.11	22.599
782.42	22.785
782.73	20.859
783.04	29.730
783.34	23.944
783.65	23.973
783.96	22.388
784.27	19.580
784.57	20.863
784.88	14.815
785.19	31.746
785.50	23.585
785.81	30.597
786.11	25.410
786.42	26.357
786.73	25.664
787.04	24.528
787.34	30.357
787.65	28.000
787.96	34.234
788.26	21.488
788.57	25.424
788.88	31.405
789.19	31.250
789.49	34.091
789.80	25.191
790.11	35.238
790.41	34.653
790.72	20.482
791.03	30.435
791.33	33.721
791.64	32.990
791.95	32.673
792.25	21.111
792.56	27.273
792.87	39.744
793.17	34.177
793.48	33.333
793.79	32.184
794.09	28.409
794.40	23.529
794.70	22.059
795.01	28.889
795.32	22.302
795.62	22.835
795.93	34.483
796.23	30.088
796.54	28.235
796.85	17.568
797.15	46.479
797.46	28.788
797.76	42.169
798.07	30.380
798.37	16.923
798.68	24.242
798.99	30.986
799.29	32.468
799.60	28.409
799.90	38.356
800.21	40.299
800.51	25.862
800.82	26.316
801.12	24.590
801.43	33.333
801.73	16.216
802.04	42.857
802.34	32.099
802.65	40.625
802.95	27.119
803.26	51.563
803.56	21.429
803.87	33.846
804.17	36.765
804.48	44.444
804.78	18.966
805.09	44.118
805.39	26.923
805.70	46.429
806.00	37.705
806.30	21.212
806.61	31.707
806.91	26.582
807.22	26.316
807.52	23.881
807.83	39.437
808.13	28.125
808.43	46.667
808.74	27.632
809.04	31.884
809.35	35.821
809.65	34.211
809.95	51.613
810.26	25.424
810.56	42.857
810.86	36.364
811.17	59.524
811.47	43.333
811.77	29.630
812.08	41.818
812.38	50.000
812.69	38.889
812.99	70.455
813.29	34.694
813.59	23.810
813.90	51.020
814.20	49.091
814.50	30.769
814.81	23.529
815.11	42.857
815.41	60.656
815.72	40.476
816.02	38.182
816.32	35.714
816.62	30.000
816.93	19.512
817.23	42.857
817.53	34.091
817.84	51.515
818.14	52.174
818.44	42.222
818.74	55.882
819.04	67.500
819.35	34.286
819.65	52.941
819.95	35.714
820.25	30.000
820.56	33.333
820.86	47.727
821.16	32.558
821.46	51.282
821.76	70.000
822.07	51.429
822.37	42.500
822.67	57.576
822.97	39.216
823.27	46.429
823.57	72.973
823.88	65.000
824.18	70.000
824.48	50.000
824.78	64.000
825.08	37.500
825.38	45.946
825.69	41.463
825.99	87.500
826.29	20.690
826.59	50.000
826.89	55.263
827.19	61.765
827.49	48.387
827.79	38.636
828.09	63.636
828.39	36.170
828.70	55.102
829.00	37.037
829.30	32.258
829.60	72.500
829.90	40.000
830.20	46.429
830.50	39.130
830.80	56.522
831.10	76.667
831.40	46.667
831.70	52.174
832.00	88.462
832.30	62.963
832.60	43.750
832.90	63.333
833.20	50.000
833.50	93.548
833.80	41.379
834.10	53.125
834.40	76.923
834.70	111.111
835.00	147.619
835.30	51.429
835.60	30.769
835.90	58.621
836.20	50.000
836.50	65.517
836.80	12.000
837.10	80.556
837.40	57.143
837.70	105.882
838.00	74.074
838.30	61.905
838.60	57.143
838.90	46.154
839.19	100.000
839.49	192.857
839.79	140.000
840.09	85.000
840.39	104.762
840.69	104.348
840.99	133.333
841.29	150.000
841.59	50.000
841.88	106.250
842.18	62.069
842.48	76.190
842.78	66.667
843.08	82.609
843.38	75.000
843.68	200.000
843.97	96.154
844.27	58.621
844.57	100.000
844.87	112.500
845.17	74.074
845.47	133.333
845.76	11.111
846.06	64.706
846.36	62.500
846.66	7.143
846.96	43.750
847.25	109.091
847.55	0.000
847.85	100.000
848.15	150.000
848.44	78.571
848.74	-5.556
849.04	70.588
849.34	90.000
849.63	57.895
849.93	100.000
850.23	200.000
850.53	42.857
850.82	400.000
851.12	-1700.000
851.42	-300.000
851.71	55.000
852.01	-33.333
852.31	54.167
852.61	466.667
852.90	138.095
853.20	80.000
853.50	111.765
853.79	76.190
854.09	33.333
854.39	87.500
854.68	67.568
854.98	70.968
855.28	40.000
855.57	55.172
855.87	70.370
856.17	31.579
856.46	60.000
856.76	52.941
857.05	93.103
857.35	45.833
857.65	60.000
857.94	47.826
858.24	76.923
858.53	70.000
858.83	31.818
859.13	93.333
859.42	0.000
859.72	177.778
860.01	63.636
860.31	59.091
860.60	78.947
860.90	69.565
861.20	122.222
861.49	150.000
861.79	-1700.000
862.08	200.000
862.38	157.143
862.67	-30.769
862.97	152.941
863.26	177.778
863.56	105.556
863.85	41.667
864.15	62.500
864.44	120.000
864.74	83.333
865.03	200.000
865.33	63.158
865.62	109.091
865.92	176.923
866.21	91.667
866.51	0.000
866.80	109.091
867.10	440.000
867.39	200.000
867.69	181.818
867.98	110.526
868.27	90.909
868.57	142.105
868.86	-600.000
869.16	75.000
869.45	50.000
869.75	-100.000
870.04	41.667
870.33	214.286
870.63	0.000
870.92	250.000
871.22	171.429
871.51	152.941
871.80	28.571
872.10	107.143
>>>>>End Processed Spectral Data<<<<<
