SpectraSuite Data File
++++++++++++++++++++++++++++++++++++
Date: Wed May 13 16:55:34 PDT 2015
User: schluterlab
Dark Spectrum Present: Yes
Reference Spectrum Present: Yes
Number of Sampled Component Spectra: 1
Spectrometers: USB2E3373
Integration Time (usec): 3000 (USB2E3373)
Spectra Averaged: 3 (USB2E3373)
Boxcar Smoothing: 0 (USB2E3373)
Correct for Electrical Dark: No (USB2E3373)
Strobe/Lamp Enabled: No (USB2E3373)
Correct for Detector Non-linearity: No (USB2E3373)
Correct for Stray Light: No (USB2E3373)
Number of Pixels in Processed Spectrum: 2048
>>>>>Begin Processed Spectral Data<<<<<
178.53	0.000
178.91	-1175.000
179.29	-1450.000
179.67	-250.000
180.04	-1525.000
180.42	2600.000
180.80	1160.000
181.18	-1100.000
181.56	700.000
181.94	0.000
182.31	-714.286
182.69	1666.667
183.07	-512.500
183.45	-477.778
183.83	600.000
184.20	-390.000
184.58	2400.000
184.96	5700.000
185.34	-840.000
185.72	-587.500
186.09	-2650.000
186.47	2800.000
186.85	1900.000
187.23	5000.000
187.61	-1566.667
187.98	1300.000
188.36	545.455
188.74	490.909
189.12	-940.000
189.49	570.000
189.87	-4600.000
190.25	-1350.000
190.63	371.429
191.00	438.462
191.38	916.667
191.76	-1175.000
192.14	1575.000
192.51	650.000
192.89	983.333
193.27	737.500
193.65	-1225.000
194.02	460.000
194.40	1180.000
194.78	560.000
195.15	500.000
195.53	620.000
195.91	-2350.000
196.29	368.750
196.66	321.053
197.04	-390.000
197.42	0.000
197.79	640.000
198.17	-4800.000
198.55	700.000
198.92	737.500
199.30	1140.000
199.68	0.000
200.05	333.333
200.43	885.714
200.81	4100.000
201.18	1600.000
201.56	-1600.000
201.94	533.333
202.31	666.667
202.69	375.000
203.07	510.000
203.44	0.000
203.82	1325.000
204.19	671.429
204.57	400.000
204.95	687.500
205.32	1566.667
205.70	618.182
206.08	385.714
206.45	2850.000
206.83	393.750
207.20	1000.000
207.58	860.000
207.96	372.222
208.33	637.500
208.71	-850.000
209.08	842.857
209.46	488.889
209.84	481.818
210.21	-1533.333
210.59	1325.000
210.96	-500.000
211.34	3000.000
211.71	540.000
212.09	883.333
212.46	0.000
212.84	1566.667
213.22	1500.000
213.59	-4200.000
213.97	816.667
214.34	728.571
214.72	554.545
215.09	1080.000
215.47	-2150.000
215.84	-2500.000
216.22	1900.000
216.59	457.143
216.97	1450.000
217.34	436.364
217.72	-816.667
218.09	0.000
218.47	-5300.000
218.84	611.111
219.22	714.286
219.59	1866.667
219.97	-614.286
220.34	860.000
220.72	-2066.667
221.09	392.857
221.47	1400.000
221.84	-866.667
222.22	0.000
222.59	1275.000
222.97	-2200.000
223.34	1220.000
223.72	453.846
224.09	1040.000
224.46	2300.000
224.84	-4900.000
225.21	-1040.000
225.59	-5200.000
225.96	590.000
226.34	315.000
226.71	2750.000
227.08	712.500
227.46	520.000
227.83	-1225.000
228.21	-2700.000
228.58	655.556
228.95	-2550.000
229.33	-2550.000
229.70	1633.333
230.08	742.857
230.45	-920.000
230.82	533.333
231.20	816.667
231.57	585.714
231.95	541.667
232.32	259.091
232.69	454.545
233.07	728.571
233.44	400.000
233.81	-1866.667
234.19	305.263
234.56	383.333
234.93	475.000
235.31	427.273
235.68	361.538
236.05	407.143
236.43	184.848
236.80	289.474
237.17	4400.000
237.55	304.762
237.92	207.143
238.29	276.190
238.67	190.323
239.04	193.103
239.41	172.222
239.79	123.913
240.16	150.000
240.53	147.727
240.91	113.725
241.28	126.000
241.65	110.000
242.02	115.942
242.40	103.226
242.77	103.333
243.14	88.172
243.51	89.888
243.89	96.471
244.26	84.444
244.63	74.194
245.00	82.979
245.38	81.188
245.75	69.159
246.12	67.890
246.49	78.832
246.87	72.000
247.24	66.154
247.61	60.000
247.98	64.052
248.36	59.459
248.73	65.605
249.10	65.605
249.47	53.107
249.84	57.754
250.22	61.497
250.59	57.988
250.96	53.030
251.33	56.398
251.70	54.455
252.08	59.048
252.45	45.291
252.82	47.391
253.19	48.936
253.56	51.373
253.94	51.037
254.31	49.609
254.68	51.538
255.05	51.661
255.42	44.309
255.79	50.000
256.16	49.097
256.54	48.410
256.91	49.822
257.28	44.964
257.65	47.525
258.02	45.031
258.39	45.110
258.76	46.823
259.14	46.131
259.51	42.249
259.88	46.584
260.25	46.526
260.62	42.775
260.99	45.963
261.36	48.048
261.73	42.980
262.10	41.279
262.47	47.042
262.85	43.175
263.22	41.595
263.59	44.160
263.96	40.385
264.33	43.864
264.70	41.053
265.07	41.176
265.44	43.182
265.81	39.659
266.18	42.462
266.55	40.244
266.92	37.592
267.29	42.593
267.66	40.596
268.03	37.727
268.40	42.290
268.77	41.050
269.14	40.991
269.51	42.664
269.88	41.958
270.25	40.406
270.62	40.899
270.99	42.581
271.36	37.554
271.73	42.523
272.10	39.783
272.47	40.430
272.84	38.745
273.21	41.090
273.58	38.210
273.95	35.849
274.32	38.223
274.69	39.186
275.06	35.630
275.43	39.574
275.80	38.076
276.17	39.104
276.54	41.164
276.91	36.759
277.28	35.742
277.65	40.232
278.02	36.232
278.39	40.820
278.76	35.273
279.13	38.868
279.50	35.940
279.87	39.044
280.23	38.922
280.60	38.104
280.97	38.817
281.34	38.584
281.71	37.091
282.08	38.004
282.45	39.091
282.82	34.813
283.19	36.720
283.56	34.211
283.92	36.210
284.29	33.862
284.66	34.301
285.03	36.166
285.40	33.803
285.77	35.690
286.14	32.988
286.51	35.333
286.87	34.188
287.24	35.668
287.61	34.992
287.98	33.766
288.35	33.122
288.72	34.112
289.08	33.803
289.45	33.937
289.82	34.309
290.19	32.496
290.56	33.997
290.93	33.233
291.29	33.742
291.66	34.513
292.03	33.285
292.40	33.333
292.77	30.917
293.13	31.642
293.50	32.362
293.87	33.037
294.24	30.815
294.60	31.004
294.97	29.651
295.34	29.760
295.71	29.830
296.08	30.199
296.44	29.849
296.81	26.156
297.18	29.268
297.55	27.309
297.91	27.836
298.28	29.853
298.65	28.721
299.02	28.986
299.38	27.357
299.75	28.571
300.12	27.714
300.48	26.625
300.85	27.497
301.22	27.643
301.59	25.631
301.95	26.952
302.32	27.086
302.69	27.957
303.05	26.303
303.42	26.790
303.79	26.048
304.15	27.273
304.52	25.492
304.89	27.875
305.25	25.870
305.62	26.048
305.99	26.092
306.35	25.056
306.72	26.457
307.09	26.415
307.45	26.351
307.82	25.112
308.19	25.497
308.55	25.351
308.92	25.779
309.29	23.865
309.65	25.981
310.02	25.264
310.38	25.376
310.75	25.766
311.12	24.667
311.48	24.660
311.85	26.310
312.22	26.535
312.58	24.844
312.95	25.766
313.31	24.272
313.68	25.780
314.05	24.951
314.41	25.226
314.78	25.176
315.14	23.932
315.51	25.541
315.87	24.851
316.24	25.223
316.61	23.489
316.97	24.364
317.34	24.070
317.70	24.952
318.07	24.735
318.43	25.049
318.80	25.961
319.16	24.953
319.53	24.109
319.89	25.238
320.26	24.600
320.62	24.802
320.99	24.343
321.35	25.253
321.72	24.230
322.08	23.988
322.45	26.169
322.81	25.194
323.18	25.819
323.54	25.417
323.91	24.623
324.27	24.857
324.64	23.952
325.00	23.986
325.37	23.112
325.73	25.494
326.10	23.654
326.46	23.118
326.83	24.418
327.19	24.594
327.56	24.042
327.92	23.710
328.29	23.602
328.65	24.494
329.01	24.549
329.38	25.069
329.74	23.361
330.11	23.940
330.47	24.242
330.84	24.632
331.20	22.860
331.56	23.303
331.93	22.593
332.29	23.602
332.66	23.451
333.02	22.761
333.38	25.203
333.75	25.490
334.11	23.043
334.48	22.360
334.84	23.162
335.20	23.909
335.57	23.844
335.93	22.589
336.29	23.626
336.66	23.445
337.02	23.258
337.38	22.778
337.75	22.995
338.11	23.456
338.47	22.376
338.84	23.648
339.20	21.743
339.56	24.088
339.93	22.273
340.29	23.098
340.65	22.727
341.02	23.298
341.38	23.932
341.74	22.544
342.11	23.319
342.47	22.819
342.83	21.918
343.20	24.069
343.56	22.662
343.92	22.807
344.28	22.279
344.65	23.388
345.01	21.549
345.37	21.955
345.73	24.196
346.10	22.506
346.46	22.627
346.82	22.158
347.19	21.888
347.55	22.906
347.91	22.492
348.27	23.090
348.63	22.157
349.00	21.764
349.36	22.332
349.72	21.572
350.08	21.232
350.45	22.050
350.81	22.502
351.17	21.556
351.53	21.212
351.89	21.535
352.26	21.863
352.62	22.694
352.98	22.204
353.34	22.021
353.70	20.376
354.07	22.258
354.43	22.778
354.79	20.354
355.15	21.868
355.51	21.982
355.87	22.939
356.24	22.394
356.60	21.893
356.96	21.802
357.32	21.913
357.68	21.732
358.04	21.140
358.40	22.644
358.77	21.205
359.13	20.047
359.49	20.314
359.85	20.317
360.21	20.654
360.57	22.568
360.93	22.000
361.29	20.862
361.66	20.975
362.02	22.239
362.38	20.837
362.74	20.833
363.10	20.503
363.46	20.029
363.82	20.333
364.18	20.925
364.54	22.140
364.90	21.813
365.26	21.103
365.62	20.307
365.98	20.307
366.35	19.484
366.71	20.390
367.07	20.029
367.43	20.972
367.79	21.271
368.15	22.342
368.51	19.477
368.87	20.985
369.23	20.702
369.59	21.579
369.95	20.294
370.31	20.085
370.67	20.652
371.03	21.723
371.39	20.773
371.75	20.662
372.11	20.768
372.47	21.701
372.83	21.614
373.19	21.026
373.55	20.769
373.91	21.944
374.27	19.931
374.63	20.655
374.99	20.692
375.35	19.888
375.71	20.631
376.07	21.125
376.42	20.977
376.78	20.941
377.14	20.421
377.50	20.993
377.86	20.080
378.22	20.164
378.58	18.922
378.94	19.673
379.30	20.229
379.66	20.241
380.02	21.622
380.38	19.733
380.74	20.528
381.09	19.560
381.45	20.959
381.81	20.946
382.17	20.191
382.53	20.126
382.89	21.358
383.25	20.263
383.61	20.384
383.97	20.763
384.32	20.337
384.68	20.260
385.04	20.406
385.40	20.000
385.76	19.717
386.12	20.466
386.48	21.082
386.83	20.462
387.19	20.779
387.55	19.852
387.91	20.193
388.27	19.865
388.62	19.238
388.98	19.902
389.34	21.089
389.70	20.478
390.06	20.849
390.42	20.882
390.77	20.547
391.13	20.102
391.49	20.876
391.85	19.669
392.20	19.558
392.56	20.265
392.92	19.953
393.28	19.882
393.64	20.863
393.99	20.953
394.35	20.037
394.71	20.891
395.07	20.561
395.42	20.952
395.78	20.293
396.14	21.105
396.50	20.363
396.85	19.708
397.21	20.592
397.57	20.831
397.92	20.913
398.28	19.563
398.64	19.952
399.00	19.810
399.35	19.346
399.71	20.370
400.07	20.639
400.42	20.613
400.78	21.170
401.14	20.122
401.49	19.701
401.85	19.540
402.21	18.982
402.57	20.049
402.92	19.735
403.28	21.362
403.63	20.359
403.99	20.255
404.35	20.424
404.70	19.604
405.06	20.617
405.42	19.900
405.77	19.771
406.13	20.147
406.49	20.106
406.84	20.555
407.20	19.681
407.55	20.102
407.91	20.000
408.27	19.719
408.62	20.349
408.98	19.485
409.34	20.234
409.69	20.129
410.05	20.756
410.40	19.511
410.76	19.056
411.11	20.265
411.47	19.808
411.83	19.914
412.18	19.419
412.54	19.552
412.89	19.940
413.25	20.071
413.60	20.568
413.96	19.308
414.31	19.745
414.67	20.025
415.03	19.868
415.38	19.652
415.74	19.807
416.09	19.726
416.45	19.813
416.80	19.498
417.16	20.107
417.51	20.239
417.87	19.782
418.22	20.946
418.58	19.884
418.93	20.147
419.29	19.860
419.64	20.340
420.00	20.366
420.35	20.058
420.71	20.203
421.06	19.749
421.42	19.942
421.77	19.226
422.12	19.652
422.48	18.457
422.83	19.918
423.19	20.110
423.54	20.081
423.90	20.522
424.25	20.045
424.61	20.238
424.96	19.708
425.31	19.989
425.67	18.933
426.02	19.886
426.38	19.780
426.73	18.841
427.09	19.574
427.44	19.321
427.79	19.551
428.15	20.000
428.50	19.602
428.85	20.024
429.21	18.829
429.56	19.336
429.92	18.822
430.27	19.315
430.62	19.252
430.98	19.097
431.33	19.536
431.68	19.319
432.04	19.010
432.39	19.246
432.74	19.868
433.10	20.204
433.45	20.583
433.80	19.678
434.16	19.498
434.51	19.000
434.86	20.068
435.22	19.177
435.57	19.757
435.92	19.134
436.28	20.047
436.63	19.923
436.98	18.489
437.34	19.738
437.69	19.720
438.04	19.224
438.39	18.567
438.75	19.175
439.10	19.609
439.45	19.599
439.81	18.429
440.16	19.424
440.51	19.625
440.86	19.572
441.22	18.743
441.57	18.631
441.92	19.754
442.27	18.891
442.63	19.221
442.98	19.549
443.33	19.239
443.68	19.050
444.03	18.887
444.39	18.647
444.74	19.589
445.09	19.353
445.44	18.917
445.79	19.000
446.15	19.746
446.50	19.763
446.85	19.013
447.20	18.868
447.55	19.375
447.91	19.360
448.26	19.254
448.61	19.333
448.96	19.269
449.31	19.291
449.66	19.809
450.02	18.050
450.37	18.934
450.72	18.895
451.07	18.647
451.42	18.967
451.77	20.082
452.12	19.804
452.47	19.279
452.83	19.406
453.18	19.377
453.53	19.728
453.88	19.197
454.23	18.589
454.58	19.564
454.93	20.470
455.28	19.264
455.63	18.811
455.98	20.119
456.34	19.221
456.69	20.288
457.04	19.071
457.39	18.936
457.74	18.862
458.09	20.184
458.44	19.384
458.79	18.113
459.14	19.131
459.49	19.323
459.84	19.003
460.19	17.914
460.54	18.634
460.89	18.925
461.24	18.822
461.59	20.105
461.94	19.297
462.29	19.407
462.64	19.336
462.99	19.584
463.34	19.867
463.69	18.449
464.04	18.899
464.39	19.420
464.74	19.251
465.09	18.637
465.44	18.947
465.79	18.456
466.14	18.117
466.49	19.077
466.84	19.323
467.19	19.493
467.54	19.437
467.89	19.148
468.24	19.663
468.59	19.475
468.94	18.693
469.29	19.409
469.64	19.277
469.99	19.012
470.34	19.155
470.68	19.397
471.03	19.660
471.38	19.180
471.73	19.387
472.08	19.013
472.43	20.163
472.78	18.367
473.13	18.485
473.48	19.351
473.83	19.390
474.17	18.855
474.52	18.921
474.87	19.498
475.22	19.037
475.57	18.270
475.92	18.906
476.27	18.602
476.61	18.974
476.96	18.582
477.31	18.367
477.66	18.600
478.01	18.557
478.36	18.826
478.70	18.380
479.05	18.637
479.40	19.038
479.75	18.760
480.10	18.091
480.45	18.229
480.79	17.726
481.14	18.444
481.49	18.652
481.84	18.061
482.19	17.765
482.53	18.440
482.88	19.265
483.23	17.944
483.58	18.471
483.92	18.276
484.27	17.952
484.62	17.845
484.97	17.856
485.31	17.979
485.66	17.404
486.01	16.618
486.36	15.582
486.70	15.538
487.05	16.419
487.40	16.650
487.75	16.813
488.09	17.592
488.44	17.712
488.79	18.228
489.13	18.564
489.48	17.741
489.83	16.918
490.17	18.676
490.52	18.202
490.87	18.137
491.22	17.553
491.56	16.993
491.91	17.915
492.26	17.501
492.60	17.650
492.95	17.774
493.30	17.710
493.64	17.685
493.99	17.874
494.34	17.021
494.68	17.857
495.03	18.186
495.37	17.357
495.72	18.031
496.07	18.608
496.41	17.389
496.76	18.338
497.11	17.920
497.45	18.258
497.80	17.610
498.14	17.778
498.49	17.707
498.84	18.696
499.18	17.619
499.53	17.664
499.87	18.173
500.22	17.240
500.56	18.786
500.91	16.875
501.26	18.303
501.60	18.035
501.95	17.553
502.29	17.526
502.64	17.691
502.98	18.373
503.33	16.819
503.67	17.958
504.02	17.259
504.36	17.595
504.71	17.538
505.06	17.639
505.40	17.501
505.75	17.792
506.09	17.396
506.44	18.007
506.78	17.681
507.13	17.466
507.47	17.778
507.82	18.744
508.16	18.389
508.51	18.721
508.85	17.875
509.19	17.449
509.54	17.704
509.88	17.517
510.23	17.995
510.57	18.215
510.92	17.866
511.26	18.088
511.61	18.050
511.95	18.163
512.30	17.497
512.64	17.786
512.98	18.221
513.33	17.398
513.67	17.930
514.02	17.424
514.36	17.313
514.70	17.598
515.05	18.182
515.39	18.284
515.74	18.356
516.08	18.390
516.42	18.313
516.77	19.231
517.11	17.814
517.46	17.777
517.80	18.235
518.14	17.834
518.49	18.145
518.83	18.068
519.17	18.360
519.52	18.223
519.86	18.654
520.20	18.382
520.55	17.774
520.89	17.883
521.23	19.119
521.58	18.307
521.92	17.820
522.26	17.694
522.61	18.006
522.95	17.618
523.29	18.077
523.64	18.537
523.98	18.176
524.32	17.853
524.66	18.280
525.01	18.382
525.35	18.030
525.69	18.165
526.04	18.069
526.38	18.914
526.72	18.589
527.06	18.016
527.41	17.017
527.75	18.521
528.09	18.561
528.43	18.356
528.78	19.545
529.12	17.515
529.46	18.555
529.80	17.760
530.15	19.003
530.49	17.969
530.83	18.671
531.17	19.060
531.51	19.131
531.86	19.097
532.20	19.883
532.54	19.539
532.88	18.614
533.22	17.739
533.57	18.765
533.91	18.122
534.25	18.287
534.59	18.487
534.93	18.203
535.27	18.165
535.62	18.498
535.96	18.770
536.30	18.309
536.64	18.287
536.98	18.315
537.32	17.841
537.66	18.067
538.01	18.762
538.35	18.681
538.69	19.400
539.03	17.999
539.37	16.997
539.71	16.980
540.05	17.843
540.39	18.538
540.73	17.917
541.07	19.079
541.42	18.526
541.76	18.968
542.10	19.340
542.44	18.344
542.78	18.445
543.12	17.722
543.46	18.557
543.80	18.087
544.14	17.651
544.48	19.111
544.82	18.345
545.16	17.957
545.50	18.380
545.84	18.280
546.18	17.441
546.52	19.133
546.86	17.938
547.20	18.813
547.54	18.504
547.88	19.069
548.22	18.369
548.56	18.616
548.90	17.542
549.24	17.104
549.58	18.622
549.92	18.475
550.26	19.815
550.60	18.188
550.94	19.155
551.28	18.508
551.62	19.051
551.96	17.965
552.30	19.249
552.64	18.458
552.98	18.237
553.32	19.218
553.66	18.882
554.00	19.355
554.34	18.219
554.68	19.313
555.02	17.983
555.36	18.024
555.69	17.253
556.03	18.439
556.37	18.076
556.71	18.486
557.05	18.137
557.39	18.195
557.73	18.843
558.07	18.564
558.41	18.379
558.75	19.251
559.08	19.239
559.42	18.670
559.76	18.824
560.10	18.915
560.44	19.147
560.78	17.432
561.12	17.942
561.45	18.253
561.79	18.062
562.13	19.852
562.47	18.169
562.81	19.107
563.15	17.793
563.48	18.833
563.82	18.069
564.16	17.070
564.50	17.969
564.84	18.015
565.17	18.082
565.51	18.786
565.85	18.401
566.19	17.909
566.52	19.063
566.86	17.782
567.20	18.101
567.54	18.322
567.88	17.490
568.21	17.884
568.55	17.796
568.89	17.267
569.23	17.201
569.56	16.680
569.90	16.755
570.24	17.223
570.57	16.797
570.91	16.742
571.25	16.461
571.59	16.701
571.92	16.820
572.26	17.100
572.60	16.847
572.93	16.582
573.27	17.007
573.61	16.834
573.95	16.512
574.28	16.357
574.62	16.399
574.96	15.962
575.29	16.295
575.63	16.743
575.97	16.610
576.30	16.968
576.64	16.073
576.98	16.359
577.31	16.335
577.65	16.287
577.98	16.305
578.32	16.322
578.66	16.038
578.99	16.617
579.33	16.146
579.67	15.982
580.00	16.567
580.34	16.398
580.67	16.095
581.01	16.865
581.35	16.118
581.68	16.496
582.02	16.162
582.35	15.986
582.69	15.861
583.02	16.175
583.36	16.694
583.70	16.933
584.03	16.823
584.37	17.365
584.70	16.876
585.04	16.389
585.37	16.473
585.71	16.400
586.04	16.622
586.38	16.954
586.72	16.984
587.05	16.952
587.39	16.491
587.72	16.954
588.06	16.089
588.39	16.818
588.73	16.720
589.06	17.077
589.40	17.037
589.73	17.459
590.07	17.687
590.40	16.843
590.73	17.916
591.07	17.867
591.40	17.124
591.74	18.052
592.07	17.627
592.41	17.652
592.74	17.715
593.08	16.889
593.41	16.197
593.75	15.959
594.08	16.661
594.41	17.073
594.75	17.116
595.08	17.215
595.42	17.478
595.75	17.664
596.09	17.274
596.42	17.446
596.75	18.362
597.09	18.139
597.42	17.369
597.75	17.292
598.09	17.000
598.42	16.796
598.76	17.025
599.09	16.306
599.42	16.812
599.76	16.947
600.09	16.393
600.42	16.545
600.76	17.071
601.09	16.721
601.42	16.971
601.76	17.154
602.09	16.482
602.42	17.436
602.76	17.977
603.09	17.073
603.42	17.649
603.76	16.806
604.09	17.138
604.42	16.714
604.76	17.798
605.09	17.213
605.42	17.016
605.75	17.260
606.09	16.917
606.42	17.573
606.75	17.254
607.09	17.539
607.42	17.544
607.75	17.215
608.08	16.848
608.42	17.660
608.75	17.448
609.08	17.715
609.41	17.182
609.75	16.818
610.08	17.861
610.41	16.946
610.74	17.360
611.07	17.144
611.41	17.174
611.74	18.100
612.07	17.495
612.40	17.786
612.73	17.211
613.07	18.642
613.40	18.325
613.73	17.095
614.06	18.333
614.39	16.990
614.72	17.316
615.06	17.542
615.39	17.834
615.72	17.689
616.05	17.863
616.38	17.954
616.71	18.112
617.05	18.669
617.38	17.619
617.71	17.778
618.04	18.029
618.37	18.037
618.70	19.104
619.03	18.224
619.36	18.534
619.69	18.944
620.03	18.887
620.36	18.516
620.69	18.082
621.02	19.395
621.35	18.324
621.68	17.835
622.01	19.659
622.34	19.062
622.67	17.414
623.00	17.975
623.33	16.941
623.66	18.799
623.99	18.262
624.32	17.689
624.65	17.302
624.99	17.564
625.32	18.103
625.65	19.083
625.98	18.832
626.31	19.129
626.64	18.531
626.97	19.036
627.30	18.038
627.63	19.852
627.96	19.008
628.29	19.160
628.62	19.396
628.95	20.566
629.28	18.613
629.61	18.882
629.94	20.286
630.26	18.970
630.59	19.733
630.92	19.349
631.25	17.769
631.58	18.819
631.91	19.675
632.24	19.515
632.57	18.363
632.90	19.298
633.23	20.246
633.56	20.452
633.89	20.612
634.22	20.204
634.55	20.000
634.88	20.958
635.20	21.266
635.53	19.277
635.86	18.688
636.19	21.059
636.52	19.493
636.85	19.702
637.18	19.931
637.51	20.095
637.83	17.509
638.16	21.611
638.49	19.647
638.82	20.607
639.15	20.625
639.48	22.195
639.81	21.314
640.13	19.141
640.46	20.403
640.79	20.079
641.12	19.807
641.45	21.508
641.77	21.502
642.10	21.637
642.43	20.871
642.76	20.588
643.09	23.006
643.41	20.182
643.74	23.457
644.07	21.341
644.40	23.006
644.73	20.630
645.05	23.455
645.38	21.485
645.71	23.671
646.04	22.425
646.36	24.875
646.69	24.415
647.02	20.578
647.35	22.165
647.67	21.947
648.00	21.951
648.33	22.277
648.66	21.818
648.98	22.339
649.31	18.236
649.64	22.123
649.96	21.461
650.29	21.169
650.62	20.065
650.94	21.070
651.27	23.649
651.60	21.797
651.92	23.642
652.25	19.870
652.58	20.717
652.90	22.117
653.23	21.726
653.56	21.732
653.88	21.870
654.21	23.381
654.54	22.442
654.86	23.209
655.19	20.270
655.52	14.644
655.84	13.424
656.17	17.271
656.49	23.606
656.82	24.385
657.15	18.826
657.47	13.985
657.80	10.917
658.13	11.522
658.45	17.762
658.78	17.681
659.10	18.895
659.43	20.048
659.75	21.126
660.08	22.722
660.41	25.047
660.73	25.032
661.06	22.452
661.38	24.727
661.71	24.615
662.03	24.852
662.36	23.260
662.68	23.896
663.01	23.030
663.33	25.902
663.66	24.160
663.98	26.782
664.31	22.479
664.63	22.267
664.96	20.121
665.28	23.770
665.61	21.832
665.93	21.328
666.26	22.110
666.58	21.757
666.91	25.370
667.23	25.393
667.56	22.678
667.88	24.786
668.21	26.013
668.53	25.163
668.86	24.459
669.18	27.932
669.50	24.783
669.83	26.362
670.15	26.444
670.48	22.222
670.80	24.784
671.13	24.841
671.45	21.702
671.77	25.662
672.10	24.030
672.42	20.141
672.75	22.720
673.07	22.535
673.39	22.785
673.72	22.266
674.04	23.922
674.37	24.078
674.69	23.108
675.01	24.895
675.34	26.078
675.66	26.316
675.98	23.829
676.31	24.580
676.63	23.567
676.95	23.690
677.28	23.832
677.60	23.736
677.92	26.160
678.25	22.382
678.57	22.709
678.89	24.449
679.22	23.576
679.54	22.519
679.86	23.303
680.18	21.825
680.51	23.050
680.83	23.488
681.15	22.075
681.48	25.331
681.80	23.598
682.12	22.989
682.44	22.050
682.77	23.829
683.09	25.966
683.41	25.499
683.73	26.269
684.06	24.793
684.38	22.896
684.70	25.194
685.02	25.141
685.34	22.894
685.67	18.007
685.99	21.306
686.31	21.843
686.63	19.081
686.96	21.607
687.28	22.202
687.60	23.007
687.92	24.497
688.24	24.144
688.56	21.888
688.89	25.519
689.21	23.799
689.53	23.800
689.85	25.499
690.17	23.188
690.49	23.779
690.82	26.168
691.14	25.000
691.46	23.629
691.78	25.703
692.10	24.587
692.42	25.549
692.74	21.784
693.06	25.106
693.39	23.409
693.71	23.799
694.03	23.789
694.35	24.675
694.67	22.426
694.99	26.341
695.31	24.020
695.63	25.598
695.95	24.450
696.27	22.335
696.59	27.461
696.91	24.870
697.23	22.300
697.56	26.226
697.88	22.290
698.20	23.542
698.52	23.871
698.84	25.835
699.16	23.502
699.48	26.366
699.80	25.845
700.12	30.130
700.44	26.525
700.76	27.901
701.08	27.586
701.40	29.330
701.72	28.280
702.04	34.375
702.36	22.663
702.68	25.779
703.00	27.978
703.32	28.989
703.64	26.542
703.96	26.462
704.28	26.744
704.60	30.205
704.91	25.223
705.23	28.739
705.55	33.555
705.87	30.233
706.19	27.562
706.51	29.283
706.83	27.879
707.15	28.571
707.47	24.747
707.79	27.764
708.11	26.712
708.43	22.381
708.74	23.724
709.06	27.532
709.38	28.084
709.70	26.453
710.02	29.377
710.34	27.273
710.66	29.552
710.98	28.125
711.29	28.779
711.61	33.628
711.93	29.808
712.25	31.190
712.57	32.353
712.89	32.180
713.20	27.660
713.52	29.605
713.84	31.329
714.16	30.183
714.48	26.724
714.80	32.827
715.11	29.395
715.43	28.783
715.75	28.986
716.07	27.796
716.39	25.392
716.70	33.555
717.02	33.094
717.34	30.742
717.66	35.448
717.97	33.865
718.29	33.333
718.61	33.212
718.93	33.088
719.24	28.720
719.56	31.525
719.88	30.508
720.20	35.811
720.51	33.449
720.83	31.599
721.15	29.851
721.46	29.433
721.78	29.749
722.10	32.830
722.42	35.338
722.73	32.584
723.05	33.607
723.37	30.769
723.68	35.521
724.00	36.992
724.32	37.097
724.63	34.146
724.95	29.289
725.27	37.247
725.58	34.766
725.90	32.847
726.22	30.943
726.53	26.736
726.85	28.669
727.16	31.317
727.48	34.043
727.80	30.682
728.11	32.609
728.43	32.692
728.74	28.315
729.06	34.672
729.38	36.397
729.69	35.231
730.01	30.717
730.32	30.208
730.64	31.104
730.96	29.373
731.27	33.775
731.59	27.829
731.90	31.487
732.22	28.261
732.53	29.721
732.85	32.372
733.16	28.617
733.48	29.568
733.80	30.519
734.11	28.662
734.43	31.065
734.74	24.857
735.06	27.507
735.37	31.214
735.69	30.255
736.00	32.680
736.32	30.841
736.63	27.796
736.95	31.629
737.26	26.531
737.58	29.032
737.89	30.100
738.21	32.423
738.52	33.214
738.83	30.189
739.15	33.077
739.46	32.117
739.78	34.722
740.09	31.385
740.41	35.484
740.72	27.526
741.04	30.370
741.35	29.583
741.66	38.222
741.98	32.547
742.29	33.971
742.61	40.517
742.92	33.484
743.23	36.752
743.55	34.800
743.86	33.772
744.18	42.035
744.49	42.105
744.80	36.620
745.12	38.182
745.43	28.194
745.74	37.838
746.06	38.073
746.37	39.013
746.68	36.199
747.00	36.111
747.31	38.095
747.62	32.301
747.94	35.242
748.25	31.064
748.56	40.969
748.88	34.158
749.19	38.500
749.50	39.070
749.82	31.301
750.13	32.245
750.44	31.387
750.75	32.281
751.07	34.084
751.38	36.237
751.69	28.881
752.01	30.075
752.32	28.881
752.63	32.270
752.94	33.607
753.26	37.600
753.57	28.455
753.88	35.547
754.19	30.357
754.51	30.556
754.82	29.242
755.13	34.340
755.44	28.947
755.75	31.387
756.07	29.787
756.38	30.292
756.69	31.544
757.00	31.437
757.31	27.300
757.63	27.778
757.94	27.882
758.25	27.451
758.56	25.432
758.87	31.452
759.18	30.000
759.50	28.527
759.81	32.399
760.12	26.563
760.43	29.226
760.74	27.174
761.05	27.966
761.36	25.401
761.67	30.682
761.99	27.950
762.30	29.167
762.61	34.733
762.92	33.594
763.23	31.513
763.54	39.600
763.85	32.813
764.16	31.923
764.47	31.939
764.78	34.276
765.10	26.582
765.41	31.268
765.72	31.138
766.03	31.034
766.34	29.667
766.65	36.596
766.96	40.598
767.27	40.102
767.58	40.104
767.89	44.737
768.20	33.908
768.51	37.056
768.82	36.239
769.13	32.114
769.44	31.579
769.75	36.052
770.06	35.780
770.37	36.652
770.68	33.333
770.99	32.889
771.30	33.607
771.61	37.220
771.92	32.787
772.23	40.756
772.54	37.949
772.85	37.696
773.16	42.021
773.47	45.652
773.78	37.563
774.09	40.476
774.39	45.029
774.70	42.593
775.01	51.449
775.32	54.248
775.63	50.658
775.94	43.885
776.25	57.480
776.56	52.239
776.87	52.459
777.18	59.375
777.48	51.145
777.79	50.000
778.10	47.407
778.41	53.571
778.72	47.445
779.03	54.362
779.34	45.638
779.65	47.297
779.95	46.012
780.26	45.098
780.57	48.966
780.88	59.375
781.19	51.128
781.50	54.730
781.80	44.654
782.11	38.983
782.42	41.139
782.73	46.012
783.04	48.649
783.34	52.113
783.65	47.260
783.96	58.209
784.27	40.559
784.57	48.921
784.88	50.000
785.19	45.238
785.50	65.094
785.81	55.970
786.11	57.377
786.42	45.736
786.73	62.832
787.04	59.434
787.34	50.000
787.65	56.000
787.96	52.252
788.26	55.372
788.57	59.322
788.88	53.719
789.19	54.861
789.49	55.303
789.80	58.779
790.11	60.000
790.41	67.327
790.72	73.494
791.03	68.478
791.33	60.465
791.64	67.010
791.95	70.297
792.25	73.333
792.56	77.922
792.87	79.487
793.17	77.215
793.48	75.862
793.79	64.368
794.09	71.591
794.40	57.143
794.70	55.882
795.01	49.630
795.32	51.079
795.62	46.457
795.93	53.448
796.23	54.867
796.54	50.588
796.85	59.459
797.15	80.282
797.46	90.909
797.76	81.928
798.07	82.278
798.37	86.154
798.68	89.394
798.99	74.648
799.29	79.221
799.60	70.455
799.90	83.562
800.21	95.522
800.51	93.103
800.82	98.246
801.12	98.361
801.43	86.364
801.73	64.865
802.04	98.413
802.34	82.716
802.65	93.750
802.95	96.610
803.26	104.688
803.56	72.857
803.87	92.308
804.17	80.882
804.48	111.111
804.78	87.931
805.09	80.882
805.39	98.077
805.70	98.214
806.00	103.279
806.30	89.394
806.61	85.366
806.91	63.291
807.22	73.684
807.52	67.164
807.83	88.732
808.13	98.437
808.43	86.667
808.74	73.684
809.04	75.362
809.35	94.030
809.65	82.895
809.95	112.903
810.26	89.831
810.56	104.762
810.86	134.091
811.17	123.810
811.47	116.667
811.77	109.259
812.08	129.091
812.38	114.000
812.69	163.889
812.99	152.273
813.29	124.490
813.59	109.524
813.90	134.694
814.20	101.818
814.50	87.692
814.81	92.647
815.11	112.245
815.41	75.410
815.72	147.619
816.02	114.545
816.32	130.952
816.62	150.000
816.93	121.951
817.23	130.952
817.53	118.182
817.84	160.606
818.14	134.783
818.44	115.556
818.74	155.882
819.04	145.000
819.35	148.571
819.65	182.353
819.95	167.857
820.25	220.000
820.56	148.718
820.86	152.273
821.16	134.884
821.46	117.949
821.76	124.000
822.07	140.000
822.37	122.500
822.67	154.545
822.97	127.451
823.27	207.143
823.57	135.135
823.88	160.000
824.18	190.000
824.48	138.095
824.78	220.000
825.08	229.167
825.38	137.838
825.69	139.024
825.99	204.167
826.29	200.000
826.59	168.421
826.89	147.368
827.19	200.000
827.49	135.484
827.79	143.182
828.09	129.545
828.39	102.128
828.70	130.612
829.00	166.667
829.30	135.484
829.60	145.000
829.90	340.000
830.20	189.286
830.50	208.696
830.80	200.000
831.10	213.333
831.40	193.333
831.70	178.261
832.00	223.077
832.30	218.519
832.60	325.000
832.90	190.000
833.20	435.714
833.50	187.097
833.80	186.207
834.10	196.875
834.40	219.231
834.70	311.111
835.00	357.143
835.30	168.571
835.60	315.385
835.90	213.793
836.20	371.429
836.50	193.103
836.80	216.000
837.10	169.444
837.40	285.714
837.70	247.059
838.00	218.519
838.30	257.143
838.60	261.905
838.90	226.923
839.19	270.000
839.49	400.000
839.79	305.000
840.09	230.000
840.39	233.333
840.69	243.478
840.99	272.222
841.29	520.000
841.59	300.000
841.88	318.750
842.18	168.966
842.48	285.714
842.78	210.000
843.08	247.826
843.38	162.500
843.68	933.333
843.97	200.000
844.27	189.655
844.57	295.238
844.87	368.750
845.17	222.222
845.47	1633.333
845.76	444.444
846.06	317.647
846.36	537.500
846.66	385.714
846.96	293.750
847.25	390.909
847.55	409.091
847.85	295.652
848.15	480.000
848.44	342.857
848.74	244.444
849.04	305.882
849.34	500.000
849.63	273.684
849.93	445.455
850.23	860.000
850.53	471.429
850.82	2750.000
851.12	-3900.000
851.42	5100.000
851.71	350.000
852.01	-1433.333
852.31	270.833
852.61	1733.333
852.90	285.714
853.20	220.000
853.50	288.235
853.79	290.476
854.09	250.000
854.39	275.000
854.68	145.946
854.98	203.226
855.28	173.333
855.57	227.586
855.87	225.926
856.17	236.842
856.46	246.667
856.76	276.471
857.05	196.552
857.35	245.833
857.65	313.333
857.94	252.174
858.24	269.231
858.53	290.000
858.83	254.545
859.13	413.333
859.42	0.000
859.72	488.889
860.01	454.545
860.31	204.545
860.60	300.000
860.90	239.130
861.20	588.889
861.49	466.667
861.79	-4200.000
862.08	700.000
862.38	319.048
862.67	369.231
862.97	341.176
863.26	577.778
863.56	338.889
863.85	441.667
864.15	612.500
864.44	373.333
864.74	1000.000
865.03	700.000
865.33	310.526
865.62	390.909
865.92	438.462
866.21	433.333
866.51	0.000
866.80	436.364
867.10	980.000
867.39	446.154
867.69	427.273
867.98	278.947
868.27	490.909
868.57	278.947
868.86	-3700.000
869.16	381.250
869.45	2300.000
869.75	-4500.000
870.04	483.333
870.33	685.714
870.63	1225.000
870.92	2500.000
871.22	714.286
871.51	341.176
871.80	276.190
872.10	385.714
>>>>>End Processed Spectral Data<<<<<
