SpectraSuite Data File
++++++++++++++++++++++++++++++++++++
Date: Wed May 13 16:07:44 PDT 2015
User: schluterlab
Dark Spectrum Present: Yes
Reference Spectrum Present: Yes
Number of Sampled Component Spectra: 1
Spectrometers: USB2E3373
Integration Time (usec): 3000 (USB2E3373)
Spectra Averaged: 3 (USB2E3373)
Boxcar Smoothing: 0 (USB2E3373)
Correct for Electrical Dark: No (USB2E3373)
Strobe/Lamp Enabled: No (USB2E3373)
Correct for Detector Non-linearity: No (USB2E3373)
Correct for Stray Light: No (USB2E3373)
Number of Pixels in Processed Spectrum: 2048
>>>>>Begin Processed Spectral Data<<<<<
178.53	0.000
178.91	-850.000
179.29	-875.000
179.67	-144.444
180.04	-1025.000
180.42	2050.000
180.80	820.000
181.18	-725.000
181.56	428.571
181.94	0.000
182.31	-285.714
182.69	1300.000
183.07	-400.000
183.45	-300.000
183.83	363.636
184.20	-220.000
184.58	1450.000
184.96	3100.000
185.34	-580.000
185.72	-475.000
186.09	-1400.000
186.47	2100.000
186.85	1750.000
187.23	3200.000
187.61	-1066.667
187.98	1050.000
188.36	418.182
188.74	445.455
189.12	-580.000
189.49	420.000
189.87	-3000.000
190.25	-700.000
190.63	314.286
191.00	315.385
191.38	400.000
191.76	-625.000
192.14	1050.000
192.51	375.000
192.89	550.000
193.27	350.000
193.65	-725.000
194.02	290.000
194.40	620.000
194.78	470.000
195.15	366.667
195.53	510.000
195.91	-1100.000
196.29	287.500
196.66	189.474
197.04	-140.000
197.42	0.000
197.79	430.000
198.17	-2400.000
198.55	314.286
198.92	612.500
199.30	520.000
199.68	0.000
200.05	277.778
200.43	614.286
200.81	2300.000
201.18	1166.667
201.56	-1300.000
201.94	322.222
202.31	366.667
202.69	300.000
203.07	320.000
203.44	0.000
203.82	925.000
204.19	614.286
204.57	350.000
204.95	425.000
205.32	1033.333
205.70	363.636
206.08	221.429
206.45	2100.000
206.83	225.000
207.20	566.667
207.58	340.000
207.96	188.889
208.33	475.000
208.71	-600.000
209.08	671.429
209.46	411.111
209.84	345.455
210.21	-1033.333
210.59	925.000
210.96	-275.000
211.34	1500.000
211.71	420.000
212.09	633.333
212.46	0.000
212.84	1266.667
213.22	975.000
213.59	-3000.000
213.97	816.667
214.34	442.857
214.72	481.818
215.09	780.000
215.47	-1200.000
215.84	-1950.000
216.22	1000.000
216.59	292.857
216.97	950.000
217.34	281.818
217.72	-550.000
218.09	0.000
218.47	-3100.000
218.84	533.333
219.22	485.714
219.59	1100.000
219.97	-385.714
220.34	660.000
220.72	-866.667
221.09	314.286
221.47	1075.000
221.84	-550.000
222.22	0.000
222.59	925.000
222.97	-1400.000
223.34	640.000
223.72	246.154
224.09	700.000
224.46	1450.000
224.84	-3000.000
225.21	-640.000
225.59	-2900.000
225.96	400.000
226.34	200.000
226.71	1850.000
227.08	512.500
227.46	430.000
227.83	-775.000
228.21	-1550.000
228.58	377.778
228.95	-1450.000
229.33	-2150.000
229.70	1133.333
230.08	571.429
230.45	-380.000
230.82	283.333
231.20	633.333
231.57	371.429
231.95	441.667
232.32	190.909
232.69	209.091
233.07	328.571
233.44	200.000
233.81	-1100.000
234.19	205.263
234.56	283.333
234.93	300.000
235.31	281.818
235.68	176.923
236.05	264.286
236.43	106.061
236.80	142.105
237.17	3300.000
237.55	200.000
237.92	171.429
238.29	161.905
238.67	132.258
239.04	144.828
239.41	72.222
239.79	56.522
240.16	80.952
240.53	88.636
240.91	68.627
241.28	62.000
241.65	50.000
242.02	47.826
242.40	43.548
242.77	41.667
243.14	52.688
243.51	44.944
243.89	44.706
244.26	37.778
244.63	36.559
245.00	20.213
245.38	32.673
245.75	31.776
246.12	22.936
246.49	38.686
246.87	44.000
247.24	21.538
247.61	25.714
247.98	18.954
248.36	18.919
248.73	21.656
249.10	24.841
249.47	18.079
249.84	24.599
250.22	22.995
250.59	20.118
250.96	19.192
251.33	21.327
251.70	20.792
252.08	17.619
252.45	16.143
252.82	16.522
253.19	20.426
253.56	17.647
253.94	16.183
254.31	20.313
254.68	16.154
255.05	15.867
255.42	12.195
255.79	13.971
256.16	16.606
256.54	12.014
256.91	14.591
257.28	12.950
257.65	12.871
258.02	16.460
258.39	11.672
258.76	12.040
259.14	12.500
259.51	12.158
259.88	10.248
260.25	11.178
260.62	13.295
260.99	11.491
261.36	11.411
261.73	14.327
262.10	12.791
262.47	14.085
262.85	13.370
263.22	9.402
263.59	12.251
263.96	10.714
264.33	8.877
264.70	9.737
265.07	14.578
265.44	11.111
265.81	11.436
266.18	10.804
266.55	10.244
266.92	9.828
267.29	10.880
267.66	9.862
268.03	11.136
268.40	9.579
268.77	9.547
269.14	10.360
269.51	10.835
269.88	7.925
270.25	10.835
270.62	8.989
270.99	12.903
271.36	11.373
271.73	8.411
272.10	7.391
272.47	9.677
272.84	11.688
273.21	12.159
273.58	7.205
273.95	9.224
274.32	11.364
274.69	9.636
275.06	8.268
275.43	9.362
275.80	9.619
276.17	9.776
276.54	10.603
276.91	9.486
277.28	9.375
277.65	11.025
278.02	8.489
278.39	9.375
278.76	9.455
279.13	9.434
279.50	10.242
279.87	7.769
280.23	8.583
280.60	7.544
280.97	7.209
281.34	7.965
281.71	10.909
282.08	8.829
282.45	6.545
282.82	7.815
283.19	6.595
283.56	8.772
283.92	10.321
284.29	8.289
284.66	8.167
285.03	7.595
285.40	9.331
285.77	8.081
286.14	7.081
286.51	8.500
286.87	9.060
287.24	8.632
287.61	7.223
287.98	8.929
288.35	8.399
288.72	8.100
289.08	8.138
289.45	7.743
289.82	9.106
290.19	7.535
290.56	8.576
290.93	5.287
291.29	8.589
291.66	6.785
292.03	9.302
292.40	7.636
292.77	7.249
293.13	7.463
293.50	9.038
293.87	7.556
294.24	6.519
294.60	6.550
294.97	7.122
295.34	7.616
295.71	8.381
296.08	6.125
296.44	6.465
296.81	6.473
297.18	8.808
297.55	4.881
297.91	6.201
298.28	8.434
298.65	8.486
299.02	6.719
299.38	4.382
299.75	4.717
300.12	5.492
300.48	6.375
300.85	6.782
301.22	6.497
301.59	5.934
301.95	7.305
302.32	6.033
302.69	6.452
303.05	6.303
303.42	6.173
303.79	7.928
304.15	6.177
304.52	5.446
304.89	4.994
305.25	6.032
305.62	7.248
305.99	7.320
306.35	5.817
306.72	6.614
307.09	6.215
307.45	8.446
307.82	5.469
308.19	5.629
308.55	6.904
308.92	7.411
309.29	6.441
309.65	5.302
310.02	7.717
310.38	6.774
310.75	6.125
311.12	7.984
311.48	7.210
311.85	6.813
312.22	7.388
312.58	7.692
312.95	8.237
313.31	7.184
313.68	6.549
314.05	9.566
314.41	8.442
314.78	8.359
315.14	8.242
315.51	8.239
315.87	8.020
316.24	9.434
316.61	7.992
316.97	7.632
317.34	7.730
317.70	9.943
318.07	9.336
318.43	9.491
318.80	10.028
319.16	9.605
319.53	9.006
319.89	10.857
320.26	10.900
320.62	10.417
320.99	10.505
321.35	10.505
321.72	10.267
322.08	10.563
322.45	11.940
322.81	11.047
323.18	12.042
323.54	12.894
323.91	12.736
324.27	12.906
324.64	11.650
325.00	13.436
325.37	13.831
325.73	14.363
326.10	14.740
326.46	13.710
326.83	14.840
327.19	15.457
327.56	15.070
327.92	14.873
328.29	15.173
328.65	15.285
329.01	16.245
329.38	14.524
329.74	15.789
330.11	15.834
330.47	15.702
330.84	15.993
331.20	15.392
331.56	16.147
331.93	14.815
332.29	16.327
332.66	16.814
333.02	15.905
333.38	16.712
333.75	17.558
334.11	16.815
334.48	16.149
334.84	16.176
335.20	16.000
335.57	16.772
335.93	16.250
336.29	15.659
336.66	16.501
337.02	15.837
337.38	17.315
337.75	16.934
338.11	16.473
338.47	16.483
338.84	17.324
339.20	16.330
339.56	17.245
339.93	16.455
340.29	16.123
340.65	15.954
341.02	17.539
341.38	17.972
341.74	17.018
342.11	17.205
342.47	17.269
342.83	17.380
343.20	17.835
343.56	17.102
343.92	17.807
344.28	17.007
344.65	17.369
345.01	16.414
345.37	15.266
345.73	17.174
346.10	16.283
346.46	17.203
346.82	16.969
347.19	15.873
347.55	16.502
347.91	16.748
348.27	17.009
348.63	16.639
349.00	16.181
349.36	16.010
349.72	17.241
350.08	16.288
350.45	17.657
350.81	16.897
351.17	17.990
351.53	16.298
351.89	16.089
352.26	16.654
352.62	17.241
352.98	17.342
353.34	16.927
353.70	16.039
354.07	18.306
354.43	17.143
354.79	16.251
355.15	16.441
355.51	17.746
355.87	17.878
356.24	18.404
356.60	16.199
356.96	18.101
357.32	18.561
357.68	17.638
358.04	16.785
358.40	18.448
358.77	18.466
359.13	16.496
359.49	17.333
359.85	16.587
360.21	17.783
360.57	18.054
360.93	18.538
361.29	18.821
361.66	17.337
362.02	18.358
362.38	18.251
362.74	18.229
363.10	17.246
363.46	17.828
363.82	18.065
364.18	18.209
364.54	18.276
364.90	18.130
365.26	18.309
365.62	18.846
365.98	17.604
366.35	17.479
366.71	18.438
367.07	19.374
367.43	18.505
367.79	18.844
368.15	20.043
368.51	17.369
368.87	18.630
369.23	18.654
369.59	19.117
369.95	18.603
370.31	19.160
370.67	18.913
371.03	19.101
371.39	19.242
371.75	18.750
372.11	19.061
372.47	19.428
372.83	19.741
373.19	20.159
373.55	19.586
373.91	19.588
374.27	20.137
374.63	20.145
374.99	20.127
375.35	19.819
375.71	19.808
376.07	20.782
376.42	20.426
376.78	20.941
377.14	20.896
377.50	21.192
377.86	19.880
378.22	21.302
378.58	19.236
378.94	21.056
379.30	20.356
379.66	21.066
380.02	19.840
380.38	20.219
380.74	22.149
381.09	20.477
381.45	22.004
381.81	21.929
382.17	21.847
382.53	22.327
382.89	22.222
383.25	21.513
383.61	22.739
383.97	21.576
384.32	22.458
384.68	22.367
385.04	22.065
385.40	21.858
385.76	22.113
386.12	22.604
386.48	22.970
386.83	23.348
387.19	23.067
387.55	23.006
387.91	23.700
388.27	23.053
388.62	24.032
388.98	23.280
389.34	24.718
389.70	23.176
390.06	24.018
390.42	23.671
390.77	25.000
391.13	24.123
391.49	24.429
391.85	23.743
392.20	24.164
392.56	23.359
392.92	24.662
393.28	24.734
393.64	24.760
393.99	24.496
394.35	25.124
394.71	24.529
395.07	24.798
395.42	24.289
395.78	24.364
396.14	25.140
396.50	26.378
396.85	25.302
397.21	24.229
397.57	25.790
397.92	24.459
398.28	24.439
398.64	25.030
399.00	25.518
399.35	25.324
399.71	25.521
400.07	25.370
400.42	25.031
400.78	25.332
401.14	25.061
401.49	25.851
401.85	25.711
402.21	25.210
402.57	25.046
402.92	25.410
403.28	26.234
403.63	25.495
403.99	26.051
404.35	25.576
404.70	25.000
405.06	25.917
405.42	26.575
405.77	26.000
406.13	25.226
406.49	25.606
406.84	26.816
407.20	25.650
407.55	26.803
407.91	25.400
408.27	26.228
408.62	26.309
408.98	25.000
409.34	26.076
409.69	27.677
410.05	26.642
410.40	26.055
410.76	26.344
411.11	26.176
411.47	25.879
411.83	27.306
412.18	26.283
412.54	26.712
412.89	26.446
413.25	26.269
413.60	26.807
413.96	26.047
414.31	27.400
414.67	27.186
415.03	26.821
415.38	26.611
415.74	25.981
416.09	26.976
416.45	27.510
416.80	26.834
417.16	27.681
417.51	27.339
417.87	26.397
418.22	28.076
418.58	27.437
418.93	26.781
419.29	27.116
419.64	27.834
420.00	27.256
420.35	26.609
420.71	28.273
421.06	27.566
421.42	27.427
421.77	28.083
422.12	26.727
422.48	25.958
422.83	27.548
423.19	27.790
423.54	26.930
423.90	27.420
424.25	26.801
424.61	26.726
424.96	28.280
425.31	27.132
425.67	27.584
426.02	27.086
426.38	28.571
426.73	26.448
427.09	27.356
427.44	28.522
427.79	27.545
428.15	27.619
428.50	28.204
428.85	27.592
429.21	28.106
429.56	27.579
429.92	27.529
430.27	27.706
430.62	26.728
430.98	27.504
431.33	28.041
431.68	28.168
432.04	28.062
432.39	29.240
432.74	28.247
433.10	29.089
433.45	28.455
433.80	27.938
434.16	28.526
434.51	28.105
434.86	28.506
435.22	28.349
435.57	28.328
435.92	28.438
436.28	29.004
436.63	28.477
436.98	28.277
437.34	29.159
437.69	29.638
438.04	28.836
438.39	28.657
438.75	29.924
439.10	29.106
439.45	29.870
439.81	28.822
440.16	28.967
440.51	29.584
440.86	30.805
441.22	28.420
441.57	29.777
441.92	29.273
442.27	28.848
442.63	30.016
442.98	29.352
443.33	29.511
443.68	29.375
444.03	28.941
444.39	28.043
444.74	29.437
445.09	28.895
445.44	28.704
445.79	29.540
446.15	29.275
446.50	29.402
446.85	29.188
447.20	28.812
447.55	30.095
447.91	29.233
448.26	29.994
448.61	30.639
448.96	30.122
449.31	29.584
449.66	29.488
450.02	29.471
450.37	28.628
450.72	29.780
451.07	29.068
451.42	29.179
451.77	30.123
452.12	29.042
452.47	30.410
452.83	29.953
453.18	30.073
453.53	31.416
453.88	29.652
454.23	30.185
454.58	30.164
454.93	30.896
455.28	29.988
455.63	30.400
455.98	30.476
456.34	29.523
456.69	30.182
457.04	31.517
457.39	29.340
457.74	30.238
458.09	30.132
458.44	30.046
458.79	29.393
459.14	29.515
459.49	30.648
459.84	30.360
460.19	30.289
460.54	29.456
460.89	30.664
461.24	30.055
461.59	31.377
461.94	29.963
462.29	30.504
462.64	30.632
462.99	29.603
463.34	31.133
463.69	30.707
464.04	30.551
464.39	30.725
464.74	30.065
465.09	29.493
465.44	30.416
465.79	30.313
466.14	29.666
466.49	30.145
466.84	29.714
467.19	31.020
467.54	31.000
467.89	29.952
468.24	30.134
468.59	30.464
468.94	30.544
469.29	30.463
469.64	31.124
469.99	30.447
470.34	30.119
470.68	30.244
471.03	30.068
471.38	30.785
471.73	30.513
472.08	32.039
472.43	30.653
472.78	31.731
473.13	30.424
473.48	31.024
473.83	30.854
474.17	30.367
474.52	31.203
474.87	31.816
475.22	30.296
475.57	29.876
475.92	29.315
476.27	29.876
476.61	31.219
476.96	30.676
477.31	29.880
477.66	30.580
478.01	30.319
478.36	30.301
478.70	30.737
479.05	31.310
479.40	30.604
479.75	30.961
480.10	30.517
480.45	30.700
480.79	30.483
481.14	31.067
481.49	30.755
481.84	30.224
482.19	30.486
482.53	29.908
482.88	30.433
483.23	30.187
483.58	30.846
483.92	30.084
484.27	29.412
484.62	29.784
484.97	29.405
485.31	30.411
485.66	29.990
486.01	28.058
486.36	27.103
486.70	26.482
487.05	27.154
487.40	28.498
487.75	28.560
488.09	28.996
488.44	28.686
488.79	30.271
489.13	29.717
489.48	30.139
489.83	30.082
490.17	31.039
490.52	30.159
490.87	30.710
491.22	29.741
491.56	29.248
491.91	30.200
492.26	30.179
492.60	29.585
492.95	28.906
493.30	30.654
493.64	30.705
493.99	29.851
494.34	30.250
494.68	30.723
495.03	30.028
495.37	29.921
495.72	30.019
496.07	30.951
496.41	29.690
496.76	29.068
497.11	29.626
497.45	29.949
497.80	29.942
498.14	30.242
498.49	30.829
498.84	30.441
499.18	30.095
499.53	30.674
499.87	30.615
500.22	29.958
500.56	31.748
500.91	30.481
501.26	29.872
501.60	31.561
501.95	29.927
502.29	31.068
502.64	30.400
502.98	30.201
503.33	30.713
503.67	30.441
504.02	30.168
504.36	30.463
504.71	31.607
505.06	31.325
505.40	30.627
505.75	29.894
506.09	31.147
506.44	31.031
506.78	30.687
507.13	30.893
507.47	30.657
507.82	31.358
508.16	30.598
508.51	31.304
508.85	30.834
509.19	30.000
509.54	31.071
509.88	31.530
510.23	31.260
510.57	32.353
510.92	31.176
511.26	30.678
511.61	31.950
511.95	31.524
512.30	31.018
512.64	31.327
512.98	32.047
513.33	32.441
513.67	32.231
514.02	31.385
514.36	32.660
514.70	32.485
515.05	32.236
515.39	32.586
515.74	32.038
516.08	32.588
516.42	32.408
516.77	33.612
517.11	31.687
517.46	33.296
517.80	33.217
518.14	31.963
518.49	32.380
518.83	33.239
519.17	32.390
519.52	32.654
519.86	33.428
520.20	33.410
520.55	33.573
520.89	33.151
521.23	33.595
521.58	32.953
521.92	34.660
522.26	33.130
522.61	33.396
522.95	33.640
523.29	33.658
523.64	34.024
523.98	34.196
524.32	32.992
524.66	34.275
525.01	33.762
525.35	33.829
525.69	33.251
526.04	33.396
526.38	34.228
526.72	33.190
527.06	33.898
527.41	32.673
527.75	34.662
528.09	34.618
528.43	33.843
528.78	33.682
529.12	32.667
529.46	33.987
529.80	33.478
530.15	34.455
530.49	33.846
530.83	34.051
531.17	34.856
531.51	35.214
531.86	33.742
532.20	34.746
532.54	34.337
532.88	34.275
533.22	33.104
533.57	33.519
533.91	33.233
534.25	34.690
534.59	33.984
534.93	34.384
535.27	33.917
535.62	33.944
535.96	33.208
536.30	32.931
536.64	33.934
536.98	33.975
537.32	33.246
537.66	34.733
538.01	34.562
538.35	34.001
538.69	34.397
539.03	32.684
539.37	33.674
539.71	32.988
540.05	33.856
540.39	34.086
540.73	33.829
541.07	34.199
541.42	34.247
541.76	34.387
542.10	35.058
542.44	34.570
542.78	34.058
543.12	32.885
543.46	34.361
543.80	34.223
544.14	33.184
544.48	34.159
544.82	33.291
545.16	33.507
545.50	33.162
545.84	33.669
546.18	34.343
546.52	33.861
546.86	34.296
547.20	34.053
547.54	32.799
547.88	33.929
548.22	33.624
548.56	33.145
548.90	32.586
549.24	32.862
549.58	33.561
549.92	34.066
550.26	35.014
550.60	32.642
550.94	33.451
551.28	33.870
551.62	34.004
551.96	32.912
552.30	33.515
552.64	33.942
552.98	32.746
553.32	32.637
553.66	32.993
554.00	34.386
554.34	32.574
554.68	34.120
555.02	34.133
555.36	32.985
555.69	33.288
556.03	33.176
556.37	32.265
556.71	33.220
557.05	34.174
557.39	33.030
557.73	32.745
558.07	32.777
558.41	33.719
558.75	32.697
559.08	33.035
559.42	33.258
559.76	33.309
560.10	31.977
560.44	33.683
560.78	32.801
561.12	31.662
561.45	31.943
561.79	32.828
562.13	32.394
562.47	33.265
562.81	32.218
563.15	33.110
563.48	33.156
563.82	33.138
564.16	33.290
564.50	32.031
564.84	32.048
565.17	32.368
565.51	33.419
565.85	32.741
566.19	31.371
566.52	32.552
566.86	31.706
567.20	32.783
567.54	31.507
567.88	30.527
568.21	31.746
568.55	31.193
568.89	30.642
569.23	30.125
569.56	29.919
569.90	29.811
570.24	30.032
570.57	29.242
570.91	28.862
571.25	29.494
571.59	29.337
571.92	29.407
572.26	29.203
572.60	29.760
572.93	29.505
573.27	29.400
573.61	29.592
573.95	29.018
574.28	28.593
574.62	28.863
574.96	28.363
575.29	28.565
575.63	28.735
575.97	27.753
576.30	28.757
576.64	28.633
576.98	28.853
577.31	29.136
577.65	28.447
577.98	28.287
578.32	27.820
578.66	27.841
578.99	28.532
579.33	28.177
579.67	27.925
580.00	28.842
580.34	28.215
580.67	28.386
581.01	28.536
581.35	28.513
581.68	28.510
582.02	27.252
582.35	27.613
582.69	27.667
583.02	27.977
583.36	28.015
583.70	28.996
584.03	28.997
584.37	29.196
584.70	28.527
585.04	28.302
585.37	28.681
585.71	27.984
586.04	27.519
586.38	28.527
586.72	28.556
587.05	28.688
587.39	28.153
587.72	28.343
588.06	27.641
588.39	28.477
588.73	28.689
589.06	29.043
589.40	29.562
589.73	29.602
590.07	28.826
590.40	28.864
590.73	29.586
591.07	30.362
591.40	29.439
591.74	29.697
592.07	30.497
592.41	29.434
592.74	28.764
593.08	28.847
593.41	28.535
593.75	27.889
594.08	28.528
594.41	28.208
594.75	28.725
595.08	28.633
595.42	28.687
595.75	29.060
596.09	29.290
596.42	29.312
596.75	29.591
597.09	29.913
597.42	28.794
597.75	28.892
598.09	29.217
598.42	28.479
598.76	28.293
599.09	28.696
599.42	28.348
599.76	29.136
600.09	27.869
600.42	28.086
600.76	27.643
601.09	28.233
601.42	28.653
601.76	28.577
602.09	28.340
602.42	28.543
602.76	28.940
603.09	28.560
603.42	28.934
603.76	28.277
604.09	28.306
604.42	28.496
604.76	28.933
605.09	28.091
605.42	28.645
605.75	28.063
606.09	27.857
606.42	27.789
606.75	28.577
607.09	27.501
607.42	28.156
607.75	27.932
608.08	28.224
608.42	28.418
608.75	28.359
609.08	28.353
609.41	28.701
609.75	28.776
610.08	29.171
610.41	27.747
610.74	28.713
611.07	29.002
611.41	27.821
611.74	29.361
612.07	29.451
612.40	27.964
612.73	28.474
613.07	29.472
613.40	27.909
613.73	27.897
614.06	28.871
614.39	28.369
614.72	28.000
615.06	28.204
615.39	27.601
615.72	28.119
616.05	27.804
616.38	28.738
616.71	29.216
617.05	28.799
617.38	28.443
617.71	28.769
618.04	29.327
618.37	28.800
618.70	28.811
619.03	30.197
619.36	28.445
619.69	29.577
620.03	29.464
620.36	29.345
620.69	29.384
621.02	30.015
621.35	29.992
621.68	28.816
622.01	29.257
622.34	29.123
622.67	29.810
623.00	28.467
623.33	29.092
623.66	29.164
623.99	28.940
624.32	29.173
624.65	28.531
624.99	28.329
625.32	27.806
625.65	29.902
625.98	29.439
626.31	29.782
626.64	30.694
626.97	28.845
627.30	27.847
627.63	29.450
627.96	29.773
628.29	30.534
628.62	30.924
628.95	31.887
629.28	29.836
629.61	29.514
629.94	30.762
630.26	30.601
630.59	29.266
630.92	28.448
631.25	31.194
631.58	31.231
631.91	30.933
632.24	30.274
632.57	31.060
632.90	31.031
633.23	31.208
633.56	32.881
633.89	31.710
634.22	30.760
634.55	31.479
634.88	32.096
635.20	31.302
635.53	32.771
635.86	32.302
636.19	30.824
636.52	31.488
636.85	29.897
637.18	29.954
637.51	31.797
637.83	29.100
638.16	29.795
638.49	30.353
638.82	31.985
639.15	31.625
639.48	29.925
639.81	31.635
640.13	31.250
640.46	31.812
640.79	30.515
641.12	31.362
641.45	30.726
641.77	33.579
642.10	33.187
642.43	29.580
642.76	33.282
643.09	31.748
643.41	31.411
643.74	35.031
644.07	31.402
644.40	32.669
644.73	33.701
645.05	34.548
645.38	31.912
645.71	31.240
646.04	32.558
646.36	33.556
646.69	33.278
647.02	32.143
647.35	35.567
647.67	33.628
648.00	33.659
648.33	31.353
648.66	30.758
648.98	32.834
649.31	30.194
649.64	31.839
649.96	31.297
650.29	31.596
650.62	29.935
650.94	30.794
651.27	32.770
651.60	32.945
651.92	30.511
652.25	30.130
652.58	32.555
652.90	33.175
653.23	31.895
653.56	31.181
653.88	30.903
654.21	31.754
654.54	31.023
654.86	32.399
655.19	29.054
655.52	22.714
655.84	20.477
656.17	25.779
656.49	35.070
656.82	35.351
657.15	26.738
657.47	20.053
657.80	15.565
658.13	16.545
658.45	24.886
658.78	25.170
659.10	26.771
659.43	27.842
659.75	29.611
660.08	31.139
660.41	33.799
660.73	33.164
661.06	32.643
661.38	34.000
661.71	33.269
662.03	32.742
662.36	30.020
662.68	31.928
663.01	31.313
663.33	35.244
663.66	31.933
663.98	29.806
664.31	30.882
664.63	33.401
664.96	29.577
665.28	34.016
665.61	31.579
665.93	28.370
666.26	35.903
666.58	32.008
666.91	34.249
667.23	31.685
667.56	31.102
667.88	34.829
668.21	36.034
668.53	33.839
668.86	32.035
669.18	34.968
669.50	31.739
669.83	34.205
670.15	34.667
670.48	32.680
670.80	32.759
671.13	33.546
671.45	31.064
671.77	33.605
672.10	29.945
672.42	30.035
672.75	31.012
673.07	27.993
673.39	30.018
673.72	30.859
674.04	31.961
674.37	30.291
674.69	31.084
675.01	30.753
675.34	33.470
675.66	32.632
675.98	31.772
676.31	32.353
676.63	34.820
676.95	31.237
677.28	34.579
677.60	31.648
677.92	35.654
678.25	29.979
678.57	32.271
678.89	29.659
679.22	31.041
679.54	31.298
679.86	28.073
680.18	30.769
680.51	31.383
680.83	28.470
681.15	29.811
681.48	31.380
681.80	29.014
682.12	32.759
682.44	31.528
682.77	30.957
683.09	33.262
683.41	32.151
683.73	31.788
684.06	32.645
684.38	31.703
684.70	31.008
685.02	33.021
685.34	30.220
685.67	28.322
685.99	28.694
686.31	29.010
686.63	28.445
686.96	28.571
687.28	30.144
687.60	28.442
687.92	27.971
688.24	30.798
688.56	31.124
688.89	30.705
689.21	34.498
689.53	31.315
689.85	31.707
690.17	28.778
690.49	30.361
690.82	30.140
691.14	28.125
691.46	27.637
691.78	27.108
692.10	29.752
692.42	29.341
692.74	30.705
693.06	30.426
693.39	29.979
693.71	29.694
694.03	29.474
694.35	28.788
694.67	28.375
694.99	32.927
695.31	29.902
695.63	31.818
695.95	31.296
696.27	28.426
696.59	30.829
696.91	29.793
697.23	26.761
697.56	28.998
697.88	27.812
698.20	28.542
698.52	29.892
698.84	29.399
699.16	27.189
699.48	32.779
699.80	28.986
700.12	33.766
700.44	32.095
700.76	30.663
701.08	32.759
701.40	32.402
701.72	33.819
702.04	34.091
702.36	33.144
702.68	29.745
703.00	31.579
703.32	27.660
703.64	31.367
703.96	34.262
704.28	31.105
704.60	30.792
704.91	31.751
705.23	33.138
705.55	38.206
705.87	34.884
706.19	29.682
706.51	33.333
706.83	33.030
707.15	32.493
707.47	28.030
707.79	29.730
708.11	29.224
708.43	29.048
708.74	28.316
709.06	33.766
709.38	31.234
709.70	29.651
710.02	34.125
710.34	29.091
710.66	35.522
710.98	32.955
711.29	33.140
711.61	37.168
711.93	29.167
712.25	34.727
712.57	35.662
712.89	36.332
713.20	35.258
713.52	34.868
713.84	28.165
714.16	30.488
714.48	32.759
714.80	31.915
715.11	29.107
715.43	31.751
715.75	31.014
716.07	31.310
716.39	31.034
716.70	34.219
717.02	32.014
717.34	33.922
717.66	29.851
717.97	37.450
718.29	31.852
718.61	29.562
718.93	37.132
719.24	31.142
719.56	33.559
719.88	32.881
720.20	32.432
720.51	35.889
720.83	36.803
721.15	29.104
721.46	30.496
721.78	34.050
722.10	28.679
722.42	30.451
722.73	32.210
723.05	29.098
723.37	33.603
723.68	36.680
724.00	33.333
724.32	34.677
724.63	36.585
724.95	33.473
725.27	38.462
725.58	36.719
725.90	33.577
726.22	30.943
726.53	31.250
726.85	35.154
727.16	29.181
727.48	31.915
727.80	29.545
728.11	30.797
728.43	30.769
728.74	31.541
729.06	34.307
729.38	34.559
729.69	34.520
730.01	26.621
730.32	33.333
730.64	32.441
730.96	32.343
731.27	30.132
731.59	31.498
731.90	25.656
732.22	28.571
732.53	28.483
732.85	29.167
733.16	32.154
733.48	31.894
733.80	27.597
734.11	29.936
734.43	27.811
734.74	28.571
735.06	27.221
735.37	32.081
735.69	30.573
736.00	33.007
736.32	30.530
736.63	31.310
736.95	30.990
737.26	26.871
737.58	30.000
737.89	28.094
738.21	34.471
738.52	31.786
738.83	30.943
739.15	28.846
739.46	33.942
739.78	29.861
740.09	28.615
740.41	33.548
740.72	25.436
741.04	27.778
741.35	32.083
741.66	32.889
741.98	31.604
742.29	39.234
742.61	35.345
742.92	35.747
743.23	34.188
743.55	33.200
743.86	32.018
744.18	36.726
744.49	34.928
744.80	31.925
745.12	35.909
745.43	35.242
745.74	37.838
746.06	37.615
746.37	33.632
746.68	35.294
747.00	32.407
747.31	34.286
747.62	29.204
747.94	29.956
748.25	34.043
748.56	38.767
748.88	29.208
749.19	40.000
749.50	29.767
749.82	31.301
750.13	28.163
750.44	30.292
750.75	31.579
751.07	31.190
751.38	31.359
751.69	33.213
752.01	30.827
752.32	31.047
752.63	30.496
752.94	27.869
753.26	35.200
753.57	24.390
753.88	33.594
754.19	31.071
754.51	31.597
754.82	23.466
755.13	29.811
755.44	30.451
755.75	27.372
756.07	28.723
756.38	24.088
756.69	27.852
757.00	29.042
757.31	28.783
757.63	27.778
757.94	26.273
758.25	26.225
758.56	25.926
758.87	23.925
759.18	27.879
759.50	26.332
759.81	26.168
760.12	23.750
760.43	27.221
760.74	25.815
761.05	28.249
761.36	28.610
761.67	28.125
761.99	28.261
762.30	27.083
762.61	30.916
762.92	30.078
763.23	31.513
763.54	31.600
763.85	26.172
764.16	35.000
764.47	26.996
764.78	25.795
765.10	27.848
765.41	26.549
765.72	29.940
766.03	28.840
766.34	25.667
766.65	36.596
766.96	31.624
767.27	34.010
767.58	36.979
767.89	35.789
768.20	35.632
768.51	37.056
768.82	33.486
769.13	28.455
769.44	25.911
769.75	25.751
770.06	23.853
770.37	33.484
770.68	30.093
770.99	34.222
771.30	23.770
771.61	34.081
771.92	23.770
772.23	33.613
772.54	30.769
772.85	34.031
773.16	37.234
773.47	33.152
773.78	40.102
774.09	35.714
774.39	42.105
774.70	37.037
775.01	37.681
775.32	39.869
775.63	40.132
775.94	43.165
776.25	44.882
776.56	38.806
776.87	47.541
777.18	40.625
777.48	44.275
777.79	40.909
778.10	39.259
778.41	41.071
778.72	31.387
779.03	41.611
779.34	40.268
779.65	39.189
779.95	40.491
780.26	40.523
780.57	37.931
780.88	53.125
781.19	40.602
781.50	43.243
781.80	36.478
782.11	28.249
782.42	35.443
782.73	30.675
783.04	35.811
783.34	39.437
783.65	45.205
783.96	47.761
784.27	33.566
784.57	38.129
784.88	29.630
785.19	45.238
785.50	45.283
785.81	42.537
786.11	46.721
786.42	41.860
786.73	40.708
787.04	47.170
787.34	47.321
787.65	37.000
787.96	51.351
788.26	42.975
788.57	49.153
788.88	42.975
789.19	43.750
789.49	51.515
789.80	47.328
790.11	60.952
790.41	55.446
790.72	49.398
791.03	48.913
791.33	56.977
791.64	52.577
791.95	56.436
792.25	62.222
792.56	64.935
792.87	71.795
793.17	67.089
793.48	63.218
793.79	45.977
794.09	61.364
794.40	52.941
794.70	41.176
795.01	40.000
795.32	41.007
795.62	42.520
795.93	38.793
796.23	38.053
796.54	56.471
796.85	54.054
797.15	66.197
797.46	66.667
797.76	59.036
798.07	46.835
798.37	53.846
798.68	60.606
798.99	47.887
799.29	48.052
799.60	47.727
799.90	58.904
800.21	61.194
800.51	62.069
800.82	71.930
801.12	63.934
801.43	63.636
801.73	58.108
802.04	69.841
802.34	64.198
802.65	57.813
802.95	79.661
803.26	64.063
803.56	54.286
803.87	52.308
804.17	52.941
804.48	94.444
804.78	60.345
805.09	67.647
805.39	76.923
805.70	48.214
806.00	78.689
806.30	48.485
806.61	62.195
806.91	50.633
807.22	52.632
807.52	58.209
807.83	50.704
808.13	65.625
808.43	73.333
808.74	53.947
809.04	66.667
809.35	56.716
809.65	68.421
809.95	100.000
810.26	74.576
810.56	63.492
810.86	95.455
811.17	100.000
811.47	60.000
811.77	85.185
812.08	90.909
812.38	78.000
812.69	94.444
812.99	97.727
813.29	73.469
813.59	66.667
813.90	97.959
814.20	60.000
814.50	49.231
814.81	75.000
815.11	59.184
815.41	78.689
815.72	97.619
816.02	80.000
816.32	100.000
816.62	92.500
816.93	75.610
817.23	111.905
817.53	104.545
817.84	90.909
818.14	93.478
818.44	77.778
818.74	102.941
819.04	92.500
819.35	108.571
819.65	117.647
819.95	132.143
820.25	195.000
820.56	87.179
820.86	90.909
821.16	83.721
821.46	66.667
821.76	106.000
822.07	145.714
822.37	95.000
822.67	115.152
822.97	78.431
823.27	114.286
823.57	110.811
823.88	105.000
824.18	140.000
824.48	109.524
824.78	156.000
825.08	87.500
825.38	108.108
825.69	100.000
825.99	120.833
826.29	82.759
826.59	107.895
826.89	89.474
827.19	129.412
827.49	132.258
827.79	118.182
828.09	77.273
828.39	87.234
828.70	93.878
829.00	96.296
829.30	96.774
829.60	92.500
829.90	180.000
830.20	157.143
830.50	108.696
830.80	160.870
831.10	140.000
831.40	113.333
831.70	121.739
832.00	165.385
832.30	114.815
832.60	200.000
832.90	170.000
833.20	228.571
833.50	116.129
833.80	124.138
834.10	90.625
834.40	169.231
834.70	183.333
835.00	204.762
835.30	125.714
835.60	200.000
835.90	134.483
836.20	207.143
836.50	137.931
836.80	100.000
837.10	141.667
837.40	200.000
837.70	200.000
838.00	114.815
838.30	185.714
838.60	171.429
838.90	173.077
839.19	215.000
839.49	257.143
839.79	230.000
840.09	120.000
840.39	176.190
840.69	156.522
840.99	183.333
841.29	240.000
841.59	125.000
841.88	237.500
842.18	127.586
842.48	233.333
842.78	143.333
843.08	165.217
843.38	106.250
843.68	450.000
843.97	173.077
844.27	144.828
844.57	185.714
844.87	250.000
845.17	159.259
845.47	933.333
845.76	222.222
846.06	182.353
846.36	150.000
846.66	257.143
846.96	231.250
847.25	236.364
847.55	254.545
847.85	156.522
848.15	340.000
848.44	257.143
848.74	155.556
849.04	176.471
849.34	290.000
849.63	126.316
849.93	254.545
850.23	580.000
850.53	321.429
850.82	1500.000
851.12	-3100.000
851.42	2800.000
851.71	150.000
852.01	-733.333
852.31	191.667
852.61	1033.333
852.90	195.238
853.20	144.000
853.50	235.294
853.79	180.952
854.09	166.667
854.39	206.250
854.68	105.405
854.98	129.032
855.28	100.000
855.57	151.724
855.87	144.444
856.17	157.895
856.46	146.667
856.76	205.882
857.05	151.724
857.35	154.167
857.65	220.000
857.94	139.130
858.24	180.769
858.53	180.000
858.83	154.545
859.13	226.667
859.42	0.000
859.72	488.889
860.01	281.818
860.31	222.727
860.60	189.474
860.90	117.391
861.20	411.111
861.49	433.333
861.79	-2700.000
862.08	400.000
862.38	185.714
862.67	161.538
862.97	247.059
863.26	322.222
863.56	161.111
863.85	191.667
864.15	337.500
864.44	280.000
864.74	616.667
865.03	525.000
865.33	231.579
865.62	363.636
865.92	292.308
866.21	233.333
866.51	0.000
866.80	272.727
867.10	680.000
867.39	300.000
867.69	281.818
867.98	115.789
868.27	345.455
868.57	221.053
868.86	-2500.000
869.16	168.750
869.45	1100.000
869.75	-2500.000
870.04	275.000
870.33	514.286
870.63	825.000
870.92	1650.000
871.22	571.429
871.51	205.882
871.80	142.857
872.10	250.000
>>>>>End Processed Spectral Data<<<<<
