SpectraSuite Data File
++++++++++++++++++++++++++++++++++++
Date: Wed May 13 16:23:33 PDT 2015
User: schluterlab
Dark Spectrum Present: Yes
Reference Spectrum Present: Yes
Number of Sampled Component Spectra: 1
Spectrometers: USB2E3373
Integration Time (usec): 3000 (USB2E3373)
Spectra Averaged: 3 (USB2E3373)
Boxcar Smoothing: 0 (USB2E3373)
Correct for Electrical Dark: No (USB2E3373)
Strobe/Lamp Enabled: No (USB2E3373)
Correct for Detector Non-linearity: No (USB2E3373)
Correct for Stray Light: No (USB2E3373)
Number of Pixels in Processed Spectrum: 2048
>>>>>Begin Processed Spectral Data<<<<<
178.53	0.000
178.91	-1150.000
179.29	-1225.000
179.67	-200.000
180.04	-1300.000
180.42	2150.000
180.80	920.000
181.18	-1000.000
181.56	642.857
181.94	0.000
182.31	-642.857
182.69	1866.667
183.07	-462.500
183.45	-455.556
183.83	472.727
184.20	-410.000
184.58	2200.000
184.96	5700.000
185.34	-840.000
185.72	-562.500
186.09	-2500.000
186.47	2100.000
186.85	2650.000
187.23	4900.000
187.61	-1500.000
187.98	1325.000
188.36	463.636
188.74	436.364
189.12	-680.000
189.49	480.000
189.87	-4800.000
190.25	-1300.000
190.63	442.857
191.00	407.692
191.38	866.667
191.76	-1025.000
192.14	1100.000
192.51	600.000
192.89	916.667
193.27	600.000
193.65	-1125.000
194.02	480.000
194.40	980.000
194.78	540.000
195.15	475.000
195.53	630.000
195.91	-2150.000
196.29	306.250
196.66	321.053
197.04	-400.000
197.42	0.000
197.79	500.000
198.17	-5000.000
198.55	571.429
198.92	600.000
199.30	900.000
199.68	0.000
200.05	361.111
200.43	742.857
200.81	4500.000
201.18	1300.000
201.56	-1666.667
201.94	566.667
202.31	633.333
202.69	341.667
203.07	550.000
203.44	0.000
203.82	1325.000
204.19	742.857
204.57	378.571
204.95	575.000
205.32	1333.333
205.70	527.273
206.08	371.429
206.45	2450.000
206.83	325.000
207.20	816.667
207.58	780.000
207.96	277.778
208.33	737.500
208.71	-883.333
209.08	728.571
209.46	577.778
209.84	481.818
210.21	-1566.667
210.59	1400.000
210.96	-412.500
211.34	2250.000
211.71	510.000
212.09	683.333
212.46	0.000
212.84	1800.000
213.22	1375.000
213.59	-4700.000
213.97	866.667
214.34	642.857
214.72	609.091
215.09	1040.000
215.47	-1800.000
215.84	-2400.000
216.22	1633.333
216.59	392.857
216.97	1325.000
217.34	445.455
217.72	-766.667
218.09	0.000
218.47	-5100.000
218.84	588.889
219.22	842.857
219.59	1800.000
219.97	-485.714
220.34	880.000
220.72	-1500.000
221.09	364.286
221.47	1525.000
221.84	-783.333
222.22	0.000
222.59	1250.000
222.97	-2350.000
223.34	1060.000
223.72	430.769
224.09	1200.000
224.46	1900.000
224.84	-5200.000
225.21	-840.000
225.59	-4900.000
225.96	680.000
226.34	315.000
226.71	2250.000
227.08	775.000
227.46	590.000
227.83	-1200.000
228.21	-2100.000
228.58	655.556
228.95	-2300.000
229.33	-2300.000
229.70	1700.000
230.08	757.143
230.45	-860.000
230.82	441.667
231.20	650.000
231.57	642.857
231.95	483.333
232.32	259.091
232.69	436.364
233.07	642.857
233.44	346.154
233.81	-1733.333
234.19	252.632
234.56	383.333
234.93	383.333
235.31	463.636
235.68	330.769
236.05	321.429
236.43	166.667
236.80	300.000
237.17	4400.000
237.55	276.190
237.92	200.000
238.29	247.619
238.67	174.194
239.04	182.759
239.41	136.111
239.79	132.609
240.16	142.857
240.53	138.636
240.91	109.804
241.28	108.000
241.65	124.000
242.02	108.696
242.40	106.452
242.77	103.333
243.14	86.022
243.51	95.506
243.89	94.118
244.26	84.444
244.63	81.720
245.00	88.298
245.38	74.257
245.75	68.224
246.12	72.477
246.49	75.182
246.87	76.000
247.24	70.769
247.61	67.857
247.98	60.784
248.36	62.162
248.73	62.420
249.10	62.420
249.47	58.192
249.84	58.289
250.22	53.476
250.59	57.988
250.96	52.525
251.33	52.607
251.70	63.366
252.08	53.333
252.45	47.982
252.82	54.783
253.19	54.894
253.56	51.765
253.94	52.282
254.31	51.953
254.68	52.308
255.05	53.137
255.42	54.878
255.79	53.309
256.16	53.430
256.54	44.170
256.91	48.754
257.28	43.525
257.65	45.215
258.02	43.478
258.39	41.325
258.76	45.819
259.14	46.429
259.51	46.505
259.88	40.683
260.25	48.036
260.62	44.220
260.99	44.720
261.36	47.147
261.73	39.542
262.10	44.477
262.47	46.761
262.85	45.682
263.22	43.590
263.59	46.724
263.96	40.385
264.33	41.775
264.70	46.053
265.07	43.223
265.44	43.939
265.81	39.173
266.18	42.211
266.55	42.195
266.92	43.980
267.29	41.435
267.66	41.055
268.03	41.818
268.40	41.589
268.77	41.050
269.14	38.739
269.51	41.309
269.88	41.026
270.25	38.149
270.62	41.573
270.99	41.720
271.36	41.416
271.73	39.720
272.10	41.957
272.47	41.505
272.84	40.909
273.21	40.671
273.58	40.830
273.95	35.849
274.32	38.843
274.69	40.899
275.06	39.567
275.43	40.638
275.80	41.884
276.17	41.344
276.54	40.541
276.91	39.723
277.28	38.477
277.65	39.072
278.02	37.888
278.39	39.648
278.76	34.364
279.13	40.377
279.50	38.547
279.87	37.649
280.23	39.521
280.60	38.878
280.97	36.969
281.34	38.938
281.71	39.636
282.08	38.388
282.45	35.091
282.82	36.945
283.19	37.611
283.56	37.895
283.92	37.563
284.29	36.155
284.66	37.205
285.03	38.156
285.40	37.852
285.77	34.680
286.14	34.888
286.51	39.000
286.87	37.436
287.24	35.016
287.61	35.955
287.98	33.766
288.35	35.024
288.72	34.112
289.08	35.211
289.45	35.255
289.82	36.423
290.19	31.868
290.56	33.691
290.93	32.628
291.29	32.209
291.66	33.776
292.03	33.866
292.40	34.068
292.77	32.988
293.13	31.045
293.50	32.799
293.87	32.741
294.24	31.111
294.60	32.169
294.97	30.523
295.34	31.312
295.71	30.966
296.08	29.345
296.44	30.261
296.81	29.326
297.18	31.165
297.55	29.551
297.91	28.496
298.28	31.191
298.65	29.504
299.02	30.567
299.38	29.349
299.75	28.032
300.12	28.863
300.48	30.125
300.85	28.853
301.22	29.554
301.59	29.419
301.95	29.975
302.32	30.295
302.69	29.749
303.05	28.848
303.42	29.877
303.79	28.652
304.15	26.690
304.52	27.926
304.89	27.294
305.25	28.306
305.62	28.313
305.99	30.106
306.35	27.964
306.72	26.906
307.09	29.301
307.45	28.941
307.82	26.897
308.19	29.691
308.55	29.558
308.92	27.605
309.29	26.822
309.65	28.844
310.02	28.330
310.38	29.032
310.75	28.194
311.12	29.273
311.48	29.258
311.85	30.294
312.22	30.489
312.58	29.002
312.95	29.884
313.31	29.515
313.68	30.977
314.05	32.939
314.41	31.960
314.78	32.024
315.14	31.579
315.51	30.793
315.87	31.980
316.24	31.877
316.61	30.994
316.97	30.724
317.34	32.681
317.70	34.226
318.07	34.264
318.43	35.421
318.80	34.677
319.16	34.934
319.53	33.208
319.89	35.524
320.26	36.100
320.62	35.913
320.99	36.061
321.35	37.475
321.72	37.372
322.08	37.808
322.45	39.303
322.81	38.081
323.18	39.981
323.54	38.404
323.91	40.377
324.27	41.778
324.64	41.473
325.00	39.225
325.37	42.857
325.73	43.178
326.10	42.189
326.46	43.190
326.83	46.074
327.19	44.150
327.56	45.122
327.92	47.332
328.29	47.826
328.65	47.053
329.01	46.931
329.38	48.196
329.74	48.107
330.11	48.445
330.47	48.209
330.84	47.518
331.20	49.545
331.56	48.349
331.93	49.630
332.29	49.246
332.66	49.558
333.02	49.360
333.38	49.684
333.75	48.128
334.11	49.644
334.48	49.423
334.84	50.551
335.20	50.636
335.57	49.139
335.93	48.393
336.29	50.916
336.66	50.766
337.02	49.321
337.38	50.093
337.75	49.109
338.11	50.492
338.47	50.552
338.84	51.146
339.20	48.899
339.56	51.916
339.93	50.455
340.29	50.634
340.65	49.109
341.02	51.396
341.38	50.979
341.74	50.000
342.11	49.258
342.47	50.396
342.83	50.428
343.20	51.688
343.56	47.094
343.92	51.491
344.28	49.830
344.65	51.849
345.01	48.401
345.37	49.400
345.73	48.985
346.10	51.236
346.46	50.593
346.82	50.412
347.19	48.789
347.55	49.425
347.91	51.537
348.27	50.534
348.63	52.174
349.00	50.485
349.36	51.232
349.72	51.002
350.08	50.162
350.45	50.692
350.81	50.690
351.17	49.676
351.53	49.058
351.89	49.175
352.26	49.645
352.62	52.205
352.98	50.486
353.34	50.534
353.70	49.509
354.07	50.645
354.43	49.048
354.79	49.397
355.15	50.758
355.51	52.438
355.87	52.735
356.24	50.896
356.60	50.040
356.96	51.810
357.32	50.940
357.68	52.126
358.04	50.119
358.40	51.148
358.77	51.017
359.13	52.802
359.49	51.922
359.85	50.635
360.21	53.190
360.57	53.074
360.93	53.692
361.29	51.247
361.66	52.090
362.02	51.493
362.38	51.483
362.74	53.199
363.10	50.851
363.46	52.018
363.82	52.532
364.18	51.615
364.54	53.269
364.90	52.125
365.26	52.426
365.62	53.178
365.98	52.155
366.35	52.077
366.71	52.278
367.07	54.115
367.43	53.193
367.79	53.390
368.15	55.603
368.51	52.689
368.87	52.748
369.23	52.670
369.59	54.308
369.95	53.603
370.31	53.561
370.67	53.116
371.03	53.483
371.39	53.790
371.75	54.265
372.11	52.205
372.47	53.152
372.83	55.043
373.19	53.613
373.55	55.285
373.91	55.007
374.27	53.196
374.63	54.400
374.99	55.367
375.35	55.548
375.71	54.352
376.07	55.281
376.42	56.052
376.78	55.202
377.14	56.242
377.50	56.225
377.86	53.391
378.22	55.057
378.58	54.887
378.94	56.694
379.30	55.980
379.66	55.901
380.02	55.467
380.38	54.827
380.74	56.002
381.09	55.623
381.45	56.054
381.81	56.511
382.17	57.197
382.53	55.157
382.89	56.667
383.25	56.723
383.61	58.055
383.97	56.723
384.32	55.895
384.68	57.001
385.04	56.546
385.40	55.789
385.76	56.327
386.12	57.189
386.48	58.213
386.83	57.665
387.19	58.318
387.55	57.267
387.91	56.530
388.27	56.836
388.62	57.898
388.98	55.713
389.34	57.509
389.70	56.468
390.06	56.844
390.42	58.949
390.77	57.506
391.13	58.647
391.49	56.980
391.85	56.843
392.20	56.467
392.56	58.207
392.92	57.210
393.28	56.982
393.64	56.475
393.99	55.528
394.35	57.196
394.71	56.775
395.07	55.639
395.42	57.231
395.78	57.824
396.14	57.542
396.50	59.085
396.85	57.533
397.21	56.843
397.57	57.099
397.92	56.611
398.28	56.054
398.64	56.870
399.00	56.463
399.35	55.161
399.71	56.076
400.07	55.174
400.42	56.442
400.78	56.212
401.14	55.976
401.49	56.299
401.85	57.108
402.21	55.150
402.57	55.830
402.92	57.251
403.28	55.965
403.63	55.322
403.99	56.624
404.35	55.273
404.70	54.856
405.06	54.863
405.42	56.706
405.77	54.457
406.13	54.628
406.49	55.766
406.84	54.696
407.20	54.255
407.55	55.456
407.91	57.000
408.27	56.222
408.62	53.582
408.98	55.086
409.34	55.474
409.69	55.097
410.05	53.903
410.40	54.924
410.76	55.376
411.11	54.946
411.47	54.760
411.83	54.429
412.18	54.855
412.54	55.729
412.89	54.277
413.25	54.132
413.60	54.540
413.96	54.159
414.31	54.860
414.67	55.006
415.03	54.570
415.38	54.253
415.74	54.791
416.09	56.172
416.45	54.752
416.80	55.188
417.16	55.496
417.51	54.811
417.87	54.078
418.22	55.142
418.58	55.132
418.93	55.098
419.29	54.615
419.64	55.793
420.00	54.512
420.35	55.188
420.71	56.844
421.06	54.057
421.42	54.444
421.77	53.700
422.12	54.295
422.48	54.236
422.83	56.319
423.19	55.083
423.54	56.123
423.90	56.812
424.25	54.886
424.61	55.000
424.96	55.743
425.31	54.817
425.67	55.056
426.02	54.800
426.38	57.082
426.73	57.109
427.09	56.596
427.44	55.377
427.79	55.722
428.15	55.060
428.50	57.168
428.85	57.032
429.21	55.660
429.56	56.454
429.92	55.662
430.27	55.809
430.62	55.146
430.98	55.475
431.33	56.289
431.68	56.335
432.04	55.538
432.39	56.254
432.74	57.451
433.10	57.838
433.45	59.708
433.80	57.761
434.16	57.158
434.51	56.684
434.86	57.184
435.22	58.199
435.57	58.116
435.92	57.402
436.28	58.482
436.63	58.057
436.98	57.813
437.34	59.750
437.69	59.335
438.04	59.078
438.39	59.224
438.75	59.035
439.10	59.497
439.45	59.032
439.81	58.308
440.16	58.667
440.51	58.231
440.86	58.193
441.22	59.066
441.57	58.015
441.92	59.519
442.27	58.127
442.63	58.715
442.98	58.761
443.33	59.130
443.68	58.493
444.03	59.200
444.39	57.984
444.74	58.983
445.09	58.760
445.44	57.518
445.79	57.694
446.15	57.967
446.50	58.374
446.85	59.044
447.20	58.236
447.55	59.185
447.91	58.522
448.26	59.544
448.61	60.204
448.96	60.022
449.31	59.393
449.66	59.989
450.02	58.607
450.37	59.184
450.72	60.011
451.07	59.293
451.42	58.784
451.77	60.716
452.12	59.527
452.47	59.639
452.83	59.790
453.18	60.391
453.53	60.111
453.88	59.539
454.23	58.398
454.58	60.933
454.93	61.093
455.28	60.474
455.63	59.527
455.98	60.655
456.34	59.736
456.69	60.739
457.04	60.186
457.39	60.608
457.74	59.431
458.09	60.207
458.44	59.350
458.79	59.816
459.14	60.214
459.49	60.595
459.84	59.945
460.19	59.811
460.54	58.333
460.89	58.475
461.24	58.895
461.59	59.907
461.94	59.864
462.29	60.119
462.64	59.987
462.99	59.336
463.34	60.733
463.69	59.350
464.04	60.116
464.39	59.304
464.74	59.418
465.09	58.926
465.44	58.504
465.79	57.774
466.14	58.019
466.49	58.287
466.84	59.136
467.19	58.117
467.54	59.875
467.89	59.004
468.24	59.395
468.59	60.806
468.94	58.094
469.29	58.355
469.64	60.308
469.99	59.878
470.34	59.379
470.68	60.201
471.03	59.932
471.38	60.667
471.73	60.426
472.08	61.184
472.43	59.799
472.78	60.895
473.13	59.114
473.48	59.613
473.83	59.268
474.17	59.988
474.52	59.801
474.87	59.778
475.22	58.851
475.57	57.765
475.92	59.745
476.27	57.948
476.61	58.963
476.96	57.229
477.31	59.236
477.66	58.425
478.01	57.083
478.36	58.435
478.70	58.723
479.05	58.999
479.40	59.365
479.75	58.210
480.10	58.300
480.45	57.258
480.79	57.812
481.14	59.002
481.49	58.234
481.84	57.430
482.19	58.473
482.53	58.073
482.88	58.120
483.23	58.318
483.58	58.144
483.92	59.325
484.27	56.732
484.62	56.810
484.97	58.061
485.31	58.459
485.66	56.244
486.01	53.795
486.36	50.967
486.70	49.671
487.05	51.083
487.40	53.830
487.75	55.997
488.09	55.262
488.44	56.805
488.79	58.626
489.13	57.983
489.48	57.871
489.83	59.171
490.17	58.395
490.52	58.149
490.87	57.531
491.22	57.253
491.56	56.355
491.91	56.584
492.26	57.143
492.60	56.866
492.95	57.484
493.30	57.336
493.64	56.463
493.99	56.639
494.34	56.799
494.68	57.738
495.03	58.412
495.37	56.957
495.72	57.310
496.07	57.216
496.41	55.929
496.76	57.124
497.11	56.641
497.45	56.078
497.80	56.814
498.14	57.536
498.49	57.171
498.84	57.095
499.18	56.857
499.53	56.648
499.87	56.897
500.22	56.430
500.56	56.990
500.91	56.538
501.26	56.946
501.60	57.997
501.95	55.775
502.29	56.607
502.64	57.588
502.98	55.914
503.33	55.896
503.67	56.845
504.02	55.987
504.36	56.294
504.71	57.255
505.06	57.157
505.40	57.462
505.75	56.172
506.09	57.532
506.44	57.277
506.78	56.844
507.13	57.244
507.47	56.768
507.82	58.055
508.16	58.156
508.51	58.549
508.85	56.405
509.19	57.143
509.54	56.837
509.88	55.899
510.23	57.378
510.57	57.276
510.92	57.846
511.26	57.143
511.61	56.846
511.95	56.211
512.30	58.006
512.64	58.409
512.98	58.146
513.33	58.565
513.67	55.763
514.02	57.468
514.36	57.619
514.70	58.605
515.05	58.338
515.39	57.880
515.74	57.939
516.08	58.077
516.42	57.991
516.77	59.030
517.11	57.658
517.46	57.336
517.80	58.188
518.14	57.499
518.49	58.751
518.83	57.557
519.17	58.661
519.52	58.065
519.86	58.813
520.20	58.266
520.55	59.605
520.89	59.976
521.23	58.866
521.58	58.223
521.92	58.236
522.26	56.742
522.61	59.065
522.95	57.274
523.29	58.065
523.64	58.963
523.98	59.519
524.32	58.022
524.66	57.186
525.01	58.517
525.35	57.249
525.69	57.389
526.04	59.502
526.38	57.535
526.72	58.221
527.06	59.322
527.41	56.931
527.75	58.971
528.09	59.281
528.43	59.656
528.78	58.513
529.12	57.030
529.46	57.134
529.80	57.364
530.15	57.134
530.49	56.308
530.83	57.405
531.17	58.681
531.51	59.144
531.86	57.419
532.20	57.888
532.54	57.655
532.88	57.702
533.22	56.777
533.57	56.235
533.91	55.629
534.25	55.711
534.59	56.742
534.93	55.027
535.27	55.643
535.62	55.372
535.96	56.999
536.30	56.262
536.64	56.600
536.98	58.129
537.32	56.945
537.66	57.600
538.01	56.945
538.35	57.789
538.69	58.073
539.03	56.595
539.37	55.463
539.71	55.736
540.05	56.863
540.39	57.076
540.73	55.045
541.07	58.144
541.42	57.534
541.76	57.097
542.10	56.404
542.44	56.821
542.78	56.983
543.12	55.726
543.46	55.738
543.80	56.864
544.14	54.814
544.48	54.730
544.82	55.805
545.16	57.254
545.50	55.077
545.84	56.250
546.18	56.902
546.52	57.605
546.86	56.770
547.20	57.788
547.54	57.849
547.88	55.931
548.22	54.795
548.56	54.528
548.90	55.378
549.24	54.478
549.58	56.412
549.92	55.151
550.26	57.955
550.60	55.740
550.94	57.394
551.28	57.937
551.62	56.506
551.96	56.702
552.30	55.973
552.64	56.998
552.98	57.017
553.32	55.698
553.66	55.010
554.00	57.927
554.34	55.072
554.68	58.226
555.02	56.206
555.36	56.228
555.69	55.413
556.03	55.384
556.37	55.048
556.71	55.866
557.05	56.162
557.39	55.353
557.73	55.681
558.07	57.433
558.41	57.019
558.75	57.458
559.08	57.867
559.42	58.428
559.76	56.618
560.10	55.532
560.44	55.765
560.78	55.289
561.12	54.881
561.45	56.063
561.79	55.504
562.13	56.338
562.47	56.352
562.81	56.416
563.15	54.649
563.48	56.101
563.82	55.577
564.16	55.199
564.50	54.818
564.84	53.919
565.17	55.470
565.51	55.080
565.85	54.251
566.19	53.475
566.52	54.845
566.86	54.551
567.20	54.717
567.54	53.710
567.88	52.743
568.21	52.804
568.55	52.882
568.89	51.848
569.23	51.248
569.56	50.850
569.90	49.396
570.24	49.121
570.57	48.997
570.91	48.190
571.25	47.746
571.59	46.922
571.92	47.379
572.26	48.238
572.60	47.898
572.93	48.126
573.27	47.974
573.61	48.130
573.95	47.649
574.28	46.834
574.62	46.793
574.96	46.691
575.29	46.848
575.63	47.129
575.97	47.123
576.30	47.292
576.64	46.803
576.98	46.743
577.31	46.257
577.65	46.732
577.98	45.939
578.32	45.790
578.66	45.535
578.99	46.063
579.33	46.914
579.67	46.072
580.00	46.248
580.34	46.796
580.67	46.916
581.01	47.200
581.35	46.758
581.68	46.253
582.02	45.181
582.35	45.262
582.69	45.518
583.02	46.328
583.36	47.106
583.70	47.727
584.03	47.623
584.37	47.852
584.70	48.537
585.04	47.554
585.37	47.437
585.71	47.674
586.04	46.678
586.38	48.041
586.72	47.915
587.05	46.998
587.39	46.834
587.72	47.204
588.06	47.572
588.39	47.929
588.73	47.961
589.06	48.270
589.40	49.158
589.73	49.173
590.07	49.146
590.40	49.616
590.73	49.141
591.07	51.567
591.40	49.304
591.74	50.563
592.07	50.785
592.41	50.723
592.74	48.577
593.08	48.301
593.41	47.833
593.75	46.783
594.08	49.212
594.41	48.286
594.75	48.651
595.08	48.282
595.42	48.196
595.75	47.970
596.09	49.906
596.42	49.980
596.75	50.865
597.09	50.563
597.42	49.283
597.75	50.151
598.09	49.957
598.42	49.785
598.76	48.683
599.09	48.955
599.42	47.962
599.76	49.268
600.09	47.832
600.42	48.466
600.76	47.500
601.09	48.379
601.42	48.554
601.76	47.932
602.09	48.775
602.42	48.965
602.76	50.302
603.09	49.174
603.42	49.746
603.76	48.628
604.09	49.283
604.42	49.613
604.76	49.642
605.09	50.022
605.42	49.850
605.75	50.041
606.09	48.475
606.42	49.816
606.75	48.984
607.09	49.435
607.42	49.979
607.75	48.059
608.08	48.372
608.42	49.798
608.75	48.873
609.08	50.324
609.41	49.786
609.75	50.548
610.08	49.576
610.41	49.860
610.74	50.284
611.07	50.148
611.41	49.755
611.74	51.232
612.07	50.725
612.40	50.787
612.73	50.737
613.07	51.886
613.40	51.448
613.73	50.760
614.06	51.505
614.39	48.610
614.72	50.211
615.06	49.790
615.39	49.947
615.72	49.540
616.05	50.292
616.38	51.306
616.71	52.257
617.05	51.119
617.38	51.894
617.71	51.411
618.04	52.404
618.37	51.685
618.70	52.769
619.03	54.145
619.36	53.904
619.69	52.324
620.03	53.984
620.36	53.676
620.69	53.836
621.02	54.130
621.35	54.659
621.68	54.361
622.01	54.334
622.34	55.219
622.67	53.688
623.00	53.925
623.33	52.752
623.66	52.895
623.99	53.535
624.32	52.853
624.65	52.260
624.99	52.266
625.32	53.729
625.65	54.921
625.98	55.111
626.31	54.666
626.64	56.653
626.97	56.692
627.30	56.608
627.63	56.030
627.96	54.836
628.29	55.731
628.62	54.620
628.95	57.358
629.28	56.022
629.61	56.462
629.94	56.381
630.26	57.007
630.59	57.197
630.92	56.226
631.25	56.071
631.58	55.155
631.91	56.694
632.24	57.806
632.57	57.398
632.90	56.031
633.23	59.508
633.56	62.373
633.89	58.211
634.22	60.272
634.55	60.592
634.88	58.802
635.20	59.857
635.53	57.831
635.86	61.757
636.19	58.706
636.52	57.901
636.85	58.992
637.18	57.258
637.51	61.229
637.83	58.323
638.16	58.312
638.49	59.320
638.82	59.924
639.15	58.750
639.48	59.975
639.81	61.528
640.13	59.766
640.46	59.732
640.79	60.106
641.12	59.147
641.45	60.615
641.77	62.887
642.10	61.988
642.43	60.060
642.76	62.074
643.09	61.810
643.41	60.395
643.74	62.346
644.07	60.213
644.40	60.276
644.73	62.205
645.05	63.867
645.38	60.506
645.71	60.548
646.04	64.950
646.36	63.773
646.69	62.709
647.02	63.265
647.35	62.887
647.67	63.894
648.00	62.764
648.33	62.046
648.66	58.182
648.98	60.870
649.31	58.744
649.64	61.435
649.96	59.613
650.29	59.400
650.62	60.032
650.94	60.130
651.27	64.696
651.60	63.228
651.92	61.661
652.25	59.446
652.58	60.748
652.90	59.242
653.23	58.552
653.56	59.213
653.88	61.331
654.21	61.927
654.54	60.066
654.86	60.280
655.19	56.892
655.52	43.395
655.84	37.485
656.17	47.440
656.49	63.751
656.82	65.388
657.15	49.305
657.47	37.381
657.80	29.002
658.13	31.224
658.45	46.771
658.78	48.298
659.10	50.106
659.43	53.676
659.75	56.632
660.08	61.899
660.41	64.898
660.73	67.980
661.06	66.083
661.38	63.818
661.71	65.769
662.03	66.469
662.36	61.233
662.68	63.454
663.01	64.848
663.33	64.544
663.66	64.076
663.98	63.499
664.31	62.185
664.63	61.741
664.96	62.173
665.28	63.320
665.61	59.649
665.93	61.972
666.26	64.503
666.58	64.644
666.91	66.173
667.23	65.843
667.56	65.011
667.88	63.034
668.21	60.554
668.53	62.690
668.86	61.255
669.18	65.032
669.50	63.696
669.83	63.181
670.15	64.667
670.48	65.795
670.80	63.362
671.13	60.934
671.45	61.489
671.77	64.766
672.10	60.444
672.42	57.067
672.75	60.199
673.07	58.979
673.39	61.302
673.72	61.914
674.04	60.784
674.37	60.583
674.69	60.941
675.01	57.322
675.34	64.066
675.66	61.263
675.98	62.322
676.31	63.655
676.63	59.236
676.95	61.426
677.28	67.757
677.60	64.176
677.92	64.557
678.25	64.476
678.57	62.550
678.89	61.723
679.22	59.725
679.54	58.397
679.86	59.817
680.18	58.140
680.51	59.574
680.83	59.431
681.15	60.189
681.48	62.571
681.80	61.122
682.12	60.345
682.44	57.060
682.77	62.729
683.09	64.807
683.41	63.636
683.73	62.472
684.06	63.430
684.38	57.926
684.70	62.209
685.02	60.788
685.34	59.341
685.67	57.517
685.99	56.186
686.31	57.509
686.63	55.654
686.96	57.321
687.28	57.040
687.60	57.790
687.92	57.770
688.24	58.365
688.56	60.040
688.89	61.618
689.21	62.664
689.53	60.543
689.85	62.971
690.17	59.213
690.49	59.660
690.82	61.916
691.14	58.036
691.46	56.962
691.78	59.438
692.10	60.950
692.42	61.677
692.74	57.054
693.06	61.064
693.39	60.780
693.71	62.227
694.03	60.000
694.35	59.957
694.67	60.412
694.99	63.171
695.31	61.765
695.63	62.440
695.95	64.059
696.27	61.168
696.59	61.140
696.91	62.176
697.23	57.277
697.56	59.488
697.88	55.215
698.20	55.208
698.52	57.419
698.84	59.243
699.16	57.604
699.48	60.095
699.80	64.734
700.12	68.052
700.44	67.374
700.76	61.602
701.08	64.943
701.40	61.173
701.72	63.848
702.04	64.205
702.36	64.306
702.68	64.306
703.00	62.327
703.32	57.447
703.64	60.590
703.96	65.460
704.28	62.500
704.60	64.516
704.91	62.908
705.23	63.343
705.55	71.096
705.87	68.771
706.19	70.318
706.51	63.863
706.83	63.333
707.15	57.983
707.47	56.818
707.79	58.231
708.11	56.393
708.43	56.667
708.74	58.929
709.06	62.338
709.38	61.155
709.70	63.081
710.02	67.062
710.34	61.212
710.66	66.269
710.98	59.659
711.29	63.663
711.61	61.947
711.93	65.705
712.25	66.559
712.57	63.971
712.89	66.090
713.20	60.790
713.52	62.500
713.84	60.443
714.16	59.451
714.48	60.057
714.80	66.869
715.11	58.213
715.43	58.457
715.75	59.710
716.07	61.022
716.39	62.069
716.70	65.781
717.02	67.986
717.34	60.071
717.66	67.164
717.97	69.721
718.29	68.519
718.61	63.139
718.93	66.912
719.24	62.630
719.56	58.983
719.88	59.322
720.20	62.838
720.51	66.551
720.83	66.171
721.15	65.299
721.46	64.184
721.78	64.875
722.10	67.170
722.42	67.293
722.73	67.041
723.05	69.672
723.37	63.968
723.68	65.251
724.00	68.699
724.32	65.323
724.63	67.886
724.95	66.527
725.27	69.636
725.58	68.359
725.90	63.139
726.22	64.906
726.53	60.764
726.85	59.727
727.16	62.633
727.48	62.766
727.80	63.258
728.11	60.870
728.43	63.077
728.74	63.082
729.06	65.328
729.38	61.765
729.69	54.804
730.01	61.092
730.32	66.319
730.64	61.538
730.96	56.106
731.27	62.914
731.59	60.856
731.90	57.143
732.22	54.658
732.53	53.870
732.85	60.577
733.16	60.129
733.48	60.797
733.80	59.740
734.11	58.599
734.43	58.876
734.74	55.714
735.06	57.880
735.37	56.358
735.69	56.051
736.00	66.340
736.32	57.944
736.63	57.827
736.95	61.981
737.26	52.381
737.58	57.097
737.89	62.542
738.21	59.044
738.52	65.000
738.83	59.245
739.15	57.692
739.46	60.584
739.78	58.681
740.09	52.000
740.41	59.677
740.72	55.749
741.04	60.741
741.35	61.250
741.66	72.000
741.98	64.623
742.29	72.727
742.61	66.810
742.92	64.706
743.23	65.385
743.55	61.600
743.86	67.105
744.18	68.584
744.49	69.378
744.80	71.362
745.12	67.273
745.43	65.639
745.74	66.216
746.06	64.220
746.37	70.404
746.68	64.253
747.00	68.981
747.31	70.000
747.62	65.487
747.94	60.352
748.25	63.830
748.56	65.198
748.88	69.802
749.19	77.000
749.50	67.442
749.82	58.943
750.13	58.367
750.44	55.474
750.75	61.404
751.07	59.164
751.38	62.021
751.69	61.011
752.01	62.030
752.32	59.206
752.63	63.121
752.94	62.705
753.26	64.800
753.57	60.976
753.88	61.328
754.19	53.929
754.51	62.847
754.82	57.762
755.13	59.623
755.44	62.406
755.75	57.299
756.07	56.738
756.38	55.839
756.69	53.356
757.00	54.790
757.31	56.380
757.63	52.339
757.94	52.547
758.25	50.980
758.56	50.370
758.87	50.806
759.18	55.152
759.50	54.232
759.81	54.206
760.12	52.187
760.43	50.430
760.74	51.902
761.05	52.542
761.36	52.674
761.67	54.830
761.99	54.658
762.30	58.681
762.61	56.489
762.92	57.031
763.23	62.185
763.54	61.200
763.85	55.859
764.16	63.077
764.47	57.034
764.78	53.357
765.10	52.215
765.41	56.047
765.72	52.695
766.03	54.232
766.34	54.333
766.65	62.553
766.96	62.821
767.27	68.020
767.58	67.708
767.89	70.000
768.20	73.563
768.51	64.467
768.82	59.633
769.13	59.350
769.44	56.275
769.75	60.944
770.06	60.092
770.37	62.443
770.68	65.741
770.99	64.444
771.30	56.967
771.61	68.161
771.92	63.525
772.23	61.765
772.54	67.692
772.85	70.157
773.16	62.766
773.47	66.304
773.78	62.944
774.09	66.071
774.39	66.082
774.70	72.222
775.01	68.116
775.32	75.817
775.63	80.263
775.94	72.662
776.25	86.614
776.56	77.612
776.87	84.426
777.18	88.281
777.48	74.046
777.79	78.788
778.10	77.778
778.41	84.821
778.72	67.153
779.03	65.772
779.34	71.812
779.65	72.973
779.95	68.712
780.26	79.085
780.57	73.793
780.88	88.281
781.19	66.165
781.50	70.946
781.80	76.730
782.11	67.797
782.42	66.456
782.73	63.804
783.04	81.757
783.34	72.535
783.65	73.973
783.96	79.104
784.27	71.329
784.57	69.065
784.88	76.852
785.19	79.365
785.50	84.906
785.81	81.343
786.11	84.426
786.42	73.643
786.73	86.726
787.04	89.623
787.34	72.321
787.65	90.000
787.96	83.784
788.26	78.512
788.57	81.356
788.88	80.165
789.19	70.139
789.49	80.303
789.80	70.229
790.11	90.476
790.41	85.149
790.72	90.361
791.03	96.739
791.33	94.186
791.64	77.320
791.95	87.129
792.25	101.111
792.56	100.000
792.87	96.154
793.17	102.532
793.48	100.000
793.79	93.103
794.09	94.318
794.40	83.193
794.70	79.412
795.01	65.926
795.32	71.942
795.62	70.079
795.93	85.345
796.23	82.301
796.54	101.176
796.85	86.486
797.15	115.493
797.46	109.091
797.76	93.976
798.07	107.595
798.37	103.077
798.68	113.636
798.99	95.775
799.29	110.390
799.60	90.909
799.90	124.658
800.21	122.388
800.51	113.793
800.82	136.842
801.12	132.787
801.43	93.939
801.73	89.189
802.04	117.460
802.34	91.358
802.65	115.625
802.95	118.644
803.26	126.563
803.56	104.286
803.87	106.154
804.17	95.588
804.48	120.370
804.78	112.069
805.09	104.412
805.39	132.692
805.70	112.500
806.00	114.754
806.30	101.515
806.61	89.024
806.91	97.468
807.22	85.526
807.52	101.493
807.83	104.225
808.13	112.500
808.43	116.667
808.74	97.368
809.04	98.551
809.35	101.493
809.65	98.684
809.95	111.290
810.26	103.390
810.56	123.810
810.86	150.000
811.17	195.238
811.47	130.000
811.77	118.519
812.08	143.636
812.38	140.000
812.69	172.222
812.99	143.182
813.29	128.571
813.59	133.333
813.90	144.898
814.20	107.273
814.50	92.308
814.81	122.059
815.11	120.408
815.41	96.721
815.72	152.381
816.02	149.091
816.32	142.857
816.62	137.500
816.93	151.220
817.23	133.333
817.53	122.727
817.84	178.788
818.14	141.304
818.44	133.333
818.74	202.941
819.04	132.500
819.35	157.143
819.65	200.000
819.95	210.714
820.25	265.000
820.56	151.282
820.86	159.091
821.16	139.535
821.46	133.333
821.76	144.000
822.07	194.286
822.37	165.000
822.67	203.030
822.97	137.255
823.27	250.000
823.57	143.243
823.88	175.000
824.18	206.667
824.48	145.238
824.78	224.000
825.08	150.000
825.38	151.351
825.69	160.976
825.99	254.167
826.29	186.207
826.59	168.421
826.89	171.053
827.19	182.353
827.49	206.452
827.79	129.545
828.09	140.909
828.39	142.553
828.70	132.653
829.00	211.111
829.30	167.742
829.60	137.500
829.90	340.000
830.20	242.857
830.50	230.435
830.80	256.522
831.10	233.333
831.40	183.333
831.70	234.783
832.00	257.692
832.30	214.815
832.60	337.500
832.90	216.667
833.20	364.286
833.50	212.903
833.80	213.793
834.10	221.875
834.40	242.308
834.70	333.333
835.00	290.476
835.30	208.571
835.60	384.615
835.90	224.138
836.20	442.857
836.50	182.759
836.80	216.000
837.10	172.222
837.40	228.571
837.70	341.176
838.00	211.111
838.30	280.952
838.60	276.190
838.90	211.538
839.19	280.000
839.49	407.143
839.79	350.000
840.09	235.000
840.39	233.333
840.69	239.130
840.99	316.667
841.29	550.000
841.59	300.000
841.88	350.000
842.18	210.345
842.48	257.143
842.78	186.667
843.08	204.348
843.38	193.750
843.68	1066.667
843.97	215.385
844.27	189.655
844.57	276.190
844.87	312.500
845.17	218.519
845.47	1600.000
845.76	511.111
846.06	247.059
846.36	612.500
846.66	342.857
846.96	306.250
847.25	472.727
847.55	481.818
847.85	269.565
848.15	320.000
848.44	371.429
848.74	261.111
849.04	276.471
849.34	520.000
849.63	226.316
849.93	454.545
850.23	1000.000
850.53	435.714
850.82	2250.000
851.12	-4200.000
851.42	3800.000
851.71	240.000
852.01	-1100.000
852.31	237.500
852.61	1800.000
852.90	314.286
853.20	236.000
853.50	358.824
853.79	233.333
854.09	200.000
854.39	343.750
854.68	170.270
854.98	167.742
855.28	200.000
855.57	241.379
855.87	211.111
856.17	252.632
856.46	313.333
856.76	341.176
857.05	210.345
857.35	237.500
857.65	373.333
857.94	256.522
858.24	192.308
858.53	250.000
858.83	318.182
859.13	380.000
859.42	0.000
859.72	622.222
860.01	390.909
860.31	240.909
860.60	294.737
860.90	200.000
861.20	488.889
861.49	508.333
861.79	-5000.000
862.08	625.000
862.38	295.238
862.67	276.923
862.97	364.706
863.26	555.556
863.56	300.000
863.85	366.667
864.15	437.500
864.44	346.667
864.74	800.000
865.03	662.500
865.33	315.789
865.62	354.545
865.92	415.385
866.21	383.333
866.51	0.000
866.80	390.909
867.10	1220.000
867.39	376.923
867.69	409.091
867.98	242.105
868.27	490.909
868.57	257.895
868.86	-5200.000
869.16	368.750
869.45	2050.000
869.75	-3800.000
870.04	425.000
870.33	528.571
870.63	925.000
870.92	2650.000
871.22	757.143
871.51	352.941
871.80	214.286
872.10	378.571
>>>>>End Processed Spectral Data<<<<<
