SpectraSuite Data File
++++++++++++++++++++++++++++++++++++
Date: Wed May 13 16:34:19 PDT 2015
User: schluterlab
Dark Spectrum Present: Yes
Reference Spectrum Present: Yes
Number of Sampled Component Spectra: 1
Spectrometers: USB2E3373
Integration Time (usec): 3000 (USB2E3373)
Spectra Averaged: 3 (USB2E3373)
Boxcar Smoothing: 0 (USB2E3373)
Correct for Electrical Dark: No (USB2E3373)
Strobe/Lamp Enabled: No (USB2E3373)
Correct for Detector Non-linearity: No (USB2E3373)
Correct for Stray Light: No (USB2E3373)
Number of Pixels in Processed Spectrum: 2048
>>>>>Begin Processed Spectral Data<<<<<
178.53	0.000
178.91	-1325.000
179.29	-1300.000
179.67	-277.778
180.04	-950.000
180.42	2350.000
180.80	880.000
181.18	-1175.000
181.56	714.286
181.94	0.000
182.31	-671.429
182.69	1733.333
183.07	-562.500
183.45	-533.333
183.83	418.182
184.20	-390.000
184.58	2150.000
184.96	5300.000
185.34	-800.000
185.72	-612.500
186.09	-2200.000
186.47	2650.000
186.85	2300.000
187.23	4700.000
187.61	-1566.667
187.98	1175.000
188.36	481.818
188.74	472.727
189.12	-820.000
189.49	540.000
189.87	-4800.000
190.25	-1250.000
190.63	407.143
191.00	400.000
191.38	900.000
191.76	-1250.000
192.14	1275.000
192.51	600.000
192.89	750.000
193.27	625.000
193.65	-1100.000
194.02	470.000
194.40	920.000
194.78	490.000
195.15	558.333
195.53	590.000
195.91	-1750.000
196.29	387.500
196.66	315.789
197.04	-360.000
197.42	0.000
197.79	560.000
198.17	-4600.000
198.55	628.571
198.92	662.500
199.30	880.000
199.68	0.000
200.05	333.333
200.43	714.286
200.81	4500.000
201.18	1766.667
201.56	-1200.000
201.94	555.556
202.31	600.000
202.69	425.000
203.07	570.000
203.44	0.000
203.82	1250.000
204.19	657.143
204.57	478.571
204.95	562.500
205.32	1233.333
205.70	481.818
206.08	378.571
206.45	2650.000
206.83	362.500
207.20	833.333
207.58	620.000
207.96	294.444
208.33	712.500
208.71	-733.333
209.08	800.000
209.46	455.556
209.84	409.091
210.21	-1566.667
210.59	1325.000
210.96	-525.000
211.34	2550.000
211.71	570.000
212.09	716.667
212.46	0.000
212.84	1566.667
213.22	1275.000
213.59	-4200.000
213.97	600.000
214.34	842.857
214.72	545.455
215.09	1060.000
215.47	-2000.000
215.84	-2450.000
216.22	1366.667
216.59	371.429
216.97	1100.000
217.34	481.818
217.72	-516.667
218.09	0.000
218.47	-4700.000
218.84	533.333
219.22	657.143
219.59	1700.000
219.97	-628.571
220.34	960.000
220.72	-1833.333
221.09	385.714
221.47	1475.000
221.84	-966.667
222.22	0.000
222.59	1375.000
222.97	-2700.000
223.34	980.000
223.72	400.000
224.09	880.000
224.46	2650.000
224.84	-5200.000
225.21	-1060.000
225.59	-4500.000
225.96	550.000
226.34	295.000
226.71	2250.000
227.08	662.500
227.46	520.000
227.83	-975.000
228.21	-2550.000
228.58	677.778
228.95	-2050.000
229.33	-2250.000
229.70	1600.000
230.08	642.857
230.45	-680.000
230.82	425.000
231.20	766.667
231.57	657.143
231.95	433.333
232.32	240.909
232.69	363.636
233.07	671.429
233.44	323.077
233.81	-1800.000
234.19	252.632
234.56	441.667
234.93	416.667
235.31	527.273
235.68	238.462
236.05	300.000
236.43	175.758
236.80	221.053
237.17	2900.000
237.55	214.286
237.92	189.286
238.29	209.524
238.67	164.516
239.04	182.759
239.41	116.667
239.79	82.609
240.16	138.095
240.53	104.545
240.91	84.314
241.28	106.000
241.65	100.000
242.02	78.261
242.40	88.710
242.77	75.000
243.14	60.215
243.51	67.416
243.89	60.000
244.26	56.667
244.63	54.839
245.00	51.064
245.38	57.426
245.75	38.318
246.12	52.294
246.49	51.095
246.87	47.200
247.24	42.308
247.61	42.857
247.98	35.948
248.36	33.108
248.73	35.032
249.10	42.038
249.47	31.073
249.84	38.503
250.22	31.551
250.59	28.994
250.96	31.313
251.33	35.545
251.70	33.168
252.08	29.048
252.45	24.215
252.82	23.043
253.19	34.043
253.56	30.588
253.94	28.631
254.31	24.219
254.68	30.385
255.05	29.151
255.42	26.423
255.79	24.265
256.16	27.076
256.54	18.375
256.91	25.623
257.28	21.583
257.65	23.762
258.02	23.913
258.39	22.713
258.76	21.405
259.14	25.298
259.51	21.277
259.88	20.186
260.25	26.284
260.62	19.075
260.99	23.602
261.36	22.222
261.73	20.917
262.10	19.186
262.47	21.408
262.85	21.170
263.22	19.088
263.59	22.222
263.96	19.780
264.33	21.149
264.70	21.316
265.07	22.506
265.44	22.222
265.81	18.005
266.18	18.342
266.55	20.732
266.92	20.639
267.29	20.370
267.66	18.807
268.03	17.955
268.40	19.393
268.77	17.184
269.14	18.243
269.51	16.479
269.88	20.979
270.25	18.510
270.62	20.000
270.99	18.925
271.36	16.953
271.73	16.121
272.10	18.913
272.47	21.720
272.84	18.615
273.21	17.610
273.58	15.939
273.95	16.562
274.32	17.149
274.69	16.060
275.06	16.142
275.43	16.596
275.80	17.435
276.17	16.090
276.54	18.295
276.91	16.403
277.28	13.477
277.65	16.248
278.02	12.836
278.39	20.508
278.76	17.455
279.13	16.226
279.50	16.015
279.87	15.737
280.23	16.168
280.60	14.120
280.97	15.342
281.34	17.522
281.71	16.364
282.08	18.618
282.45	16.000
282.82	14.920
283.19	12.121
283.56	15.789
283.92	18.274
284.29	13.228
284.66	14.338
285.03	15.190
285.40	13.556
285.77	16.330
286.14	13.817
286.51	15.333
286.87	15.556
287.24	15.635
287.61	14.607
287.98	17.045
288.35	15.055
288.72	16.199
289.08	14.241
289.45	16.145
289.82	16.260
290.19	12.873
290.56	14.242
290.93	14.502
291.29	14.417
291.66	15.782
292.03	16.279
292.40	13.803
292.77	13.757
293.13	15.224
293.50	14.431
293.87	13.630
294.24	13.037
294.60	11.645
294.97	13.808
295.34	15.233
295.71	14.347
296.08	13.818
296.44	13.343
296.81	13.342
297.18	15.041
297.55	11.214
297.91	12.665
298.28	12.718
298.65	14.752
299.02	14.756
299.38	11.819
299.75	11.186
300.12	11.750
300.48	13.625
300.85	12.330
301.22	14.395
301.59	13.005
301.95	11.335
302.32	12.452
302.69	13.501
303.05	12.485
303.42	13.457
303.79	14.270
304.15	12.005
304.52	13.905
304.89	14.053
305.25	13.341
305.62	14.836
305.99	14.404
306.35	14.094
306.72	14.350
307.09	15.094
307.45	15.090
307.82	11.942
308.19	15.121
308.55	14.779
308.92	14.823
309.29	14.467
309.65	13.150
310.02	15.116
310.38	14.301
310.75	15.628
311.12	15.046
311.48	14.211
311.85	16.352
312.22	15.401
312.58	15.696
312.95	16.367
313.31	15.728
313.68	17.048
314.05	17.456
314.41	15.678
314.78	17.623
315.14	17.279
315.51	17.817
315.87	18.614
316.24	17.974
316.61	17.544
316.97	17.613
317.34	18.689
317.70	19.216
318.07	19.634
318.43	18.787
318.80	19.775
319.16	21.092
319.53	20.263
319.89	22.000
320.26	22.500
320.62	23.115
320.99	22.222
321.35	23.232
321.72	23.717
322.08	25.568
322.45	25.473
322.81	25.484
323.18	25.915
323.54	25.417
323.91	27.170
324.27	27.725
324.64	26.281
325.00	28.494
325.37	29.663
325.73	31.867
326.10	30.450
326.46	31.272
326.83	32.873
327.19	32.707
327.56	32.578
327.92	34.033
328.29	34.783
328.65	35.175
329.01	34.747
329.38	36.078
329.74	36.196
330.11	36.664
330.47	36.088
330.84	38.143
331.20	37.250
331.56	37.064
331.93	39.352
332.29	37.799
332.66	38.584
333.02	38.848
333.38	38.844
333.75	39.929
334.11	38.790
334.48	38.953
334.84	39.430
335.20	41.273
335.57	38.985
335.93	37.768
336.29	40.110
336.66	39.405
337.02	40.362
337.38	41.574
337.75	40.196
338.11	40.376
338.47	40.239
338.84	39.963
339.20	38.624
339.56	40.785
339.93	40.455
340.29	39.130
340.65	40.107
341.02	40.838
341.38	41.281
341.74	40.439
342.11	41.135
342.47	41.674
342.83	40.582
343.20	40.693
343.56	39.933
343.92	41.404
344.28	41.327
344.65	39.639
345.01	42.172
345.37	40.223
345.73	42.809
346.10	42.370
346.46	42.203
346.82	41.269
347.19	40.602
347.55	41.133
347.91	43.042
348.27	41.988
348.63	41.054
349.00	41.019
349.36	40.312
349.72	40.738
350.08	41.086
350.45	41.904
350.81	41.917
351.17	41.086
351.53	42.097
351.89	40.842
352.26	42.226
352.62	42.342
352.98	43.517
353.34	42.071
353.70	41.571
354.07	42.984
354.43	42.698
354.79	41.834
355.15	42.139
355.51	44.125
355.87	43.755
356.24	43.160
356.60	43.384
356.96	43.926
357.32	44.644
357.68	43.858
358.04	43.310
358.40	42.359
358.77	42.801
359.13	43.410
359.49	42.902
359.85	43.651
360.21	42.903
360.57	44.825
360.93	43.462
361.29	44.293
361.66	43.731
362.02	43.209
362.38	44.563
362.74	43.452
363.10	42.191
363.46	44.314
363.82	43.991
364.18	43.612
364.54	45.691
364.90	45.326
365.26	44.632
365.62	44.996
365.98	43.682
366.35	43.195
366.71	44.902
367.07	45.011
367.43	45.791
367.79	46.110
368.15	45.905
368.51	44.477
368.87	46.181
369.23	44.843
369.59	46.198
369.95	45.147
370.31	46.083
370.67	45.435
371.03	46.067
371.39	45.700
371.75	45.294
372.11	45.448
372.47	46.774
372.83	48.271
373.19	46.387
373.55	46.341
373.91	48.748
374.27	45.842
374.63	46.909
374.99	47.599
375.35	47.244
375.71	46.881
376.07	46.845
376.42	47.524
376.78	48.376
377.14	47.490
377.50	48.808
377.86	48.404
378.22	47.914
378.58	46.930
378.94	48.272
379.30	49.173
379.66	48.096
380.02	48.894
380.38	48.452
380.74	49.400
381.09	49.267
381.45	49.047
381.81	49.386
382.17	49.427
382.53	48.868
382.89	49.259
383.25	49.531
383.61	49.752
383.97	49.468
384.32	49.470
384.68	49.876
385.04	50.154
385.40	49.598
385.76	49.447
386.12	50.453
386.48	51.982
386.83	50.225
387.19	50.959
387.55	51.330
387.91	51.028
388.27	49.785
388.62	52.059
388.98	49.693
389.34	50.688
389.70	48.866
390.06	50.317
390.42	50.259
390.77	51.399
391.13	51.244
391.49	51.332
391.85	50.923
392.20	49.905
392.56	50.316
392.92	51.265
393.28	50.355
393.64	51.259
393.99	50.886
394.35	50.248
394.71	48.683
395.07	48.972
395.42	51.112
395.78	51.081
396.14	50.155
396.50	51.128
396.85	51.240
397.21	50.925
397.57	50.217
397.92	50.481
398.28	48.935
398.64	50.657
399.00	49.468
399.35	48.731
399.71	50.116
400.07	49.852
400.42	49.755
400.78	48.914
401.14	48.902
401.49	50.567
401.85	49.365
402.21	48.563
402.57	49.352
402.92	50.126
403.28	50.156
403.63	49.443
403.99	48.790
404.35	48.606
404.70	47.722
405.06	48.981
405.42	49.345
405.77	48.114
406.13	48.194
406.49	49.261
406.84	48.080
407.20	47.872
407.55	49.011
407.91	48.000
408.27	49.075
408.62	47.562
408.98	48.162
409.34	48.462
409.69	49.226
410.05	47.336
410.40	48.318
410.76	47.073
411.11	46.803
411.47	46.390
411.83	47.831
412.18	48.114
412.54	47.883
412.89	46.084
413.25	46.871
413.60	48.301
413.96	46.570
414.31	46.902
414.67	47.148
415.03	46.954
415.38	46.263
415.74	46.752
416.09	47.224
416.45	46.988
416.80	47.389
417.16	48.391
417.51	47.246
417.87	46.307
418.22	46.246
418.58	48.483
418.93	46.867
419.29	48.122
419.64	48.048
420.00	47.256
420.35	47.768
420.71	47.161
421.06	47.375
421.42	46.433
421.77	48.206
422.12	46.996
422.48	47.652
422.83	47.117
423.19	45.967
423.54	47.998
423.90	48.058
424.25	47.069
424.61	47.500
424.96	48.630
425.31	47.841
425.67	46.067
426.02	46.114
426.38	47.985
426.73	47.162
427.09	48.146
427.44	47.614
427.79	47.039
428.15	48.274
428.50	46.928
428.85	47.616
429.21	47.764
429.56	48.315
429.92	47.559
430.27	47.517
430.62	46.595
430.98	48.002
431.33	47.629
431.68	47.749
432.04	46.432
432.39	47.801
432.74	47.935
433.10	48.104
433.45	48.105
433.80	48.448
434.16	48.077
434.51	47.158
434.86	47.548
435.22	47.916
435.57	47.903
435.92	48.157
436.28	49.051
436.63	47.406
436.98	47.911
437.34	48.837
437.69	47.491
438.04	48.342
438.39	47.821
438.75	47.937
439.10	48.492
439.45	47.580
439.81	49.486
440.16	48.334
440.51	48.213
440.86	48.871
441.22	48.220
441.57	48.355
441.92	47.902
442.27	48.224
442.63	47.393
442.98	48.225
443.33	47.772
443.68	47.806
444.03	47.828
444.39	47.225
444.74	48.268
445.09	47.817
445.44	47.895
445.79	46.363
446.15	46.374
446.50	47.604
446.85	48.458
447.20	46.915
447.55	47.962
447.91	47.270
448.26	47.802
448.61	46.637
448.96	48.394
449.31	46.794
449.66	48.171
450.02	45.850
450.37	47.109
450.72	47.490
451.07	46.069
451.42	46.687
451.77	46.330
452.12	46.305
452.47	47.388
452.83	47.436
453.18	47.066
453.53	47.186
453.88	47.017
454.23	46.981
454.58	46.396
454.93	49.269
455.28	47.070
455.63	47.209
455.98	47.798
456.34	47.676
456.69	46.900
457.04	46.935
457.39	46.698
457.74	47.359
458.09	47.384
458.44	46.807
458.79	45.065
459.14	47.009
459.49	46.527
459.84	46.205
460.19	46.788
460.54	45.139
460.89	46.242
461.24	46.630
461.59	46.020
461.94	45.314
462.29	45.519
462.64	44.799
462.99	44.763
463.34	47.067
463.69	45.153
464.04	46.029
464.39	44.928
464.74	46.405
465.09	45.838
465.44	44.820
465.79	44.799
466.14	44.663
466.49	44.605
466.84	44.658
467.19	44.719
467.54	45.375
467.89	44.298
468.24	45.084
468.59	45.055
468.94	43.067
469.29	45.823
469.64	44.645
469.99	45.399
470.34	44.452
470.68	44.899
471.03	43.810
471.38	44.197
471.73	45.170
472.08	44.276
472.43	44.095
472.78	43.318
473.13	44.031
473.48	43.508
473.83	44.634
474.17	43.622
474.52	43.672
474.87	44.308
475.22	43.180
475.57	42.558
475.92	44.450
476.27	42.672
476.61	43.078
476.96	42.881
477.31	42.962
477.66	41.521
478.01	42.760
478.36	42.517
478.70	42.523
479.05	42.226
479.40	42.477
479.75	42.603
480.10	41.998
480.45	41.790
480.79	40.755
481.14	42.564
481.49	41.623
481.84	41.381
482.19	41.572
482.53	41.330
482.88	42.392
483.23	41.449
483.58	41.856
483.92	41.518
484.27	41.089
484.62	41.552
484.97	40.599
485.31	42.534
485.66	42.502
486.01	41.194
486.36	39.107
486.70	37.500
487.05	38.769
487.40	39.198
487.75	38.938
488.09	38.520
488.44	38.459
488.79	39.747
489.13	40.183
489.48	39.233
489.83	40.138
490.17	40.596
490.52	39.150
490.87	39.665
491.22	40.746
491.56	38.815
491.91	39.134
492.26	39.596
492.60	39.078
492.95	38.494
493.30	39.439
493.64	39.384
493.99	38.812
494.34	38.529
494.68	39.927
495.03	39.803
495.37	38.809
495.72	39.327
496.07	39.490
496.41	38.097
496.76	37.555
497.11	37.866
497.45	38.705
497.80	39.299
498.14	38.647
498.49	39.366
498.84	37.536
499.18	39.286
499.53	37.892
499.87	38.444
500.22	39.190
500.56	39.417
500.91	38.221
501.26	38.359
501.60	38.776
501.95	37.259
502.29	37.395
502.64	37.756
502.98	38.055
503.33	37.157
503.67	38.005
504.02	37.933
504.36	36.921
504.71	37.469
505.06	37.157
505.40	37.676
505.75	36.355
506.09	36.297
506.44	36.902
506.78	36.727
507.13	37.456
507.47	37.071
507.82	37.234
508.16	37.437
508.51	37.189
508.85	36.842
509.19	37.296
509.54	36.888
509.88	36.528
510.23	36.144
510.57	37.255
510.92	37.649
511.26	37.050
511.61	36.981
511.95	35.752
512.30	35.896
512.64	36.217
512.98	36.710
513.33	37.473
513.67	35.752
514.02	35.227
514.36	37.084
514.70	35.750
515.05	37.089
515.39	35.334
515.74	36.599
516.08	36.277
516.42	36.182
516.77	36.566
517.11	35.683
517.46	35.609
517.80	36.295
518.14	35.379
518.49	36.348
518.83	36.250
519.17	36.085
519.52	35.427
519.86	35.596
520.20	35.838
520.55	35.248
520.89	36.436
521.23	36.309
521.58	35.114
521.92	35.395
522.26	35.387
522.61	36.012
522.95	34.868
523.29	36.214
523.64	35.854
523.98	35.428
524.32	35.585
524.66	35.719
525.01	34.252
525.35	34.449
525.69	34.729
526.04	34.642
526.38	34.228
526.72	34.785
527.06	34.965
527.41	33.292
527.75	34.084
528.09	34.746
528.43	34.736
528.78	34.849
529.12	33.394
529.46	34.783
529.80	35.272
530.15	34.206
530.49	34.338
530.83	33.734
531.17	36.031
531.51	34.436
531.86	34.194
532.20	35.072
532.54	34.337
532.88	34.275
533.22	33.417
533.57	33.951
533.91	33.775
534.25	33.293
534.59	34.228
534.93	34.325
535.27	33.434
535.62	34.432
535.96	34.338
536.30	32.867
536.64	32.711
536.98	34.439
537.32	33.772
537.66	33.067
538.01	33.706
538.35	34.131
538.69	33.631
539.03	32.164
539.37	32.588
539.71	31.756
540.05	32.876
540.39	33.156
540.73	32.536
541.07	33.679
541.42	33.268
541.76	32.968
542.10	32.342
542.44	32.517
542.78	32.872
543.12	31.734
543.46	32.852
543.80	32.726
544.14	32.028
544.48	33.587
544.82	32.393
545.16	32.336
545.50	32.519
545.84	32.258
546.18	32.862
546.52	33.173
546.86	33.127
547.20	33.648
547.54	32.665
547.88	33.737
548.22	32.254
548.56	31.635
548.90	31.562
549.24	32.054
549.58	33.356
549.92	32.143
550.26	33.381
550.60	32.158
550.94	32.535
551.28	31.602
551.62	31.991
551.96	31.860
552.30	32.901
552.64	32.928
552.98	33.220
553.32	31.827
553.66	32.243
554.00	32.189
554.34	31.332
554.68	31.474
555.02	31.523
555.36	32.220
555.69	30.650
556.03	31.157
556.37	32.947
556.71	29.673
557.05	31.723
557.39	31.700
557.73	31.546
558.07	32.270
558.41	30.970
558.75	31.521
559.08	31.544
559.42	30.763
559.76	31.765
560.10	31.335
560.44	31.516
560.78	30.472
561.12	31.398
561.45	30.834
561.79	29.927
562.13	31.187
562.47	31.011
562.81	31.799
563.15	30.301
563.48	30.703
563.82	30.398
564.16	30.608
564.50	29.818
564.84	31.226
565.17	29.794
565.51	31.438
565.85	30.711
566.19	30.244
566.52	30.842
566.86	30.199
567.20	31.191
567.54	31.050
567.88	29.766
568.21	30.635
568.55	30.131
568.89	30.253
569.23	30.481
569.56	29.514
569.90	30.566
570.24	29.889
570.57	28.698
570.91	28.992
571.25	29.030
571.59	28.778
571.92	28.427
572.26	28.885
572.60	28.679
572.93	28.066
573.27	28.986
573.61	29.006
573.95	28.553
574.28	28.920
574.62	28.207
574.96	28.244
575.29	27.546
575.63	27.998
575.97	27.597
576.30	28.253
576.64	28.026
576.98	27.807
577.31	28.281
577.65	28.317
577.98	28.146
578.32	27.701
578.66	27.358
578.99	27.505
579.33	28.153
579.67	27.876
580.00	27.475
580.34	27.575
580.67	27.275
581.01	27.749
581.35	28.043
581.68	27.878
582.02	27.060
582.35	27.649
582.69	27.895
583.02	27.537
583.36	27.830
583.70	27.822
584.03	27.299
584.37	28.248
584.70	28.056
585.04	27.935
585.37	27.679
585.71	27.937
586.04	27.881
586.38	28.187
586.72	27.838
587.05	27.547
587.39	27.388
587.72	27.493
588.06	27.615
588.39	27.709
588.73	27.838
589.06	28.451
589.40	28.215
589.73	28.405
590.07	28.114
590.40	27.621
590.73	28.025
591.07	28.531
591.40	29.017
591.74	29.567
592.07	29.494
592.41	28.359
592.74	28.502
593.08	28.681
593.41	28.757
593.75	27.701
594.08	27.992
594.41	28.066
594.75	28.355
595.08	27.810
595.42	28.231
595.75	27.813
596.09	28.351
596.42	28.094
596.75	28.451
597.09	29.177
597.42	27.530
597.75	27.986
598.09	28.174
598.42	27.792
598.76	28.172
599.09	28.088
599.42	27.402
599.76	28.111
600.09	27.760
600.42	27.502
600.76	27.000
601.09	27.104
601.42	26.903
601.76	27.666
602.09	27.431
602.42	27.906
602.76	28.174
603.09	28.600
603.42	27.684
603.76	27.401
604.09	27.995
604.42	27.843
604.76	28.511
605.09	28.484
605.42	28.003
605.75	27.359
606.09	28.223
606.42	27.626
606.75	27.831
607.09	27.166
607.42	26.658
607.75	26.751
608.08	27.660
608.42	27.970
608.75	27.277
609.08	26.735
609.41	26.940
609.75	27.585
610.08	27.615
610.41	27.374
610.74	27.200
611.07	27.125
611.41	27.478
611.74	27.702
612.07	29.244
612.40	28.332
612.73	27.947
613.07	28.502
613.40	27.541
613.73	26.848
614.06	27.366
614.39	27.058
614.72	27.526
615.06	27.889
615.39	27.282
615.72	26.738
616.05	26.688
616.38	26.959
616.71	27.613
617.05	27.974
617.38	28.202
617.71	27.988
618.04	28.185
618.37	27.617
618.70	28.438
619.03	28.224
619.36	27.631
619.69	28.099
620.03	29.121
620.36	28.543
620.69	28.151
621.02	28.540
621.35	28.034
621.68	27.882
622.01	27.322
622.34	28.442
622.67	26.996
623.00	28.320
623.33	27.162
623.66	28.449
623.99	27.614
624.32	28.673
624.65	26.907
624.99	26.062
625.32	27.661
625.65	27.949
625.98	28.670
626.31	27.994
626.64	27.755
626.97	28.346
627.30	27.515
627.63	28.548
627.96	28.007
628.29	27.647
628.62	28.454
628.95	28.962
629.28	28.741
629.61	29.606
629.94	28.857
630.26	28.599
630.59	28.885
630.92	28.640
631.25	27.542
631.58	28.729
631.91	29.412
632.24	30.063
632.57	28.227
632.90	27.522
633.23	30.089
633.56	27.684
633.89	29.672
634.22	29.398
634.55	31.006
634.88	28.144
635.20	28.554
635.53	28.193
635.86	30.198
636.19	27.176
636.52	29.412
636.85	28.637
637.18	28.226
637.51	28.960
637.83	26.510
638.16	28.645
638.49	29.345
638.82	30.341
639.15	29.875
639.48	31.297
639.81	30.563
640.13	30.208
640.46	29.396
640.79	29.458
641.12	29.436
641.45	30.307
641.77	30.928
642.10	29.825
642.43	28.679
642.76	29.721
643.09	31.442
643.41	29.135
643.74	32.253
644.07	30.183
644.40	32.822
644.73	31.496
645.05	30.428
645.38	28.436
645.71	28.502
646.04	32.558
646.36	32.721
646.69	32.943
647.02	30.782
647.35	32.990
647.67	29.204
648.00	31.220
648.33	29.703
648.66	29.848
648.98	31.484
649.31	30.643
649.64	30.643
649.96	29.210
650.29	30.332
650.62	30.259
650.94	30.146
651.27	30.743
651.60	32.446
651.92	30.511
652.25	30.456
652.58	31.153
652.90	30.174
653.23	28.505
653.56	28.661
653.88	32.805
654.21	28.594
654.54	31.188
654.86	29.283
655.19	27.703
655.52	22.176
655.84	22.270
656.17	28.895
656.49	38.651
656.82	38.415
657.15	28.418
657.47	20.638
657.80	15.888
658.13	16.070
658.45	23.328
658.78	23.040
659.10	23.520
659.43	24.575
659.75	24.967
660.08	27.911
660.41	30.261
660.73	30.241
661.06	30.573
661.38	30.909
661.71	31.538
662.03	31.953
662.36	30.020
662.68	33.333
663.01	31.919
663.33	33.758
663.66	31.303
663.98	32.397
664.31	30.882
664.63	30.769
664.96	27.968
665.28	30.943
665.61	30.214
665.93	31.187
666.26	30.426
666.58	30.126
666.91	32.770
667.23	31.685
667.56	30.886
667.88	33.547
668.21	33.475
668.53	29.284
668.86	30.087
669.18	31.343
669.50	31.957
669.83	33.551
670.15	32.000
670.48	32.244
670.80	32.328
671.13	32.696
671.45	30.000
671.77	33.809
672.10	31.608
672.42	28.622
672.75	30.017
673.07	29.225
673.39	28.933
673.72	31.445
674.04	30.784
674.37	28.932
674.69	29.243
675.01	30.753
675.34	32.854
675.66	32.421
675.98	32.587
676.31	31.723
676.63	32.909
676.95	30.608
677.28	31.542
677.60	30.330
677.92	33.966
678.25	31.622
678.57	32.072
678.89	33.066
679.22	31.238
679.54	30.153
679.86	31.009
680.18	30.590
680.51	29.433
680.83	28.826
681.15	29.245
681.48	28.166
681.80	30.948
682.12	32.567
682.44	29.400
682.77	32.587
683.09	32.403
683.41	30.599
683.73	32.230
684.06	32.438
684.38	29.354
684.70	29.651
685.02	31.895
685.34	27.656
685.67	28.497
685.99	28.351
686.31	29.352
686.63	26.502
686.96	28.571
687.28	29.242
687.60	27.717
687.92	29.799
688.24	29.278
688.56	29.920
688.89	32.158
689.21	31.659
689.53	30.480
689.85	31.707
690.17	28.986
690.49	34.607
690.82	31.075
691.14	30.580
691.46	29.114
691.78	29.116
692.10	32.025
692.42	30.140
692.74	28.216
693.06	31.277
693.39	31.211
693.71	32.969
694.03	32.211
694.35	30.087
694.67	28.375
694.99	34.146
695.31	30.147
695.63	31.818
695.95	32.763
696.27	30.203
696.59	31.865
696.91	34.456
697.23	29.108
697.56	30.277
697.88	27.403
698.20	29.375
698.52	32.043
698.84	28.731
699.16	30.645
699.48	31.116
699.80	33.575
700.12	34.286
700.44	32.626
700.76	37.017
701.08	31.897
701.40	33.799
701.72	34.402
702.04	37.216
702.36	30.028
702.68	34.844
703.00	31.579
703.32	28.723
703.64	30.563
703.96	31.755
704.28	34.012
704.60	35.777
704.91	35.312
705.23	32.845
705.55	35.548
705.87	39.535
706.19	34.982
706.51	35.202
706.83	39.394
707.15	34.454
707.47	31.313
707.79	32.432
708.11	32.877
708.43	29.524
708.74	27.551
709.06	36.883
709.38	30.709
709.70	34.593
710.02	35.312
710.34	33.636
710.66	32.239
710.98	35.227
711.29	30.233
711.61	38.053
711.93	35.256
712.25	37.299
712.57	41.176
712.89	35.986
713.20	34.650
713.52	35.855
713.84	34.177
714.16	34.146
714.48	33.333
714.80	38.906
715.11	33.141
715.43	36.499
715.75	33.913
716.07	36.741
716.39	32.288
716.70	35.880
717.02	38.849
717.34	41.696
717.66	38.806
717.97	38.247
718.29	35.556
718.61	38.321
718.93	35.294
719.24	35.640
719.56	32.542
719.88	37.966
720.20	38.514
720.51	36.237
720.83	36.431
721.15	36.940
721.46	35.816
721.78	36.559
722.10	40.000
722.42	43.985
722.73	35.581
723.05	40.164
723.37	40.891
723.68	35.135
724.00	35.772
724.32	39.113
724.63	40.244
724.95	37.238
725.27	39.676
725.58	39.453
725.90	36.131
726.22	40.377
726.53	34.375
726.85	33.106
727.16	38.078
727.48	35.816
727.80	37.121
728.11	36.957
728.43	33.462
728.74	35.484
729.06	37.226
729.38	40.809
729.69	37.011
730.01	33.447
730.32	33.333
730.64	38.127
730.96	30.033
731.27	38.742
731.59	33.028
731.90	34.694
732.22	36.025
732.53	31.579
732.85	32.372
733.16	31.833
733.48	33.555
733.80	33.442
734.11	37.261
734.43	34.320
734.74	34.000
735.06	30.372
735.37	35.260
735.69	35.350
736.00	36.928
736.32	36.137
736.63	32.907
736.95	32.588
737.26	29.252
737.58	32.258
737.89	33.779
738.21	35.836
738.52	35.357
738.83	37.358
739.15	37.308
739.46	36.861
739.78	35.764
740.09	34.769
740.41	34.516
740.72	32.056
741.04	35.556
741.35	41.667
741.66	44.444
741.98	29.717
742.29	43.062
742.61	41.379
742.92	36.652
743.23	39.744
743.55	43.200
743.86	35.965
744.18	43.805
744.49	44.019
744.80	43.192
745.12	38.182
745.43	41.850
745.74	42.342
746.06	44.037
746.37	41.704
746.68	40.271
747.00	44.907
747.31	43.810
747.62	36.726
747.94	42.291
748.25	34.468
748.56	44.493
748.88	40.099
749.19	43.500
749.50	38.605
749.82	32.114
750.13	40.408
750.44	34.307
750.75	33.333
751.07	39.871
751.38	36.585
751.69	33.574
752.01	34.962
752.32	35.740
752.63	38.298
752.94	35.656
753.26	40.400
753.57	34.959
753.88	40.234
754.19	37.143
754.51	41.319
754.82	35.379
755.13	39.623
755.44	34.211
755.75	32.117
756.07	34.043
756.38	36.861
756.69	35.906
757.00	31.737
757.31	30.564
757.63	32.456
757.94	32.172
758.25	28.922
758.56	29.630
758.87	31.452
759.18	33.939
759.50	32.288
759.81	32.399
760.12	30.625
760.43	36.390
760.74	30.435
761.05	31.921
761.36	31.818
761.67	33.239
761.99	32.919
762.30	38.889
762.61	36.260
762.92	39.062
763.23	39.076
763.54	36.400
763.85	40.625
764.16	36.538
764.47	40.304
764.78	34.629
765.10	29.430
765.41	35.398
765.72	34.132
766.03	32.602
766.34	33.000
766.65	42.128
766.96	38.889
767.27	43.147
767.58	47.396
767.89	47.895
768.20	47.126
768.51	43.147
768.82	42.661
769.13	39.431
769.44	39.271
769.75	35.622
770.06	35.321
770.37	44.344
770.68	41.204
770.99	34.667
771.30	34.016
771.61	36.771
771.92	43.033
772.23	38.235
772.54	42.564
772.85	37.173
773.16	43.617
773.47	43.478
773.78	47.208
774.09	46.429
774.39	47.953
774.70	43.827
775.01	52.174
775.32	66.013
775.63	44.079
775.94	48.921
776.25	54.331
776.56	57.463
776.87	54.918
777.18	55.469
777.48	54.962
777.79	58.333
778.10	52.593
778.41	56.250
778.72	45.255
779.03	51.678
779.34	51.007
779.65	44.595
779.95	43.558
780.26	49.673
780.57	54.483
780.88	57.813
781.19	47.368
781.50	51.351
781.80	47.170
782.11	40.678
782.42	45.570
782.73	49.693
783.04	46.622
783.34	45.070
783.65	55.479
783.96	55.970
784.27	47.552
784.57	47.482
784.88	46.296
785.19	60.317
785.50	43.396
785.81	56.716
786.11	64.754
786.42	55.039
786.73	64.602
787.04	51.887
787.34	58.929
787.65	54.000
787.96	54.955
788.26	54.545
788.57	66.949
788.88	57.851
789.19	47.917
789.49	58.333
789.80	54.962
790.11	63.810
790.41	66.337
790.72	69.880
791.03	77.174
791.33	75.581
791.64	67.010
791.95	68.317
792.25	80.000
792.56	81.818
792.87	89.744
793.17	81.013
793.48	81.609
793.79	78.161
794.09	80.682
794.40	56.303
794.70	58.824
795.01	53.333
795.32	51.799
795.62	55.118
795.93	61.207
796.23	62.832
796.54	61.176
796.85	77.027
797.15	95.775
797.46	84.848
797.76	73.494
798.07	84.810
798.37	78.462
798.68	69.697
798.99	76.056
799.29	77.922
799.60	70.455
799.90	83.562
800.21	107.463
800.51	91.379
800.82	82.456
801.12	91.803
801.43	87.879
801.73	79.730
802.04	98.413
802.34	67.901
802.65	81.250
802.95	98.305
803.26	115.625
803.56	68.571
803.87	80.000
804.17	94.118
804.48	103.704
804.78	72.414
805.09	95.588
805.39	94.231
805.70	82.143
806.00	78.689
806.30	81.818
806.61	80.488
806.91	64.557
807.22	82.895
807.52	71.642
807.83	76.056
808.13	106.250
808.43	105.000
808.74	72.368
809.04	89.855
809.35	82.090
809.65	69.737
809.95	109.677
810.26	89.831
810.56	98.413
810.86	113.636
811.17	138.095
811.47	96.667
811.77	79.630
812.08	110.909
812.38	122.000
812.69	147.222
812.99	136.364
813.29	124.490
813.59	92.857
813.90	112.245
814.20	109.091
814.50	76.923
814.81	100.000
815.11	112.245
815.41	101.639
815.72	147.619
816.02	112.727
816.32	123.810
816.62	135.000
816.93	117.073
817.23	135.714
817.53	143.182
817.84	136.364
818.14	134.783
818.44	104.444
818.74	170.588
819.04	152.500
819.35	120.000
819.65	179.412
819.95	185.714
820.25	255.000
820.56	138.462
820.86	125.000
821.16	151.163
821.46	146.154
821.76	142.000
822.07	157.143
822.37	157.500
822.67	160.606
822.97	100.000
823.27	178.571
823.57	118.919
823.88	157.500
824.18	173.333
824.48	140.476
824.78	200.000
825.08	170.833
825.38	170.270
825.69	151.220
825.99	204.167
826.29	162.069
826.59	152.632
826.89	160.526
827.19	164.706
827.49	167.742
827.79	163.636
828.09	129.545
828.39	108.511
828.70	114.286
829.00	151.852
829.30	174.194
829.60	147.500
829.90	266.667
830.20	167.857
830.50	191.304
830.80	191.304
831.10	136.667
831.40	180.000
831.70	173.913
832.00	219.231
832.30	170.370
832.60	306.250
832.90	156.667
833.20	371.429
833.50	174.194
833.80	172.414
834.10	150.000
834.40	230.769
834.70	277.778
835.00	295.238
835.30	145.714
835.60	315.385
835.90	206.897
836.20	350.000
836.50	155.172
836.80	172.000
837.10	186.111
837.40	233.333
837.70	300.000
838.00	225.926
838.30	209.524
838.60	261.905
838.90	223.077
839.19	185.000
839.49	385.714
839.79	260.000
840.09	250.000
840.39	257.143
840.69	221.739
840.99	250.000
841.29	490.000
841.59	350.000
841.88	381.250
842.18	158.621
842.48	276.190
842.78	180.000
843.08	208.696
843.38	159.375
843.68	866.667
843.97	223.077
844.27	168.966
844.57	290.476
844.87	356.250
845.17	207.407
845.47	1333.333
845.76	488.889
846.06	264.706
846.36	437.500
846.66	378.571
846.96	243.750
847.25	400.000
847.55	363.636
847.85	239.130
848.15	490.000
848.44	364.286
848.74	238.889
849.04	394.118
849.34	500.000
849.63	236.842
849.93	409.091
850.23	940.000
850.53	392.857
850.82	2100.000
851.12	-4400.000
851.42	4400.000
851.71	260.000
852.01	-1400.000
852.31	200.000
852.61	1700.000
852.90	219.048
853.20	188.000
853.50	300.000
853.79	257.143
854.09	216.667
854.39	318.750
854.68	178.378
854.98	158.065
855.28	143.333
855.57	182.759
855.87	196.296
856.17	252.632
856.46	166.667
856.76	241.176
857.05	200.000
857.35	191.667
857.65	386.667
857.94	182.609
858.24	203.846
858.53	290.000
858.83	259.091
859.13	386.667
859.42	0.000
859.72	655.556
860.01	427.273
860.31	254.545
860.60	278.947
860.90	226.087
861.20	600.000
861.49	441.667
861.79	-3300.000
862.08	637.500
862.38	290.476
862.67	384.615
862.97	300.000
863.26	466.667
863.56	322.222
863.85	458.333
864.15	587.500
864.44	386.667
864.74	650.000
865.03	687.500
865.33	310.526
865.62	481.818
865.92	415.385
866.21	366.667
866.51	0.000
866.80	418.182
867.10	1000.000
867.39	423.077
867.69	400.000
867.98	221.053
868.27	418.182
868.57	284.211
868.86	-4200.000
869.16	343.750
869.45	2200.000
869.75	-3900.000
870.04	400.000
870.33	657.143
870.63	1000.000
870.92	2450.000
871.22	728.571
871.51	276.471
871.80	200.000
872.10	407.143
>>>>>End Processed Spectral Data<<<<<
