SpectraSuite Data File
++++++++++++++++++++++++++++++++++++
Date: Wed May 13 16:49:45 PDT 2015
User: schluterlab
Dark Spectrum Present: Yes
Reference Spectrum Present: Yes
Number of Sampled Component Spectra: 1
Spectrometers: USB2E3373
Integration Time (usec): 3000 (USB2E3373)
Spectra Averaged: 3 (USB2E3373)
Boxcar Smoothing: 0 (USB2E3373)
Correct for Electrical Dark: No (USB2E3373)
Strobe/Lamp Enabled: No (USB2E3373)
Correct for Detector Non-linearity: No (USB2E3373)
Correct for Stray Light: No (USB2E3373)
Number of Pixels in Processed Spectrum: 2048
>>>>>Begin Processed Spectral Data<<<<<
178.53	0.000
178.91	-1100.000
179.29	-1250.000
179.67	-222.222
180.04	-1225.000
180.42	2300.000
180.80	1040.000
181.18	-875.000
181.56	757.143
181.94	0.000
182.31	-700.000
182.69	1633.333
183.07	-650.000
183.45	-500.000
183.83	463.636
184.20	-400.000
184.58	2100.000
184.96	5500.000
185.34	-840.000
185.72	-512.500
186.09	-2050.000
186.47	2700.000
186.85	2300.000
187.23	4700.000
187.61	-1500.000
187.98	1200.000
188.36	572.727
188.74	454.545
189.12	-720.000
189.49	570.000
189.87	-4800.000
190.25	-1175.000
190.63	385.714
191.00	423.077
191.38	983.333
191.76	-1300.000
192.14	1325.000
192.51	612.500
192.89	1116.667
193.27	587.500
193.65	-1500.000
194.02	400.000
194.40	960.000
194.78	560.000
195.15	450.000
195.53	650.000
195.91	-1850.000
196.29	331.250
196.66	289.474
197.04	-390.000
197.42	0.000
197.79	610.000
198.17	-4700.000
198.55	657.143
198.92	737.500
199.30	880.000
199.68	0.000
200.05	294.444
200.43	828.571
200.81	3500.000
201.18	1766.667
201.56	-1466.667
201.94	588.889
202.31	466.667
202.69	416.667
203.07	680.000
203.44	0.000
203.82	1175.000
204.19	785.714
204.57	457.143
204.95	712.500
205.32	1600.000
205.70	536.364
206.08	407.143
206.45	2850.000
206.83	356.250
207.20	1000.000
207.58	860.000
207.96	316.667
208.33	762.500
208.71	-783.333
209.08	885.714
209.46	633.333
209.84	463.636
210.21	-1600.000
210.59	1550.000
210.96	-550.000
211.34	2350.000
211.71	540.000
212.09	750.000
212.46	0.000
212.84	1900.000
213.22	1175.000
213.59	-5300.000
213.97	816.667
214.34	742.857
214.72	481.818
215.09	1040.000
215.47	-2600.000
215.84	-2400.000
216.22	1600.000
216.59	364.286
216.97	1475.000
217.34	472.727
217.72	-900.000
218.09	0.000
218.47	-5200.000
218.84	644.444
219.22	842.857
219.59	1500.000
219.97	-614.286
220.34	1180.000
220.72	-1833.333
221.09	421.429
221.47	1250.000
221.84	-850.000
222.22	0.000
222.59	1350.000
222.97	-2250.000
223.34	920.000
223.72	507.692
224.09	920.000
224.46	1950.000
224.84	-5300.000
225.21	-1100.000
225.59	-4700.000
225.96	560.000
226.34	265.000
226.71	2750.000
227.08	537.500
227.46	550.000
227.83	-1450.000
228.21	-2650.000
228.58	644.444
228.95	-2700.000
229.33	-2450.000
229.70	1466.667
230.08	800.000
230.45	-720.000
230.82	500.000
231.20	800.000
231.57	742.857
231.95	416.667
232.32	227.273
232.69	490.909
233.07	800.000
233.44	438.462
233.81	-1700.000
234.19	278.947
234.56	408.333
234.93	441.667
235.31	472.727
235.68	353.846
236.05	421.429
236.43	203.030
236.80	294.737
237.17	4300.000
237.55	238.095
237.92	250.000
238.29	271.429
238.67	222.581
239.04	200.000
239.41	155.556
239.79	141.304
240.16	178.571
240.53	163.636
240.91	137.255
241.28	146.000
241.65	134.000
242.02	126.087
242.40	130.645
242.77	120.000
243.14	93.548
243.51	106.742
243.89	110.588
244.26	104.444
244.63	83.871
245.00	89.362
245.38	86.139
245.75	88.785
246.12	84.404
246.49	86.861
246.87	90.400
247.24	81.538
247.61	85.714
247.98	77.778
248.36	76.351
248.73	71.975
249.10	80.255
249.47	76.271
249.84	71.658
250.22	71.123
250.59	68.639
250.96	70.707
251.33	67.299
251.70	68.812
252.08	64.286
252.45	62.780
252.82	62.174
253.19	61.702
253.56	66.667
253.94	59.751
254.31	62.891
254.68	60.385
255.05	59.041
255.42	65.041
255.79	61.765
256.16	62.094
256.54	57.951
256.91	58.363
257.28	53.597
257.65	58.746
258.02	59.938
258.39	56.151
258.76	57.191
259.14	56.548
259.51	58.359
259.88	53.416
260.25	57.704
260.62	53.468
260.99	60.248
261.36	56.456
261.73	55.014
262.10	52.616
262.47	58.873
262.85	55.432
263.22	56.410
263.59	59.259
263.96	57.143
264.33	55.875
264.70	51.579
265.07	54.476
265.44	51.263
265.81	55.231
266.18	52.261
266.55	54.634
266.92	56.265
267.29	55.556
267.66	52.294
268.03	49.545
268.40	53.972
268.77	51.790
269.14	50.000
269.51	52.596
269.88	50.583
270.25	49.436
270.62	53.708
270.99	51.183
271.36	51.931
271.73	52.570
272.10	52.391
272.47	51.398
272.84	49.567
273.21	52.621
273.58	50.000
273.95	49.895
274.32	47.107
274.69	50.749
275.06	50.394
275.43	52.766
275.80	48.497
276.17	47.251
276.54	51.975
276.91	52.174
277.28	48.828
277.65	49.516
278.02	50.932
278.39	50.781
278.76	49.273
279.13	48.868
279.50	47.858
279.87	49.402
280.23	51.697
280.60	49.903
280.97	48.799
281.34	47.611
281.71	48.182
282.08	49.712
282.45	47.273
282.82	48.668
283.19	47.237
283.56	47.193
283.92	48.393
284.29	48.148
284.66	46.824
285.03	47.920
285.40	44.542
285.77	46.296
286.14	46.632
286.51	45.667
286.87	46.496
287.24	45.440
287.61	44.944
287.98	45.292
288.35	44.057
288.72	42.835
289.08	43.349
289.45	42.834
289.82	44.715
290.19	42.543
290.56	43.798
290.93	41.239
291.29	43.712
291.66	42.035
292.03	43.023
292.40	42.584
292.77	40.237
293.13	42.537
293.50	41.983
293.87	41.630
294.24	40.444
294.60	38.428
294.97	40.407
295.34	41.467
295.71	38.636
296.08	38.604
296.44	39.202
296.81	37.649
297.18	38.753
297.55	36.675
297.91	38.522
298.28	39.491
298.65	39.295
299.02	38.603
299.38	38.513
299.75	36.388
300.12	37.165
300.48	37.250
300.85	37.731
301.22	36.051
301.59	37.879
301.95	39.547
302.32	39.153
302.69	37.873
303.05	39.273
303.42	37.531
303.79	37.712
304.15	35.198
304.52	38.586
304.89	37.050
305.25	36.079
305.62	37.373
305.99	38.135
306.35	36.577
306.72	38.453
307.09	39.734
307.45	37.500
307.82	36.272
308.19	38.962
308.55	39.159
308.92	38.453
309.29	38.015
309.65	36.797
310.02	36.575
310.38	39.785
310.75	39.916
311.12	39.406
311.48	39.080
311.85	39.623
312.22	40.583
312.58	39.709
312.95	40.232
313.31	38.544
313.68	40.541
314.05	41.913
314.41	42.714
314.78	41.390
315.14	39.921
315.51	42.327
315.87	41.881
316.24	41.410
316.61	42.982
316.97	42.466
317.34	41.781
317.70	44.264
318.07	43.407
318.43	46.575
318.80	44.892
319.16	46.045
319.53	43.340
319.89	45.429
320.26	47.400
320.62	47.917
320.99	47.980
321.35	47.879
321.72	48.871
322.08	49.358
322.45	49.652
322.81	49.516
323.18	50.482
323.54	49.258
323.91	52.547
324.27	51.721
324.64	53.681
325.00	54.283
325.37	55.232
325.73	56.373
326.10	54.457
326.46	55.466
326.83	57.204
327.19	55.850
327.56	58.624
327.92	59.318
328.29	59.095
328.65	58.564
329.01	58.845
329.38	59.944
329.74	57.987
330.11	60.886
330.47	59.504
330.84	59.743
331.20	59.563
331.56	59.450
331.93	61.204
332.29	60.071
332.66	59.204
333.02	60.878
333.38	60.885
333.75	61.052
334.11	59.164
334.48	59.095
334.84	58.915
335.20	62.364
335.57	60.018
335.93	60.179
336.29	59.524
336.66	61.317
337.02	60.543
337.38	59.815
337.75	59.358
338.11	60.340
338.47	61.602
338.84	61.228
339.20	60.367
339.56	62.044
339.93	61.545
340.29	60.598
340.65	60.606
341.02	61.693
341.38	62.989
341.74	61.316
342.11	60.524
342.47	60.088
342.83	60.017
343.20	61.991
343.56	58.214
343.92	61.140
344.28	60.714
344.65	61.479
345.01	61.027
345.37	60.206
345.73	60.745
346.10	59.847
346.46	60.085
346.82	59.967
347.19	60.986
347.55	60.181
347.91	61.003
348.27	62.120
348.63	60.201
349.00	59.709
349.36	60.920
349.72	60.144
350.08	59.562
350.45	60.700
350.81	59.870
351.17	60.940
351.53	61.343
351.89	60.066
352.26	60.773
352.62	60.225
352.98	59.562
353.34	61.545
353.70	60.229
354.07	61.129
354.43	59.683
354.79	59.051
355.15	59.936
355.51	60.751
355.87	61.878
356.24	61.808
356.60	61.588
356.96	61.303
357.32	61.079
357.68	62.835
358.04	61.520
358.40	60.649
358.77	61.033
359.13	61.878
359.49	60.235
359.85	62.460
360.21	61.882
360.57	61.012
360.93	63.308
361.29	61.905
361.66	60.449
362.02	62.910
362.38	62.586
362.74	63.467
363.10	63.212
363.46	61.849
363.82	62.963
364.18	61.894
364.54	62.556
364.90	62.181
365.26	63.897
365.62	62.747
365.98	62.747
366.35	61.533
366.71	64.281
367.07	63.948
367.43	63.643
367.79	64.597
368.15	64.009
368.51	63.663
368.87	64.240
369.23	63.862
369.59	65.894
369.95	62.132
370.31	62.607
370.67	63.043
371.03	65.618
371.39	65.452
371.75	65.221
372.11	62.873
372.47	66.056
372.83	66.643
373.19	64.740
373.55	65.484
373.91	66.127
374.27	64.674
374.63	65.818
374.99	65.537
375.35	66.364
375.71	65.661
376.07	66.187
376.42	66.094
376.78	66.865
377.14	65.672
377.50	67.417
377.86	66.356
378.22	66.751
378.58	66.228
378.94	66.939
379.30	68.448
379.66	68.464
380.02	68.366
380.38	65.756
380.74	67.347
381.09	67.787
381.45	68.470
381.81	67.875
382.17	68.408
382.53	66.918
382.89	68.086
383.25	69.168
383.61	69.579
383.97	68.981
384.32	68.372
384.68	68.401
385.04	69.207
385.40	69.350
385.76	69.103
386.12	69.365
386.48	70.548
386.83	71.007
387.19	71.119
387.55	69.450
387.91	70.073
388.27	68.424
388.62	69.146
388.98	69.226
389.34	69.962
389.70	69.528
390.06	70.659
390.42	70.428
390.77	71.183
391.13	71.091
391.49	69.607
391.85	70.910
392.20	70.662
392.56	71.149
392.92	71.277
393.28	70.355
393.64	71.403
393.99	70.373
394.35	71.464
394.71	69.573
395.07	69.283
395.42	71.693
395.78	70.992
396.14	69.522
396.50	71.617
396.85	70.757
397.21	69.667
397.57	69.002
397.92	71.334
398.28	69.395
398.64	70.669
399.00	69.894
399.35	69.656
399.71	70.718
400.07	71.437
400.42	69.571
400.78	71.049
401.14	69.695
401.49	71.104
401.85	69.752
402.21	68.802
402.57	68.908
402.92	70.429
403.28	70.581
403.63	71.658
403.99	70.764
404.35	71.091
404.70	70.144
405.06	69.249
405.42	71.491
405.77	69.657
406.13	68.679
406.49	70.077
406.84	69.581
407.20	68.794
407.55	69.432
407.91	71.467
408.27	69.113
408.62	69.416
408.98	70.037
409.34	70.111
409.69	70.516
410.05	70.136
410.40	69.419
410.76	68.937
411.11	68.335
411.47	69.265
411.83	69.090
412.18	69.697
412.54	70.423
412.89	69.217
413.25	68.713
413.60	69.981
413.96	67.820
414.31	67.801
414.67	69.582
415.03	70.662
415.38	69.652
415.74	68.939
416.09	70.477
416.45	68.876
416.80	69.729
417.16	70.241
417.51	69.409
417.87	69.814
418.22	68.896
418.58	69.722
418.93	69.533
419.29	70.210
419.64	69.458
420.00	68.476
420.35	68.986
420.71	69.157
421.06	67.721
421.42	67.953
421.77	68.722
422.12	69.792
422.48	68.753
422.83	69.656
423.19	68.232
423.54	69.298
423.90	69.043
424.25	69.403
424.61	70.357
424.96	70.671
425.31	68.272
425.67	68.596
426.02	68.114
426.38	70.940
426.73	70.099
427.09	69.605
427.44	68.200
427.79	69.408
428.15	69.821
428.50	68.871
428.85	69.607
429.21	68.857
429.56	69.933
429.92	69.149
430.27	69.215
430.62	67.742
430.98	68.967
431.33	68.196
431.68	68.901
432.04	67.732
432.39	69.674
432.74	68.821
433.10	70.289
433.45	71.545
433.80	70.455
434.16	67.308
434.51	68.895
434.86	69.840
435.22	70.317
435.57	70.152
435.92	69.105
436.28	71.886
436.63	69.426
436.98	68.288
437.34	69.767
437.69	70.245
438.04	69.871
438.39	70.746
438.75	69.611
439.10	69.274
439.45	70.543
439.81	69.003
440.16	69.057
440.51	70.533
440.86	70.295
441.22	70.022
441.57	69.321
441.92	69.191
442.27	68.891
442.63	68.510
442.98	70.366
443.33	68.967
443.68	68.147
444.03	68.765
444.39	68.841
444.74	70.022
445.09	69.596
445.44	69.163
445.79	69.570
446.15	69.031
446.50	69.305
446.85	70.658
447.20	69.505
447.55	70.910
447.91	70.822
448.26	69.338
448.61	70.605
448.96	69.103
449.31	70.754
449.66	68.599
450.02	70.362
450.37	69.388
450.72	69.825
451.07	69.348
451.42	68.997
451.77	69.466
452.12	68.418
452.47	69.900
452.83	71.154
453.18	69.377
453.53	71.058
453.88	69.462
454.23	69.994
454.58	70.503
454.93	71.011
455.28	70.012
455.63	70.934
455.98	69.940
456.34	70.289
456.69	71.634
457.04	72.012
457.39	69.141
457.74	68.833
458.09	68.603
458.44	69.954
458.79	68.601
459.14	70.090
459.49	68.184
459.84	69.141
460.19	68.297
460.54	67.998
460.89	68.459
461.24	70.067
461.59	70.250
461.94	68.372
462.29	69.199
462.64	69.177
462.99	68.510
463.34	69.467
463.69	69.731
464.04	69.333
464.39	67.826
464.74	69.043
465.09	68.637
465.44	67.645
465.79	68.792
466.14	66.393
466.49	67.186
466.84	68.301
467.19	67.592
467.54	67.312
467.89	68.247
468.24	68.703
468.59	69.658
468.94	67.685
469.29	68.895
469.64	70.482
469.99	70.230
470.34	70.476
470.68	70.546
471.03	69.388
471.38	70.118
471.73	68.488
472.08	70.000
472.43	68.844
472.78	68.071
473.13	68.678
473.48	66.479
473.83	68.902
474.17	67.953
474.52	68.672
474.87	68.943
475.22	67.673
475.57	67.276
475.92	67.870
476.27	67.306
476.61	68.174
476.96	67.730
477.31	68.080
477.66	69.037
478.01	67.067
478.36	68.059
478.70	66.926
479.05	67.465
479.40	67.503
479.75	67.361
480.10	66.948
480.45	66.635
480.79	66.269
481.14	67.368
481.49	66.872
481.84	66.118
482.19	65.607
482.53	64.954
482.88	65.798
483.23	66.636
483.58	66.742
483.92	66.120
484.27	64.880
484.62	67.026
484.97	64.446
485.31	67.089
485.66	64.823
486.01	62.472
486.36	59.861
486.70	58.474
487.05	59.450
487.40	62.028
487.75	62.212
488.09	63.573
488.44	63.609
488.79	64.846
489.13	65.737
489.48	64.600
489.83	65.214
490.17	65.629
490.52	64.792
490.87	64.270
491.22	65.121
491.56	64.328
491.91	65.472
492.26	65.136
492.60	64.424
492.95	65.061
493.30	64.159
493.64	64.116
493.99	65.042
494.34	65.495
494.68	65.293
495.03	64.380
495.37	64.588
495.72	66.326
496.07	66.125
496.41	63.673
496.76	64.600
497.11	63.440
497.45	64.462
497.80	64.539
498.14	64.396
498.49	64.976
498.84	65.388
499.18	64.714
499.53	63.960
499.87	64.492
500.22	64.390
500.56	65.437
500.91	64.327
501.26	62.684
501.60	65.069
501.95	63.886
502.29	65.136
502.64	64.711
502.98	64.095
503.33	62.249
503.67	63.619
504.02	63.564
504.36	61.816
504.71	64.680
505.06	64.048
505.40	64.317
505.75	63.404
506.09	62.828
506.44	65.072
506.78	64.394
507.13	64.109
507.47	63.333
507.82	64.286
508.16	63.171
508.51	64.992
508.85	64.101
509.19	65.408
509.54	63.827
509.88	63.215
510.23	64.987
510.57	64.757
510.92	64.060
511.26	63.875
511.61	64.678
511.95	62.578
512.30	64.104
512.64	64.159
512.98	64.416
513.33	65.043
513.67	63.074
514.02	62.662
514.36	63.954
514.70	64.195
515.05	64.529
515.39	64.835
515.74	63.908
516.08	63.890
516.42	64.095
516.77	65.719
517.11	63.596
517.46	64.052
517.80	64.750
518.14	63.463
518.49	66.394
518.83	62.727
519.17	65.069
519.52	63.894
519.86	64.119
520.20	64.277
520.55	65.290
520.89	64.355
521.23	65.501
521.58	63.745
521.92	64.299
522.26	63.392
522.61	65.794
522.95	65.071
523.29	64.273
523.64	63.537
523.98	65.373
524.32	64.536
524.66	64.823
525.01	64.400
525.35	63.755
525.69	63.855
526.04	65.047
526.38	63.270
526.72	62.822
527.06	65.851
527.41	63.738
527.75	64.630
528.09	62.749
528.43	64.818
528.78	64.536
529.12	62.606
529.46	64.544
529.80	64.295
530.15	64.860
530.49	61.969
530.83	62.785
531.17	65.339
531.51	64.981
531.86	63.355
532.20	64.602
532.54	63.357
532.88	63.286
533.22	62.586
533.57	61.543
533.91	61.951
534.25	61.300
534.59	62.660
534.93	61.570
535.27	62.704
535.62	62.210
535.96	63.528
536.30	62.301
536.64	61.172
536.98	62.243
537.32	61.488
537.66	63.933
538.01	64.253
538.35	62.379
538.69	63.561
539.03	61.404
539.37	61.342
539.71	60.337
540.05	60.850
540.39	62.458
540.73	60.026
541.07	61.518
541.42	62.035
541.76	62.065
542.10	61.320
542.44	61.258
542.78	62.055
543.12	60.141
543.46	60.787
543.80	62.264
544.14	60.783
544.48	59.619
544.82	60.680
545.16	60.117
545.50	60.283
545.84	61.492
546.18	61.481
546.52	61.734
546.86	61.100
547.20	63.048
547.54	61.323
547.88	61.288
548.22	59.278
548.56	60.314
548.90	58.707
549.24	60.673
549.58	61.460
549.92	61.538
550.26	62.500
550.60	60.166
550.94	61.408
551.28	61.814
551.62	61.754
551.96	60.281
552.30	61.024
552.64	60.514
552.98	60.949
553.32	59.676
553.66	60.327
554.00	60.810
554.34	60.386
554.68	61.731
555.02	60.296
555.36	60.960
555.69	59.066
556.03	60.700
556.37	60.778
556.71	58.868
557.05	60.084
557.39	60.042
557.73	60.480
558.07	61.204
558.41	61.071
558.75	60.764
559.08	60.925
559.42	61.829
559.76	60.515
560.10	60.528
560.44	59.399
560.78	59.215
561.12	61.214
561.45	58.866
561.79	58.471
562.13	59.088
562.47	60.314
562.81	61.227
563.15	57.592
563.48	60.477
563.82	59.687
564.16	58.535
564.50	59.049
564.84	58.217
565.17	58.559
565.51	60.064
565.85	58.376
566.19	57.483
566.52	58.075
566.86	56.902
567.20	58.196
567.54	57.991
567.88	56.654
568.21	56.508
568.55	56.067
568.89	55.739
569.23	54.724
569.56	53.968
569.90	53.811
570.24	53.104
570.57	52.227
570.91	51.778
571.25	51.143
571.59	50.368
571.92	50.893
572.26	50.751
572.60	51.441
572.93	50.675
573.27	50.902
573.61	51.396
573.95	50.930
574.28	49.849
574.62	50.146
574.96	49.510
575.29	49.030
575.63	49.416
575.97	49.284
576.30	50.505
576.64	49.760
576.98	50.049
577.31	50.139
577.65	49.620
577.98	49.055
578.32	48.193
578.66	48.721
578.99	48.961
579.33	48.971
579.67	49.112
580.00	49.173
580.34	49.478
580.67	48.877
581.01	50.011
581.35	49.233
581.68	48.949
582.02	48.382
582.35	48.192
582.69	47.982
583.02	48.127
583.36	48.628
583.70	49.625
584.03	50.313
584.37	51.462
584.70	49.896
585.04	49.046
585.37	48.928
585.71	48.849
586.04	48.587
586.38	49.425
586.72	50.041
587.05	49.389
587.39	49.024
587.72	49.214
588.06	48.933
588.39	48.944
588.73	49.164
589.06	49.860
589.40	51.616
589.73	50.827
590.07	50.925
590.40	49.689
590.73	51.717
591.07	52.096
591.40	51.961
591.74	52.381
592.07	51.876
592.41	52.005
592.74	50.599
593.08	50.100
593.41	50.269
593.75	48.314
594.08	48.441
594.41	49.770
594.75	50.018
595.08	49.392
595.42	50.333
595.75	50.285
596.09	50.282
596.42	51.198
596.75	51.667
597.09	50.736
597.42	49.536
597.75	51.315
598.09	50.783
598.42	50.773
598.76	50.466
599.09	49.563
599.42	49.090
599.76	49.488
600.09	48.998
600.42	48.758
600.76	48.571
601.09	48.306
601.42	49.734
601.76	50.133
602.09	49.565
602.42	50.478
602.76	50.383
603.09	50.708
603.42	49.785
603.76	49.085
604.09	50.019
604.42	49.735
604.76	50.654
605.09	50.415
605.42	50.235
605.75	49.503
606.09	49.329
606.42	49.612
606.75	50.104
607.09	49.644
607.42	50.449
607.75	48.819
608.08	49.761
608.42	50.202
608.75	49.594
609.08	50.463
609.41	49.357
609.75	49.929
610.08	50.236
610.41	49.767
610.74	50.142
611.07	50.840
611.41	50.491
611.74	50.779
612.07	50.983
612.40	51.364
612.73	51.263
613.07	52.209
613.40	51.395
613.73	49.921
614.06	51.344
614.39	50.655
614.72	49.368
615.06	50.630
615.39	49.947
615.72	50.153
616.05	49.814
616.38	51.306
616.71	52.910
617.05	52.473
617.38	50.451
617.71	52.553
618.04	51.623
618.37	51.981
618.70	52.334
619.03	53.553
619.36	53.157
619.69	52.254
620.03	53.297
620.36	52.473
620.69	53.151
621.02	54.277
621.35	54.503
621.68	53.271
622.01	54.644
622.34	54.766
622.67	55.133
623.00	52.458
623.33	51.608
623.66	53.395
623.99	53.903
624.32	52.568
624.65	53.531
624.99	52.337
625.32	53.440
625.65	52.742
625.98	55.035
626.31	54.044
626.64	54.939
626.97	54.447
627.30	56.110
627.63	53.076
627.96	55.509
628.29	54.768
628.62	56.359
628.95	56.509
629.28	55.566
629.61	57.104
629.94	55.429
630.26	56.244
630.59	55.863
630.92	56.130
631.25	55.775
631.58	56.456
631.91	56.694
632.24	56.751
632.57	56.348
632.90	57.346
633.23	58.054
633.56	57.740
633.89	57.871
634.22	60.159
634.55	62.485
634.88	58.443
635.20	61.290
635.53	59.157
635.86	61.139
636.19	58.824
636.52	56.747
636.85	57.503
637.18	56.221
637.51	59.456
637.83	56.843
638.16	59.719
638.49	58.312
638.82	60.936
639.15	59.875
639.48	57.481
639.81	59.115
640.13	58.073
640.46	60.268
640.79	58.785
641.12	56.121
641.45	60.196
641.77	63.918
642.10	61.842
642.43	61.562
642.76	63.003
643.09	62.730
643.41	60.243
643.74	63.889
644.07	61.738
644.40	61.196
644.73	61.417
645.05	63.233
645.38	59.874
645.71	63.446
646.04	64.784
646.36	65.275
646.69	62.709
647.02	63.946
647.35	63.746
647.67	62.478
648.00	60.813
648.33	61.386
648.66	58.182
648.98	59.670
649.31	58.744
649.64	58.894
649.96	60.060
650.29	61.769
650.62	59.871
650.94	61.102
651.27	63.682
651.60	58.735
651.92	58.626
652.25	58.958
652.58	61.994
652.90	60.664
653.23	59.630
653.56	59.528
653.88	59.588
654.21	60.190
654.54	60.231
654.86	60.436
655.19	54.865
655.52	40.347
655.84	36.544
656.17	47.296
656.49	63.029
656.82	63.970
657.15	48.016
657.47	35.760
657.80	27.865
658.13	29.618
658.45	43.712
658.78	44.059
659.10	46.168
659.43	48.196
659.75	50.156
660.08	55.443
660.41	61.359
660.73	61.881
661.06	60.828
661.38	63.273
661.71	64.423
662.03	65.089
662.36	62.028
662.68	63.253
663.01	65.455
663.33	66.030
663.66	66.387
663.98	63.067
664.31	64.286
664.63	61.538
664.96	59.356
665.28	63.730
665.61	61.209
665.93	62.777
666.26	61.055
666.58	65.481
666.91	65.116
667.23	66.067
667.56	63.067
667.88	65.385
668.21	62.687
668.53	63.124
668.86	64.069
669.18	63.966
669.50	65.000
669.83	63.181
670.15	65.111
670.48	63.617
670.80	63.362
671.13	66.242
671.45	64.255
671.77	64.358
672.10	58.965
672.42	59.011
672.75	58.541
673.07	58.099
673.39	60.217
673.72	60.742
674.04	61.961
674.37	61.359
674.69	61.963
675.01	58.996
675.34	63.039
675.66	62.737
675.98	63.544
676.31	63.655
676.63	62.633
676.95	61.216
677.28	65.888
677.60	63.077
677.92	63.502
678.25	62.628
678.57	66.335
678.89	60.721
679.22	59.136
679.54	59.924
679.86	58.899
680.18	58.318
680.51	57.270
680.83	57.651
681.15	60.189
681.48	60.302
681.80	57.253
682.12	59.004
682.44	58.027
682.77	59.674
683.09	62.232
683.41	61.197
683.73	63.135
684.06	61.777
684.38	59.883
684.70	59.690
685.02	58.161
685.34	57.875
685.67	54.720
685.99	53.436
686.31	55.802
686.63	55.654
686.96	54.821
687.28	55.596
687.60	54.529
687.92	57.587
688.24	55.894
688.56	59.639
688.89	62.448
689.21	61.354
689.53	58.873
689.85	62.306
690.17	58.385
690.49	59.236
690.82	64.019
691.14	58.259
691.46	57.173
691.78	56.225
692.10	60.950
692.42	59.082
692.74	58.299
693.06	59.362
693.39	59.548
693.71	58.952
694.03	60.842
694.35	59.091
694.67	59.497
694.99	63.902
695.31	62.255
695.63	58.852
695.95	62.103
696.27	62.437
696.59	60.363
696.91	65.544
697.23	54.930
697.56	58.422
697.88	55.010
698.20	58.958
698.52	55.054
698.84	58.352
699.16	57.373
699.48	61.995
699.80	58.696
700.12	64.416
700.44	65.782
700.76	64.641
701.08	64.943
701.40	64.525
701.72	60.350
702.04	66.761
702.36	62.890
702.68	61.756
703.00	62.050
703.32	59.574
703.64	61.662
703.96	62.117
704.28	64.244
704.60	64.516
704.91	65.579
705.23	61.584
705.55	72.757
705.87	73.754
706.19	63.958
706.51	68.536
706.83	65.152
707.15	61.905
707.47	62.374
707.79	58.477
708.11	59.132
708.43	57.619
708.74	56.122
709.06	60.000
709.38	60.892
709.70	66.279
710.02	63.798
710.34	63.030
710.66	59.104
710.98	61.648
711.29	61.628
711.61	62.832
711.93	65.064
712.25	64.309
712.57	68.750
712.89	68.166
713.20	63.830
713.52	65.789
713.84	65.190
714.16	62.805
714.48	61.207
714.80	64.742
715.11	60.519
715.43	59.644
715.75	58.261
716.07	61.342
716.39	61.129
716.70	64.452
717.02	65.468
717.34	65.724
717.66	69.030
717.97	70.916
718.29	61.852
718.61	67.518
718.93	66.544
719.24	61.592
719.56	63.051
719.88	64.746
720.20	63.851
720.51	63.415
720.83	66.914
721.15	67.910
721.46	60.993
721.78	64.158
722.10	67.170
722.42	68.421
722.73	61.798
723.05	66.393
723.37	65.182
723.68	67.181
724.00	66.667
724.32	69.758
724.63	70.325
724.95	66.946
725.27	68.826
725.58	64.062
725.90	67.153
726.22	70.943
726.53	65.278
726.85	60.410
727.16	64.057
727.48	63.121
727.80	64.015
728.11	61.957
728.43	61.923
728.74	62.366
729.06	67.153
729.38	61.029
729.69	65.125
730.01	59.386
730.32	62.500
730.64	62.542
730.96	58.416
731.27	64.570
731.59	59.633
731.90	56.851
732.22	56.522
732.53	59.443
732.85	61.218
733.16	59.807
733.48	62.791
733.80	59.740
734.11	59.554
734.43	55.917
734.74	54.857
735.06	55.014
735.37	58.382
735.69	56.688
736.00	64.052
736.32	59.502
736.63	56.869
736.95	57.827
737.26	57.143
737.58	56.452
737.89	63.545
738.21	64.164
738.52	58.571
738.83	62.642
739.15	60.385
739.46	66.058
739.78	56.597
740.09	57.538
740.41	59.677
740.72	58.885
741.04	62.963
741.35	60.417
741.66	77.333
741.98	62.736
742.29	75.598
742.61	68.966
742.92	68.326
743.23	67.094
743.55	62.000
743.86	68.421
744.18	69.469
744.49	74.163
744.80	68.075
745.12	74.545
745.43	60.793
745.74	71.171
746.06	75.688
746.37	71.300
746.68	66.516
747.00	69.444
747.31	67.143
747.62	61.947
747.94	62.555
748.25	64.681
748.56	66.960
748.88	69.307
749.19	70.500
749.50	68.837
749.82	62.195
750.13	61.633
750.44	59.489
750.75	60.702
751.07	63.023
751.38	63.415
751.69	56.679
752.01	60.150
752.32	59.567
752.63	61.348
752.94	65.574
753.26	68.800
753.57	63.008
753.88	64.062
754.19	60.000
754.51	62.153
754.82	59.206
755.13	67.547
755.44	58.647
755.75	62.044
756.07	54.610
756.38	55.474
756.69	59.396
757.00	57.485
757.31	55.490
757.63	55.556
757.94	52.547
758.25	50.735
758.56	52.099
758.87	52.151
759.18	56.061
759.50	56.740
759.81	56.075
760.12	50.000
760.43	52.149
760.74	52.989
761.05	54.802
761.36	50.802
761.67	53.409
761.99	55.901
762.30	61.458
762.61	62.595
762.92	61.719
763.23	63.445
763.54	64.800
763.85	59.766
764.16	62.308
764.47	66.920
764.78	57.597
765.10	52.848
765.41	53.392
765.72	54.491
766.03	57.053
766.34	52.000
766.65	63.830
766.96	58.974
767.27	68.528
767.58	73.438
767.89	75.263
768.20	78.161
768.51	72.081
768.82	68.349
769.13	54.472
769.44	61.538
769.75	65.236
770.06	61.927
770.37	69.231
770.68	65.741
770.99	68.444
771.30	55.328
771.61	60.987
771.92	63.525
772.23	64.706
772.54	64.103
772.85	77.487
773.16	73.404
773.47	67.935
773.78	66.497
774.09	66.667
774.39	71.930
774.70	69.136
775.01	73.913
775.32	77.124
775.63	71.053
775.94	81.295
776.25	83.465
776.56	79.851
776.87	85.246
777.18	83.594
777.48	83.969
777.79	85.606
778.10	79.259
778.41	86.607
778.72	66.423
779.03	77.852
779.34	73.154
779.65	66.892
779.95	73.006
780.26	75.163
780.57	75.862
780.88	87.500
781.19	74.436
781.50	76.351
781.80	73.585
782.11	64.972
782.42	78.481
782.73	74.233
783.04	81.757
783.34	80.986
783.65	72.603
783.96	85.075
784.27	74.126
784.57	74.820
784.88	75.000
785.19	83.333
785.50	90.566
785.81	79.851
786.11	94.262
786.42	82.946
786.73	83.186
787.04	101.887
787.34	77.679
787.65	93.000
787.96	88.288
788.26	67.769
788.57	88.136
788.88	87.603
789.19	78.472
789.49	84.848
789.80	77.099
790.11	83.810
790.41	103.960
790.72	109.639
791.03	101.087
791.33	103.488
791.64	86.598
791.95	91.089
792.25	101.111
792.56	109.091
792.87	105.128
793.17	108.861
793.48	93.103
793.79	89.655
794.09	100.000
794.40	78.992
794.70	80.147
795.01	68.889
795.32	68.345
795.62	68.504
795.93	81.897
796.23	84.956
796.54	92.941
796.85	101.351
797.15	128.169
797.46	98.485
797.76	98.795
798.07	102.532
798.37	103.077
798.68	121.212
798.99	109.859
799.29	114.286
799.60	86.364
799.90	119.178
800.21	113.433
800.51	112.069
800.82	143.860
801.12	127.869
801.43	121.212
801.73	104.054
802.04	111.111
802.34	107.407
802.65	121.875
802.95	140.678
803.26	151.563
803.56	97.143
803.87	123.077
804.17	125.000
804.48	129.630
804.78	117.241
805.09	105.882
805.39	132.692
805.70	125.000
806.00	124.590
806.30	112.121
806.61	96.341
806.91	97.468
807.22	111.842
807.52	107.463
807.83	119.718
808.13	126.562
808.43	131.667
808.74	86.842
809.04	120.290
809.35	114.925
809.65	94.737
809.95	124.194
810.26	120.339
810.56	122.222
810.86	147.727
811.17	166.667
811.47	133.333
811.77	135.185
812.08	132.727
812.38	150.000
812.69	200.000
812.99	152.273
813.29	142.857
813.59	121.429
813.90	144.898
814.20	123.636
814.50	115.385
814.81	123.529
815.11	136.735
815.41	127.869
815.72	173.810
816.02	136.364
816.32	169.048
816.62	162.500
816.93	165.854
817.23	176.190
817.53	154.545
817.84	181.818
818.14	150.000
818.44	131.111
818.74	197.059
819.04	150.000
819.35	188.571
819.65	205.882
819.95	203.571
820.25	280.000
820.56	174.359
820.86	159.091
821.16	144.186
821.46	141.026
821.76	162.000
822.07	188.571
822.37	170.000
822.67	166.667
822.97	137.255
823.27	210.714
823.57	154.054
823.88	187.500
824.18	193.333
824.48	164.286
824.78	212.000
825.08	216.667
825.38	167.568
825.69	148.780
825.99	258.333
826.29	172.414
826.59	181.579
826.89	165.789
827.19	235.294
827.49	187.097
827.79	134.091
828.09	136.364
828.39	146.809
828.70	144.898
829.00	200.000
829.30	177.419
829.60	155.000
829.90	333.333
830.20	250.000
830.50	204.348
830.80	247.826
831.10	206.667
831.40	203.333
831.70	200.000
832.00	273.077
832.30	225.926
832.60	325.000
832.90	216.667
833.20	421.429
833.50	209.677
833.80	189.655
834.10	250.000
834.40	219.231
834.70	366.667
835.00	242.857
835.30	194.286
835.60	323.077
835.90	203.448
836.20	385.714
836.50	220.690
836.80	200.000
837.10	180.556
837.40	261.905
837.70	364.706
838.00	188.889
838.30	242.857
838.60	323.810
838.90	269.231
839.19	290.000
839.49	442.857
839.79	340.000
840.09	340.000
840.39	290.476
840.69	278.261
840.99	283.333
841.29	470.000
841.59	300.000
841.88	412.500
842.18	182.759
842.48	247.619
842.78	210.000
843.08	169.565
843.38	193.750
843.68	916.667
843.97	246.154
844.27	206.897
844.57	352.381
844.87	381.250
845.17	225.926
845.47	1500.000
845.76	533.333
846.06	335.294
846.36	612.500
846.66	335.714
846.96	306.250
847.25	436.364
847.55	472.727
847.85	247.826
848.15	460.000
848.44	385.714
848.74	261.111
849.04	347.059
849.34	470.000
849.63	247.368
849.93	472.727
850.23	1000.000
850.53	435.714
850.82	2700.000
851.12	-5400.000
851.42	4700.000
851.71	270.000
852.01	-1433.333
852.31	250.000
852.61	1733.333
852.90	285.714
853.20	256.000
853.50	358.824
853.79	290.476
854.09	220.833
854.39	375.000
854.68	172.973
854.98	180.645
855.28	180.000
855.57	248.276
855.87	218.519
856.17	252.632
856.46	300.000
856.76	311.765
857.05	200.000
857.35	212.500
857.65	346.667
857.94	256.522
858.24	246.154
858.53	275.000
858.83	286.364
859.13	393.333
859.42	0.000
859.72	511.111
860.01	490.909
860.31	281.818
860.60	294.737
860.90	200.000
861.20	644.444
861.49	425.000
861.79	-5300.000
862.08	712.500
862.38	300.000
862.67	323.077
862.97	341.176
863.26	500.000
863.56	311.111
863.85	400.000
864.15	587.500
864.44	426.667
864.74	983.333
865.03	687.500
865.33	305.263
865.62	381.818
865.92	523.077
866.21	425.000
866.51	0.000
866.80	572.727
867.10	1120.000
867.39	430.769
867.69	500.000
867.98	268.421
868.27	427.273
868.57	342.105
868.86	-3900.000
869.16	368.750
869.45	2300.000
869.75	-3900.000
870.04	400.000
870.33	685.714
870.63	925.000
870.92	2600.000
871.22	800.000
871.51	358.824
871.80	257.143
872.10	364.286
>>>>>End Processed Spectral Data<<<<<
