SpectraSuite Data File
++++++++++++++++++++++++++++++++++++
Date: Wed May 13 16:08:26 PDT 2015
User: schluterlab
Dark Spectrum Present: Yes
Reference Spectrum Present: Yes
Number of Sampled Component Spectra: 1
Spectrometers: USB2E3373
Integration Time (usec): 3000 (USB2E3373)
Spectra Averaged: 3 (USB2E3373)
Boxcar Smoothing: 0 (USB2E3373)
Correct for Electrical Dark: No (USB2E3373)
Strobe/Lamp Enabled: No (USB2E3373)
Correct for Detector Non-linearity: No (USB2E3373)
Correct for Stray Light: No (USB2E3373)
Number of Pixels in Processed Spectrum: 2048
>>>>>Begin Processed Spectral Data<<<<<
178.53	0.000
178.91	-750.000
179.29	-800.000
179.67	-127.778
180.04	-875.000
180.42	1550.000
180.80	760.000
181.18	-750.000
181.56	571.429
181.94	0.000
182.31	-514.286
182.69	1266.667
183.07	-412.500
183.45	-355.556
183.83	436.364
184.20	-260.000
184.58	1450.000
184.96	4300.000
185.34	-300.000
185.72	-362.500
186.09	-1300.000
186.47	1900.000
186.85	1300.000
187.23	3800.000
187.61	-1233.333
187.98	950.000
188.36	381.818
188.74	409.091
189.12	-480.000
189.49	400.000
189.87	-2200.000
190.25	-800.000
190.63	335.714
191.00	323.077
191.38	750.000
191.76	-925.000
192.14	1075.000
192.51	412.500
192.89	683.333
193.27	362.500
193.65	-575.000
194.02	270.000
194.40	580.000
194.78	440.000
195.15	400.000
195.53	430.000
195.91	-1250.000
196.29	225.000
196.66	215.789
197.04	-200.000
197.42	0.000
197.79	490.000
198.17	-3600.000
198.55	585.714
198.92	450.000
199.30	500.000
199.68	0.000
200.05	272.222
200.43	600.000
200.81	3000.000
201.18	1000.000
201.56	-966.667
201.94	355.556
202.31	344.444
202.69	341.667
203.07	440.000
203.44	0.000
203.82	850.000
204.19	657.143
204.57	335.714
204.95	462.500
205.32	1133.333
205.70	372.727
206.08	214.286
206.45	1800.000
206.83	206.250
207.20	533.333
207.58	620.000
207.96	244.444
208.33	475.000
208.71	-533.333
209.08	600.000
209.46	366.667
209.84	327.273
210.21	-966.667
210.59	925.000
210.96	-262.500
211.34	1450.000
211.71	460.000
212.09	733.333
212.46	0.000
212.84	1000.000
213.22	1100.000
213.59	-2000.000
213.97	600.000
214.34	500.000
214.72	418.182
215.09	700.000
215.47	-1700.000
215.84	-1450.000
216.22	933.333
216.59	307.143
216.97	1000.000
217.34	427.273
217.72	-533.333
218.09	0.000
218.47	-3500.000
218.84	455.556
219.22	571.429
219.59	933.333
219.97	-442.857
220.34	580.000
220.72	-1233.333
221.09	228.571
221.47	975.000
221.84	-633.333
222.22	0.000
222.59	825.000
222.97	-2000.000
223.34	700.000
223.72	292.308
224.09	860.000
224.46	1550.000
224.84	-4000.000
225.21	-800.000
225.59	-3500.000
225.96	440.000
226.34	210.000
226.71	1650.000
227.08	575.000
227.46	390.000
227.83	-825.000
228.21	-850.000
228.58	400.000
228.95	-1750.000
229.33	-1700.000
229.70	1066.667
230.08	642.857
230.45	-540.000
230.82	283.333
231.20	533.333
231.57	457.143
231.95	308.333
232.32	136.364
232.69	254.545
233.07	428.571
233.44	223.077
233.81	-866.667
234.19	242.105
234.56	325.000
234.93	350.000
235.31	318.182
235.68	246.154
236.05	171.429
236.43	127.273
236.80	152.632
237.17	2200.000
237.55	152.381
237.92	167.857
238.29	142.857
238.67	125.806
239.04	127.586
239.41	86.111
239.79	71.739
240.16	90.476
240.53	63.636
240.91	58.824
241.28	70.000
241.65	60.000
242.02	59.420
242.40	48.387
242.77	76.667
243.14	54.839
243.51	53.933
243.89	50.588
244.26	32.222
244.63	44.086
245.00	37.234
245.38	43.564
245.75	33.645
246.12	31.193
246.49	40.876
246.87	35.200
247.24	36.154
247.61	38.571
247.98	40.523
248.36	29.054
248.73	35.669
249.10	37.580
249.47	28.249
249.84	29.947
250.22	25.134
250.59	30.769
250.96	35.859
251.33	28.436
251.70	29.703
252.08	23.810
252.45	24.215
252.82	24.783
253.19	21.277
253.56	22.745
253.94	26.556
254.31	26.172
254.68	25.769
255.05	22.878
255.42	22.764
255.79	22.794
256.16	23.827
256.54	23.675
256.91	26.690
257.28	19.784
257.65	20.792
258.02	20.807
258.39	21.767
258.76	18.060
259.14	22.917
259.51	17.629
259.88	18.323
260.25	20.544
260.62	22.254
260.99	22.360
261.36	19.820
261.73	20.630
262.10	18.023
262.47	22.535
262.85	22.284
263.22	16.809
263.59	22.222
263.96	18.956
264.33	19.321
264.70	20.526
265.07	20.205
265.44	17.424
265.81	18.248
266.18	19.095
266.55	15.366
266.92	17.199
267.29	20.139
267.66	17.202
268.03	16.818
268.40	16.822
268.77	16.229
269.14	19.369
269.51	17.607
269.88	16.084
270.25	17.607
270.62	17.753
270.99	18.710
271.36	19.099
271.73	15.187
272.10	18.913
272.47	18.495
272.84	19.481
273.21	18.449
273.58	14.629
273.95	16.143
274.32	17.149
274.69	17.345
275.06	12.795
275.43	16.596
275.80	16.232
276.17	15.071
276.54	16.840
276.91	16.403
277.28	15.430
277.65	16.054
278.02	15.321
278.39	17.383
278.76	15.273
279.13	17.547
279.50	16.387
279.87	15.339
280.23	14.770
280.60	15.280
280.97	15.342
281.34	16.814
281.71	17.455
282.08	16.315
282.45	15.818
282.82	16.163
283.19	13.012
283.56	15.088
283.92	16.582
284.29	15.697
284.66	17.241
285.03	15.371
285.40	13.380
285.77	14.478
286.14	14.680
286.51	15.833
286.87	15.214
287.24	17.915
287.61	15.891
287.98	14.448
288.35	12.837
288.72	15.421
289.08	17.058
289.45	13.674
289.82	14.309
290.19	13.501
290.56	15.620
290.93	11.631
291.29	12.577
291.66	13.422
292.03	15.698
292.40	14.978
292.77	12.574
293.13	13.731
293.50	13.265
293.87	14.815
294.24	12.444
294.60	12.373
294.97	13.372
295.34	14.669
295.71	13.636
296.08	13.390
296.44	13.755
296.81	13.078
297.18	13.957
297.55	11.214
297.91	13.193
298.28	13.922
298.65	13.316
299.02	14.361
299.38	12.616
299.75	11.995
300.12	12.516
300.48	12.250
300.85	11.837
301.22	12.866
301.59	12.121
301.95	11.209
302.32	13.094
302.69	13.142
303.05	12.000
303.42	11.852
303.79	12.571
304.15	12.121
304.52	10.892
304.89	12.195
305.25	12.297
305.62	12.571
305.99	11.924
306.35	11.857
306.72	12.444
307.09	13.208
307.45	12.950
307.82	11.830
308.19	13.466
308.55	13.161
308.92	13.319
309.29	11.827
309.65	12.089
310.02	14.059
310.38	13.011
310.75	12.672
311.12	12.385
311.48	13.166
311.85	12.579
312.22	12.799
312.58	12.682
312.95	13.939
313.31	13.883
313.68	12.890
314.05	15.187
314.41	13.769
314.78	13.696
315.14	11.817
315.51	13.182
315.87	13.366
316.24	13.803
316.61	12.476
316.97	12.720
317.34	13.014
317.70	13.576
318.07	13.763
318.43	13.209
318.80	13.121
319.16	13.936
319.53	13.321
319.89	13.333
320.26	14.800
320.62	14.286
320.99	13.737
321.35	13.737
321.72	14.168
322.08	14.116
322.45	14.726
322.81	14.438
323.18	14.644
323.54	14.750
323.91	14.340
324.27	14.914
324.64	13.327
325.00	11.812
325.37	13.467
325.73	15.440
326.10	13.504
326.46	13.889
326.83	13.891
327.19	13.493
327.56	14.024
327.92	14.611
328.29	13.665
328.65	13.536
329.01	14.621
329.38	13.506
329.74	13.573
330.11	13.855
330.47	14.325
330.84	14.706
331.20	13.752
331.56	14.037
331.93	12.130
332.29	14.907
332.66	13.982
333.02	15.356
333.38	14.634
333.75	15.419
334.11	13.790
334.48	14.374
334.84	13.143
335.20	15.182
335.57	13.599
335.93	12.589
336.29	12.454
336.66	13.255
337.02	12.670
337.38	14.444
337.75	13.102
338.11	13.966
338.47	14.273
338.84	13.382
339.20	11.927
339.56	13.595
339.93	12.909
340.29	13.225
340.65	13.191
341.02	13.700
341.38	13.790
341.74	13.596
342.11	13.362
342.47	14.009
342.83	13.014
343.20	13.074
343.56	12.721
343.92	12.719
344.28	13.520
344.65	13.500
345.01	13.468
345.37	13.122
345.73	12.267
346.10	14.066
346.46	13.644
346.82	13.756
347.19	11.947
347.55	13.300
347.91	13.026
348.27	13.147
348.63	12.960
349.00	12.783
349.36	12.890
349.72	12.189
350.08	13.452
350.45	13.832
350.81	11.698
351.17	12.480
351.53	13.268
351.89	12.294
352.26	14.049
352.62	13.793
352.98	12.642
353.34	12.572
353.70	13.257
354.07	12.984
354.43	13.175
354.79	12.792
355.15	12.610
355.51	14.149
355.87	13.551
356.24	13.355
356.60	12.831
356.96	13.113
357.32	13.164
357.68	13.386
358.04	13.856
358.40	14.489
358.77	12.754
359.13	12.707
359.49	14.275
359.85	11.984
360.21	13.557
360.57	13.852
360.93	13.692
361.29	12.925
361.66	13.080
362.02	13.955
362.38	13.612
362.74	13.765
363.10	12.213
363.46	12.399
363.82	13.076
364.18	12.482
364.54	13.596
364.90	13.810
365.26	12.941
365.62	13.294
365.98	12.418
366.35	12.034
366.71	14.100
367.07	13.256
367.43	13.062
367.79	14.133
368.15	14.009
368.51	12.791
368.87	12.848
369.23	13.606
369.59	13.686
369.95	12.132
370.31	13.604
370.67	13.406
371.03	14.232
371.39	14.067
371.75	13.015
372.11	13.656
372.47	14.003
372.83	14.193
373.19	13.584
373.55	13.599
373.91	15.022
374.27	13.883
374.63	13.091
374.99	13.418
375.35	12.701
375.71	13.777
376.07	14.609
376.42	14.374
376.78	13.983
377.14	13.229
377.50	14.371
377.86	13.032
378.22	13.970
378.58	13.784
378.94	14.142
379.30	13.868
379.66	15.038
380.02	14.496
380.38	13.722
380.74	15.126
381.09	14.976
381.45	15.058
381.81	15.909
382.17	15.541
382.53	15.409
382.89	15.370
383.25	14.759
383.61	15.056
383.97	15.072
384.32	15.596
384.68	14.374
385.04	15.304
385.40	14.365
385.76	15.725
386.12	14.896
386.48	16.048
386.83	16.485
387.19	16.017
387.55	16.203
387.91	15.478
388.27	15.328
388.62	16.595
388.98	15.786
389.34	15.645
389.70	15.696
390.06	16.793
390.42	15.694
390.77	16.667
391.13	16.401
391.49	17.132
391.85	16.359
392.20	15.394
392.56	16.162
392.92	15.774
393.28	15.621
393.64	16.007
393.99	16.310
394.35	16.129
394.71	16.562
395.07	16.449
395.42	16.625
395.78	16.730
396.14	17.070
396.50	17.607
396.85	17.038
397.21	16.461
397.57	16.491
397.92	16.166
398.28	16.536
398.64	16.667
399.00	16.900
399.35	16.413
399.71	16.898
400.07	16.736
400.42	17.239
400.78	16.345
401.14	16.829
401.49	16.537
401.85	17.060
402.21	16.826
402.57	16.410
402.92	16.898
403.28	16.490
403.63	17.017
403.99	16.752
404.35	16.182
404.70	17.326
405.06	16.366
405.42	17.342
405.77	16.400
406.13	16.366
406.49	17.150
406.84	17.307
407.20	16.076
407.55	17.422
407.91	17.333
408.27	16.784
408.62	16.978
408.98	16.789
409.34	16.974
409.69	16.516
410.05	17.286
410.40	16.636
410.76	16.786
411.11	17.310
411.47	16.358
411.83	17.288
412.18	16.265
412.54	17.435
412.89	18.193
413.25	17.296
413.60	17.233
413.96	16.879
414.31	17.193
414.67	17.490
415.03	16.490
415.38	17.139
415.74	17.042
416.09	17.831
416.45	16.265
416.80	16.722
417.16	16.756
417.51	16.987
417.87	16.827
418.22	17.666
418.58	17.431
418.93	17.752
419.29	16.677
419.64	17.506
420.00	16.890
420.35	17.913
420.71	17.633
421.06	15.990
421.42	17.135
421.77	17.433
422.12	16.395
422.48	16.190
422.83	17.181
423.19	17.127
423.54	16.367
423.90	17.565
424.25	17.197
424.61	17.381
424.96	17.085
425.31	17.110
425.67	16.742
426.02	16.286
426.38	17.705
426.73	16.267
427.09	17.751
427.44	17.711
427.79	16.906
428.15	17.500
428.50	16.969
428.85	17.580
429.21	17.394
429.56	16.226
429.92	17.011
430.27	16.485
430.62	15.719
430.98	17.488
431.33	16.598
431.68	17.068
432.04	16.507
432.39	16.848
432.74	17.415
433.10	16.752
433.45	17.434
433.80	16.463
434.16	17.895
434.51	17.053
434.86	17.389
435.22	16.620
435.57	17.204
435.92	17.028
436.28	17.912
436.63	17.329
436.98	16.543
437.34	17.710
437.69	16.569
438.04	17.088
438.39	17.373
438.75	18.071
439.10	17.765
439.45	17.237
439.81	16.435
440.16	16.657
440.51	17.692
440.86	17.371
441.22	17.019
441.57	17.197
441.92	17.451
442.27	18.245
442.63	17.325
442.98	18.028
443.33	17.283
443.68	17.605
444.03	17.179
444.39	16.456
444.74	17.857
445.09	17.412
445.44	16.840
445.79	17.615
446.15	16.993
446.50	17.447
446.85	17.420
447.20	17.236
447.55	16.974
447.91	18.092
448.26	17.585
448.61	16.959
448.96	18.272
449.31	17.829
449.66	18.120
450.02	16.769
450.37	17.460
450.72	17.484
451.07	18.160
451.42	17.082
451.77	18.438
452.12	17.610
452.47	17.910
452.83	18.473
453.18	17.726
453.53	18.986
453.88	17.838
454.23	17.274
454.58	18.655
454.93	18.182
455.28	17.830
455.63	17.779
455.98	18.869
456.34	17.902
456.69	18.472
457.04	16.966
457.39	17.592
457.74	17.760
458.09	18.171
458.44	17.332
458.79	16.269
459.14	18.059
459.49	18.272
459.84	17.175
460.19	18.091
460.54	17.245
460.89	17.883
461.24	17.851
461.59	18.594
461.94	17.941
462.29	19.228
462.64	18.251
462.99	18.347
463.34	17.400
463.69	18.512
464.04	18.029
464.39	18.377
464.74	17.588
465.09	17.672
465.44	17.729
465.79	17.897
466.14	17.570
466.49	17.408
466.84	18.389
467.19	19.071
467.54	18.500
467.89	17.527
468.24	18.034
468.59	18.376
468.94	18.021
469.29	18.702
469.64	18.675
469.99	18.742
470.34	17.503
470.68	18.391
471.03	18.980
471.38	19.249
471.73	19.187
472.08	18.553
472.43	18.279
472.78	18.697
473.13	18.935
473.48	17.665
473.83	18.902
474.17	18.233
474.52	18.610
474.87	18.973
475.22	18.456
475.57	18.538
475.92	18.109
476.27	18.151
476.61	18.147
476.96	17.317
477.31	18.053
477.66	17.779
478.01	17.512
478.36	18.350
478.70	17.809
479.05	17.465
479.40	18.424
479.75	18.200
480.10	17.296
480.45	17.515
480.79	17.152
481.14	17.661
481.49	18.462
481.84	17.513
482.19	17.674
482.53	17.385
482.88	17.869
483.23	17.664
483.58	18.517
483.92	17.713
484.27	16.993
484.62	17.457
484.97	16.870
485.31	17.774
485.66	16.323
486.01	15.844
486.36	14.792
486.70	14.513
487.05	15.426
487.40	16.062
487.75	15.581
488.09	16.257
488.44	16.578
488.79	16.854
489.13	17.227
489.48	17.047
489.83	16.573
490.17	17.843
490.52	17.715
490.87	17.142
491.22	17.508
491.56	16.856
491.91	18.148
492.26	17.226
492.60	17.512
492.95	17.072
493.30	17.290
493.64	17.452
493.99	17.642
494.34	17.715
494.68	17.857
495.03	17.763
495.37	17.543
495.72	17.982
496.07	17.819
496.41	16.858
496.76	17.282
497.11	16.884
497.45	16.907
497.80	17.658
498.14	17.874
498.49	17.512
498.84	17.641
499.18	16.810
499.53	17.474
499.87	17.195
500.22	17.522
500.56	17.670
500.91	16.971
501.26	17.354
501.60	17.513
501.95	17.736
502.29	17.807
502.64	17.318
502.98	16.971
503.33	17.276
503.67	17.680
504.02	17.446
504.36	16.472
504.71	17.391
505.06	17.494
505.40	18.230
505.75	17.599
506.09	17.541
506.44	16.724
506.78	17.194
507.13	17.971
507.47	18.081
507.82	17.832
508.16	18.136
508.51	17.910
508.85	16.634
509.19	17.194
509.54	18.061
509.88	16.950
510.23	17.892
510.57	18.885
510.92	17.400
511.26	18.294
511.61	18.413
511.95	17.276
512.30	18.081
512.64	17.625
512.98	18.274
513.33	18.469
513.67	17.983
514.02	17.911
514.36	18.569
514.70	17.709
515.05	17.847
515.39	18.564
515.74	18.468
516.08	18.334
516.42	19.534
516.77	18.785
517.11	17.925
517.46	18.059
517.80	18.177
518.14	18.298
518.49	19.078
518.83	18.636
519.17	17.725
519.52	18.506
519.86	18.825
520.20	18.497
520.55	19.390
520.89	18.309
521.23	18.878
521.58	18.667
521.92	18.800
522.26	18.304
522.61	18.879
522.95	18.600
523.29	18.807
523.64	19.085
523.98	19.470
524.32	18.637
524.66	19.844
525.01	19.424
525.35	18.959
525.69	17.980
526.04	18.941
526.38	18.426
526.72	18.528
527.06	18.267
527.41	18.317
527.75	19.743
528.09	19.204
528.43	18.483
528.78	18.254
529.12	18.424
529.46	18.800
529.80	19.554
530.15	19.751
530.49	18.215
530.83	18.608
531.17	19.517
531.51	20.039
531.86	18.903
532.20	19.557
532.54	19.731
532.88	19.384
533.22	18.239
533.57	17.963
533.91	18.242
534.25	18.712
534.59	18.304
534.93	18.560
535.27	17.622
535.62	18.010
535.96	18.707
536.30	17.928
536.64	18.931
536.98	18.514
537.32	18.565
537.66	18.933
538.01	19.882
538.35	17.970
538.69	18.507
539.03	18.519
539.37	17.764
539.71	17.498
540.05	18.366
540.39	18.605
540.73	17.464
541.07	18.494
541.42	18.656
541.76	19.032
542.10	18.823
542.44	17.682
542.78	18.445
543.12	17.978
543.46	18.885
543.80	17.632
544.14	18.036
544.48	18.794
544.82	17.447
545.16	17.892
545.50	18.123
545.84	17.406
546.18	18.316
546.52	18.858
546.86	18.076
547.20	18.139
547.54	18.236
547.88	19.005
548.22	18.120
548.56	16.855
548.90	17.734
549.24	17.778
549.58	18.963
549.92	17.857
550.26	18.537
550.60	17.566
550.94	18.521
551.28	17.557
551.62	16.894
551.96	16.632
552.30	19.454
552.64	18.391
552.98	17.695
553.32	18.139
553.66	17.928
554.00	18.531
554.34	17.460
554.68	18.240
555.02	17.419
555.36	18.928
555.69	17.659
556.03	17.429
556.37	17.326
556.71	16.985
557.05	17.857
557.39	17.355
557.73	17.996
558.07	18.274
558.41	18.017
558.75	18.663
559.08	17.524
559.42	17.385
559.76	17.868
560.10	17.987
560.44	17.610
560.78	16.633
561.12	17.810
561.45	18.644
561.79	17.732
562.13	17.840
562.47	17.213
562.81	17.992
563.15	17.124
563.48	17.241
563.82	17.417
564.16	17.332
564.50	16.667
564.84	16.877
565.17	17.632
565.51	17.061
565.85	17.513
566.19	17.220
566.52	17.099
566.86	17.058
567.20	17.276
567.54	17.409
567.88	16.513
568.21	16.190
568.55	17.139
568.89	16.099
569.23	16.399
569.56	16.032
569.90	15.283
570.24	14.998
570.57	14.961
570.91	14.641
571.25	14.577
571.59	14.757
571.92	14.574
572.26	14.298
572.60	14.805
572.93	14.753
573.27	14.552
573.61	14.685
573.95	14.393
574.28	14.548
574.62	14.043
574.96	14.050
575.29	14.016
575.63	14.228
575.97	14.111
576.30	14.711
576.64	14.380
576.98	13.879
577.31	13.840
577.65	14.028
577.98	13.872
578.32	13.840
578.66	13.774
578.99	14.106
579.33	13.943
579.67	13.695
580.00	13.930
580.34	14.309
580.67	14.276
581.01	14.234
581.35	13.766
581.68	13.967
582.02	13.591
582.35	13.472
582.69	13.493
583.02	13.873
583.36	13.973
583.70	13.936
584.03	14.551
584.37	14.625
584.70	14.159
585.04	14.310
585.37	14.049
585.71	14.004
586.04	14.134
586.38	14.107
586.72	14.416
587.05	14.154
587.39	14.142
587.72	14.326
588.06	13.741
588.39	14.129
588.73	14.139
589.06	14.553
589.40	15.017
589.73	15.136
590.07	14.662
590.40	14.761
590.73	14.871
591.07	15.263
591.40	15.099
591.74	15.887
592.07	15.925
592.41	15.172
592.74	14.794
593.08	14.657
593.41	14.457
593.75	13.773
594.08	14.583
594.41	14.493
594.75	14.750
595.08	14.639
595.42	14.956
595.75	14.779
596.09	14.645
596.42	15.246
596.75	15.281
597.09	15.325
597.42	14.671
597.75	15.481
598.09	15.304
598.42	15.378
598.76	14.674
599.09	14.253
599.42	14.920
599.76	14.568
600.09	14.026
600.42	14.025
600.76	14.429
601.09	14.645
601.42	14.574
601.76	14.383
602.09	14.387
602.42	14.849
602.76	15.236
603.09	14.870
603.42	14.955
603.76	14.215
604.09	14.192
604.42	14.594
604.76	14.762
605.09	15.028
605.42	14.451
605.75	15.025
606.09	14.477
606.42	14.589
606.75	15.222
607.09	15.027
607.42	14.591
607.75	14.515
608.08	14.546
608.42	14.792
608.75	14.923
609.08	15.171
609.41	14.707
609.75	14.769
610.08	15.740
610.41	14.665
610.74	14.617
611.07	14.921
611.41	15.260
611.74	15.787
612.07	15.683
612.40	15.320
612.73	15.632
613.07	16.002
613.40	15.587
613.73	15.260
614.06	14.946
614.39	16.256
614.72	15.474
615.06	16.019
615.39	15.074
615.72	15.133
616.05	15.205
616.38	14.786
616.71	15.499
617.05	15.842
617.38	15.875
617.71	15.676
618.04	16.046
618.37	15.435
618.70	16.801
619.03	16.513
619.36	16.158
619.69	16.761
620.03	16.484
620.36	16.176
620.69	16.849
621.02	16.593
621.35	16.523
621.68	15.966
622.01	16.950
622.34	16.641
622.67	16.730
623.00	15.847
623.33	15.940
623.66	16.440
623.99	16.348
624.32	16.619
624.65	16.525
624.99	16.360
625.32	16.510
625.65	16.379
625.98	16.295
626.31	17.729
626.64	17.143
626.97	18.537
627.30	16.708
627.63	17.473
627.96	16.905
628.29	16.535
628.62	18.390
628.95	18.396
629.28	17.883
629.61	19.065
629.94	18.381
630.26	17.350
630.59	17.827
630.92	15.996
631.25	17.769
631.58	18.218
631.91	17.343
632.24	17.616
632.57	18.048
632.90	17.105
633.23	18.345
633.56	19.774
633.89	18.120
634.22	18.502
634.55	19.882
634.88	17.964
635.20	20.430
635.53	18.675
635.86	18.069
636.19	18.353
636.52	19.723
636.85	17.411
637.18	16.590
637.51	18.794
637.83	16.400
638.16	19.054
638.49	20.277
638.82	19.722
639.15	20.375
639.48	19.451
639.81	19.839
640.13	19.401
640.46	19.329
640.79	19.683
641.12	17.744
641.45	19.274
641.77	19.588
642.10	18.421
642.43	18.468
642.76	19.969
643.09	20.859
643.41	19.423
643.74	21.759
644.07	20.884
644.40	21.779
644.73	21.890
645.05	21.395
645.38	18.009
645.71	20.129
646.04	21.096
646.36	22.871
646.69	20.067
647.02	21.769
647.35	20.619
647.67	19.646
648.00	21.626
648.33	21.287
648.66	20.455
648.98	20.990
649.31	18.685
649.64	20.628
649.96	21.311
650.29	19.747
650.62	19.417
650.94	21.232
651.27	22.804
651.60	20.300
651.92	21.725
652.25	19.055
652.58	22.118
652.90	19.905
653.23	18.952
653.56	20.630
653.88	21.078
654.21	19.905
654.54	21.452
654.86	18.692
655.19	19.730
655.52	12.313
655.84	11.115
656.17	13.764
656.49	18.456
656.82	18.452
657.15	14.001
657.47	10.285
657.80	8.084
658.13	8.321
658.45	12.614
658.78	12.761
659.10	13.663
659.43	14.091
659.75	14.649
660.08	16.772
660.41	16.853
660.73	18.679
661.06	19.745
661.38	20.545
661.71	22.692
662.03	24.655
662.36	19.881
662.68	24.096
663.01	22.222
663.33	21.019
663.66	22.689
663.98	20.086
664.31	21.218
664.63	19.636
664.96	21.127
665.28	23.361
665.61	22.222
665.93	20.724
666.26	21.298
666.58	23.431
666.91	23.679
667.23	23.146
667.56	21.382
667.88	23.291
668.21	21.748
668.53	22.777
668.86	22.944
669.18	20.896
669.50	21.304
669.83	23.965
670.15	22.667
670.48	20.697
670.80	21.121
671.13	21.444
671.45	22.340
671.77	23.218
672.10	22.366
672.42	18.728
672.75	20.730
673.07	18.486
673.39	20.434
673.72	20.312
674.04	20.784
674.37	20.388
674.69	20.450
675.01	19.247
675.34	24.025
675.66	24.000
675.98	24.033
676.31	22.269
676.63	22.293
676.95	23.061
677.28	22.897
677.60	21.319
677.92	20.886
678.25	20.534
678.57	21.713
678.89	20.842
679.22	20.629
679.54	21.374
679.86	21.284
680.18	19.320
680.51	19.149
680.83	20.285
681.15	21.321
681.48	22.117
681.80	21.663
682.12	18.774
682.44	18.762
682.77	20.978
683.09	24.893
683.41	21.286
683.73	23.179
684.06	21.281
684.38	21.918
684.70	20.930
685.02	19.512
685.34	20.513
685.67	19.056
685.99	19.416
686.31	18.430
686.63	19.081
686.96	18.214
687.28	21.841
687.60	18.478
687.92	22.486
688.24	20.152
688.56	24.297
688.89	23.444
689.21	22.052
689.53	20.251
689.85	21.729
690.17	20.911
690.49	22.505
690.82	21.495
691.14	19.643
691.46	20.042
691.78	20.281
692.10	21.901
692.42	20.160
692.74	20.332
693.06	22.766
693.39	24.025
693.71	20.087
694.03	21.053
694.35	19.913
694.67	22.883
694.99	21.707
695.31	25.000
695.63	21.531
695.95	23.472
696.27	17.259
696.59	24.093
696.91	23.316
697.23	19.484
697.56	22.601
697.88	18.405
698.20	20.000
698.52	19.355
698.84	22.049
699.16	20.737
699.48	17.577
699.80	22.464
700.12	24.156
700.44	22.281
700.76	22.376
701.08	24.138
701.40	23.464
701.72	26.822
702.04	25.852
702.36	19.263
702.68	24.079
703.00	23.269
703.32	23.936
703.64	23.056
703.96	23.398
704.28	23.256
704.60	24.633
704.91	24.332
705.23	21.994
705.55	28.239
705.87	29.568
706.19	21.555
706.51	27.103
706.83	26.970
707.15	28.571
707.47	21.465
707.79	22.604
708.11	23.516
708.43	21.190
708.74	18.112
709.06	24.156
709.38	22.835
709.70	21.802
710.02	27.003
710.34	21.515
710.66	25.075
710.98	26.705
711.29	27.035
711.61	26.254
711.93	23.077
712.25	26.045
712.57	28.309
712.89	26.298
713.20	24.924
713.52	21.382
713.84	22.152
714.16	21.951
714.48	21.264
714.80	26.140
715.11	22.767
715.43	24.036
715.75	24.928
716.07	26.198
716.39	21.944
716.70	27.907
717.02	24.820
717.34	24.735
717.66	30.224
717.97	26.295
718.29	26.667
718.61	25.182
718.93	29.779
719.24	24.567
719.56	27.458
719.88	21.017
720.20	31.757
720.51	28.223
720.83	27.881
721.15	26.119
721.46	24.113
721.78	25.806
722.10	28.302
722.42	29.699
722.73	27.715
723.05	23.770
723.37	25.506
723.68	27.799
724.00	22.764
724.32	26.613
724.63	26.829
724.95	24.686
725.27	28.340
725.58	24.219
725.90	25.912
726.22	24.906
726.53	23.611
726.85	26.280
727.16	27.758
727.48	23.759
727.80	26.136
728.11	24.638
728.43	24.615
728.74	22.939
729.06	28.832
729.38	26.838
729.69	27.046
730.01	29.010
730.32	27.083
730.64	26.756
730.96	20.792
731.27	25.497
731.59	26.300
731.90	21.574
732.22	20.186
732.53	22.291
732.85	23.397
733.16	24.759
733.48	23.256
733.80	25.325
734.11	25.159
734.43	24.260
734.74	21.143
735.06	20.057
735.37	25.723
735.69	22.611
736.00	24.510
736.32	26.168
736.63	22.684
736.95	27.476
737.26	22.789
737.58	23.871
737.89	25.084
738.21	25.256
738.52	26.786
738.83	23.019
739.15	26.154
739.46	22.993
739.78	24.306
740.09	23.077
740.41	24.516
740.72	22.997
741.04	22.593
741.35	27.500
741.66	30.222
741.98	26.887
742.29	25.837
742.61	31.897
742.92	31.222
743.23	29.915
743.55	28.000
743.86	28.070
744.18	34.071
744.49	30.144
744.80	31.455
745.12	32.273
745.43	27.753
745.74	30.631
746.06	26.606
746.37	32.287
746.68	28.959
747.00	32.407
747.31	30.476
747.62	28.319
747.94	29.515
748.25	22.553
748.56	28.634
748.88	35.149
749.19	32.000
749.50	27.442
749.82	28.049
750.13	26.122
750.44	26.642
750.75	23.860
751.07	27.010
751.38	23.693
751.69	24.910
752.01	25.564
752.32	24.188
752.63	26.596
752.94	25.820
753.26	31.600
753.57	23.984
753.88	29.297
754.19	28.214
754.51	29.514
754.82	22.744
755.13	24.151
755.44	28.947
755.75	23.358
756.07	24.468
756.38	20.438
756.69	27.517
757.00	20.659
757.31	24.926
757.63	18.129
757.94	23.056
758.25	20.833
758.56	20.000
758.87	20.161
759.18	26.061
759.50	21.003
759.81	22.430
760.12	21.875
760.43	24.642
760.74	23.641
761.05	23.729
761.36	18.182
761.67	23.295
761.99	25.155
762.30	25.000
762.61	22.519
762.92	27.734
763.23	28.571
763.54	26.000
763.85	23.828
764.16	28.077
764.47	28.517
764.78	21.555
765.10	22.152
765.41	25.369
765.72	25.150
766.03	18.809
766.34	22.000
766.65	28.511
766.96	27.778
767.27	27.919
767.58	28.646
767.89	35.263
768.20	35.057
768.51	25.888
768.82	26.606
769.13	28.049
769.44	27.530
769.75	27.468
770.06	23.853
770.37	34.389
770.68	24.074
770.99	30.667
771.30	25.820
771.61	32.287
771.92	25.410
772.23	30.252
772.54	27.179
772.85	36.126
773.16	38.298
773.47	34.783
773.78	36.548
774.09	29.167
774.39	36.257
774.70	31.481
775.01	41.304
775.32	43.791
775.63	38.158
775.94	38.129
776.25	37.795
776.56	42.537
776.87	40.984
777.18	38.281
777.48	48.092
777.79	40.152
778.10	42.222
778.41	40.179
778.72	36.496
779.03	35.570
779.34	38.926
779.65	37.162
779.95	31.902
780.26	35.948
780.57	36.552
780.88	42.187
781.19	38.346
781.50	39.189
781.80	37.736
782.11	33.898
782.42	31.646
782.73	28.834
783.04	33.784
783.34	33.803
783.65	36.986
783.96	44.030
784.27	36.364
784.57	33.094
784.88	37.037
785.19	45.238
785.50	33.962
785.81	45.522
786.11	50.000
786.42	40.310
786.73	43.363
787.04	47.170
787.34	42.857
787.65	39.000
787.96	48.649
788.26	29.752
788.57	46.610
788.88	46.281
789.19	45.139
789.49	47.727
789.80	39.695
790.11	53.333
790.41	52.475
790.72	54.217
791.03	52.174
791.33	51.163
791.64	54.639
791.95	57.426
792.25	51.111
792.56	59.740
792.87	64.103
793.17	69.620
793.48	51.724
793.79	42.529
794.09	46.591
794.40	40.336
794.70	44.853
795.01	34.815
795.32	38.849
795.62	35.433
795.93	35.345
796.23	46.018
796.54	45.882
796.85	56.757
797.15	71.831
797.46	50.000
797.76	53.012
798.07	48.101
798.37	53.846
798.68	43.939
798.99	53.521
799.29	57.143
799.60	54.545
799.90	65.753
800.21	62.687
800.51	63.793
800.82	77.193
801.12	55.738
801.43	71.212
801.73	64.865
802.04	84.127
802.34	72.840
802.65	68.750
802.95	67.797
803.26	73.438
803.56	55.714
803.87	73.846
804.17	52.941
804.48	83.333
804.78	65.517
805.09	64.706
805.39	73.077
805.70	64.286
806.00	70.492
806.30	71.212
806.61	64.634
806.91	50.633
807.22	59.211
807.52	52.239
807.83	57.746
808.13	78.125
808.43	73.333
808.74	46.053
809.04	59.420
809.35	70.149
809.65	55.263
809.95	103.226
810.26	71.186
810.56	66.667
810.86	95.455
811.17	95.238
811.47	83.333
811.77	70.370
812.08	74.545
812.38	84.000
812.69	102.778
812.99	120.455
813.29	79.592
813.59	64.286
813.90	77.551
814.20	70.909
814.50	63.077
814.81	85.294
815.11	87.755
815.41	72.131
815.72	95.238
816.02	100.000
816.32	104.762
816.62	90.000
816.93	107.317
817.23	114.286
817.53	93.182
817.84	133.333
818.14	84.783
818.44	73.333
818.74	102.941
819.04	90.000
819.35	108.571
819.65	126.471
819.95	153.571
820.25	75.000
820.56	125.641
820.86	111.364
821.16	79.070
821.46	92.308
821.76	104.000
822.07	134.286
822.37	107.500
822.67	124.242
822.97	82.353
823.27	142.857
823.57	108.108
823.88	122.500
824.18	130.000
824.48	107.143
824.78	136.000
825.08	116.667
825.38	116.216
825.69	102.439
825.99	141.667
826.29	120.690
826.59	110.526
826.89	126.316
827.19	126.471
827.49	138.710
827.79	111.364
828.09	109.091
828.39	108.511
828.70	102.041
829.00	118.519
829.30	106.452
829.60	97.500
829.90	200.000
830.20	139.286
830.50	95.652
830.80	134.783
831.10	126.667
831.40	146.667
831.70	113.043
832.00	169.231
832.30	170.370
832.60	225.000
832.90	153.333
833.20	250.000
833.50	138.710
833.80	144.828
834.10	131.250
834.40	176.923
834.70	172.222
835.00	209.524
835.30	122.857
835.60	207.692
835.90	137.931
836.20	185.714
836.50	151.724
836.80	144.000
837.10	125.000
837.40	190.476
837.70	200.000
838.00	162.963
838.30	138.095
838.60	185.714
838.90	150.000
839.19	175.000
839.49	307.143
839.79	250.000
840.09	145.000
840.39	176.190
840.69	195.652
840.99	200.000
841.29	280.000
841.59	291.667
841.88	281.250
842.18	131.034
842.48	195.238
842.78	166.667
843.08	208.696
843.38	118.750
843.68	466.667
843.97	123.077
844.27	134.483
844.57	147.619
844.87	243.750
845.17	170.370
845.47	1066.667
845.76	300.000
846.06	241.176
846.36	250.000
846.66	257.143
846.96	181.250
847.25	209.091
847.55	272.727
847.85	182.609
848.15	360.000
848.44	200.000
848.74	216.667
849.04	211.765
849.34	430.000
849.63	200.000
849.93	227.273
850.23	860.000
850.53	264.286
850.82	1350.000
851.12	-2800.000
851.42	3000.000
851.71	210.000
852.01	-566.667
852.31	191.667
852.61	1000.000
852.90	171.429
853.20	172.000
853.50	211.765
853.79	200.000
854.09	158.333
854.39	212.500
854.68	140.541
854.98	129.032
855.28	103.333
855.57	165.517
855.87	166.667
856.17	152.632
856.46	166.667
856.76	176.471
857.05	151.724
857.35	145.833
857.65	240.000
857.94	160.870
858.24	146.154
858.53	210.000
858.83	172.727
859.13	213.333
859.42	0.000
859.72	388.889
860.01	345.455
860.31	140.909
860.60	210.526
860.90	156.522
861.20	377.778
861.49	358.333
861.79	-2600.000
862.08	512.500
862.38	200.000
862.67	169.231
862.97	241.176
863.26	400.000
863.56	183.333
863.85	350.000
864.15	400.000
864.44	280.000
864.74	483.333
865.03	400.000
865.33	184.211
865.62	209.091
865.92	376.923
866.21	225.000
866.51	0.000
866.80	272.727
867.10	840.000
867.39	292.308
867.69	300.000
867.98	189.474
868.27	409.091
868.57	142.105
868.86	-3300.000
869.16	206.250
869.45	1500.000
869.75	-2700.000
870.04	291.667
870.33	442.857
870.63	475.000
870.92	1550.000
871.22	471.429
871.51	211.765
871.80	185.714
872.10	264.286
>>>>>End Processed Spectral Data<<<<<
