SpectraSuite Data File
++++++++++++++++++++++++++++++++++++
Date: Wed May 13 16:06:11 PDT 2015
User: schluterlab
Dark Spectrum Present: Yes
Reference Spectrum Present: Yes
Number of Sampled Component Spectra: 1
Spectrometers: USB2E3373
Integration Time (usec): 3000 (USB2E3373)
Spectra Averaged: 3 (USB2E3373)
Boxcar Smoothing: 0 (USB2E3373)
Correct for Electrical Dark: No (USB2E3373)
Strobe/Lamp Enabled: No (USB2E3373)
Correct for Detector Non-linearity: No (USB2E3373)
Correct for Stray Light: No (USB2E3373)
Number of Pixels in Processed Spectrum: 2048
>>>>>Begin Processed Spectral Data<<<<<
178.53	0.000
178.91	-950.000
179.29	-625.000
179.67	-72.222
180.04	-700.000
180.42	1500.000
180.80	680.000
181.18	-675.000
181.56	442.857
181.94	0.000
182.31	-342.857
182.69	1400.000
183.07	-375.000
183.45	-277.778
183.83	345.455
184.20	-270.000
184.58	1300.000
184.96	3200.000
185.34	-360.000
185.72	-487.500
186.09	-1050.000
186.47	1450.000
186.85	1450.000
187.23	2600.000
187.61	-1233.333
187.98	725.000
188.36	354.545
188.74	345.455
189.12	-580.000
189.49	280.000
189.87	-3300.000
190.25	-650.000
190.63	250.000
191.00	346.154
191.38	533.333
191.76	-750.000
192.14	925.000
192.51	237.500
192.89	616.667
193.27	437.500
193.65	-875.000
194.02	360.000
194.40	420.000
194.78	310.000
195.15	308.333
195.53	400.000
195.91	-900.000
196.29	275.000
196.66	257.895
197.04	-90.000
197.42	0.000
197.79	470.000
198.17	-3000.000
198.55	514.286
198.92	512.500
199.30	460.000
199.68	0.000
200.05	227.778
200.43	528.571
200.81	2800.000
201.18	1233.333
201.56	-1100.000
201.94	422.222
202.31	311.111
202.69	250.000
203.07	350.000
203.44	0.000
203.82	750.000
204.19	657.143
204.57	214.286
204.95	425.000
205.32	1200.000
205.70	300.000
206.08	242.857
206.45	1750.000
206.83	250.000
207.20	616.667
207.58	400.000
207.96	211.111
208.33	400.000
208.71	-516.667
209.08	428.571
209.46	400.000
209.84	272.727
210.21	-366.667
210.59	650.000
210.96	-237.500
211.34	1250.000
211.71	420.000
212.09	400.000
212.46	0.000
212.84	1066.667
213.22	875.000
213.59	-2600.000
213.97	616.667
214.34	371.429
214.72	363.636
215.09	680.000
215.47	-1400.000
215.84	-1250.000
216.22	1033.333
216.59	192.857
216.97	800.000
217.34	309.091
217.72	-433.333
218.09	0.000
218.47	-3500.000
218.84	444.444
219.22	614.286
219.59	1000.000
219.97	-385.714
220.34	380.000
220.72	-700.000
221.09	242.857
221.47	1050.000
221.84	-483.333
222.22	0.000
222.59	875.000
222.97	-1300.000
223.34	640.000
223.72	284.615
224.09	660.000
224.46	750.000
224.84	-2500.000
225.21	-620.000
225.59	-2500.000
225.96	460.000
226.34	215.000
226.71	1950.000
227.08	437.500
227.46	300.000
227.83	-625.000
228.21	-1050.000
228.58	277.778
228.95	-1350.000
229.33	-1150.000
229.70	1066.667
230.08	542.857
230.45	-620.000
230.82	308.333
231.20	616.667
231.57	300.000
231.95	333.333
232.32	218.182
232.69	300.000
233.07	400.000
233.44	176.923
233.81	-966.667
234.19	247.368
234.56	258.333
234.93	233.333
235.31	281.818
235.68	230.769
236.05	207.143
236.43	142.424
236.80	194.737
237.17	3200.000
237.55	142.857
237.92	139.286
238.29	147.619
238.67	129.032
239.04	134.483
239.41	97.222
239.79	84.783
240.16	92.857
240.53	88.636
240.91	80.392
241.28	70.000
241.65	72.000
242.02	79.710
242.40	66.129
242.77	73.333
243.14	64.516
243.51	73.034
243.89	60.000
244.26	61.111
244.63	56.989
245.00	48.936
245.38	56.436
245.75	45.794
246.12	49.541
246.49	51.825
246.87	60.800
247.24	53.077
247.61	40.714
247.98	50.327
248.36	46.622
248.73	45.223
249.10	45.860
249.47	46.328
249.84	47.059
250.22	43.850
250.59	40.828
250.96	47.980
251.33	48.341
251.70	44.554
252.08	41.429
252.45	43.498
252.82	38.696
253.19	37.447
253.56	41.176
253.94	41.079
254.31	38.672
254.68	42.308
255.05	41.328
255.42	40.244
255.79	40.074
256.16	39.711
256.54	34.629
256.91	37.367
257.28	36.331
257.65	40.924
258.02	39.130
258.39	36.909
258.76	36.789
259.14	38.988
259.51	35.258
259.88	36.335
260.25	36.254
260.62	33.815
260.99	35.714
261.36	35.435
261.73	37.249
262.10	35.174
262.47	36.338
262.85	36.212
263.22	29.630
263.59	38.177
263.96	34.341
264.33	36.031
264.70	35.000
265.07	35.806
265.44	37.121
265.81	32.847
266.18	37.940
266.55	35.854
266.92	34.398
267.29	35.185
267.66	30.963
268.03	33.409
268.40	31.542
268.77	33.174
269.14	35.135
269.51	33.860
269.88	33.566
270.25	32.280
270.62	34.382
270.99	35.699
271.36	33.047
271.73	33.879
272.10	31.522
272.47	33.978
272.84	31.818
273.21	33.753
273.58	30.349
273.95	28.931
274.32	33.058
274.69	35.332
275.06	30.118
275.43	31.489
275.80	33.267
276.17	33.401
276.54	32.640
276.91	33.992
277.28	31.250
277.65	31.528
278.02	32.091
278.39	32.812
278.76	31.455
279.13	30.377
279.50	29.609
279.87	31.673
280.23	32.335
280.60	29.207
280.97	29.760
281.34	29.735
281.71	31.818
282.08	31.286
282.45	28.727
282.82	31.972
283.19	29.590
283.56	30.526
283.92	31.641
284.29	29.806
284.66	31.034
285.03	30.561
285.40	29.577
285.77	28.620
286.14	29.016
286.51	29.167
286.87	28.547
287.24	29.805
287.61	30.658
287.98	30.519
288.35	27.892
288.72	27.882
289.08	28.326
289.45	29.654
289.82	26.341
290.19	27.630
290.56	27.565
290.93	28.550
291.29	27.147
291.66	26.549
292.03	28.488
292.40	28.928
292.77	25.740
293.13	26.418
293.50	26.239
293.87	24.889
294.24	25.630
294.60	24.745
294.97	27.326
295.34	25.952
295.71	26.705
296.08	25.641
296.44	26.823
296.81	23.514
297.18	26.829
297.55	22.955
297.91	25.462
298.28	26.372
298.65	25.065
299.02	27.141
299.38	23.373
299.75	23.315
300.12	24.521
300.48	22.125
300.85	25.031
301.22	23.949
301.59	25.000
301.95	23.300
302.32	24.390
302.69	24.492
303.05	23.515
303.42	25.802
303.79	24.122
304.15	22.844
304.52	24.102
304.89	23.229
305.25	23.898
305.62	25.481
305.99	25.502
306.35	23.154
306.72	23.991
307.09	24.417
307.45	26.689
307.82	23.549
308.19	24.503
308.55	25.890
308.92	24.705
309.29	22.492
309.65	23.860
310.02	24.736
310.38	26.667
310.75	24.710
311.12	24.974
311.48	26.019
311.85	26.101
312.22	23.725
312.58	24.948
312.95	25.977
313.31	25.922
313.68	27.755
314.05	28.008
314.41	28.141
314.78	25.680
315.14	27.309
315.51	26.880
315.87	27.426
316.24	26.812
316.61	27.875
316.97	26.712
317.34	27.691
317.70	29.159
318.07	27.430
318.43	29.354
318.80	29.522
319.16	29.284
319.53	28.424
319.89	29.238
320.26	30.300
320.62	29.960
320.99	29.899
321.35	30.707
321.72	31.930
322.08	31.885
322.45	32.935
322.81	32.752
323.18	34.682
323.54	34.230
323.91	34.528
324.27	34.512
324.64	33.830
325.00	34.626
325.37	36.670
325.73	36.176
326.10	35.481
326.46	35.573
326.83	37.705
327.19	37.404
327.56	38.850
327.92	39.283
328.29	39.308
328.65	40.331
329.01	39.982
329.38	39.593
329.74	39.335
330.11	40.622
330.47	41.230
330.84	41.636
331.20	40.710
331.56	41.376
331.93	42.037
332.29	39.929
332.66	42.832
333.02	40.951
333.38	40.560
333.75	42.068
334.11	40.480
334.48	42.325
334.84	43.842
335.20	43.364
335.57	42.067
335.93	41.518
336.29	43.040
336.66	42.110
337.02	41.900
337.38	41.574
337.75	41.533
338.11	41.361
338.47	43.554
338.84	42.805
339.20	41.468
339.56	44.252
339.93	41.364
340.29	41.757
340.65	42.781
341.02	42.757
341.38	43.505
341.74	41.930
342.11	42.009
342.47	42.907
342.83	41.438
343.20	43.377
343.56	42.881
343.92	42.719
344.28	42.517
344.65	42.562
345.01	41.835
345.37	40.909
345.73	43.570
346.10	42.370
346.46	42.203
346.82	42.257
347.19	40.602
347.55	41.872
347.91	42.152
348.27	42.399
348.63	42.391
349.00	41.343
349.36	42.282
349.72	41.379
350.08	41.410
350.45	42.148
350.81	42.080
351.17	42.707
351.53	41.360
351.89	41.667
352.26	42.463
352.62	40.898
352.98	42.382
353.34	41.249
353.70	42.144
354.07	41.210
354.43	40.714
354.79	40.386
355.15	40.623
355.51	42.206
355.87	42.286
356.24	42.020
356.60	42.021
356.96	43.604
357.32	40.638
357.68	41.339
358.04	40.063
358.40	40.776
358.77	41.706
359.13	40.489
359.49	42.824
359.85	40.952
360.21	41.069
360.57	42.724
360.93	40.923
361.29	40.363
361.66	40.248
362.02	41.567
362.38	41.749
362.74	40.774
363.10	40.859
363.46	41.012
363.82	41.875
364.18	40.529
364.54	41.605
364.90	41.006
365.26	41.838
365.62	42.659
365.98	40.614
366.35	40.115
366.71	40.347
367.07	42.535
367.43	41.364
367.79	41.970
368.15	42.529
368.51	41.497
368.87	41.470
369.23	41.990
369.59	41.492
369.95	41.765
370.31	41.952
370.67	42.464
371.03	41.798
371.39	41.837
371.75	41.250
372.11	39.687
372.47	41.935
372.83	41.643
373.19	41.618
373.55	42.055
373.91	41.458
374.27	41.168
374.63	42.109
374.99	42.232
375.35	39.777
375.71	40.507
376.07	41.838
376.42	42.297
376.78	41.816
377.14	41.859
377.50	40.795
377.86	42.221
378.22	42.288
378.58	40.977
378.94	41.986
379.30	42.239
379.66	42.132
380.02	41.032
380.38	41.348
380.74	42.317
381.09	42.115
381.45	43.639
381.81	40.848
382.17	42.611
382.53	41.887
382.89	40.926
383.25	40.588
383.61	42.503
383.97	41.588
384.32	41.235
384.68	41.140
385.04	42.594
385.40	40.681
385.76	41.216
386.12	41.839
386.48	42.102
386.83	41.758
387.19	42.672
387.55	42.548
387.91	42.503
388.27	42.367
388.62	42.471
388.98	40.786
389.34	41.802
389.70	41.692
390.06	42.459
390.42	41.310
390.77	40.840
391.13	42.693
391.49	42.893
391.85	40.675
392.20	41.262
392.56	40.530
392.92	40.730
393.28	41.420
393.64	40.707
393.99	42.028
394.35	41.749
394.71	41.217
395.07	40.748
395.42	41.718
395.78	41.094
396.14	41.217
396.50	41.165
396.85	41.577
397.21	40.814
397.57	40.918
397.92	42.007
398.28	40.863
398.64	41.219
399.00	41.018
399.35	39.820
399.71	41.551
400.07	41.810
400.42	41.166
400.78	39.928
401.14	41.585
401.49	41.194
401.85	40.472
402.21	39.641
402.57	40.407
402.92	40.227
403.28	40.600
403.63	40.718
403.99	40.637
404.35	41.091
404.70	40.827
405.06	41.002
405.42	40.362
405.77	39.886
406.13	39.729
406.49	40.095
406.84	39.102
407.20	39.243
407.55	39.949
407.91	39.933
408.27	40.204
408.62	40.277
408.98	39.583
409.34	39.668
409.69	39.935
410.05	41.078
410.40	40.612
410.76	39.904
411.11	38.480
411.47	39.681
411.83	40.745
412.18	38.961
412.54	39.726
412.89	38.554
413.25	40.142
413.60	39.531
413.96	38.130
414.31	38.518
414.67	38.530
415.03	38.742
415.38	39.755
415.74	40.064
416.09	39.778
416.45	39.224
416.80	40.119
417.16	39.410
417.51	39.549
417.87	38.600
418.22	39.243
418.58	39.703
418.93	39.435
419.29	39.338
419.64	39.484
420.00	39.512
420.35	39.594
420.71	39.211
421.06	38.246
421.42	39.649
421.77	39.798
422.12	39.360
422.48	38.802
422.83	39.953
423.19	38.453
423.54	39.814
423.90	40.406
424.25	40.145
424.61	39.821
424.96	39.475
425.31	38.704
425.67	38.539
426.02	39.714
426.38	40.049
426.73	38.502
427.09	39.878
427.44	37.838
427.79	39.218
428.15	39.345
428.50	39.321
428.85	39.869
429.21	39.205
429.56	39.139
429.92	38.702
430.27	39.126
430.62	38.863
430.98	39.024
431.33	38.660
431.68	38.586
432.04	38.711
432.39	39.292
432.74	39.138
433.10	39.559
433.45	39.475
433.80	38.858
434.16	39.423
434.51	38.947
434.86	40.194
435.22	40.133
435.57	39.818
435.92	39.555
436.28	39.798
436.63	39.845
436.98	38.695
437.34	40.012
437.69	40.840
438.04	41.034
438.39	39.522
438.75	39.802
439.10	41.173
439.45	38.843
439.81	39.758
440.16	39.752
440.51	39.250
440.86	39.954
441.22	39.377
441.57	39.225
441.92	39.713
442.27	39.989
442.63	39.231
442.98	39.887
443.33	39.891
443.68	39.855
444.03	39.287
444.39	39.046
444.74	39.989
445.09	40.593
445.44	39.366
445.79	39.584
446.15	39.598
446.50	39.742
446.85	39.928
447.20	40.337
447.55	39.978
447.91	39.658
448.26	40.234
448.61	40.362
448.96	39.756
449.31	40.382
449.66	39.899
450.02	38.830
450.37	40.249
450.72	39.086
451.07	38.269
451.42	39.757
451.77	40.752
452.12	38.568
452.47	39.552
452.83	40.210
453.18	39.976
453.53	39.641
453.88	38.925
454.23	39.510
454.58	40.521
454.93	42.467
455.28	40.212
455.63	41.141
455.98	41.012
456.34	40.264
456.69	39.762
457.04	40.743
457.39	39.801
457.74	40.279
458.09	40.426
458.44	39.624
458.79	38.557
459.14	40.124
459.49	39.755
459.84	39.557
460.19	40.365
460.54	38.368
460.89	40.428
461.24	39.951
461.59	39.396
461.94	39.951
462.29	40.297
462.64	39.502
462.99	38.712
463.34	40.933
463.69	39.275
464.04	40.522
464.39	39.072
464.74	39.275
465.09	39.264
465.44	39.224
465.79	39.597
466.14	39.135
466.49	38.654
466.84	38.996
467.19	38.564
467.54	40.000
467.89	39.256
468.24	38.627
468.59	40.537
468.94	39.157
469.29	40.553
469.64	40.361
469.99	40.122
470.34	39.168
470.68	40.302
471.03	39.048
471.38	40.028
471.73	40.040
472.08	40.329
472.43	39.573
472.78	38.644
473.13	39.089
473.48	39.326
473.83	39.268
474.17	38.892
474.52	38.772
474.87	38.938
475.22	39.002
475.57	39.226
475.92	39.033
476.27	39.008
476.61	39.437
476.96	39.637
477.31	39.927
477.66	39.880
478.01	37.689
478.36	38.710
478.70	38.162
479.05	38.765
479.40	39.765
479.75	39.248
480.10	38.817
480.45	37.934
480.79	38.414
481.14	39.139
481.49	38.633
481.84	37.037
482.19	38.891
482.53	37.936
482.88	38.111
483.23	39.112
483.58	38.308
483.92	39.035
484.27	37.386
484.62	37.759
484.97	37.525
485.31	38.390
485.66	36.332
486.01	35.409
486.36	34.048
486.70	33.895
487.05	34.777
487.40	35.802
487.75	35.980
488.09	36.639
488.44	37.125
488.79	38.915
489.13	38.464
489.48	37.887
489.83	38.239
490.17	37.922
490.52	37.688
490.87	37.720
491.22	37.517
491.56	37.449
491.91	38.390
492.26	37.391
492.60	37.512
492.95	36.857
493.30	36.869
493.64	38.637
493.99	38.069
494.34	37.419
494.68	38.004
495.03	37.970
495.37	36.529
495.72	37.573
496.07	38.933
496.41	36.018
496.76	37.423
497.11	37.010
497.45	38.007
497.80	38.004
498.14	37.246
498.49	37.902
498.84	37.967
499.18	37.619
499.53	37.227
499.87	36.673
500.22	36.411
500.56	37.913
500.91	37.452
501.26	36.890
501.60	37.826
501.95	36.939
502.29	37.067
502.64	37.291
502.98	37.120
503.33	36.289
503.67	37.912
504.02	37.231
504.36	36.687
504.71	36.688
505.06	37.590
505.40	37.433
505.75	36.692
506.09	36.346
506.44	38.135
506.78	37.068
507.13	36.850
507.47	37.071
507.82	37.183
508.16	38.045
508.51	38.711
508.85	36.842
509.19	37.857
509.54	36.684
509.88	36.888
510.23	37.686
510.57	38.235
510.92	37.338
511.26	36.691
511.61	37.500
511.95	36.639
512.30	36.903
512.64	37.077
512.98	37.942
513.33	37.473
513.67	37.140
514.02	37.121
514.36	38.121
514.70	37.631
515.05	37.535
515.39	37.689
515.74	38.232
516.08	38.066
516.42	37.625
516.77	38.685
517.11	37.070
517.46	38.431
517.80	38.328
518.14	37.348
518.49	37.223
518.83	38.125
519.17	36.894
519.52	37.465
519.86	36.737
520.20	37.283
520.55	38.899
520.89	37.591
521.23	38.540
521.58	37.335
521.92	36.742
522.26	37.157
522.61	38.193
522.95	37.446
523.29	36.945
523.64	37.561
523.98	38.447
524.32	38.058
524.66	38.064
525.01	36.765
525.35	37.299
525.69	37.500
526.04	37.757
526.38	38.011
526.72	36.871
527.06	37.351
527.41	35.829
527.75	38.135
528.09	37.380
528.43	37.540
528.78	37.246
529.12	36.727
529.46	37.232
529.80	37.067
530.15	37.695
530.49	36.062
530.83	36.962
531.17	38.773
531.51	39.429
531.86	37.161
532.20	37.484
532.54	37.860
532.88	37.677
533.22	36.040
533.57	35.864
533.91	36.243
534.25	36.391
534.59	36.242
534.93	36.288
535.27	36.512
535.62	36.752
535.96	37.790
536.30	36.173
536.64	37.025
536.98	38.089
537.32	36.801
537.66	36.333
538.01	36.537
538.35	36.070
538.69	36.056
539.03	35.478
539.37	35.719
539.71	35.256
540.05	36.209
540.39	36.678
540.73	35.382
541.07	36.405
541.42	36.530
541.76	36.065
542.10	36.223
542.44	35.430
542.78	36.627
543.12	35.381
543.46	36.131
543.80	36.304
544.14	35.558
544.48	34.921
544.82	35.920
545.16	35.589
545.50	35.283
545.84	35.753
546.18	36.364
546.52	35.857
546.86	36.357
547.20	36.548
547.54	35.471
547.88	36.033
548.22	35.367
548.56	34.717
548.90	35.531
549.24	34.478
549.58	35.539
549.92	36.195
550.26	35.795
550.60	35.961
550.94	35.563
551.28	35.406
551.62	35.298
551.96	34.947
552.30	35.085
552.64	36.038
552.98	35.525
553.32	35.131
553.66	35.174
554.00	35.415
554.34	34.645
554.68	35.837
555.02	35.755
555.36	35.839
555.69	34.912
556.03	34.724
556.37	34.516
556.71	34.857
557.05	35.014
557.39	35.199
557.73	34.651
558.07	35.315
558.41	34.949
558.75	35.195
559.08	36.018
559.42	36.130
559.76	36.176
560.10	35.261
560.44	34.382
560.78	33.799
561.12	34.235
561.45	34.615
561.79	34.410
562.13	34.742
562.47	35.792
562.81	33.124
563.15	34.448
563.48	35.279
563.82	34.312
564.16	33.682
564.50	33.854
564.84	33.502
565.17	34.685
565.51	32.907
565.85	33.883
566.19	34.064
566.52	34.326
566.86	32.791
567.20	34.434
567.54	33.333
567.88	32.374
568.21	32.593
568.55	31.699
568.89	32.101
569.23	31.462
569.56	31.377
569.90	31.321
570.24	30.858
570.57	30.024
570.91	29.864
571.25	29.833
571.59	29.897
571.92	30.012
572.26	29.549
572.60	29.730
572.93	29.745
573.27	30.109
573.61	30.374
573.95	30.000
574.28	29.447
574.62	29.349
574.96	29.438
575.29	28.952
575.63	28.836
575.97	29.836
576.30	29.926
576.64	29.441
576.98	29.485
577.31	29.436
577.65	29.164
577.98	28.749
578.32	28.455
578.66	28.742
578.99	28.898
579.33	28.686
579.67	28.947
580.00	29.154
580.34	29.260
580.67	28.835
581.01	29.413
581.35	28.615
581.68	28.771
582.02	27.637
582.35	28.354
582.69	28.937
583.02	28.165
583.36	28.983
583.70	28.671
584.03	29.467
584.37	30.356
584.70	28.997
585.04	29.428
585.37	28.728
585.71	28.736
586.04	28.920
586.38	29.206
586.72	29.384
587.05	28.769
587.39	28.232
587.72	29.065
588.06	28.629
588.39	29.602
588.73	29.422
589.06	29.885
589.40	29.899
589.73	30.060
590.07	29.929
590.40	29.266
590.73	30.328
591.07	29.955
591.40	30.578
591.74	30.823
592.07	30.628
592.41	30.632
592.74	29.738
593.08	29.614
593.41	29.041
593.75	28.919
594.08	29.065
594.41	28.738
594.75	30.129
595.08	28.669
595.42	29.527
595.75	29.736
596.09	29.778
596.42	30.059
596.75	30.182
597.09	30.606
597.42	30.607
597.75	29.970
598.09	30.348
598.42	30.284
598.76	29.145
599.09	29.038
599.42	29.549
599.76	29.136
600.09	28.816
600.42	29.145
600.76	28.607
601.09	28.233
601.42	29.718
601.76	29.450
602.09	29.407
602.42	29.419
602.76	29.424
603.09	29.662
603.42	29.364
603.76	29.726
604.09	28.965
604.42	29.148
604.76	30.072
605.09	29.270
605.42	29.115
605.75	29.056
606.09	29.362
606.42	29.260
606.75	29.241
607.09	29.468
607.42	29.268
607.75	28.523
608.08	29.744
608.42	29.897
608.75	29.621
609.08	29.371
609.41	29.462
609.75	29.681
610.08	30.584
610.41	29.935
610.74	29.754
611.07	29.298
611.41	29.735
611.74	30.618
612.07	29.865
612.40	30.325
612.73	30.158
613.07	30.550
613.40	29.858
613.73	29.051
614.06	30.215
614.39	29.942
614.72	30.105
615.06	30.620
615.39	30.149
615.72	28.732
616.05	29.133
616.38	30.628
616.71	30.582
617.05	30.742
617.38	30.126
617.71	30.751
618.04	30.950
618.37	30.514
618.70	31.612
619.03	31.776
619.36	30.889
619.69	31.056
620.03	31.181
620.36	31.484
620.69	31.781
621.02	31.711
621.35	31.088
621.68	30.919
622.01	31.811
622.34	32.375
622.67	31.255
623.00	29.494
623.33	30.593
623.66	30.879
623.99	30.412
624.32	31.170
624.65	31.144
624.99	30.028
625.32	29.544
625.65	31.405
625.98	32.590
626.31	31.960
626.64	32.000
626.97	31.588
627.30	32.336
627.63	31.255
627.96	31.203
628.29	32.808
628.62	32.937
628.95	33.396
629.28	32.755
629.61	31.897
629.94	32.667
630.26	32.316
630.59	31.363
630.92	32.280
631.25	32.873
631.58	32.833
631.91	31.846
632.24	32.173
632.57	32.634
632.90	32.675
633.23	33.781
633.56	34.576
633.89	34.428
634.22	32.804
634.55	33.964
634.88	32.814
635.20	33.811
635.53	34.337
635.86	34.406
636.19	33.294
636.52	34.256
636.85	33.219
637.18	32.258
637.51	33.333
637.83	31.813
638.16	33.504
638.49	32.494
638.82	34.260
639.15	32.750
639.48	33.167
639.81	34.853
640.13	35.156
640.46	34.631
640.79	34.610
641.12	31.087
641.45	34.497
641.77	35.641
642.10	34.795
642.43	35.285
642.76	34.520
643.09	35.123
643.41	35.205
643.74	34.722
644.07	33.994
644.40	35.890
644.73	36.063
645.05	36.926
645.38	32.859
645.71	35.105
646.04	36.213
646.36	38.898
646.69	36.288
647.02	33.844
647.35	35.911
647.67	36.283
648.00	36.911
648.33	34.158
648.66	34.091
648.98	34.333
649.31	32.138
649.64	34.529
649.96	34.426
650.29	36.493
650.62	35.922
650.94	34.360
651.27	37.331
651.60	36.106
651.92	33.546
652.25	33.876
652.58	36.293
652.90	35.387
653.23	33.436
653.56	33.071
653.88	33.756
654.21	36.019
654.54	35.809
654.86	33.178
655.19	33.108
655.52	24.626
655.84	21.947
656.17	27.545
656.49	36.810
656.82	37.455
657.15	28.613
657.47	21.393
657.80	16.744
658.13	17.525
658.45	26.615
658.78	27.323
659.10	28.594
659.43	30.293
659.75	30.549
660.08	33.228
660.41	35.661
660.73	37.865
661.06	35.510
661.38	37.273
661.71	35.192
662.03	35.503
662.36	35.388
662.68	36.145
663.01	36.566
663.33	35.456
663.66	38.655
663.98	37.581
664.31	36.134
664.63	36.235
664.96	34.608
665.28	36.475
665.61	34.893
665.93	36.821
666.26	33.063
666.58	36.192
666.91	35.941
667.23	37.079
667.56	36.501
667.88	35.897
668.21	38.380
668.53	37.093
668.86	36.147
669.18	36.247
669.50	36.957
669.83	37.037
670.15	37.333
670.48	34.858
670.80	38.362
671.13	35.456
671.45	34.894
671.77	35.438
672.10	34.011
672.42	34.099
672.75	32.670
673.07	32.923
673.39	33.635
673.72	32.422
674.04	35.882
674.37	35.340
674.69	34.969
675.01	34.728
675.34	38.193
675.66	35.368
675.98	34.420
676.31	36.765
676.63	34.607
676.95	35.010
677.28	37.850
677.60	34.066
677.92	38.819
678.25	35.524
678.57	35.857
678.89	36.072
679.22	32.613
679.54	33.397
679.86	34.128
680.18	33.810
680.51	34.397
680.83	34.520
681.15	36.792
681.48	36.295
681.80	35.010
682.12	31.034
682.44	32.495
682.77	32.587
683.09	36.910
683.41	35.477
683.73	37.969
684.06	32.645
684.38	34.247
684.70	32.946
685.02	32.833
685.34	33.516
685.67	31.469
685.99	31.959
686.31	32.082
686.63	30.035
686.96	30.893
687.28	32.852
687.60	32.246
687.92	32.724
688.24	31.179
688.56	35.141
688.89	34.440
689.21	33.843
689.53	34.447
689.85	35.920
690.17	30.849
690.49	35.456
690.82	35.514
691.14	36.161
691.46	32.911
691.78	33.534
692.10	35.124
692.42	34.331
692.74	32.365
693.06	35.532
693.39	33.470
693.71	36.463
694.03	35.158
694.35	31.385
694.67	33.181
694.99	38.780
695.31	31.373
695.63	35.646
695.95	37.653
696.27	33.503
696.59	34.974
696.91	34.715
697.23	29.577
697.56	34.542
697.88	29.857
698.20	33.958
698.52	31.398
698.84	32.071
699.16	31.106
699.48	32.304
699.80	34.300
700.12	37.662
700.44	38.727
700.76	35.083
701.08	33.621
701.40	37.430
701.72	38.484
702.04	39.773
702.36	35.694
702.68	35.127
703.00	36.011
703.32	32.979
703.64	35.121
703.96	31.476
704.28	35.756
704.60	37.243
704.91	40.356
705.23	36.070
705.55	41.528
705.87	42.525
706.19	36.042
706.51	35.202
706.83	35.455
707.15	37.815
707.47	32.071
707.79	35.627
708.11	35.616
708.43	32.857
708.74	32.653
709.06	37.403
709.38	37.008
709.70	36.337
710.02	41.543
710.34	30.303
710.66	36.418
710.98	35.227
711.29	32.267
711.61	33.923
711.93	36.538
712.25	40.514
712.57	37.500
712.89	37.370
713.20	35.258
713.52	40.461
713.84	32.911
714.16	33.537
714.48	37.644
714.80	38.298
715.11	32.853
715.43	33.234
715.75	31.884
716.07	30.351
716.39	38.245
716.70	37.209
717.02	41.367
717.34	36.396
717.66	40.672
717.97	39.442
718.29	35.926
718.61	38.686
718.93	41.544
719.24	37.024
719.56	36.271
719.88	37.288
720.20	36.486
720.51	37.282
720.83	37.175
721.15	35.821
721.46	35.461
721.78	39.427
722.10	37.736
722.42	42.481
722.73	35.206
723.05	38.525
723.37	34.008
723.68	36.680
724.00	40.650
724.32	39.113
724.63	35.366
724.95	40.167
725.27	41.296
725.58	35.937
725.90	35.766
726.22	40.000
726.53	34.028
726.85	37.201
727.16	38.434
727.48	37.234
727.80	39.773
728.11	36.232
728.43	36.923
728.74	34.767
729.06	39.416
729.38	41.544
729.69	36.655
730.01	35.495
730.32	32.986
730.64	36.455
730.96	33.663
731.27	37.086
731.59	35.780
731.90	34.985
732.22	32.298
732.53	34.365
732.85	35.256
733.16	34.405
733.48	32.890
733.80	36.039
734.11	34.713
734.43	34.615
734.74	30.571
735.06	32.951
735.37	36.994
735.69	30.892
736.00	36.275
736.32	36.449
736.63	33.866
736.95	34.824
737.26	29.592
737.58	31.935
737.89	35.452
738.21	35.154
738.52	35.714
738.83	33.585
739.15	34.615
739.46	33.942
739.78	37.500
740.09	34.769
740.41	36.774
740.72	34.146
741.04	38.519
741.35	34.167
741.66	38.222
741.98	39.623
742.29	39.713
742.61	38.362
742.92	37.557
743.23	41.880
743.55	37.200
743.86	38.158
744.18	37.611
744.49	46.411
744.80	39.906
745.12	42.273
745.43	37.445
745.74	42.342
746.06	44.954
746.37	39.013
746.68	36.652
747.00	39.815
747.31	39.048
747.62	32.301
747.94	38.326
748.25	39.574
748.56	37.004
748.88	33.663
749.19	41.500
749.50	34.419
749.82	39.431
750.13	34.286
750.44	33.577
750.75	34.386
751.07	36.334
751.38	34.146
751.69	36.823
752.01	33.083
752.32	33.935
752.63	38.652
752.94	35.656
753.26	37.200
753.57	34.553
753.88	39.063
754.19	34.286
754.51	37.847
754.82	32.491
755.13	34.340
755.44	33.835
755.75	32.482
756.07	32.979
756.38	34.672
756.69	34.228
757.00	33.234
757.31	33.531
757.63	31.579
757.94	31.635
758.25	29.412
758.56	31.605
758.87	31.452
759.18	33.030
759.50	31.348
759.81	33.333
760.12	28.125
760.43	32.665
760.74	30.435
761.05	33.616
761.36	30.749
761.67	30.114
761.99	32.919
762.30	32.986
762.61	37.023
762.92	32.422
763.23	39.076
763.54	41.600
763.85	37.109
764.16	38.077
764.47	33.840
764.78	27.915
765.10	33.861
765.41	32.448
765.72	34.431
766.03	32.915
766.34	30.333
766.65	41.702
766.96	41.880
767.27	39.086
767.58	38.542
767.89	42.632
768.20	38.506
768.51	37.056
768.82	35.780
769.13	34.959
769.44	29.960
769.75	36.481
770.06	33.028
770.37	33.937
770.68	37.500
770.99	36.444
771.30	31.557
771.61	38.117
771.92	36.475
772.23	39.916
772.54	39.487
772.85	38.220
773.16	39.894
773.47	36.413
773.78	46.193
774.09	36.905
774.39	45.029
774.70	40.123
775.01	45.652
775.32	54.248
775.63	44.737
775.94	38.129
776.25	40.945
776.56	44.776
776.87	45.082
777.18	46.875
777.48	54.962
777.79	53.030
778.10	54.074
778.41	58.036
778.72	44.526
779.03	38.255
779.34	42.953
779.65	32.432
779.95	43.558
780.26	46.405
780.57	44.138
780.88	49.219
781.19	41.353
781.50	43.919
781.80	39.623
782.11	37.853
782.42	41.139
782.73	39.877
783.04	37.838
783.34	45.775
783.65	47.945
783.96	52.985
784.27	37.762
784.57	36.691
784.88	45.370
785.19	57.143
785.50	53.774
785.81	58.209
786.11	51.639
786.42	47.287
786.73	51.327
787.04	54.717
787.34	56.250
787.65	57.000
787.96	45.045
788.26	44.628
788.57	46.610
788.88	56.198
789.19	46.528
789.49	47.727
789.80	42.748
790.11	61.905
790.41	59.406
790.72	48.193
791.03	46.739
791.33	60.465
791.64	60.825
791.95	57.426
792.25	47.778
792.56	57.143
792.87	78.205
793.17	64.557
793.48	70.115
793.79	50.575
794.09	60.227
794.40	49.580
794.70	45.588
795.01	38.519
795.32	35.971
795.62	42.520
795.93	45.690
796.23	47.788
796.54	50.588
796.85	55.405
797.15	73.239
797.46	63.636
797.76	62.651
798.07	49.367
798.37	44.615
798.68	48.485
798.99	59.155
799.29	62.338
799.60	48.864
799.90	64.384
800.21	61.194
800.51	65.517
800.82	66.667
801.12	72.131
801.43	57.576
801.73	59.459
802.04	71.429
802.34	59.259
802.65	64.063
802.95	74.576
803.26	82.813
803.56	57.143
803.87	64.615
804.17	69.118
804.48	85.185
804.78	63.793
805.09	58.824
805.39	76.923
805.70	73.214
806.00	88.525
806.30	56.061
806.61	74.390
806.91	64.557
807.22	56.579
807.52	58.209
807.83	64.789
808.13	59.375
808.43	73.333
808.74	60.526
809.04	78.261
809.35	73.134
809.65	60.526
809.95	98.387
810.26	74.576
810.56	73.016
810.86	104.545
811.17	121.429
811.47	76.667
811.77	59.259
812.08	81.818
812.38	100.000
812.69	77.778
812.99	111.364
813.29	95.918
813.59	47.619
813.90	95.918
814.20	70.909
814.50	53.846
814.81	72.059
815.11	100.000
815.41	72.131
815.72	90.476
816.02	78.182
816.32	69.048
816.62	75.000
816.93	87.805
817.23	85.714
817.53	88.636
817.84	93.939
818.14	100.000
818.44	95.556
818.74	100.000
819.04	90.000
819.35	82.857
819.65	105.882
819.95	139.286
820.25	100.000
820.56	94.872
820.86	113.636
821.16	111.628
821.46	105.128
821.76	86.000
822.07	122.857
822.37	112.500
822.67	93.939
822.97	84.314
823.27	132.143
823.57	100.000
823.88	117.500
824.18	136.667
824.48	92.857
824.78	128.000
825.08	116.667
825.38	94.595
825.69	97.561
825.99	133.333
826.29	96.552
826.59	100.000
826.89	97.368
827.19	120.588
827.49	135.484
827.79	79.545
828.09	79.545
828.39	91.489
828.70	93.878
829.00	92.593
829.30	106.452
829.60	75.000
829.90	113.333
830.20	142.857
830.50	126.087
830.80	134.783
831.10	156.667
831.40	156.667
831.70	100.000
832.00	153.846
832.30	92.593
832.60	212.500
832.90	103.333
833.20	271.429
833.50	106.452
833.80	134.483
834.10	118.750
834.40	119.231
834.70	244.444
835.00	161.905
835.30	105.714
835.60	230.769
835.90	144.828
836.20	207.143
836.50	113.793
836.80	108.000
837.10	102.778
837.40	142.857
837.70	176.471
838.00	155.556
838.30	142.857
838.60	157.143
838.90	150.000
839.19	145.000
839.49	250.000
839.79	225.000
840.09	190.000
840.39	204.762
840.69	186.957
840.99	138.889
841.29	290.000
841.59	166.667
841.88	243.750
842.18	134.483
842.48	128.571
842.78	116.667
843.08	169.565
843.38	140.625
843.68	466.667
843.97	173.077
844.27	106.897
844.57	161.905
844.87	212.500
845.17	133.333
845.47	700.000
845.76	111.111
846.06	200.000
846.36	175.000
846.66	264.286
846.96	193.750
847.25	200.000
847.55	272.727
847.85	204.348
848.15	260.000
848.44	185.714
848.74	150.000
849.04	117.647
849.34	260.000
849.63	73.684
849.93	254.545
850.23	640.000
850.53	264.286
850.82	1300.000
851.12	-2000.000
851.42	2900.000
851.71	135.000
852.01	-766.667
852.31	183.333
852.61	1100.000
852.90	147.619
853.20	136.000
853.50	123.529
853.79	119.048
854.09	120.833
854.39	200.000
854.68	110.811
854.98	132.258
855.28	90.000
855.57	137.931
855.87	129.630
856.17	142.105
856.46	120.000
856.76	117.647
857.05	131.034
857.35	137.500
857.65	180.000
857.94	156.522
858.24	157.692
858.53	190.000
858.83	118.182
859.13	206.667
859.42	0.000
859.72	344.444
860.01	309.091
860.31	209.091
860.60	142.105
860.90	152.174
861.20	288.889
861.49	316.667
861.79	-3300.000
862.08	387.500
862.38	166.667
862.67	246.154
862.97	229.412
863.26	322.222
863.56	127.778
863.85	241.667
864.15	337.500
864.44	293.333
864.74	516.667
865.03	375.000
865.33	168.421
865.62	318.182
865.92	269.231
866.21	241.667
866.51	0.000
866.80	281.818
867.10	640.000
867.39	315.385
867.69	263.636
867.98	168.421
868.27	254.545
868.57	178.947
868.86	-3000.000
869.16	225.000
869.45	1100.000
869.75	-2300.000
870.04	275.000
870.33	400.000
870.63	425.000
870.92	1550.000
871.22	485.714
871.51	194.118
871.80	119.048
872.10	185.714
>>>>>End Processed Spectral Data<<<<<
