SpectraSuite Data File
++++++++++++++++++++++++++++++++++++
Date: Wed May 13 16:05:32 PDT 2015
User: schluterlab
Dark Spectrum Present: Yes
Reference Spectrum Present: Yes
Number of Sampled Component Spectra: 1
Spectrometers: USB2E3373
Integration Time (usec): 3000 (USB2E3373)
Spectra Averaged: 3 (USB2E3373)
Boxcar Smoothing: 0 (USB2E3373)
Correct for Electrical Dark: No (USB2E3373)
Strobe/Lamp Enabled: No (USB2E3373)
Correct for Detector Non-linearity: No (USB2E3373)
Correct for Stray Light: No (USB2E3373)
Number of Pixels in Processed Spectrum: 2048
>>>>>Begin Processed Spectral Data<<<<<
178.53	0.000
178.91	-800.000
179.29	-725.000
179.67	-105.556
180.04	-850.000
180.42	1200.000
180.80	560.000
181.18	-700.000
181.56	471.429
181.94	0.000
182.31	-285.714
182.69	1000.000
183.07	-237.500
183.45	-311.111
183.83	327.273
184.20	-210.000
184.58	900.000
184.96	3200.000
185.34	-400.000
185.72	-300.000
186.09	-1600.000
186.47	1800.000
186.85	1500.000
187.23	2600.000
187.61	-833.333
187.98	850.000
188.36	336.364
188.74	290.909
189.12	-360.000
189.49	400.000
189.87	-3000.000
190.25	-725.000
190.63	221.429
191.00	184.615
191.38	400.000
191.76	-525.000
192.14	550.000
192.51	362.500
192.89	600.000
193.27	262.500
193.65	-700.000
194.02	210.000
194.40	520.000
194.78	290.000
195.15	250.000
195.53	330.000
195.91	-1250.000
196.29	237.500
196.66	236.842
197.04	-120.000
197.42	0.000
197.79	400.000
198.17	-2900.000
198.55	371.429
198.92	412.500
199.30	440.000
199.68	0.000
200.05	205.556
200.43	528.571
200.81	3700.000
201.18	1000.000
201.56	-766.667
201.94	266.667
202.31	311.111
202.69	166.667
203.07	320.000
203.44	0.000
203.82	750.000
204.19	500.000
204.57	285.714
204.95	325.000
205.32	700.000
205.70	336.364
206.08	207.143
206.45	1450.000
206.83	243.750
207.20	600.000
207.58	160.000
207.96	200.000
208.33	362.500
208.71	-500.000
209.08	385.714
209.46	466.667
209.84	281.818
210.21	-633.333
210.59	800.000
210.96	-125.000
211.34	1100.000
211.71	400.000
212.09	416.667
212.46	0.000
212.84	733.333
213.22	700.000
213.59	-2100.000
213.97	500.000
214.34	485.714
214.72	336.364
215.09	740.000
215.47	-1400.000
215.84	-1350.000
216.22	1066.667
216.59	221.429
216.97	725.000
217.34	290.909
217.72	-316.667
218.09	0.000
218.47	-2800.000
218.84	255.556
219.22	428.571
219.59	1033.333
219.97	-300.000
220.34	500.000
220.72	-1266.667
221.09	242.857
221.47	825.000
221.84	-416.667
222.22	0.000
222.59	700.000
222.97	-1350.000
223.34	740.000
223.72	192.308
224.09	620.000
224.46	1400.000
224.84	-3500.000
225.21	-660.000
225.59	-1900.000
225.96	340.000
226.34	155.000
226.71	1200.000
227.08	375.000
227.46	250.000
227.83	-475.000
228.21	-750.000
228.58	333.333
228.95	-1500.000
229.33	-750.000
229.70	1000.000
230.08	428.571
230.45	-400.000
230.82	275.000
231.20	450.000
231.57	414.286
231.95	283.333
232.32	127.273
232.69	172.727
233.07	442.857
233.44	169.231
233.81	-1000.000
234.19	152.632
234.56	233.333
234.93	208.333
235.31	300.000
235.68	138.462
236.05	178.571
236.43	106.061
236.80	126.316
237.17	2600.000
237.55	109.524
237.92	107.143
238.29	114.286
238.67	74.194
239.04	82.759
239.41	77.778
239.79	41.304
240.16	78.571
240.53	61.364
240.91	49.020
241.28	56.000
241.65	40.000
242.02	43.478
242.40	29.032
242.77	33.333
243.14	44.086
243.51	38.202
243.89	25.882
244.26	18.889
244.63	25.806
245.00	26.596
245.38	25.743
245.75	14.019
246.12	21.101
246.49	26.277
246.87	33.600
247.24	26.923
247.61	23.571
247.98	21.569
248.36	12.162
248.73	21.656
249.10	23.567
249.47	16.384
249.84	19.786
250.22	16.043
250.59	10.651
250.96	21.212
251.33	15.166
251.70	19.802
252.08	13.333
252.45	15.247
252.82	14.348
253.19	13.617
253.56	13.725
253.94	17.427
254.31	14.062
254.68	15.000
255.05	12.915
255.42	12.602
255.79	12.500
256.16	11.913
256.54	8.481
256.91	11.388
257.28	4.676
257.65	13.201
258.02	11.801
258.39	12.618
258.76	10.033
259.14	11.012
259.51	11.550
259.88	7.764
260.25	7.553
260.62	10.983
260.99	9.938
261.36	9.610
261.73	7.163
262.10	8.721
262.47	9.577
262.85	9.749
263.22	5.128
263.59	10.826
263.96	7.967
264.33	10.705
264.70	9.474
265.07	9.719
265.44	8.081
265.81	7.786
266.18	6.281
266.55	5.854
266.92	7.371
267.29	8.102
267.66	7.339
268.03	7.273
268.40	6.776
268.77	7.160
269.14	6.982
269.51	8.578
269.88	7.226
270.25	6.772
270.62	5.618
270.99	9.677
271.36	8.798
271.73	6.075
272.10	5.652
272.47	9.032
272.84	8.225
273.21	9.224
273.58	4.148
273.95	6.080
274.32	7.231
274.69	6.852
275.06	6.299
275.43	7.021
275.80	6.413
276.17	6.314
276.54	7.277
276.91	8.103
277.28	6.641
277.65	7.350
278.02	5.797
278.39	7.422
278.76	6.545
279.13	6.792
279.50	7.076
279.87	5.976
280.23	3.194
280.60	4.449
280.97	4.991
281.34	6.195
281.71	7.091
282.08	6.718
282.45	5.455
282.82	7.993
283.19	3.209
283.56	5.965
283.92	7.614
284.29	5.996
284.66	6.171
285.03	5.244
285.40	7.042
285.77	6.397
286.14	6.218
286.51	5.000
286.87	7.863
287.24	6.515
287.61	5.457
287.98	6.169
288.35	5.388
288.72	5.763
289.08	6.729
289.45	5.601
289.82	7.642
290.19	5.651
290.56	4.441
290.93	4.230
291.29	6.135
291.66	4.867
292.03	8.721
292.40	6.755
292.77	5.621
293.13	5.821
293.50	6.122
293.87	6.519
294.24	4.296
294.60	4.367
294.97	5.814
295.34	5.360
295.71	5.114
296.08	5.128
296.44	5.365
296.81	5.680
297.18	6.911
297.55	4.222
297.91	6.332
298.28	5.756
298.65	6.266
299.02	5.270
299.38	5.578
299.75	2.291
300.12	5.747
300.48	5.250
300.85	5.425
301.22	4.713
301.59	4.924
301.95	5.416
302.32	4.493
302.69	6.213
303.05	5.091
303.42	4.074
303.79	6.002
304.15	3.730
304.52	3.592
304.89	4.994
305.25	4.524
305.62	6.002
305.99	4.841
306.35	4.698
306.72	5.045
307.09	6.437
307.45	5.968
307.82	4.018
308.19	5.960
308.55	6.041
308.92	4.511
309.29	4.118
309.65	4.984
310.02	5.180
310.38	4.946
310.75	4.963
311.12	5.015
311.48	5.643
311.85	5.451
312.22	4.891
312.58	5.405
312.95	5.597
313.31	4.078
313.68	5.405
314.05	7.199
314.41	5.427
314.78	4.532
315.14	5.958
315.51	5.046
315.87	5.050
316.24	5.462
316.61	4.873
316.97	4.501
317.34	3.718
317.70	5.641
318.07	5.582
318.43	4.403
318.80	6.186
319.16	4.896
319.53	3.846
319.89	6.762
320.26	5.200
320.62	5.159
320.99	5.455
321.35	5.657
321.72	5.133
322.08	5.824
322.45	6.070
322.81	5.329
323.18	5.780
323.54	5.102
323.91	5.943
324.27	5.258
324.64	4.846
325.00	4.238
325.37	5.278
325.73	6.373
326.10	5.031
326.46	5.645
326.83	5.091
327.19	5.892
327.56	4.355
327.92	5.687
328.29	6.122
328.65	5.617
329.01	6.227
329.38	3.885
329.74	4.617
330.11	4.147
330.47	5.326
330.84	6.618
331.20	4.736
331.56	5.413
331.93	4.352
332.29	5.413
332.66	5.044
333.02	4.936
333.38	4.607
333.75	5.882
334.11	5.694
334.48	5.058
334.84	4.779
335.20	5.727
335.57	3.898
335.93	4.554
336.29	4.396
336.66	5.140
337.02	4.525
337.38	4.074
337.75	5.437
338.11	4.476
338.47	4.512
338.84	5.775
339.20	3.486
339.56	5.201
339.93	4.455
340.29	5.072
340.65	4.902
341.02	4.799
341.38	5.516
341.74	4.561
342.11	4.105
342.47	5.374
342.83	5.822
343.20	5.541
343.56	4.381
343.92	4.123
344.28	3.912
344.65	5.503
345.01	4.040
345.37	3.602
345.73	5.499
346.10	4.007
346.46	4.661
346.82	4.283
347.19	4.010
347.55	3.859
347.91	4.612
348.27	5.177
348.63	4.431
349.00	4.935
349.36	3.941
349.72	4.892
350.08	4.538
350.45	5.452
350.81	4.712
351.17	4.538
351.53	4.668
351.89	3.465
352.26	5.130
352.62	4.651
352.98	4.700
353.34	5.012
353.70	4.010
354.07	4.677
354.43	4.206
354.79	3.701
355.15	3.911
355.51	4.876
355.87	5.143
356.24	4.153
356.60	4.090
356.96	3.862
357.32	4.007
357.68	4.724
358.04	4.909
358.40	5.622
358.77	5.399
359.13	4.499
359.49	4.157
359.85	3.333
360.21	3.270
360.57	4.125
360.93	4.538
361.29	3.779
361.66	3.560
362.02	4.627
362.38	3.422
362.74	4.167
363.10	4.071
363.46	3.155
363.82	4.233
364.18	4.919
364.54	4.829
364.90	4.745
365.26	4.191
365.62	4.310
365.98	4.237
366.35	3.653
366.71	4.194
367.07	3.642
367.43	3.919
367.79	4.211
368.15	4.598
368.51	3.852
368.87	4.354
369.23	4.243
369.59	4.417
369.95	3.162
370.31	3.989
370.67	4.420
371.03	4.419
371.39	4.009
371.75	4.265
372.11	4.054
372.47	5.132
372.83	4.035
373.19	3.396
373.55	3.548
373.91	3.903
374.27	4.192
374.63	4.218
374.99	5.438
375.35	3.280
375.71	4.112
376.07	5.350
376.42	3.576
376.78	3.844
377.14	4.071
377.50	4.172
377.86	3.923
378.22	5.183
378.58	3.822
378.94	3.520
379.30	3.562
379.66	4.695
380.02	4.730
380.38	4.311
380.74	3.842
381.09	4.462
381.45	4.118
381.81	4.853
382.17	4.713
382.53	3.648
382.89	4.383
383.25	3.815
383.61	4.771
383.97	4.628
384.32	4.367
384.68	3.841
385.04	4.302
385.40	4.272
385.76	4.300
386.12	4.145
386.48	4.720
386.83	4.169
387.19	5.318
387.55	5.071
387.91	4.897
388.27	4.721
388.62	5.101
388.98	4.054
389.34	5.131
389.70	4.844
390.06	4.626
390.42	4.345
390.77	5.407
391.13	4.340
391.49	4.695
391.85	3.374
392.20	3.659
392.56	4.230
392.92	4.650
393.28	3.787
393.64	4.736
393.99	5.131
394.35	4.404
394.71	4.768
395.07	4.237
395.42	4.450
395.78	5.471
396.14	4.407
396.50	5.952
396.85	5.022
397.21	4.377
397.57	4.712
397.92	4.808
398.28	3.924
398.64	4.540
399.00	5.204
399.35	4.794
399.71	5.150
400.07	5.145
400.42	4.908
400.78	5.308
401.14	4.390
401.49	4.657
401.85	4.295
402.21	4.551
402.57	4.195
402.92	5.170
403.28	5.122
403.63	4.455
403.99	4.331
404.35	4.182
404.70	4.317
405.06	4.543
405.42	4.741
405.77	4.000
406.13	5.192
406.49	5.027
406.84	5.375
407.20	3.723
407.55	4.276
407.91	4.533
408.27	3.957
408.62	4.877
408.98	4.902
409.34	4.428
409.69	4.839
410.05	4.709
410.40	5.015
410.76	4.421
411.11	5.187
411.47	3.706
411.83	5.009
412.18	4.391
412.54	4.670
412.89	4.940
413.25	5.195
413.60	5.374
413.96	4.493
414.31	4.678
414.67	5.070
415.03	4.437
415.38	4.832
415.74	4.437
416.09	4.572
416.45	4.150
416.80	4.164
417.16	5.027
417.51	5.176
417.87	5.331
418.22	4.984
418.58	5.358
418.93	5.835
419.29	4.710
419.64	5.479
420.00	4.634
420.35	4.812
420.71	5.320
421.06	4.773
421.42	4.620
421.77	4.709
422.12	4.380
422.48	3.616
422.83	5.125
423.19	4.641
423.54	4.701
423.90	5.101
424.25	4.969
424.61	4.762
424.96	4.956
425.31	4.817
425.67	4.157
426.02	4.400
426.38	4.701
426.73	3.920
427.09	4.438
427.44	5.060
427.79	4.198
428.15	5.417
428.50	4.681
428.85	5.244
429.21	4.307
429.56	4.666
429.92	4.781
430.27	4.568
430.62	4.352
430.98	4.930
431.33	5.670
431.68	4.398
432.04	4.739
432.39	4.226
432.74	4.548
433.10	4.754
433.45	4.606
433.80	4.545
434.16	4.701
434.51	4.842
434.86	5.359
435.22	3.947
435.57	4.863
435.92	4.623
436.28	5.516
436.63	5.519
436.98	4.865
437.34	5.605
437.69	5.076
438.04	4.778
438.39	4.597
438.75	4.707
439.10	4.916
439.45	4.368
439.81	4.713
440.16	4.743
440.51	4.569
440.86	5.096
441.22	4.616
441.57	5.149
441.92	4.555
442.27	4.736
442.63	4.792
442.98	5.014
443.33	5.707
443.68	5.318
444.03	4.392
444.39	3.797
444.74	4.762
445.09	5.013
445.44	4.975
445.79	4.602
446.15	5.400
446.50	4.523
446.85	4.111
447.20	4.793
447.55	5.137
447.91	4.523
448.26	5.231
448.61	4.862
448.96	5.260
449.31	5.006
449.66	5.290
450.02	4.290
450.37	4.478
450.72	4.569
451.07	4.631
451.42	3.647
451.77	5.109
452.12	4.965
452.47	4.975
452.83	4.604
453.18	5.134
453.53	5.442
453.88	4.194
454.23	5.439
454.58	5.209
454.93	6.103
455.28	4.551
455.63	4.612
455.98	5.774
456.34	4.837
456.69	5.135
457.04	5.449
457.39	4.851
457.74	4.643
458.09	5.405
458.44	4.675
458.79	4.555
459.14	5.192
459.49	4.553
459.84	4.875
460.19	4.420
460.54	4.977
460.89	4.937
461.24	5.039
461.59	6.217
461.94	4.809
462.29	5.282
462.64	4.722
462.99	4.424
463.34	5.200
463.69	5.316
464.04	5.391
464.39	4.986
464.74	4.635
465.09	4.946
465.44	4.598
465.79	4.083
466.14	4.981
466.49	4.171
466.84	5.429
467.19	5.794
467.54	5.375
467.89	5.102
468.24	5.177
468.59	5.128
468.94	4.643
469.29	5.013
469.64	5.422
469.99	4.533
470.34	4.822
470.68	5.603
471.03	5.918
471.38	5.003
471.73	5.396
472.08	6.250
472.43	5.465
472.78	5.727
473.13	5.584
473.48	4.619
473.83	5.732
474.17	4.605
474.52	5.273
474.87	5.546
475.22	4.759
475.57	4.890
475.92	4.620
476.27	5.355
476.61	5.019
476.96	4.343
477.31	4.814
477.66	4.540
478.01	4.443
478.36	5.553
478.70	4.258
479.05	4.792
479.40	5.015
479.75	5.491
480.10	4.324
480.45	4.855
480.79	4.826
481.14	5.088
481.49	5.505
481.84	4.938
482.19	4.861
482.53	4.541
482.88	5.026
483.23	4.579
483.58	4.823
483.92	5.201
484.27	4.096
484.62	4.224
484.97	4.415
485.31	4.521
485.66	3.933
486.01	3.721
486.36	3.481
486.70	3.331
487.05	3.654
487.40	3.652
487.75	4.025
488.09	4.186
488.44	4.169
488.79	3.942
489.13	4.431
489.48	4.853
489.83	4.186
490.17	4.253
490.52	4.650
490.87	4.613
491.22	4.229
491.56	3.872
491.91	4.793
492.26	4.042
492.60	5.207
492.95	4.397
493.30	4.579
493.64	4.386
493.99	4.457
494.34	4.672
494.68	4.716
495.03	4.887
495.37	4.793
495.72	4.386
496.07	4.919
496.41	4.248
496.76	4.749
497.11	4.773
497.45	4.332
497.80	4.655
498.14	3.961
498.49	4.146
498.84	4.794
499.18	4.429
499.53	4.748
499.87	4.753
500.22	5.134
500.56	5.000
500.91	4.135
501.26	4.552
501.60	4.983
501.95	5.041
502.29	4.545
502.64	4.795
502.98	4.628
503.33	4.982
503.67	4.594
504.02	4.724
504.36	4.913
504.71	4.494
505.06	4.771
505.40	5.056
505.75	4.918
506.09	5.053
506.44	4.193
506.78	5.017
507.13	4.291
507.47	5.253
507.82	5.167
508.16	3.951
508.51	4.617
508.85	4.916
509.19	4.388
509.54	4.796
509.88	4.534
510.23	4.936
510.57	5.573
510.92	4.868
511.26	4.779
511.61	4.512
511.95	5.271
512.30	4.878
512.64	5.105
512.98	5.359
513.33	5.032
513.67	5.069
514.02	5.141
514.36	5.025
514.70	4.206
515.05	4.685
515.39	4.823
515.74	5.405
516.08	5.310
516.42	5.716
516.77	5.741
517.11	5.383
517.46	5.700
517.80	5.168
518.14	4.632
518.49	5.893
518.83	4.943
519.17	5.081
519.52	5.150
519.86	5.248
520.20	5.549
520.55	6.164
520.89	5.779
521.23	5.066
521.58	5.522
521.92	5.144
522.26	4.759
522.61	5.421
522.95	5.157
523.29	5.173
523.64	5.305
523.98	6.161
524.32	5.971
524.66	6.073
525.01	5.208
525.35	5.266
525.69	4.988
526.04	6.293
526.38	5.918
526.72	5.460
527.06	5.524
527.41	5.198
527.75	5.723
528.09	5.716
528.43	5.417
528.78	6.208
529.12	5.333
529.46	5.389
529.80	6.498
530.15	6.168
530.49	6.031
530.83	6.013
531.17	6.201
531.51	5.837
531.86	5.355
532.20	6.063
532.54	6.278
532.88	5.841
533.22	5.621
533.57	5.864
533.91	5.479
534.25	5.103
534.59	5.308
534.93	5.294
535.27	5.190
535.62	5.678
535.96	5.901
536.30	5.404
536.64	6.697
536.98	6.370
537.32	5.464
537.66	5.867
538.01	5.793
538.35	6.270
538.69	6.828
539.03	5.068
539.37	4.856
539.71	4.342
540.05	5.882
540.39	5.648
540.73	4.787
541.07	6.100
541.42	4.827
541.76	6.065
542.10	6.274
542.44	5.960
542.78	6.258
543.12	5.118
543.46	5.770
543.80	5.986
544.14	4.942
544.48	5.905
544.82	5.516
545.16	5.205
545.50	5.013
545.84	4.906
546.18	5.253
546.52	5.162
546.86	5.086
547.20	5.732
547.54	6.012
547.88	5.804
548.22	5.853
548.56	5.723
548.90	4.866
549.24	4.377
549.58	5.593
549.92	4.602
550.26	5.611
550.60	5.394
550.94	5.211
551.28	4.535
551.62	5.967
551.96	5.474
552.30	6.280
552.64	6.288
552.98	5.898
553.32	6.001
553.66	6.067
554.00	6.383
554.34	5.176
554.68	5.866
555.02	6.206
555.36	5.706
555.69	5.548
556.03	5.720
556.37	6.071
556.71	5.184
557.05	5.602
557.39	6.088
557.73	5.011
558.07	5.874
558.41	6.151
558.75	6.025
559.08	5.667
559.42	5.593
559.76	6.324
560.10	5.853
560.44	5.730
560.78	5.057
561.12	5.211
561.45	5.997
561.79	5.603
562.13	4.963
562.47	4.918
562.81	4.812
563.15	5.284
563.48	5.504
563.82	4.827
564.16	5.363
564.50	5.143
564.84	5.689
565.17	5.405
565.51	5.687
565.85	5.266
566.19	5.072
566.52	5.193
566.86	5.124
567.20	5.660
567.54	5.537
567.88	4.997
568.21	5.132
568.55	5.511
568.89	4.815
569.23	4.635
569.56	4.980
569.90	4.830
570.24	4.485
570.57	4.692
570.91	4.363
571.25	4.663
571.59	4.507
571.92	4.205
572.26	4.275
572.60	4.444
572.93	4.438
573.27	4.525
573.61	4.662
573.95	4.367
574.28	3.995
574.62	4.130
574.96	4.134
575.29	4.098
575.63	4.040
575.97	4.322
576.30	4.939
576.64	3.917
576.98	3.816
577.31	4.067
577.65	4.148
577.98	4.061
578.32	3.832
578.66	3.941
578.99	4.017
579.33	3.897
579.67	3.989
580.00	4.100
580.34	4.295
580.67	4.183
581.01	4.340
581.35	3.907
581.68	4.110
582.02	4.076
582.35	4.087
582.69	3.998
583.02	3.955
583.36	4.058
583.70	3.921
584.03	4.258
584.37	4.321
584.70	3.945
585.04	4.428
585.37	4.101
585.71	4.417
586.04	4.639
586.38	4.180
586.72	4.474
587.05	4.265
587.39	4.116
587.72	4.303
588.06	4.082
588.39	4.444
588.73	4.312
589.06	4.612
589.40	4.074
589.73	4.752
590.07	4.484
590.40	4.238
590.73	4.450
591.07	4.477
591.40	4.808
591.74	5.281
592.07	4.538
592.41	4.837
592.74	5.131
593.08	4.763
593.41	4.524
593.75	4.060
594.08	4.995
594.41	4.737
594.75	4.510
595.08	4.331
595.42	4.343
595.75	4.131
596.09	5.032
596.42	4.754
596.75	5.023
597.09	5.281
597.42	4.469
597.75	4.830
598.09	5.261
598.42	4.596
598.76	4.986
599.09	4.523
599.42	4.985
599.76	4.466
600.09	4.262
600.42	4.894
600.76	4.679
601.09	4.590
601.42	4.224
601.76	4.820
602.09	4.822
602.42	4.896
602.76	5.119
603.09	5.114
603.42	4.608
603.76	4.878
604.09	4.033
604.42	4.240
604.76	5.019
605.09	4.806
605.42	5.088
605.75	4.925
606.09	4.148
606.42	4.454
606.75	4.853
607.09	5.400
607.42	4.450
607.75	4.515
608.08	4.559
608.42	5.199
608.75	5.140
609.08	5.227
609.41	5.045
609.75	4.859
610.08	4.901
610.41	4.655
610.74	4.447
611.07	4.397
611.41	5.005
611.74	5.430
612.07	5.124
612.40	4.984
612.73	4.895
613.07	5.496
613.40	5.424
613.73	5.087
614.06	4.785
614.39	5.768
614.72	4.947
615.06	5.305
615.39	4.777
615.72	5.266
616.05	5.104
616.38	5.170
616.71	4.751
617.05	5.359
617.38	5.292
617.71	5.946
618.04	5.589
618.37	4.790
618.70	5.352
619.03	5.724
619.36	4.752
619.69	5.563
620.03	6.113
620.36	6.484
620.69	6.712
621.02	6.342
621.35	5.560
621.68	5.919
622.01	6.424
622.34	5.219
622.67	5.703
623.00	5.209
623.33	6.004
623.66	5.575
623.99	5.817
624.32	5.421
624.65	5.438
624.99	5.524
625.32	4.127
625.65	6.161
625.98	5.842
626.31	6.921
626.64	6.204
626.97	5.486
627.30	5.320
627.63	6.727
627.96	5.887
628.29	6.037
628.62	6.221
628.95	6.792
629.28	6.022
629.61	6.508
629.94	6.381
630.26	6.006
630.59	5.910
630.92	5.172
631.25	5.035
631.58	6.507
631.91	5.882
632.24	4.958
632.57	7.240
632.90	6.140
633.23	5.817
633.56	6.215
633.89	5.776
634.22	7.378
634.55	7.811
634.88	5.269
635.20	6.093
635.53	7.108
635.86	6.436
636.19	5.529
636.52	6.805
636.85	5.384
637.18	5.184
637.51	8.156
637.83	4.809
638.16	7.033
638.49	7.683
638.82	7.712
639.15	6.500
639.48	7.980
639.81	7.373
640.13	8.333
640.46	7.248
640.79	6.605
641.12	6.602
641.45	6.983
641.77	5.449
642.10	7.749
642.43	7.658
642.76	6.347
643.09	6.595
643.41	5.766
643.74	8.179
644.07	7.012
644.40	8.436
644.73	8.976
645.05	11.410
645.38	6.635
645.71	8.374
646.04	7.641
646.36	9.015
646.69	8.361
647.02	6.633
647.35	8.591
647.67	7.965
648.00	8.780
648.33	8.251
648.66	8.485
648.98	8.996
649.31	6.726
649.64	6.428
649.96	10.283
650.29	7.583
650.62	7.282
650.94	9.887
651.27	7.939
651.60	9.484
651.92	8.946
652.25	6.678
652.58	7.321
652.90	8.531
653.23	6.626
653.56	7.559
653.88	7.290
654.21	9.637
654.54	7.096
654.86	7.165
655.19	7.568
655.52	4.662
655.84	3.533
656.17	4.271
656.49	5.592
656.82	5.755
657.15	4.274
657.47	3.157
657.80	2.409
658.13	2.457
658.45	3.837
658.78	3.888
659.10	4.123
659.43	4.425
659.75	4.913
660.08	4.937
660.41	6.518
660.73	8.259
661.06	6.688
661.38	9.636
661.71	9.423
662.03	10.059
662.36	7.753
662.68	8.032
663.01	9.495
663.33	8.493
663.66	6.933
663.98	8.855
664.31	7.563
664.63	8.704
664.96	6.640
665.28	10.451
665.61	6.433
665.93	6.439
666.26	7.302
666.58	7.322
666.91	11.628
667.23	8.989
667.56	7.991
667.88	10.897
668.21	10.448
668.53	10.846
668.86	9.091
669.18	10.448
669.50	8.696
669.83	10.022
670.15	8.000
670.48	7.843
670.80	11.207
671.13	11.040
671.45	7.447
671.77	9.980
672.10	8.503
672.42	6.360
672.75	7.960
673.07	7.746
673.39	6.148
673.72	6.836
674.04	8.824
674.37	9.320
674.69	7.771
675.01	7.322
675.34	9.856
675.66	9.474
675.98	11.813
676.31	10.504
676.63	9.766
676.95	7.547
677.28	5.374
677.60	7.253
677.92	11.392
678.25	10.472
678.57	9.363
678.89	8.216
679.22	6.876
679.54	7.824
679.86	8.624
680.18	6.619
680.51	7.624
680.83	8.719
681.15	8.868
681.48	11.342
681.80	7.157
682.12	8.429
682.44	8.704
682.77	5.499
683.09	10.515
683.41	8.204
683.73	9.934
684.06	10.124
684.38	7.632
684.70	10.078
685.02	8.818
685.34	9.524
685.67	7.343
685.99	6.186
686.31	7.509
686.63	6.184
686.96	8.750
687.28	8.484
687.60	7.609
687.92	8.044
688.24	7.414
688.56	10.442
688.89	9.751
689.21	10.044
689.53	11.900
689.85	7.539
690.17	7.453
690.49	11.040
690.82	10.514
691.14	7.366
691.46	8.439
691.78	8.434
692.10	7.438
692.42	9.581
692.74	6.432
693.06	8.511
693.39	9.446
693.71	8.515
694.03	8.632
694.35	8.442
694.67	10.069
694.99	7.805
695.31	8.824
695.63	9.330
695.95	5.623
696.27	10.406
696.59	6.995
696.91	9.585
697.23	6.808
697.56	9.595
697.88	7.566
698.20	8.542
698.52	9.032
698.84	9.800
699.16	8.525
699.48	9.026
699.80	6.763
700.12	11.948
700.44	8.488
700.76	9.392
701.08	6.609
701.40	9.218
701.72	13.120
702.04	11.364
702.36	9.632
702.68	11.048
703.00	11.080
703.32	9.309
703.64	10.188
703.96	10.585
704.28	10.174
704.60	13.783
704.91	12.463
705.23	11.730
705.55	10.631
705.87	19.601
706.19	7.774
706.51	12.461
706.83	12.424
707.15	14.286
707.47	9.848
707.79	10.811
708.11	10.274
708.43	9.048
708.74	8.418
709.06	12.208
709.38	10.499
709.70	12.209
710.02	10.682
710.34	10.606
710.66	12.239
710.98	13.920
711.29	11.919
711.61	14.159
711.93	9.615
712.25	11.576
712.57	7.353
712.89	13.149
713.20	12.462
713.52	11.513
713.84	9.494
714.16	10.976
714.48	11.782
714.80	11.854
715.11	12.392
715.43	12.463
715.75	11.594
716.07	10.863
716.39	10.972
716.70	12.957
717.02	10.432
717.34	13.074
717.66	16.418
717.97	15.538
718.29	10.000
718.61	11.314
718.93	15.809
719.24	11.073
719.56	10.847
719.88	13.898
720.20	17.568
720.51	11.498
720.83	15.613
721.15	11.940
721.46	11.702
721.78	12.903
722.10	10.943
722.42	15.414
722.73	11.985
723.05	11.475
723.37	13.360
723.68	16.988
724.00	12.195
724.32	14.113
724.63	12.602
724.95	13.808
725.27	14.170
725.58	11.719
725.90	11.679
726.22	11.698
726.53	9.722
726.85	11.263
727.16	11.744
727.48	10.284
727.80	14.394
728.11	10.870
728.43	10.385
728.74	16.129
729.06	16.788
729.38	11.397
729.69	15.302
730.01	10.580
730.32	11.806
730.64	11.037
730.96	10.231
731.27	15.563
731.59	14.679
731.90	13.411
732.22	12.733
732.53	12.384
732.85	11.859
733.16	14.148
733.48	13.621
733.80	11.039
734.11	12.420
734.43	14.201
734.74	11.429
735.06	10.029
735.37	14.162
735.69	10.828
736.00	13.725
736.32	14.330
736.63	8.626
736.95	10.863
737.26	6.122
737.58	9.355
737.89	11.037
738.21	16.724
738.52	12.857
738.83	11.698
739.15	8.846
739.46	16.788
739.78	14.236
740.09	12.000
740.41	13.548
740.72	10.453
741.04	11.111
741.35	7.500
741.66	18.222
741.98	11.792
742.29	15.789
742.61	19.828
742.92	11.765
743.23	11.966
743.55	13.200
743.86	11.404
744.18	15.929
744.49	13.397
744.80	15.023
745.12	20.909
745.43	14.097
745.74	15.766
746.06	14.220
746.37	17.040
746.68	14.027
747.00	15.278
747.31	15.238
747.62	14.159
747.94	11.013
748.25	11.915
748.56	12.775
748.88	11.386
749.19	18.500
749.50	17.209
749.82	15.447
750.13	12.653
750.44	10.219
750.75	11.930
751.07	16.077
751.38	13.240
751.69	9.025
752.01	12.030
752.32	9.386
752.63	15.957
752.94	12.705
753.26	17.200
753.57	9.756
753.88	14.062
754.19	13.571
754.51	12.153
754.82	8.664
755.13	14.717
755.44	14.286
755.75	13.869
756.07	10.638
756.38	9.124
756.69	11.409
757.00	9.880
757.31	13.353
757.63	10.234
757.94	10.188
758.25	10.294
758.56	8.148
758.87	9.409
759.18	10.909
759.50	11.912
759.81	11.838
760.12	8.438
760.43	10.315
760.74	12.228
761.05	12.429
761.36	10.428
761.67	12.500
761.99	11.491
762.30	12.500
762.61	14.122
762.92	20.703
763.23	14.706
763.54	16.000
763.85	12.891
764.16	12.692
764.47	13.688
764.78	10.601
765.10	10.759
765.41	12.389
765.72	9.880
766.03	13.793
766.34	13.667
766.65	14.043
766.96	19.658
767.27	15.736
767.58	17.708
767.89	17.895
768.20	16.092
768.51	17.259
768.82	11.009
769.13	14.634
769.44	14.170
769.75	15.880
770.06	9.633
770.37	14.932
770.68	11.111
770.99	16.889
771.30	13.525
771.61	13.004
771.92	14.754
772.23	21.849
772.54	11.282
772.85	16.754
773.16	16.489
773.47	24.457
773.78	20.812
774.09	14.881
774.39	14.035
774.70	21.605
775.01	21.014
775.32	25.490
775.63	24.342
775.94	16.547
776.25	20.472
776.56	20.149
776.87	17.213
777.18	21.094
777.48	27.481
777.79	25.758
778.10	25.185
778.41	24.107
778.72	17.518
779.03	27.517
779.34	22.819
779.65	12.838
779.95	23.313
780.26	26.144
780.57	20.000
780.88	24.219
781.19	21.805
781.50	25.000
781.80	23.899
782.11	17.514
782.42	21.519
782.73	19.018
783.04	22.297
783.34	16.197
783.65	28.767
783.96	23.881
784.27	18.881
784.57	13.669
784.88	10.185
785.19	26.984
785.50	28.302
785.81	28.358
786.11	28.689
786.42	27.132
786.73	21.239
787.04	17.925
787.34	34.821
787.65	33.000
787.96	23.423
788.26	24.793
788.57	23.729
788.88	27.273
789.19	29.167
789.49	34.091
789.80	19.084
790.11	23.810
790.41	33.663
790.72	26.506
791.03	30.435
791.33	25.581
791.64	26.804
791.95	32.673
792.25	26.667
792.56	29.870
792.87	44.872
793.17	50.633
793.48	42.529
793.79	33.333
794.09	37.500
794.40	19.328
794.70	28.676
795.01	16.296
795.32	22.302
795.62	22.047
795.93	25.000
796.23	27.434
796.54	24.706
796.85	17.568
797.15	39.437
797.46	24.242
797.76	48.193
798.07	45.570
798.37	43.077
798.68	31.818
798.99	16.901
799.29	40.260
799.60	34.091
799.90	43.836
800.21	32.836
800.51	41.379
800.82	43.860
801.12	36.066
801.43	42.424
801.73	27.027
802.04	41.270
802.34	43.210
802.65	45.313
802.95	57.627
803.26	59.375
803.56	42.857
803.87	29.231
804.17	48.529
804.48	53.704
804.78	39.655
805.09	47.059
805.39	55.769
805.70	55.357
806.00	54.098
806.30	42.424
806.61	31.707
806.91	29.114
807.22	44.737
807.52	34.328
807.83	47.887
808.13	39.063
808.43	46.667
808.74	38.158
809.04	53.623
809.35	46.269
809.65	39.474
809.95	74.194
810.26	37.288
810.56	46.032
810.86	61.364
811.17	50.000
811.47	68.333
811.77	44.444
812.08	78.182
812.38	54.000
812.69	44.444
812.99	93.182
813.29	59.184
813.59	16.667
813.90	44.898
814.20	56.364
814.50	52.308
814.81	61.765
815.11	51.020
815.41	45.902
815.72	52.381
816.02	52.727
816.32	73.810
816.62	50.000
816.93	53.659
817.23	71.429
817.53	50.000
817.84	63.636
818.14	60.870
818.44	75.556
818.74	82.353
819.04	85.000
819.35	28.571
819.65	73.529
819.95	67.857
820.25	95.000
820.56	79.487
820.86	84.091
821.16	81.395
821.46	69.231
821.76	66.000
822.07	85.714
822.37	97.500
822.67	69.697
822.97	35.294
823.27	103.571
823.57	62.162
823.88	87.500
824.18	83.333
824.48	64.286
824.78	116.000
825.08	75.000
825.38	89.189
825.69	73.171
825.99	83.333
826.29	82.759
826.59	94.737
826.89	71.053
827.19	76.471
827.49	70.968
827.79	79.545
828.09	65.909
828.39	36.170
828.70	71.429
829.00	74.074
829.30	51.613
829.60	90.000
829.90	133.333
830.20	121.429
830.50	69.565
830.80	86.957
831.10	90.000
831.40	96.667
831.70	56.522
832.00	111.538
832.30	85.185
832.60	162.500
832.90	153.333
833.20	192.857
833.50	119.355
833.80	89.655
834.10	100.000
834.40	126.923
834.70	127.778
835.00	185.714
835.30	65.714
835.60	223.077
835.90	113.793
836.20	157.143
836.50	106.897
836.80	92.000
837.10	108.333
837.40	128.571
837.70	211.765
838.00	92.593
838.30	147.619
838.60	209.524
838.90	88.462
839.19	180.000
839.49	235.714
839.79	205.000
840.09	160.000
840.39	104.762
840.69	169.565
840.99	138.889
841.29	330.000
841.59	125.000
841.88	175.000
842.18	117.241
842.48	152.381
842.78	100.000
843.08	113.043
843.38	78.125
843.68	450.000
843.97	146.154
844.27	106.897
844.57	161.905
844.87	200.000
845.17	125.926
845.47	566.667
845.76	211.111
846.06	147.059
846.36	250.000
846.66	142.857
846.96	118.750
847.25	136.364
847.55	118.182
847.85	117.391
848.15	190.000
848.44	142.857
848.74	122.222
849.04	164.706
849.34	250.000
849.63	163.158
849.93	190.909
850.23	460.000
850.53	228.571
850.82	1150.000
851.12	-2600.000
851.42	2800.000
851.71	175.000
852.01	-433.333
852.31	125.000
852.61	900.000
852.90	104.762
853.20	128.000
853.50	111.765
853.79	128.571
854.09	137.500
854.39	187.500
854.68	89.189
854.98	109.677
855.28	63.333
855.57	106.897
855.87	129.630
856.17	68.421
856.46	86.667
856.76	94.118
857.05	117.241
857.35	108.333
857.65	166.667
857.94	156.522
858.24	161.538
858.53	135.000
858.83	100.000
859.13	213.333
859.42	0.000
859.72	355.556
860.01	227.273
860.31	168.182
860.60	121.053
860.90	108.696
861.20	244.444
861.49	233.333
861.79	-2100.000
862.08	412.500
862.38	185.714
862.67	146.154
862.97	158.824
863.26	333.333
863.56	161.111
863.85	150.000
864.15	450.000
864.44	186.667
864.74	333.333
865.03	362.500
865.33	205.263
865.62	209.091
865.92	246.154
866.21	208.333
866.51	0.000
866.80	209.091
867.10	720.000
867.39	130.769
867.69	254.545
867.98	142.105
868.27	290.909
868.57	189.474
868.86	-2800.000
869.16	231.250
869.45	900.000
869.75	-1600.000
870.04	241.667
870.33	400.000
870.63	350.000
870.92	1350.000
871.22	371.429
871.51	182.353
871.80	128.571
872.10	157.143
>>>>>End Processed Spectral Data<<<<<
