SpectraSuite Data File
++++++++++++++++++++++++++++++++++++
Date: Wed May 13 16:40:35 PDT 2015
User: schluterlab
Dark Spectrum Present: Yes
Reference Spectrum Present: Yes
Number of Sampled Component Spectra: 1
Spectrometers: USB2E3373
Integration Time (usec): 3000 (USB2E3373)
Spectra Averaged: 3 (USB2E3373)
Boxcar Smoothing: 0 (USB2E3373)
Correct for Electrical Dark: No (USB2E3373)
Strobe/Lamp Enabled: No (USB2E3373)
Correct for Detector Non-linearity: No (USB2E3373)
Correct for Stray Light: No (USB2E3373)
Number of Pixels in Processed Spectrum: 2048
>>>>>Begin Processed Spectral Data<<<<<
178.53	0.000
178.91	-1300.000
179.29	-1150.000
179.67	-183.333
180.04	-1325.000
180.42	2400.000
180.80	1020.000
181.18	-1150.000
181.56	785.714
181.94	0.000
182.31	-728.571
182.69	2100.000
183.07	-550.000
183.45	-500.000
183.83	572.727
184.20	-380.000
184.58	2000.000
184.96	5500.000
185.34	-760.000
185.72	-550.000
186.09	-2500.000
186.47	2500.000
186.85	2600.000
187.23	5400.000
187.61	-1700.000
187.98	1275.000
188.36	563.636
188.74	554.545
189.12	-880.000
189.49	660.000
189.87	-5100.000
190.25	-1225.000
190.63	407.143
191.00	438.462
191.38	783.333
191.76	-1250.000
192.14	1300.000
192.51	750.000
192.89	916.667
193.27	625.000
193.65	-1050.000
194.02	590.000
194.40	880.000
194.78	540.000
195.15	441.667
195.53	550.000
195.91	-2350.000
196.29	375.000
196.66	305.263
197.04	-320.000
197.42	0.000
197.79	600.000
198.17	-5100.000
198.55	728.571
198.92	700.000
199.30	1120.000
199.68	0.000
200.05	361.111
200.43	700.000
200.81	4100.000
201.18	1900.000
201.56	-1500.000
201.94	577.778
202.31	644.444
202.69	408.333
203.07	620.000
203.44	0.000
203.82	1475.000
204.19	685.714
204.57	471.429
204.95	650.000
205.32	1633.333
205.70	518.182
206.08	321.429
206.45	2800.000
206.83	456.250
207.20	950.000
207.58	780.000
207.96	327.778
208.33	650.000
208.71	-933.333
209.08	700.000
209.46	577.778
209.84	527.273
210.21	-1566.667
210.59	1400.000
210.96	-600.000
211.34	2750.000
211.71	600.000
212.09	783.333
212.46	0.000
212.84	1933.333
213.22	1450.000
213.59	-4300.000
213.97	683.333
214.34	742.857
214.72	645.455
215.09	940.000
215.47	-3150.000
215.84	-2650.000
216.22	1666.667
216.59	342.857
216.97	1450.000
217.34	536.364
217.72	-850.000
218.09	0.000
218.47	-4200.000
218.84	711.111
219.22	800.000
219.59	1633.333
219.97	-614.286
220.34	940.000
220.72	-1433.333
221.09	364.286
221.47	1250.000
221.84	-1000.000
222.22	0.000
222.59	1375.000
222.97	-2450.000
223.34	1260.000
223.72	469.231
224.09	1100.000
224.46	2200.000
224.84	-4200.000
225.21	-940.000
225.59	-5000.000
225.96	640.000
226.34	300.000
226.71	2750.000
227.08	762.500
227.46	600.000
227.83	-925.000
228.21	-2400.000
228.58	644.444
228.95	-2850.000
229.33	-2500.000
229.70	1833.333
230.08	842.857
230.45	-680.000
230.82	466.667
231.20	1000.000
231.57	642.857
231.95	508.333
232.32	227.273
232.69	418.182
233.07	714.286
233.44	400.000
233.81	-1666.667
234.19	263.158
234.56	391.667
234.93	400.000
235.31	445.455
235.68	369.231
236.05	342.857
236.43	181.818
236.80	294.737
237.17	4800.000
237.55	257.143
237.92	200.000
238.29	200.000
238.67	135.484
239.04	182.759
239.41	136.111
239.79	117.391
240.16	116.667
240.53	93.182
240.91	98.039
241.28	108.000
241.65	88.000
242.02	92.754
242.40	82.258
242.77	83.333
243.14	76.344
243.51	65.169
243.89	49.412
244.26	56.667
244.63	53.763
245.00	55.319
245.38	47.525
245.75	53.271
246.12	50.459
246.49	47.445
246.87	63.200
247.24	43.077
247.61	38.571
247.98	35.948
248.36	41.892
248.73	37.580
249.10	38.854
249.47	31.638
249.84	36.364
250.22	30.481
250.59	30.769
250.96	24.747
251.33	33.649
251.70	32.673
252.08	30.476
252.45	27.354
252.82	25.217
253.19	25.957
253.56	29.020
253.94	26.141
254.31	29.297
254.68	26.923
255.05	25.092
255.42	26.829
255.79	20.588
256.16	20.217
256.54	17.668
256.91	24.911
257.28	17.266
257.65	20.132
258.02	21.429
258.39	22.397
258.76	19.398
259.14	22.321
259.51	21.884
259.88	17.702
260.25	20.242
260.62	19.364
260.99	18.944
261.36	21.321
261.73	19.771
262.10	20.930
262.47	19.718
262.85	15.599
263.22	14.815
263.59	18.234
263.96	17.857
264.33	18.538
264.70	18.421
265.07	16.368
265.44	16.414
265.81	16.545
266.18	17.085
266.55	15.854
266.92	14.988
267.29	16.898
267.66	15.596
268.03	17.955
268.40	17.290
268.77	15.990
269.14	16.441
269.51	15.801
269.88	15.618
270.25	15.801
270.62	14.382
270.99	19.140
271.36	16.524
271.73	11.916
272.10	14.348
272.47	15.269
272.84	15.584
273.21	17.820
273.58	13.319
273.95	13.417
274.32	11.157
274.69	15.418
275.06	12.992
275.43	15.532
275.80	16.433
276.17	12.627
276.54	15.177
276.91	14.822
277.28	14.453
277.65	14.313
278.02	13.043
278.39	15.039
278.76	14.182
279.13	13.208
279.50	13.035
279.87	13.347
280.23	13.373
280.60	13.540
280.97	13.678
281.34	16.283
281.71	14.727
282.08	14.587
282.45	12.182
282.82	12.789
283.19	12.121
283.56	14.035
283.92	14.890
284.29	13.051
284.66	12.704
285.03	11.573
285.40	9.859
285.77	12.795
286.14	12.953
286.51	12.500
286.87	12.308
287.24	13.844
287.61	13.644
287.98	12.662
288.35	12.837
288.72	11.682
289.08	13.459
289.45	13.344
289.82	13.496
290.19	10.361
290.56	11.639
290.93	9.970
291.29	9.509
291.66	10.767
292.03	12.064
292.40	12.775
292.77	9.763
293.13	11.493
293.50	10.641
293.87	10.370
294.24	11.111
294.60	10.917
294.97	10.756
295.34	13.117
295.71	11.080
296.08	11.396
296.44	8.528
296.81	10.700
297.18	11.653
297.55	9.367
297.91	10.686
298.28	12.048
298.65	12.141
299.02	10.672
299.38	9.562
299.75	8.760
300.12	9.451
300.48	10.375
300.85	9.618
301.22	10.064
301.59	9.091
301.95	9.824
302.32	9.114
302.69	8.961
303.05	9.333
303.42	9.012
303.79	9.173
304.15	8.508
304.52	7.532
304.89	7.898
305.25	7.657
305.62	9.966
305.99	11.334
306.35	9.843
306.72	8.184
307.09	8.435
307.45	10.023
307.82	8.594
308.19	10.155
308.55	10.787
308.92	9.667
309.29	8.448
309.65	8.802
310.02	8.985
310.38	8.602
310.75	8.025
311.12	9.314
311.48	9.509
311.85	9.958
312.22	9.365
312.58	8.420
312.95	9.715
313.31	8.544
313.68	9.356
314.05	10.848
314.41	9.146
314.78	9.366
315.14	8.739
315.51	9.887
315.87	9.802
316.24	9.930
316.61	8.967
316.97	8.317
317.34	8.219
317.70	9.751
318.07	9.913
318.43	9.295
318.80	9.934
319.16	9.887
319.53	8.630
319.89	9.810
320.26	11.000
320.62	10.218
320.99	10.303
321.35	9.798
321.72	10.267
322.08	10.365
322.45	10.945
322.81	11.434
323.18	9.923
323.54	12.152
323.91	11.698
324.27	10.994
324.64	10.624
325.00	10.370
325.37	11.283
325.73	11.759
326.10	10.415
326.46	11.470
326.83	10.785
327.19	12.383
327.56	12.108
327.92	11.286
328.29	11.091
328.65	12.799
329.01	10.830
329.38	12.396
329.74	10.896
330.11	11.122
330.47	12.856
330.84	12.500
331.20	11.566
331.56	12.477
331.93	10.370
332.29	12.866
332.66	12.478
333.02	11.335
333.38	11.563
333.75	12.389
334.11	11.388
334.48	12.334
334.84	12.040
335.20	11.909
335.57	10.879
335.93	11.071
336.29	11.538
336.66	13.165
337.02	12.217
337.38	11.852
337.75	11.586
338.11	12.534
338.47	11.326
338.84	12.557
339.20	11.651
339.56	11.131
339.93	10.909
340.29	10.417
340.65	11.943
341.02	10.646
341.38	11.744
341.74	12.807
342.11	12.052
342.47	11.278
342.83	12.329
343.20	12.554
343.56	11.373
343.92	10.614
344.28	12.160
344.65	12.210
345.01	11.700
345.37	11.235
345.73	12.860
346.10	11.679
346.46	11.864
346.82	12.438
347.19	11.612
347.55	12.069
347.91	12.540
348.27	12.161
348.63	11.789
349.00	11.570
349.36	12.069
349.72	11.548
350.08	11.102
350.45	11.473
350.81	11.942
351.17	11.507
351.53	11.876
351.89	11.139
352.26	12.707
352.62	11.307
352.98	12.237
353.34	11.750
353.70	11.293
354.07	11.532
354.43	11.746
354.79	11.665
355.15	10.215
355.51	12.470
355.87	11.265
356.24	12.785
356.60	11.147
356.96	11.022
357.32	10.711
357.68	12.362
358.04	11.243
358.40	11.956
358.77	12.441
359.13	11.365
359.49	11.843
359.85	10.000
360.21	10.606
360.57	12.374
360.93	11.385
361.29	12.245
361.66	10.759
362.02	11.940
362.38	11.559
362.74	11.756
363.10	10.807
363.46	11.886
363.82	12.547
364.18	11.821
364.54	12.110
364.90	12.535
365.26	11.471
365.62	12.491
365.98	11.760
366.35	11.819
366.71	11.714
367.07	10.998
367.43	13.062
367.79	12.491
368.15	12.931
368.51	11.265
368.87	12.491
369.23	12.143
369.59	11.948
369.95	11.618
370.31	13.034
370.67	11.667
371.03	12.659
371.39	12.536
371.75	12.132
372.11	12.873
372.47	12.683
372.83	13.833
373.19	12.645
373.55	12.417
373.91	13.255
374.27	12.784
374.63	12.000
374.99	13.065
375.35	12.910
375.71	13.160
376.07	13.992
376.42	12.861
376.78	14.380
377.14	13.433
377.50	13.974
377.86	12.434
378.22	13.590
378.58	12.093
378.94	13.136
379.30	13.104
379.66	14.340
380.02	13.329
380.38	13.722
380.74	14.226
381.09	13.875
381.45	14.567
381.81	14.066
382.17	14.459
382.53	14.717
382.89	14.691
383.25	14.009
383.61	14.994
383.97	15.447
384.32	14.223
384.68	14.560
385.04	14.935
385.40	15.170
385.76	14.803
386.12	15.803
386.48	15.293
386.83	14.817
387.19	16.265
387.55	15.832
387.91	15.296
388.27	15.573
388.62	15.919
388.98	15.971
389.34	16.145
389.70	16.370
390.06	16.730
390.42	16.148
390.77	16.985
391.13	15.954
391.49	16.307
391.85	16.041
392.20	16.088
392.56	16.477
392.92	16.892
393.28	15.621
393.64	16.966
393.99	17.532
394.35	16.439
394.71	17.127
395.07	17.383
395.42	16.255
395.78	16.921
396.14	17.194
396.50	17.669
396.85	17.864
397.21	16.708
397.57	17.421
397.92	16.887
398.28	16.704
398.64	17.861
399.00	17.292
399.35	17.259
399.71	17.072
400.07	17.445
400.42	17.669
400.78	17.793
401.14	17.439
401.49	17.851
401.85	17.120
402.21	16.766
402.57	17.520
402.92	18.033
403.28	18.738
403.63	17.822
403.99	18.217
404.35	17.818
404.70	17.446
405.06	17.997
405.42	18.153
405.77	18.114
406.13	17.156
406.49	18.214
406.84	17.661
407.20	17.435
407.55	17.869
407.91	19.067
408.27	18.762
408.62	18.362
408.98	18.627
409.34	18.020
409.69	18.710
410.05	18.340
410.40	18.899
410.76	17.563
411.11	18.938
411.47	18.978
411.83	18.998
412.18	18.924
412.54	18.867
412.89	18.675
413.25	19.421
413.60	18.653
413.96	19.247
414.31	18.955
414.67	19.138
415.03	19.205
415.38	19.974
415.74	18.585
416.09	20.509
416.45	19.344
416.80	19.762
417.16	19.772
417.51	19.642
417.87	19.011
418.22	20.126
418.58	19.238
418.93	19.226
419.29	19.605
419.64	20.466
420.00	19.817
420.35	19.826
420.71	19.546
421.06	19.570
421.42	19.415
421.77	20.011
422.12	19.259
422.48	18.780
422.83	18.987
423.19	19.558
423.54	18.862
423.90	20.174
424.25	19.710
424.61	19.643
424.96	20.175
425.31	20.044
425.67	19.944
426.02	19.314
426.38	20.574
426.73	19.836
427.09	20.000
427.44	19.954
427.79	20.299
428.15	20.179
428.50	19.719
428.85	20.024
429.21	19.547
429.56	19.492
429.92	19.477
430.27	19.215
430.62	18.996
430.98	19.824
431.33	19.742
431.68	20.052
432.04	20.554
432.39	20.674
432.74	20.467
433.10	20.543
433.45	20.641
433.80	20.399
434.16	20.085
434.51	19.947
434.86	19.726
435.22	20.511
435.57	21.702
435.92	21.182
436.28	20.819
436.63	21.468
436.98	20.149
437.34	21.109
437.69	20.828
438.04	20.854
438.39	20.955
438.75	21.267
439.10	20.615
439.45	20.661
439.81	21.088
440.16	20.666
440.51	21.031
440.86	21.772
441.22	20.523
441.57	20.860
441.92	20.931
442.27	20.614
442.63	20.169
442.98	21.014
443.33	21.304
443.68	20.805
444.03	20.693
444.39	19.961
444.74	20.779
445.09	21.240
445.44	21.651
445.79	20.386
446.15	21.863
446.50	20.571
446.85	21.583
447.20	20.857
447.55	21.217
447.91	21.070
448.26	21.480
448.61	21.481
448.96	22.148
449.31	21.654
449.66	21.666
450.02	21.393
450.37	20.805
450.72	21.207
451.07	21.755
451.42	21.337
451.77	21.491
452.12	21.420
452.47	22.139
452.83	21.911
453.18	22.188
453.53	21.088
453.88	21.618
454.23	21.877
454.58	22.835
454.93	22.250
455.28	21.197
455.63	21.663
455.98	22.560
456.34	21.796
456.69	22.605
457.04	22.477
457.39	21.742
457.74	22.229
458.09	22.024
458.44	22.463
458.79	21.800
459.14	21.670
459.49	21.658
459.84	21.551
460.19	21.037
460.54	20.891
460.89	21.558
461.24	22.465
461.59	21.964
461.94	22.811
462.29	22.908
462.64	22.527
462.99	23.032
463.34	23.600
463.69	23.139
464.04	21.913
464.39	22.609
464.74	21.985
465.09	21.170
465.44	21.773
465.79	21.365
466.14	21.620
466.49	21.580
466.84	22.067
467.19	23.235
467.54	23.125
467.89	23.289
468.24	23.095
468.59	23.260
468.94	21.930
469.29	22.751
469.64	23.293
469.99	23.613
470.34	22.523
470.68	24.353
471.03	22.857
471.38	23.767
471.73	21.719
472.08	23.947
472.43	22.048
472.78	22.120
473.13	23.684
473.48	22.659
473.83	22.439
474.17	22.029
474.52	22.891
474.87	23.001
475.22	23.215
475.57	22.837
475.92	21.721
476.27	21.646
476.61	22.449
476.96	22.760
477.31	21.978
477.66	23.414
478.01	22.478
478.36	22.316
478.70	22.274
479.05	21.832
479.40	22.313
479.75	22.471
480.10	22.614
480.45	21.942
480.79	22.408
481.14	22.260
481.49	22.971
481.84	21.811
482.19	21.945
482.53	22.294
482.88	22.476
483.23	21.776
483.58	21.884
483.92	22.118
484.27	21.525
484.62	22.284
484.97	21.640
485.31	21.952
485.66	20.354
486.01	19.141
486.36	18.434
486.70	18.375
487.05	19.441
487.40	20.761
487.75	20.756
488.09	21.838
488.44	21.815
488.79	22.821
489.13	22.193
489.48	22.308
489.83	22.745
490.17	22.929
490.52	22.321
490.87	22.207
491.22	22.374
491.56	22.369
491.91	22.010
492.26	22.232
492.60	21.797
492.95	21.703
493.30	22.336
493.64	22.165
493.99	22.006
494.34	22.664
494.68	22.711
495.03	22.556
495.37	23.360
495.72	23.148
496.07	23.063
496.41	22.345
496.76	21.724
497.11	22.152
497.45	22.729
497.80	22.745
498.14	22.512
498.49	22.537
498.84	22.100
499.18	22.714
499.53	22.602
499.87	23.113
500.22	22.562
500.56	22.379
500.91	22.885
501.26	22.285
501.60	23.256
501.95	23.098
502.29	23.430
502.64	22.486
502.98	22.440
503.33	22.806
503.67	22.506
504.02	22.872
504.36	22.929
504.71	22.912
505.06	23.084
505.40	22.897
505.75	22.420
506.09	23.324
506.44	23.582
506.78	22.845
507.13	23.372
507.47	23.232
507.82	24.671
508.16	23.658
508.51	23.541
508.85	22.294
509.19	23.367
509.54	23.929
509.88	23.854
510.23	23.393
510.57	24.252
510.92	23.563
511.26	23.433
511.61	24.066
511.95	23.225
512.30	23.277
512.64	24.557
512.98	23.794
513.33	23.662
513.67	23.853
514.02	23.377
514.36	24.577
514.70	24.626
515.05	24.317
515.39	24.285
515.74	24.043
516.08	24.818
516.42	24.639
516.77	24.693
517.11	24.195
517.46	24.661
517.80	25.029
518.14	24.609
518.49	24.621
518.83	25.795
519.17	25.058
519.52	25.184
519.86	25.043
520.20	24.855
520.55	25.374
520.89	25.547
521.23	25.814
521.58	25.090
521.92	25.720
522.26	24.588
522.61	25.919
522.95	25.107
523.29	24.954
523.64	25.976
523.98	25.323
524.32	25.875
524.66	25.737
525.01	26.532
525.35	26.332
525.69	25.554
526.04	26.480
526.38	25.320
526.72	25.644
527.06	25.173
527.41	24.691
527.75	25.981
528.09	26.140
528.43	26.705
528.78	26.490
529.12	24.848
529.46	25.964
529.80	25.804
530.15	26.106
530.49	25.785
530.83	26.392
531.17	26.110
531.51	27.821
531.86	26.839
532.20	27.445
532.54	26.650
532.88	27.343
533.22	25.796
533.57	26.235
533.91	25.286
534.25	24.666
534.59	26.113
534.93	25.640
535.27	25.649
535.62	25.275
535.96	26.051
536.30	26.256
536.64	26.722
536.98	26.808
537.32	26.136
537.66	26.533
538.01	26.531
538.35	26.244
538.69	27.058
539.03	26.576
539.37	25.431
539.71	25.275
540.05	25.621
540.39	26.711
540.73	25.679
541.07	26.022
541.42	26.158
541.76	26.774
542.10	26.455
542.44	26.490
542.78	26.812
543.12	26.296
543.46	25.967
543.80	26.155
544.14	25.995
544.48	26.159
544.82	25.593
545.16	26.350
545.50	25.193
545.84	26.344
546.18	26.263
546.52	26.703
546.86	26.735
547.20	26.500
547.54	26.386
547.88	27.105
548.22	25.841
548.56	25.723
548.90	25.608
549.24	25.455
549.58	25.443
549.92	26.442
550.26	27.344
550.60	25.657
550.94	26.338
551.28	24.799
551.62	26.528
551.96	27.018
552.30	26.416
552.64	25.896
552.98	26.373
553.32	26.096
553.66	26.653
554.00	27.248
554.34	25.328
554.68	27.253
555.02	26.093
555.36	26.444
555.69	26.184
556.03	26.380
556.37	25.989
556.71	25.171
557.05	25.280
557.39	26.942
557.73	25.970
558.07	27.121
558.41	26.122
558.75	26.525
559.08	27.293
559.42	26.909
559.76	27.353
560.10	26.196
560.44	25.646
560.78	24.484
561.12	25.858
561.45	25.945
561.79	24.918
562.13	25.486
562.47	26.230
562.81	25.941
563.15	25.084
563.48	26.127
563.82	26.419
564.16	25.245
564.50	25.065
564.84	25.348
565.17	25.097
565.51	26.198
565.85	25.444
566.19	24.796
566.52	26.029
566.86	24.834
567.20	25.649
567.54	25.057
567.88	23.628
568.21	24.603
568.55	23.509
568.89	23.833
569.23	22.638
569.56	22.510
569.90	23.132
570.24	22.497
570.57	21.625
570.91	21.235
571.25	21.001
571.59	21.620
571.92	21.112
572.26	20.971
572.60	22.132
572.93	21.559
573.27	21.591
573.61	21.496
573.95	21.240
574.28	20.854
574.62	20.918
574.96	20.908
575.29	20.344
575.63	20.503
575.97	20.932
576.30	21.402
576.64	20.546
576.98	20.685
577.31	20.425
577.65	20.391
577.98	20.386
578.32	19.639
578.66	20.273
578.99	20.589
579.33	21.060
579.67	20.457
580.00	20.355
580.34	21.215
580.67	21.035
581.01	20.711
581.35	19.922
581.68	20.234
582.02	19.048
582.35	19.204
582.69	19.860
583.02	20.381
583.36	20.982
583.70	21.004
584.03	21.108
584.37	22.003
584.70	21.421
585.04	20.744
585.37	20.130
585.71	20.606
586.04	20.561
586.38	21.029
586.72	20.519
587.05	20.538
587.39	20.264
587.72	20.691
588.06	20.598
588.39	20.960
588.73	20.974
589.06	21.190
589.40	21.145
589.73	21.683
590.07	21.495
590.40	21.593
590.73	22.209
591.07	23.118
591.40	22.564
591.74	22.251
592.07	22.906
592.41	21.827
592.74	20.936
593.08	20.853
593.41	20.816
593.75	19.956
594.08	20.986
594.41	20.997
594.75	21.442
595.08	21.331
595.42	21.471
595.75	21.047
596.09	21.329
596.42	21.847
596.75	22.246
597.09	22.727
597.42	21.332
597.75	21.949
598.09	21.783
598.42	21.993
598.76	20.876
599.09	20.677
599.42	20.742
599.76	20.644
600.09	20.510
600.42	20.197
600.76	20.464
601.09	20.656
601.42	21.005
601.76	21.176
602.09	21.107
602.42	21.457
602.76	22.289
603.09	21.833
603.42	21.710
603.76	20.427
604.09	20.551
604.42	21.117
604.76	22.100
605.09	21.538
605.42	22.018
605.75	20.985
606.09	20.618
606.42	21.496
606.75	20.863
607.09	21.850
607.42	20.753
607.75	20.633
608.08	20.842
608.42	21.381
608.75	21.551
609.08	20.537
609.41	21.418
609.75	22.106
610.08	21.772
610.41	22.067
610.74	21.050
611.07	21.344
611.41	21.688
611.74	21.418
612.07	21.429
612.40	22.246
612.73	21.579
613.07	22.575
613.40	21.959
613.73	20.818
614.06	22.312
614.39	22.339
614.72	22.000
615.06	21.639
615.39	21.019
615.72	21.677
616.05	21.637
616.38	22.457
616.71	22.743
617.05	23.439
617.38	22.790
617.71	21.321
618.04	22.356
618.37	22.058
618.70	23.149
619.03	23.355
619.36	22.811
619.69	23.873
620.03	23.008
620.36	22.326
620.69	23.425
621.02	24.484
621.35	23.571
621.68	24.143
622.01	24.303
622.34	24.054
622.67	22.966
623.00	22.524
623.33	22.945
623.66	23.946
623.99	22.975
624.32	23.110
624.65	23.305
624.99	22.096
625.32	22.592
625.65	23.140
625.98	23.444
626.31	23.950
626.64	24.163
626.97	24.605
627.30	24.023
627.63	23.954
627.96	24.558
628.29	23.972
628.62	25.801
628.95	25.849
629.28	23.905
629.61	26.489
629.94	25.524
630.26	24.786
630.59	24.500
630.92	23.851
631.25	25.074
631.58	25.826
631.91	23.732
632.24	25.633
632.57	25.603
632.90	25.658
633.23	26.510
633.56	25.989
633.89	26.727
634.22	28.150
634.55	27.574
634.88	26.467
635.20	27.599
635.53	26.747
635.86	26.856
636.19	27.176
636.52	25.490
636.85	26.346
637.18	24.885
637.51	28.014
637.83	24.538
638.16	27.366
638.49	26.826
638.82	27.307
639.15	28.000
639.48	26.808
639.81	28.418
640.13	28.255
640.46	27.517
640.79	26.684
641.12	28.061
641.45	28.073
641.77	28.571
642.10	29.094
642.43	27.628
642.76	28.483
643.09	28.834
643.41	30.349
643.74	31.790
644.07	29.421
644.40	30.675
644.73	30.236
645.05	30.903
645.38	29.068
645.71	29.308
646.04	28.738
646.36	31.052
646.69	31.104
647.02	29.762
647.35	32.302
647.67	31.150
648.00	29.756
648.33	26.568
648.66	27.879
648.98	28.336
649.31	25.710
649.64	28.700
649.96	27.422
650.29	28.120
650.62	28.479
650.94	31.767
651.27	31.419
651.60	29.118
651.92	29.553
652.25	27.362
652.58	29.439
652.90	30.332
653.23	27.273
653.56	26.929
653.88	29.477
654.21	29.542
654.54	28.218
654.86	28.972
655.19	25.676
655.52	17.035
655.84	13.230
656.17	16.592
656.49	22.826
656.82	24.003
657.15	18.894
657.47	14.308
657.80	11.536
658.13	12.212
658.45	19.092
658.78	19.526
659.10	21.062
659.43	22.532
659.75	24.073
660.08	27.468
660.41	29.609
660.73	31.639
661.06	29.777
661.38	31.273
661.71	31.154
662.03	34.714
662.36	31.610
662.68	30.522
663.01	32.323
663.33	32.696
663.66	31.933
663.98	30.886
664.31	30.042
664.63	30.567
664.96	28.571
665.28	32.377
665.61	28.460
665.93	29.577
666.26	31.237
666.58	31.590
666.91	34.461
667.23	30.562
667.56	31.317
667.88	32.479
668.21	32.196
668.53	31.236
668.86	29.870
669.18	33.475
669.50	31.957
669.83	31.373
670.15	32.444
670.48	30.937
670.80	31.897
671.13	30.573
671.45	31.915
671.77	31.772
672.10	29.390
672.42	29.329
672.75	27.695
673.07	26.232
673.39	26.763
673.72	28.320
674.04	30.000
674.37	28.544
674.69	29.652
675.01	29.498
675.34	32.238
675.66	33.263
675.98	32.179
676.31	31.513
676.63	30.149
676.95	29.979
677.28	31.542
677.60	32.308
677.92	33.544
678.25	31.211
678.57	28.685
678.89	30.060
679.22	27.505
679.54	29.008
679.86	26.972
680.18	28.801
680.51	28.014
680.83	28.648
681.15	29.623
681.48	28.544
681.80	27.660
682.12	27.011
682.44	25.532
682.77	28.717
683.09	32.618
683.41	32.373
683.73	29.801
684.06	27.893
684.38	28.963
684.70	28.101
685.02	28.705
685.34	27.473
685.67	25.874
685.99	25.945
686.31	24.232
686.63	26.148
686.96	26.607
687.28	27.256
687.60	28.442
687.92	28.519
688.24	29.848
688.56	30.723
688.89	30.913
689.21	31.004
689.53	30.689
689.85	31.042
690.17	28.986
690.49	29.512
690.82	32.477
691.14	28.348
691.46	29.325
691.78	29.920
692.10	30.992
692.42	27.545
692.74	27.178
693.06	28.511
693.39	28.953
693.71	30.786
694.03	31.368
694.35	27.273
694.67	28.833
694.99	32.927
695.31	30.637
695.63	29.904
695.95	28.606
696.27	29.442
696.59	34.456
696.91	30.052
697.23	26.291
697.56	30.490
697.88	26.380
698.20	26.458
698.52	30.108
698.84	28.953
699.16	30.415
699.48	29.691
699.80	32.609
700.12	34.545
700.44	33.687
700.76	34.807
701.08	34.483
701.40	34.078
701.72	33.819
702.04	36.932
702.36	29.178
702.68	34.561
703.00	33.241
703.32	28.723
703.64	29.223
703.96	31.198
704.28	31.395
704.60	33.138
704.91	35.312
705.23	32.845
705.55	40.199
705.87	36.213
706.19	34.982
706.51	30.841
706.83	37.273
707.15	34.174
707.47	26.263
707.79	28.010
708.11	27.397
708.43	30.476
708.74	27.806
709.06	33.766
709.38	30.446
709.70	32.558
710.02	36.795
710.34	33.030
710.66	32.836
710.98	34.659
711.29	32.849
711.61	35.103
711.93	31.731
712.25	36.656
712.57	30.147
712.89	37.024
713.20	33.131
713.52	32.566
713.84	31.329
714.16	31.707
714.48	30.747
714.80	35.866
715.11	32.277
715.43	29.970
715.75	31.884
716.07	33.546
716.39	32.915
716.70	37.874
717.02	40.288
717.34	34.629
717.66	37.687
717.97	41.036
718.29	38.889
718.61	35.401
718.93	37.500
719.24	35.986
719.56	34.576
719.88	33.559
720.20	38.176
720.51	38.676
720.83	36.431
721.15	29.851
721.46	34.397
721.78	37.993
722.10	38.868
722.42	38.346
722.73	38.577
723.05	38.115
723.37	37.247
723.68	38.610
724.00	43.496
724.32	37.097
724.63	38.211
724.95	37.657
725.27	38.057
725.58	41.406
725.90	38.321
726.22	37.358
726.53	35.069
726.85	34.812
727.16	34.164
727.48	35.816
727.80	34.848
728.11	35.507
728.43	34.615
728.74	38.710
729.06	39.051
729.38	36.029
729.69	38.434
730.01	33.106
730.32	32.639
730.64	33.779
730.96	32.673
731.27	35.762
731.59	35.168
731.90	30.321
732.22	30.745
732.53	28.793
732.85	30.449
733.16	35.370
733.48	31.894
733.80	32.468
734.11	34.395
734.43	31.065
734.74	28.857
735.06	30.659
735.37	32.081
735.69	28.981
736.00	36.275
736.32	36.760
736.63	27.157
736.95	31.629
737.26	27.551
737.58	28.387
737.89	31.104
738.21	34.130
738.52	33.571
738.83	33.585
739.15	35.000
739.46	33.577
739.78	32.986
740.09	29.231
740.41	38.065
740.72	27.526
741.04	35.185
741.35	35.000
741.66	40.444
741.98	34.434
742.29	43.541
742.61	44.828
742.92	37.104
743.23	36.325
743.55	36.400
743.86	36.404
744.18	41.150
744.49	40.191
744.80	47.418
745.12	43.636
745.43	36.564
745.74	44.144
746.06	41.743
746.37	39.910
746.68	41.176
747.00	41.204
747.31	38.095
747.62	34.513
747.94	36.564
748.25	36.596
748.56	42.291
748.88	42.574
749.19	45.500
749.50	37.209
749.82	36.992
750.13	35.510
750.44	31.752
750.75	35.439
751.07	34.405
751.38	31.707
751.69	35.379
752.01	31.579
752.32	29.964
752.63	33.688
752.94	38.115
753.26	38.800
753.57	31.301
753.88	39.453
754.19	32.500
754.51	38.542
754.82	31.769
755.13	34.340
755.44	33.083
755.75	33.942
756.07	33.333
756.38	27.372
756.69	31.208
757.00	29.341
757.31	27.596
757.63	28.363
757.94	28.150
758.25	29.167
758.56	23.210
758.87	26.075
759.18	34.242
759.50	28.527
759.81	31.776
760.12	26.250
760.43	29.226
760.74	27.717
761.05	29.379
761.36	27.273
761.67	31.250
761.99	30.124
762.30	33.681
762.61	33.588
762.92	38.281
763.23	34.874
763.54	36.400
763.85	30.469
764.16	33.462
764.47	36.502
764.78	30.742
765.10	27.532
765.41	32.448
765.72	31.737
766.03	31.034
766.34	29.000
766.65	40.426
766.96	40.598
767.27	38.071
767.58	41.146
767.89	48.421
768.20	43.678
768.51	41.117
768.82	37.615
769.13	32.114
769.44	35.223
769.75	31.760
770.06	36.697
770.37	38.009
770.68	40.741
770.99	38.667
771.30	29.508
771.61	43.049
771.92	34.016
772.23	40.336
772.54	43.590
772.85	42.932
773.16	43.617
773.47	46.739
773.78	46.193
774.09	47.024
774.39	45.614
774.70	40.123
775.01	44.203
775.32	57.516
775.63	54.605
775.94	44.604
776.25	58.268
776.56	47.015
776.87	56.557
777.18	60.938
777.48	59.542
777.79	50.000
778.10	48.889
778.41	59.821
778.72	45.255
779.03	46.309
779.34	48.993
779.65	39.865
779.95	47.239
780.26	47.059
780.57	50.345
780.88	68.750
781.19	53.383
781.50	51.351
781.80	47.799
782.11	50.847
782.42	46.203
782.73	44.172
783.04	49.324
783.34	54.930
783.65	58.904
783.96	47.015
784.27	51.049
784.57	44.604
784.88	46.296
785.19	55.556
785.50	70.755
785.81	59.701
786.11	55.738
786.42	58.915
786.73	55.752
787.04	68.868
787.34	64.286
787.65	63.000
787.96	59.459
788.26	60.331
788.57	57.627
788.88	66.116
789.19	52.778
789.49	56.061
789.80	58.779
790.11	65.714
790.41	66.337
790.72	65.060
791.03	67.391
791.33	72.093
791.64	63.918
791.95	68.317
792.25	75.556
792.56	79.221
792.87	94.872
793.17	91.139
793.48	74.713
793.79	77.011
794.09	70.455
794.40	61.345
794.70	56.618
795.01	40.741
795.32	56.835
795.62	57.480
795.93	59.483
796.23	55.752
796.54	60.000
796.85	75.676
797.15	105.634
797.46	75.758
797.76	83.133
798.07	78.481
798.37	67.692
798.68	87.879
798.99	71.831
799.29	76.623
799.60	78.409
799.90	86.301
800.21	102.985
800.51	94.828
800.82	110.526
801.12	93.443
801.43	86.364
801.73	82.432
802.04	103.175
802.34	93.827
802.65	90.625
802.95	98.305
803.26	114.063
803.56	87.143
803.87	89.231
804.17	92.647
804.48	120.370
804.78	91.379
805.09	82.353
805.39	101.923
805.70	89.286
806.00	109.836
806.30	77.273
806.61	75.610
806.91	69.620
807.22	69.737
807.52	83.582
807.83	102.817
808.13	85.938
808.43	103.333
808.74	88.158
809.04	94.203
809.35	97.015
809.65	90.789
809.95	112.903
810.26	93.220
810.56	98.413
810.86	125.000
811.17	145.238
811.47	105.000
811.77	100.000
812.08	105.455
812.38	118.000
812.69	138.889
812.99	156.818
813.29	114.286
813.59	80.952
813.90	120.408
814.20	110.909
814.50	92.308
814.81	101.471
815.11	110.204
815.41	95.082
815.72	150.000
816.02	114.545
816.32	116.667
816.62	125.000
816.93	126.829
817.23	142.857
817.53	115.909
817.84	178.788
818.14	134.783
818.44	128.889
818.74	182.353
819.04	155.000
819.35	142.857
819.65	179.412
819.95	167.857
820.25	225.000
820.56	156.410
820.86	125.000
821.16	153.488
821.46	133.333
821.76	140.000
822.07	154.286
822.37	150.000
822.67	163.636
822.97	107.843
823.27	225.000
823.57	135.135
823.88	147.500
824.18	180.000
824.48	152.381
824.78	204.000
825.08	187.500
825.38	164.865
825.69	151.220
825.99	200.000
826.29	189.655
826.59	155.263
826.89	131.579
827.19	182.353
827.49	200.000
827.79	120.455
828.09	134.091
828.39	123.404
828.70	128.571
829.00	188.889
829.30	164.516
829.60	140.000
829.90	313.333
830.20	214.286
830.50	204.348
830.80	221.739
831.10	203.333
831.40	180.000
831.70	208.696
832.00	203.846
832.30	207.407
832.60	306.250
832.90	173.333
833.20	321.429
833.50	212.903
833.80	213.793
834.10	203.125
834.40	253.846
834.70	311.111
835.00	323.810
835.30	157.143
835.60	361.538
835.90	224.138
836.20	321.429
836.50	203.448
836.80	232.000
837.10	177.778
837.40	242.857
837.70	276.471
838.00	237.037
838.30	223.810
838.60	252.381
838.90	219.231
839.19	295.000
839.49	407.143
839.79	335.000
840.09	250.000
840.39	247.619
840.69	221.739
840.99	300.000
841.29	410.000
841.59	383.333
841.88	375.000
842.18	186.207
842.48	266.667
842.78	226.667
843.08	243.478
843.38	193.750
843.68	766.667
843.97	226.923
844.27	182.759
844.57	276.190
844.87	318.750
845.17	251.852
845.47	1566.667
845.76	455.556
846.06	329.412
846.36	537.500
846.66	378.571
846.96	306.250
847.25	436.364
847.55	436.364
847.85	278.261
848.15	510.000
848.44	328.571
848.74	266.667
849.04	329.412
849.34	430.000
849.63	247.368
849.93	545.455
850.23	980.000
850.53	478.571
850.82	2300.000
851.12	-4000.000
851.42	4200.000
851.71	225.000
852.01	-1366.667
852.31	266.667
852.61	1600.000
852.90	276.190
853.20	236.000
853.50	323.529
853.79	257.143
854.09	233.333
854.39	331.250
854.68	189.189
854.98	174.194
855.28	180.000
855.57	196.552
855.87	237.037
856.17	231.579
856.46	286.667
856.76	311.765
857.05	210.345
857.35	208.333
857.65	380.000
857.94	230.435
858.24	253.846
858.53	290.000
858.83	254.545
859.13	340.000
859.42	0.000
859.72	544.444
860.01	554.545
860.31	240.909
860.60	263.158
860.90	217.391
861.20	588.889
861.49	541.667
861.79	-4000.000
862.08	637.500
862.38	271.429
862.67	384.615
862.97	382.353
863.26	477.778
863.56	327.778
863.85	408.333
864.15	550.000
864.44	406.667
864.74	733.333
865.03	700.000
865.33	357.895
865.62	481.818
865.92	415.385
866.21	383.333
866.51	0.000
866.80	427.273
867.10	1100.000
867.39	453.846
867.69	527.273
867.98	300.000
868.27	518.182
868.57	294.737
868.86	-4100.000
869.16	312.500
869.45	2450.000
869.75	-3600.000
870.04	416.667
870.33	685.714
870.63	875.000
870.92	2500.000
871.22	771.429
871.51	341.176
871.80	219.048
872.10	392.857
>>>>>End Processed Spectral Data<<<<<
