SpectraSuite Data File
++++++++++++++++++++++++++++++++++++
Date: Wed May 13 16:36:42 PDT 2015
User: schluterlab
Dark Spectrum Present: Yes
Reference Spectrum Present: Yes
Number of Sampled Component Spectra: 1
Spectrometers: USB2E3373
Integration Time (usec): 3000 (USB2E3373)
Spectra Averaged: 3 (USB2E3373)
Boxcar Smoothing: 0 (USB2E3373)
Correct for Electrical Dark: No (USB2E3373)
Strobe/Lamp Enabled: No (USB2E3373)
Correct for Detector Non-linearity: No (USB2E3373)
Correct for Stray Light: No (USB2E3373)
Number of Pixels in Processed Spectrum: 2048
>>>>>Begin Processed Spectral Data<<<<<
178.53	0.000
178.91	-1075.000
179.29	-1150.000
179.67	-233.333
180.04	-1350.000
180.42	2950.000
180.80	1160.000
181.18	-1250.000
181.56	628.571
181.94	0.000
182.31	-728.571
182.69	1866.667
183.07	-700.000
183.45	-500.000
183.83	463.636
184.20	-350.000
184.58	2900.000
184.96	4800.000
185.34	-900.000
185.72	-662.500
186.09	-2800.000
186.47	2650.000
186.85	2400.000
187.23	4400.000
187.61	-1500.000
187.98	1225.000
188.36	354.545
188.74	527.273
189.12	-800.000
189.49	540.000
189.87	-3600.000
190.25	-925.000
190.63	457.143
191.00	423.077
191.38	833.333
191.76	-1075.000
192.14	1275.000
192.51	575.000
192.89	933.333
193.27	587.500
193.65	-1075.000
194.02	510.000
194.40	980.000
194.78	520.000
195.15	516.667
195.53	480.000
195.91	-2150.000
196.29	275.000
196.66	268.421
197.04	-380.000
197.42	0.000
197.79	560.000
198.17	-4600.000
198.55	742.857
198.92	687.500
199.30	940.000
199.68	0.000
200.05	305.556
200.43	800.000
200.81	4100.000
201.18	1733.333
201.56	-1633.333
201.94	600.000
202.31	566.667
202.69	350.000
203.07	520.000
203.44	0.000
203.82	1100.000
204.19	628.571
204.57	414.286
204.95	712.500
205.32	1566.667
205.70	500.000
206.08	371.429
206.45	2350.000
206.83	412.500
207.20	933.333
207.58	800.000
207.96	311.111
208.33	587.500
208.71	-816.667
209.08	857.143
209.46	666.667
209.84	472.727
210.21	-1300.000
210.59	1175.000
210.96	-550.000
211.34	2500.000
211.71	650.000
212.09	733.333
212.46	0.000
212.84	1733.333
213.22	1400.000
213.59	-4400.000
213.97	750.000
214.34	714.286
214.72	554.545
215.09	640.000
215.47	-1850.000
215.84	-2550.000
216.22	1466.667
216.59	450.000
216.97	1175.000
217.34	427.273
217.72	-650.000
218.09	0.000
218.47	-5000.000
218.84	577.778
219.22	657.143
219.59	1600.000
219.97	-714.286
220.34	1160.000
220.72	-1666.667
221.09	435.714
221.47	1475.000
221.84	-800.000
222.22	0.000
222.59	1700.000
222.97	-2750.000
223.34	1300.000
223.72	400.000
224.09	1180.000
224.46	2200.000
224.84	-5100.000
225.21	-960.000
225.59	-4700.000
225.96	660.000
226.34	275.000
226.71	2650.000
227.08	612.500
227.46	540.000
227.83	-1100.000
228.21	-2200.000
228.58	566.667
228.95	-2200.000
229.33	-2650.000
229.70	1733.333
230.08	842.857
230.45	-620.000
230.82	475.000
231.20	833.333
231.57	542.857
231.95	475.000
232.32	250.000
232.69	409.091
233.07	757.143
233.44	369.231
233.81	-1433.333
234.19	247.368
234.56	391.667
234.93	358.333
235.31	436.364
235.68	292.308
236.05	278.571
236.43	166.667
236.80	284.211
237.17	4200.000
237.55	200.000
237.92	214.286
238.29	171.429
238.67	154.839
239.04	172.414
239.41	119.444
239.79	104.348
240.16	126.190
240.53	136.364
240.91	92.157
241.28	84.000
241.65	88.000
242.02	85.507
242.40	88.710
242.77	76.667
243.14	61.290
243.51	59.551
243.89	54.118
244.26	47.778
244.63	54.839
245.00	41.489
245.38	55.446
245.75	49.533
246.12	49.541
246.49	45.985
246.87	48.000
247.24	44.615
247.61	41.429
247.98	35.294
248.36	30.405
248.73	28.025
249.10	35.669
249.47	29.379
249.84	30.481
250.22	32.086
250.59	30.769
250.96	29.293
251.33	27.488
251.70	28.218
252.08	29.048
252.45	21.525
252.82	28.696
253.19	25.106
253.56	21.176
253.94	30.705
254.31	23.437
254.68	22.692
255.05	25.461
255.42	21.951
255.79	22.794
256.16	23.105
256.54	23.322
256.91	23.488
257.28	16.547
257.65	19.802
258.02	18.944
258.39	21.451
258.76	21.739
259.14	23.810
259.51	18.541
259.88	18.944
260.25	20.846
260.62	19.075
260.99	20.497
261.36	19.520
261.73	14.613
262.10	15.988
262.47	18.592
262.85	16.156
263.22	15.954
263.59	19.943
263.96	17.033
264.33	15.405
264.70	15.789
265.07	18.670
265.44	15.909
265.81	15.328
266.18	15.578
266.55	15.610
266.92	16.708
267.29	15.046
267.66	15.367
268.03	15.227
268.40	14.953
268.77	12.411
269.14	15.090
269.51	14.447
269.88	18.415
270.25	15.350
270.62	14.157
270.99	15.914
271.36	16.738
271.73	12.850
272.10	12.609
272.47	14.194
272.84	15.801
273.21	16.981
273.58	11.354
273.95	13.208
274.32	15.289
274.69	15.203
275.06	13.386
275.43	16.170
275.80	12.224
276.17	13.035
276.54	14.553
276.91	14.625
277.28	11.914
277.65	16.054
278.02	13.251
278.39	13.867
278.76	12.909
279.13	14.906
279.50	12.849
279.87	13.745
280.23	14.371
280.60	11.799
280.97	12.200
281.34	13.982
281.71	14.000
282.08	15.355
282.45	12.909
282.82	12.789
283.19	10.517
283.56	13.684
283.92	11.675
284.29	12.169
284.66	12.704
285.03	12.839
285.40	12.500
285.77	12.290
286.14	12.781
286.51	13.000
286.87	12.479
287.24	13.518
287.61	13.483
287.98	12.825
288.35	12.678
288.72	11.682
289.08	11.268
289.45	12.191
289.82	11.545
290.19	10.675
290.56	10.720
290.93	9.819
291.29	12.270
291.66	12.242
292.03	12.645
292.40	12.482
292.77	10.503
293.13	13.284
293.50	11.224
293.87	12.296
294.24	8.000
294.60	8.879
294.97	9.884
295.34	13.117
295.71	10.795
296.08	8.974
296.44	10.591
296.81	9.908
297.18	11.382
297.55	8.971
297.91	8.575
298.28	10.710
298.65	10.313
299.02	8.827
299.38	9.163
299.75	7.817
300.12	8.301
300.48	9.500
300.85	10.727
301.22	10.191
301.59	8.712
301.95	8.690
302.32	9.884
302.69	9.677
303.05	8.485
303.42	8.519
303.79	8.947
304.15	8.741
304.52	8.227
304.89	8.130
305.25	9.049
305.62	8.720
305.99	10.744
306.35	8.725
306.72	8.184
307.09	9.767
307.45	9.910
307.82	7.701
308.19	8.499
308.55	8.846
308.92	8.915
309.29	8.553
309.65	8.271
310.02	8.668
310.38	8.710
310.75	8.448
311.12	9.724
311.48	8.986
311.85	8.386
312.22	8.741
312.58	8.212
312.95	9.820
313.31	9.417
313.68	9.563
314.05	9.961
314.41	9.749
314.78	8.560
315.14	8.640
315.51	8.960
315.87	8.515
316.24	9.235
316.61	8.382
316.97	7.436
317.34	8.317
317.70	9.369
318.07	9.528
318.43	9.785
318.80	10.497
319.16	9.887
319.53	7.974
319.89	9.714
320.26	10.500
320.62	9.921
320.99	10.202
321.35	9.394
321.72	9.959
322.08	10.168
322.45	9.751
322.81	9.981
323.18	11.368
323.54	10.853
323.91	10.755
324.27	8.795
324.64	8.201
325.00	8.837
325.37	9.190
325.73	10.233
326.10	9.709
326.46	8.423
326.83	10.354
327.19	9.821
327.56	9.756
327.92	9.099
328.29	10.115
328.65	9.945
329.01	10.830
329.38	9.343
329.74	10.065
330.11	8.106
330.47	9.734
330.84	11.949
331.20	9.472
331.56	10.000
331.93	9.259
332.29	10.559
332.66	10.177
333.02	9.506
333.38	10.027
333.75	10.250
334.11	10.320
334.48	9.938
334.84	10.570
335.20	11.273
335.57	8.704
335.93	9.196
336.29	9.524
336.66	9.919
337.02	9.683
337.38	9.352
337.75	8.913
338.11	9.311
338.47	9.576
338.84	9.166
339.20	8.349
339.56	11.496
339.93	8.636
340.29	9.601
340.65	8.734
341.02	10.471
341.38	10.587
341.74	9.298
342.11	9.520
342.47	8.546
342.83	9.760
343.20	9.004
343.56	8.846
343.92	9.561
344.28	9.779
344.65	8.684
345.01	9.596
345.37	8.748
345.73	9.475
346.10	9.292
346.46	9.746
346.82	9.555
347.19	8.104
347.55	8.785
347.91	9.466
348.27	10.435
348.63	9.114
349.00	8.738
349.36	9.113
349.72	9.623
350.08	8.671
350.45	8.381
350.81	10.073
351.17	8.914
351.53	9.091
351.89	8.168
352.26	9.471
352.62	9.543
352.98	9.481
353.34	8.874
353.70	9.165
354.07	8.387
354.43	8.571
354.79	8.286
355.15	8.300
355.51	9.752
355.87	9.143
356.24	8.388
356.60	8.661
356.96	8.367
357.32	8.994
357.68	9.055
358.04	9.026
358.40	9.184
358.77	8.920
359.13	8.682
359.49	8.627
359.85	6.587
360.21	7.895
360.57	9.183
360.93	8.615
361.29	8.390
361.66	7.972
362.02	8.433
362.38	8.745
362.74	8.854
363.10	8.808
363.46	8.951
363.82	8.919
364.18	9.398
364.54	9.807
364.90	9.278
365.26	9.044
365.62	9.496
365.98	8.181
366.35	8.524
366.71	8.749
367.07	7.793
367.43	8.200
367.79	8.637
368.15	10.129
368.51	8.358
368.87	8.779
369.23	7.754
369.59	8.110
369.95	8.529
370.31	9.544
370.67	8.551
371.03	9.438
371.39	9.184
371.75	9.191
372.11	9.531
372.47	9.311
372.83	9.726
373.19	9.104
373.55	9.534
373.91	9.352
374.27	9.072
374.63	9.018
374.99	10.169
375.35	8.863
375.71	9.321
376.07	9.328
376.42	9.835
376.78	10.139
377.14	8.684
377.50	9.536
377.86	9.043
378.22	9.671
378.58	9.273
378.94	9.302
379.30	8.779
379.66	10.089
380.02	10.074
380.38	8.500
380.74	9.724
381.09	10.208
381.45	9.281
381.81	10.258
382.17	9.682
382.53	9.371
382.89	9.815
383.25	9.568
383.61	9.665
383.97	9.568
384.32	10.480
384.68	10.471
385.04	10.326
385.40	10.031
385.76	10.197
386.12	9.715
386.48	10.447
386.83	10.199
387.19	11.070
387.55	10.328
387.91	10.459
388.27	9.810
388.62	10.203
388.98	10.135
389.34	11.327
389.70	10.668
390.06	11.597
390.42	10.311
390.77	11.514
391.13	11.168
391.49	11.231
391.85	10.821
392.20	10.410
392.56	10.669
392.92	11.595
393.28	10.000
393.64	11.451
393.99	11.423
394.35	10.484
394.71	10.979
395.07	10.717
395.42	10.321
395.78	11.896
396.14	11.235
396.50	12.030
396.85	10.680
397.21	10.789
397.57	11.779
397.92	10.757
398.28	10.202
398.64	10.932
399.00	11.360
399.35	10.829
399.71	10.995
400.07	11.946
400.42	11.595
400.78	11.279
401.14	11.037
401.49	11.104
401.85	10.889
402.21	10.958
402.57	10.734
402.92	11.034
403.28	11.305
403.63	11.757
403.99	10.573
404.35	10.727
404.70	11.151
405.06	10.949
405.42	11.229
405.77	11.200
406.13	11.230
406.49	10.822
406.84	11.341
407.20	10.165
407.55	11.423
407.91	11.333
408.27	10.721
408.62	11.439
408.98	10.172
409.34	10.824
409.69	11.484
410.05	10.471
410.40	10.948
410.76	11.111
411.11	11.399
411.47	10.607
411.83	11.057
412.18	11.070
412.54	11.270
412.89	11.265
413.25	10.744
413.60	11.489
413.96	11.111
414.31	10.996
414.67	11.660
415.03	10.795
415.38	11.598
415.74	11.061
416.09	12.149
416.45	10.776
416.80	12.029
417.16	11.595
417.51	11.148
417.87	11.047
418.22	11.230
418.58	11.298
418.93	11.425
419.29	11.394
419.64	11.776
420.00	12.195
420.35	11.884
420.71	11.237
421.06	11.158
421.42	11.111
421.77	11.211
422.12	10.556
422.48	9.876
422.83	11.241
423.19	11.657
423.54	10.331
423.90	11.072
424.25	11.837
424.61	11.012
424.96	11.254
425.31	11.130
425.67	11.236
426.02	11.371
426.38	11.661
426.73	10.942
427.09	11.550
427.44	11.731
427.79	10.006
428.15	12.679
428.50	11.410
428.85	11.442
429.21	9.939
429.56	11.457
429.92	11.424
430.27	10.377
430.62	10.241
430.98	11.261
431.33	11.237
431.68	11.204
432.04	11.022
432.39	11.079
432.74	10.293
433.10	11.602
433.45	10.904
433.80	10.976
434.16	11.058
434.51	10.895
434.86	11.117
435.22	10.839
435.57	11.550
435.92	10.532
436.28	11.803
436.63	11.865
436.98	11.219
437.34	11.389
437.69	11.494
438.04	11.467
438.39	11.343
438.75	11.273
439.10	11.173
439.45	11.511
439.81	12.387
440.16	11.293
440.51	10.838
440.86	11.465
441.22	10.734
441.57	11.465
441.92	11.259
442.27	11.249
442.63	11.164
442.98	11.549
443.33	11.304
443.68	11.668
444.03	11.079
444.39	10.808
444.74	11.255
445.09	11.105
445.44	10.990
445.79	11.282
446.15	11.752
446.50	11.578
446.85	11.562
447.20	11.474
447.55	11.502
447.91	10.259
448.26	11.630
448.61	11.815
448.96	11.683
449.31	11.474
449.66	11.480
450.02	11.142
450.37	10.884
450.72	11.562
451.07	11.030
451.42	11.611
451.77	12.214
452.12	11.721
452.47	11.754
452.83	11.247
453.18	11.308
453.53	11.441
453.88	11.105
454.23	11.476
454.58	12.841
454.93	12.397
455.28	11.347
455.63	11.529
455.98	11.726
456.34	11.621
456.69	12.461
457.04	11.641
457.39	11.806
457.74	12.072
458.09	11.616
458.44	12.030
458.79	10.846
459.14	11.738
459.49	12.201
459.84	10.748
460.19	11.196
460.54	11.227
460.89	11.355
461.24	11.900
461.59	12.667
461.94	11.714
462.29	12.463
462.64	10.913
462.99	11.971
463.34	12.333
463.69	11.757
464.04	12.116
464.39	12.116
464.74	10.695
465.09	11.821
465.44	11.911
465.79	10.850
466.14	11.932
466.49	10.901
466.84	12.434
467.19	11.889
467.54	11.875
467.89	11.945
468.24	12.100
468.59	12.027
468.94	10.996
469.29	11.504
469.64	14.190
469.99	12.585
470.34	11.427
470.68	12.284
471.03	11.837
471.38	12.995
471.73	12.325
472.08	12.632
472.43	12.186
472.78	12.442
473.13	12.580
473.48	12.297
473.83	11.890
474.17	11.325
474.52	12.283
474.87	12.201
475.22	11.898
475.57	11.445
475.92	11.524
476.27	11.161
476.61	11.804
476.96	11.160
477.31	11.931
477.66	11.324
478.01	11.918
478.36	12.004
478.70	10.488
479.05	11.395
479.40	12.180
479.75	11.795
480.10	10.338
480.45	11.614
480.79	10.941
481.14	11.448
481.49	11.391
481.84	10.928
482.19	11.767
482.53	11.422
482.88	10.982
483.23	11.682
483.58	11.601
483.92	11.903
484.27	10.022
484.62	10.905
484.97	11.155
485.31	10.788
485.66	9.784
486.01	9.267
486.36	8.782
486.70	8.565
487.05	9.202
487.40	9.678
487.75	9.912
488.09	9.766
488.44	10.240
488.79	10.958
489.13	11.230
489.48	10.767
489.83	11.006
490.17	11.355
490.52	10.407
490.87	10.674
491.22	11.278
491.56	10.296
491.91	11.215
492.26	11.070
492.60	11.152
492.95	10.384
493.30	11.542
493.64	10.873
493.99	11.096
494.34	11.563
494.68	11.859
495.03	11.607
495.37	11.587
495.72	10.429
496.07	11.508
496.41	10.398
496.76	11.258
497.11	10.401
497.45	11.085
497.80	11.084
498.14	10.386
498.49	10.878
498.84	11.745
499.18	11.571
499.53	10.969
499.87	10.578
500.22	11.776
500.56	11.748
500.91	11.538
501.26	11.000
501.60	11.675
501.95	10.862
502.29	11.528
502.64	11.453
502.98	10.659
503.33	11.197
503.67	10.951
504.02	11.179
504.36	11.886
504.71	11.334
505.06	12.000
505.40	11.522
505.75	11.138
506.09	10.641
506.44	11.248
506.78	11.154
507.13	11.106
507.47	11.667
507.82	11.955
508.16	11.196
508.51	11.669
508.85	10.824
509.19	11.939
509.54	10.918
509.88	11.643
510.23	11.722
510.57	12.436
510.92	11.963
511.26	11.716
511.61	12.293
511.95	11.534
512.30	11.612
512.64	11.929
512.98	11.897
513.33	12.206
513.67	11.953
514.02	11.255
514.36	12.343
514.70	12.120
515.05	10.653
515.39	12.395
515.74	10.980
516.08	11.794
516.42	12.542
516.77	12.040
517.11	11.210
517.46	12.246
517.80	12.950
518.14	12.102
518.49	13.011
518.83	12.784
519.17	12.413
519.52	11.998
519.86	11.865
520.20	12.717
520.55	12.867
520.89	12.287
521.23	12.425
521.58	12.305
521.92	12.860
522.26	12.142
522.61	12.773
522.95	12.400
523.29	12.173
523.64	12.805
523.98	12.384
524.32	12.123
524.66	12.688
525.01	12.377
525.35	12.515
525.69	11.946
526.04	12.773
526.38	11.714
526.72	12.822
527.06	11.676
527.41	11.634
527.75	12.605
528.09	12.267
528.43	12.110
528.78	12.477
529.12	11.758
529.46	13.533
529.80	12.686
530.15	12.461
530.49	12.985
530.83	12.658
531.17	12.924
531.51	14.008
531.86	12.774
532.20	12.581
532.54	13.325
532.88	12.837
533.22	12.430
533.57	12.160
533.91	12.282
534.25	12.394
534.59	12.935
534.93	11.898
535.27	13.096
535.62	13.065
535.96	12.932
536.30	11.761
536.64	12.428
536.98	12.940
537.32	13.430
537.66	11.933
538.01	12.969
538.35	12.605
538.69	13.146
539.03	12.086
539.37	11.821
539.71	11.406
540.05	12.026
540.39	13.090
540.73	12.678
541.07	13.628
541.42	12.981
541.76	13.097
542.10	12.872
542.44	12.318
542.78	13.570
543.12	11.452
543.46	12.656
543.80	13.273
544.14	11.874
544.48	12.190
544.82	12.123
545.16	12.232
545.50	12.404
545.84	12.567
546.18	12.458
546.52	12.044
546.86	12.371
547.20	12.879
547.54	12.425
547.88	13.074
548.22	12.204
548.56	13.145
548.90	11.972
549.24	12.054
549.58	13.097
549.92	12.706
550.26	12.500
550.60	13.209
550.94	13.310
551.28	12.948
551.62	12.221
551.96	12.702
552.30	12.901
552.64	13.252
552.98	12.136
553.32	13.891
553.66	14.042
554.00	12.286
554.34	13.527
554.68	13.448
555.02	13.047
555.36	13.013
555.69	12.517
556.03	12.719
556.37	12.619
556.71	12.960
557.05	12.955
557.39	12.036
557.73	13.903
558.07	12.618
558.41	13.314
558.75	13.226
559.08	13.274
559.42	13.681
559.76	13.309
560.10	12.705
560.44	12.020
560.78	11.577
561.12	12.533
561.45	12.647
561.79	12.788
562.13	12.676
562.47	12.773
562.81	12.552
563.15	13.177
563.48	12.732
563.82	12.720
564.16	12.950
564.50	11.849
564.84	12.200
565.17	12.806
565.51	12.524
565.85	12.310
566.19	12.210
566.52	12.096
566.86	12.236
567.20	12.795
567.54	11.929
567.88	11.461
568.21	12.275
568.55	11.122
568.89	11.235
569.23	10.651
569.56	11.134
569.90	10.679
570.24	10.477
570.57	10.405
570.91	9.922
571.25	9.728
571.59	10.162
571.92	9.793
572.26	9.850
572.60	9.970
572.93	9.325
573.27	10.352
573.61	9.827
573.95	9.793
574.28	9.573
574.62	9.281
574.96	9.032
575.29	9.554
575.63	9.375
575.97	9.399
576.30	9.719
576.64	9.553
576.98	9.456
577.31	9.196
577.65	9.207
577.98	9.007
578.32	8.896
578.66	9.245
578.99	9.587
579.33	9.150
579.67	9.389
580.00	9.662
580.34	9.207
580.67	9.336
581.01	9.197
581.35	9.286
581.68	9.057
582.02	8.781
582.35	8.897
582.69	8.850
583.02	8.935
583.36	9.269
583.70	9.441
584.03	9.744
584.37	9.987
584.70	9.796
585.04	9.662
585.37	9.599
585.71	9.610
586.04	9.592
586.38	9.509
586.72	9.693
587.05	9.427
587.39	9.525
587.72	9.559
588.06	9.205
588.39	9.684
588.73	9.856
589.06	10.034
589.40	10.572
589.73	10.208
590.07	10.356
590.40	10.121
590.73	10.695
591.07	11.396
591.40	11.135
591.74	10.433
592.07	11.344
592.41	10.624
592.74	10.187
593.08	10.227
593.41	9.807
593.75	9.931
594.08	9.722
594.41	10.392
594.75	9.982
595.08	10.272
595.42	10.263
595.75	10.328
596.09	10.777
596.42	11.552
596.75	10.595
597.09	11.732
597.42	10.202
597.75	10.781
598.09	10.913
598.42	11.297
598.76	9.931
599.09	10.148
599.42	10.044
599.76	10.139
600.09	9.763
600.42	9.898
600.76	10.071
601.09	10.128
601.42	10.464
601.76	10.323
602.09	10.514
602.42	10.908
602.76	10.842
603.09	10.189
603.42	10.894
603.76	10.480
604.09	10.043
604.42	10.803
604.76	11.135
605.09	10.660
605.42	10.859
605.75	10.927
606.09	10.126
606.42	9.808
606.75	10.825
607.09	11.093
607.42	10.569
607.75	10.380
608.08	10.638
608.42	11.026
608.75	11.046
609.08	10.916
609.41	10.614
609.75	11.243
610.08	11.404
610.41	10.801
610.74	10.974
611.07	10.573
611.41	11.237
611.74	11.312
612.07	10.921
612.40	11.228
612.73	11.526
613.07	11.584
613.40	11.427
613.73	10.645
614.06	11.344
614.39	11.799
614.72	11.789
615.06	11.817
615.39	11.783
615.72	11.452
616.05	11.271
616.38	11.895
616.71	11.639
617.05	12.073
617.38	11.185
617.71	10.931
618.04	10.998
618.37	12.123
618.70	12.197
619.03	13.355
619.36	12.356
619.69	12.394
620.03	13.049
620.36	12.968
620.69	13.562
621.02	12.906
621.35	12.060
621.68	12.461
622.01	13.700
622.34	13.238
622.67	13.004
623.00	11.445
623.33	12.223
623.66	12.294
623.99	11.561
624.32	12.553
624.65	12.218
624.99	11.686
625.32	12.455
625.65	12.472
625.98	13.836
626.31	12.908
626.64	12.898
626.97	13.633
627.30	13.383
627.63	14.356
627.96	14.550
628.29	14.611
628.62	13.449
628.95	15.472
629.28	14.599
629.61	14.024
629.94	13.429
630.26	13.823
630.59	13.346
630.92	14.272
631.25	13.919
631.58	13.714
631.91	14.300
632.24	13.291
632.57	16.159
632.90	15.241
633.23	15.436
633.56	14.576
633.89	15.629
634.22	15.210
634.55	15.976
634.88	15.689
635.20	16.487
635.53	16.024
635.86	13.985
636.19	14.706
636.52	16.148
636.85	15.693
637.18	16.014
637.51	16.667
637.83	13.810
638.16	15.985
638.49	15.743
638.82	16.435
639.15	15.875
639.48	17.830
639.81	15.550
640.13	16.016
640.46	17.047
640.79	17.834
641.12	14.718
641.45	16.201
641.77	16.642
642.10	15.643
642.43	17.117
642.76	15.635
643.09	18.405
643.41	18.665
643.74	18.519
644.07	19.207
644.40	17.945
644.73	19.843
645.05	18.384
645.38	16.430
645.71	17.069
646.04	18.605
646.36	20.868
646.69	20.067
647.02	18.367
647.35	18.729
647.67	20.354
648.00	19.024
648.33	16.502
648.66	17.576
648.98	18.741
649.31	16.442
649.64	17.788
649.96	19.076
650.29	17.378
650.62	16.828
650.94	17.990
651.27	18.074
651.60	18.636
651.92	17.732
652.25	16.775
652.58	19.003
652.90	18.799
653.23	17.103
653.56	17.795
653.88	17.433
654.21	18.325
654.54	18.152
654.86	17.290
655.19	15.541
655.52	9.444
655.84	7.092
656.17	8.525
656.49	11.566
656.82	11.984
657.15	9.235
657.47	7.010
657.80	5.658
658.13	5.993
658.45	9.081
658.78	9.730
659.10	10.597
659.43	11.743
659.75	11.612
660.08	13.101
660.41	15.456
660.73	17.027
661.06	19.904
661.38	18.545
661.71	22.115
662.03	20.118
662.36	18.688
662.68	21.285
663.01	19.192
663.33	19.745
663.66	18.487
663.98	19.438
664.31	20.798
664.63	20.648
664.96	18.913
665.28	22.131
665.61	19.298
665.93	19.517
666.26	16.633
666.58	20.084
666.91	22.410
667.23	22.697
667.56	18.359
667.88	22.222
668.21	24.094
668.53	19.306
668.86	21.212
669.18	24.307
669.50	19.565
669.83	23.965
670.15	19.556
670.48	22.004
670.80	22.198
671.13	22.293
671.45	18.723
671.77	20.774
672.10	19.039
672.42	18.021
672.75	18.740
673.07	17.606
673.39	17.360
673.72	18.164
674.04	18.431
674.37	20.583
674.69	17.178
675.01	20.084
675.34	20.945
675.66	21.474
675.98	22.403
676.31	21.639
676.63	22.930
676.95	19.497
677.28	20.561
677.60	20.000
677.92	24.473
678.25	21.150
678.57	21.514
678.89	19.840
679.22	20.629
679.54	19.847
679.86	19.817
680.18	17.352
680.51	16.489
680.83	19.395
681.15	17.547
681.48	20.227
681.80	19.536
682.12	18.582
682.44	18.375
682.77	20.978
683.09	22.961
683.41	19.734
683.73	20.751
684.06	21.074
684.38	19.765
684.70	19.380
685.02	20.450
685.34	17.582
685.67	16.434
685.99	16.838
686.31	17.065
686.63	15.901
686.96	16.429
687.28	18.953
687.60	16.848
687.92	18.099
688.24	21.293
688.56	21.285
688.89	23.029
689.21	20.742
689.53	17.537
689.85	18.625
690.17	17.391
690.49	22.505
690.82	21.963
691.14	18.304
691.46	18.776
691.78	20.080
692.10	20.868
692.42	19.162
692.74	19.087
693.06	20.213
693.39	21.561
693.71	17.686
694.03	20.842
694.35	19.048
694.67	18.078
694.99	22.927
695.31	18.873
695.63	21.531
695.95	19.560
696.27	18.020
696.59	22.280
696.91	21.244
697.23	19.484
697.56	20.256
697.88	16.155
698.20	19.375
698.52	20.860
698.84	18.708
699.16	16.820
699.48	18.765
699.80	20.290
700.12	22.857
700.44	22.812
700.76	22.099
701.08	22.989
701.40	24.581
701.72	25.073
702.04	28.125
702.36	22.380
702.68	22.663
703.00	22.715
703.32	22.872
703.64	23.056
703.96	23.120
704.28	22.674
704.60	23.460
704.91	22.849
705.23	26.393
705.55	23.920
705.87	29.236
706.19	22.615
706.51	22.741
706.83	23.939
707.15	26.611
707.47	23.232
707.79	21.867
708.11	21.005
708.43	21.667
708.74	17.347
709.06	22.857
709.38	23.885
709.70	21.512
710.02	25.223
710.34	22.727
710.66	23.582
710.98	25.000
711.29	24.419
711.61	24.189
711.93	23.718
712.25	29.260
712.57	29.044
712.89	24.913
713.20	26.748
713.52	27.303
713.84	22.468
714.16	22.866
714.48	23.276
714.80	23.708
715.11	22.767
715.43	22.552
715.75	23.188
716.07	23.642
716.39	24.451
716.70	27.243
717.02	25.180
717.34	28.622
717.66	26.866
717.97	31.474
718.29	30.000
718.61	27.737
718.93	23.897
719.24	25.606
719.56	22.373
719.88	25.424
720.20	28.716
720.51	21.603
720.83	28.253
721.15	26.119
721.46	27.305
721.78	29.391
722.10	26.415
722.42	28.195
722.73	26.592
723.05	33.607
723.37	32.389
723.68	25.869
724.00	28.862
724.32	23.387
724.63	26.829
724.95	25.523
725.27	32.389
725.58	28.516
725.90	29.927
726.22	25.283
726.53	24.653
726.85	29.693
727.16	28.114
727.48	26.241
727.80	28.030
728.11	26.812
728.43	25.385
728.74	25.448
729.06	29.562
729.38	28.676
729.69	28.470
730.01	25.939
730.32	22.917
730.64	24.749
730.96	22.442
731.27	26.821
731.59	28.440
731.90	23.907
732.22	23.602
732.53	23.839
732.85	24.038
733.16	24.116
733.48	28.239
733.80	25.974
734.11	24.841
734.43	24.260
734.74	24.000
735.06	22.063
735.37	26.012
735.69	22.611
736.00	28.431
736.32	23.364
736.63	23.962
736.95	23.323
737.26	20.748
737.58	24.194
737.89	26.421
738.21	28.328
738.52	24.286
738.83	22.642
739.15	21.923
739.46	27.372
739.78	26.042
740.09	25.538
740.41	27.419
740.72	20.557
741.04	29.259
741.35	29.583
741.66	32.889
741.98	31.604
742.29	33.971
742.61	34.052
742.92	33.484
743.23	27.350
743.55	28.400
743.86	26.316
744.18	34.071
744.49	35.885
744.80	34.272
745.12	35.000
745.43	32.159
745.74	36.937
746.06	30.275
746.37	36.323
746.68	33.484
747.00	33.333
747.31	33.333
747.62	26.106
747.94	31.278
748.25	28.085
748.56	33.040
748.88	30.198
749.19	33.500
749.50	33.023
749.82	29.675
750.13	29.796
750.44	27.007
750.75	31.228
751.07	29.260
751.38	27.178
751.69	29.964
752.01	27.820
752.32	24.910
752.63	26.596
752.94	29.918
753.26	29.200
753.57	28.455
753.88	32.422
754.19	26.786
754.51	28.472
754.82	23.466
755.13	28.302
755.44	25.940
755.75	24.818
756.07	19.858
756.38	24.088
756.69	23.154
757.00	22.754
757.31	23.145
757.63	20.175
757.94	22.788
758.25	17.647
758.56	19.259
758.87	22.043
759.18	25.758
759.50	26.019
759.81	23.988
760.12	21.562
760.43	23.209
760.74	20.380
761.05	22.316
761.36	23.797
761.67	24.148
761.99	21.739
762.30	26.042
762.61	29.008
762.92	30.078
763.23	27.731
763.54	30.800
763.85	25.000
764.16	29.231
764.47	28.137
764.78	22.615
765.10	25.316
765.41	21.534
765.72	23.952
766.03	27.586
766.34	22.667
766.65	29.362
766.96	30.342
767.27	39.086
767.58	33.333
767.89	37.895
768.20	33.908
768.51	36.041
768.82	35.780
769.13	32.520
769.44	28.745
769.75	27.468
770.06	28.440
770.37	34.389
770.68	31.019
770.99	23.556
771.30	23.361
771.61	28.700
771.92	33.197
772.23	31.092
772.54	29.744
772.85	33.508
773.16	35.106
773.47	36.413
773.78	39.594
774.09	40.476
774.39	39.766
774.70	35.802
775.01	50.000
775.32	49.020
775.63	38.158
775.94	39.568
776.25	48.031
776.56	50.000
776.87	42.623
777.18	50.781
777.48	48.855
777.79	49.242
778.10	48.889
778.41	44.643
778.72	43.066
779.03	36.242
779.34	32.886
779.65	33.784
779.95	39.264
780.26	41.830
780.57	35.862
780.88	49.219
781.19	45.113
781.50	47.297
781.80	37.736
782.11	33.898
782.42	37.342
782.73	34.969
783.04	45.270
783.34	48.592
783.65	43.836
783.96	53.731
784.27	36.364
784.57	43.165
784.88	32.407
785.19	52.381
785.50	50.000
785.81	55.224
786.11	45.902
786.42	55.039
786.73	43.363
787.04	56.604
787.34	50.893
787.65	49.000
787.96	54.054
788.26	40.496
788.57	43.220
788.88	51.240
789.19	49.306
789.49	55.303
789.80	48.092
790.11	56.190
790.41	62.376
790.72	55.422
791.03	47.826
791.33	67.442
791.64	71.134
791.95	59.406
792.25	66.667
792.56	76.623
792.87	79.487
793.17	79.747
793.48	71.264
793.79	70.115
794.09	61.364
794.40	49.580
794.70	52.206
795.01	44.444
795.32	48.201
795.62	47.244
795.93	56.897
796.23	46.018
796.54	72.941
796.85	66.216
797.15	74.648
797.46	75.758
797.76	66.265
798.07	62.025
798.37	81.538
798.68	77.273
798.99	71.831
799.29	68.831
799.60	59.091
799.90	82.192
800.21	79.104
800.51	62.069
800.82	87.719
801.12	90.164
801.43	89.394
801.73	66.216
802.04	85.714
802.34	85.185
802.65	92.188
802.95	86.441
803.26	101.563
803.56	85.714
803.87	76.923
804.17	86.765
804.48	107.407
804.78	108.621
805.09	95.588
805.39	100.000
805.70	89.286
806.00	95.082
806.30	86.364
806.61	87.805
806.91	69.620
807.22	71.053
807.52	68.657
807.83	87.324
808.13	84.375
808.43	86.667
808.74	68.421
809.04	88.406
809.35	83.582
809.65	72.368
809.95	106.452
810.26	91.525
810.56	84.127
810.86	127.273
811.17	126.190
811.47	93.333
811.77	85.185
812.08	81.818
812.38	116.000
812.69	127.778
812.99	134.091
813.29	124.490
813.59	80.952
813.90	93.878
814.20	98.182
814.50	83.077
814.81	94.118
815.11	118.367
815.41	86.885
815.72	116.667
816.02	96.364
816.32	133.333
816.62	105.000
816.93	114.634
817.23	133.333
817.53	120.455
817.84	133.333
818.14	123.913
818.44	135.556
818.74	144.118
819.04	135.000
819.35	157.143
819.65	138.235
819.95	157.143
820.25	240.000
820.56	151.282
820.86	115.909
821.16	118.605
821.46	128.205
821.76	108.000
822.07	154.286
822.37	152.500
822.67	139.394
822.97	101.961
823.27	200.000
823.57	137.838
823.88	177.500
824.18	183.333
824.48	157.143
824.78	204.000
825.08	179.167
825.38	132.432
825.69	112.195
825.99	187.500
826.29	168.966
826.59	150.000
826.89	150.000
827.19	176.471
827.49	170.968
827.79	138.636
828.09	113.636
828.39	93.617
828.70	120.408
829.00	166.667
829.30	187.097
829.60	120.000
829.90	346.667
830.20	207.143
830.50	186.957
830.80	200.000
831.10	216.667
831.40	186.667
831.70	182.609
832.00	242.308
832.30	162.963
832.60	293.750
832.90	180.000
833.20	428.571
833.50	141.935
833.80	151.724
834.10	200.000
834.40	207.692
834.70	283.333
835.00	285.714
835.30	174.286
835.60	292.308
835.90	189.655
836.20	335.714
836.50	189.655
836.80	204.000
837.10	163.889
837.40	242.857
837.70	282.353
838.00	218.519
838.30	257.143
838.60	266.667
838.90	215.385
839.19	260.000
839.49	421.429
839.79	290.000
840.09	235.000
840.39	214.286
840.69	221.739
840.99	272.222
841.29	420.000
841.59	350.000
841.88	281.250
842.18	200.000
842.48	209.524
842.78	190.000
843.08	239.130
843.38	143.750
843.68	750.000
843.97	253.846
844.27	206.897
844.57	295.238
844.87	275.000
845.17	218.519
845.47	1500.000
845.76	455.556
846.06	311.765
846.36	512.500
846.66	378.571
846.96	250.000
847.25	436.364
847.55	418.182
847.85	230.435
848.15	520.000
848.44	371.429
848.74	250.000
849.04	347.059
849.34	550.000
849.63	242.105
849.93	400.000
850.23	820.000
850.53	400.000
850.82	1800.000
851.12	-4200.000
851.42	5200.000
851.71	245.000
852.01	-1066.667
852.31	241.667
852.61	1333.333
852.90	285.714
853.20	216.000
853.50	341.176
853.79	252.381
854.09	241.667
854.39	300.000
854.68	154.054
854.98	177.419
855.28	160.000
855.57	175.862
855.87	214.815
856.17	226.316
856.46	266.667
856.76	276.471
857.05	151.724
857.35	225.000
857.65	306.667
857.94	234.783
858.24	215.385
858.53	280.000
858.83	245.455
859.13	320.000
859.42	0.000
859.72	522.222
860.01	418.182
860.31	240.909
860.60	247.368
860.90	278.261
861.20	611.111
861.49	508.333
861.79	-4200.000
862.08	500.000
862.38	242.857
862.67	330.769
862.97	352.941
863.26	588.889
863.56	238.889
863.85	408.333
864.15	662.500
864.44	366.667
864.74	850.000
865.03	650.000
865.33	305.263
865.62	454.545
865.92	384.615
866.21	341.667
866.51	0.000
866.80	518.182
867.10	1040.000
867.39	415.385
867.69	436.364
867.98	263.158
868.27	509.091
868.57	321.053
868.86	-3500.000
869.16	312.500
869.45	2150.000
869.75	-4900.000
870.04	441.667
870.33	571.429
870.63	1075.000
870.92	2550.000
871.22	628.571
871.51	317.647
871.80	223.810
872.10	307.143
>>>>>End Processed Spectral Data<<<<<
