SpectraSuite Data File
++++++++++++++++++++++++++++++++++++
Date: Wed May 13 16:31:55 PDT 2015
User: schluterlab
Dark Spectrum Present: Yes
Reference Spectrum Present: Yes
Number of Sampled Component Spectra: 1
Spectrometers: USB2E3373
Integration Time (usec): 3000 (USB2E3373)
Spectra Averaged: 3 (USB2E3373)
Boxcar Smoothing: 0 (USB2E3373)
Correct for Electrical Dark: No (USB2E3373)
Strobe/Lamp Enabled: No (USB2E3373)
Correct for Detector Non-linearity: No (USB2E3373)
Correct for Stray Light: No (USB2E3373)
Number of Pixels in Processed Spectrum: 2048
>>>>>Begin Processed Spectral Data<<<<<
178.53	0.000
178.91	-1000.000
179.29	-1100.000
179.67	-200.000
180.04	-1125.000
180.42	2000.000
180.80	1120.000
181.18	-850.000
181.56	700.000
181.94	0.000
182.31	-642.857
182.69	1500.000
183.07	-537.500
183.45	-488.889
183.83	436.364
184.20	-280.000
184.58	2150.000
184.96	4300.000
185.34	-880.000
185.72	-525.000
186.09	-2250.000
186.47	2400.000
186.85	2450.000
187.23	3900.000
187.61	-1733.333
187.98	1200.000
188.36	490.909
188.74	436.364
189.12	-900.000
189.49	490.000
189.87	-4600.000
190.25	-975.000
190.63	414.286
191.00	415.385
191.38	816.667
191.76	-1150.000
192.14	1300.000
192.51	450.000
192.89	816.667
193.27	412.500
193.65	-700.000
194.02	420.000
194.40	980.000
194.78	550.000
195.15	416.667
195.53	560.000
195.91	-1950.000
196.29	262.500
196.66	273.684
197.04	-300.000
197.42	0.000
197.79	570.000
198.17	-4000.000
198.55	685.714
198.92	650.000
199.30	800.000
199.68	0.000
200.05	272.222
200.43	814.286
200.81	5000.000
201.18	1366.667
201.56	-1266.667
201.94	477.778
202.31	511.111
202.69	341.667
203.07	410.000
203.44	0.000
203.82	1100.000
204.19	828.571
204.57	450.000
204.95	587.500
205.32	1800.000
205.70	490.909
206.08	342.857
206.45	2550.000
206.83	331.250
207.20	733.333
207.58	880.000
207.96	311.111
208.33	687.500
208.71	-850.000
209.08	757.143
209.46	611.111
209.84	454.545
210.21	-1500.000
210.59	1275.000
210.96	-425.000
211.34	2450.000
211.71	490.000
212.09	783.333
212.46	0.000
212.84	1466.667
213.22	1300.000
213.59	-5400.000
213.97	783.333
214.34	714.286
214.72	600.000
215.09	1040.000
215.47	-2600.000
215.84	-2100.000
216.22	1200.000
216.59	350.000
216.97	1100.000
217.34	327.273
217.72	-533.333
218.09	0.000
218.47	-4500.000
218.84	500.000
219.22	714.286
219.59	1633.333
219.97	-442.857
220.34	940.000
220.72	-1533.333
221.09	350.000
221.47	1275.000
221.84	-916.667
222.22	0.000
222.59	1300.000
222.97	-2200.000
223.34	1020.000
223.72	400.000
224.09	900.000
224.46	1950.000
224.84	-4000.000
225.21	-840.000
225.59	-4300.000
225.96	590.000
226.34	340.000
226.71	2950.000
227.08	587.500
227.46	540.000
227.83	-950.000
228.21	-2600.000
228.58	577.778
228.95	-2050.000
229.33	-1850.000
229.70	1700.000
230.08	828.571
230.45	-700.000
230.82	408.333
231.20	616.667
231.57	571.429
231.95	458.333
232.32	218.182
232.69	418.182
233.07	557.143
233.44	223.077
233.81	-1566.667
234.19	252.632
234.56	325.000
234.93	391.667
235.31	381.818
235.68	323.077
236.05	285.714
236.43	163.636
236.80	268.421
237.17	3300.000
237.55	228.571
237.92	164.286
238.29	200.000
238.67	109.677
239.04	217.241
239.41	119.444
239.79	95.652
240.16	114.286
240.53	104.545
240.91	84.314
241.28	98.000
241.65	96.000
242.02	79.710
242.40	74.194
242.77	73.333
243.14	59.140
243.51	68.539
243.89	52.941
244.26	53.333
244.63	59.140
245.00	42.553
245.38	52.475
245.75	48.598
246.12	42.202
246.49	44.526
246.87	43.200
247.24	46.154
247.61	39.286
247.98	35.294
248.36	28.378
248.73	30.573
249.10	34.395
249.47	31.638
249.84	33.690
250.22	27.273
250.59	26.036
250.96	27.778
251.33	32.701
251.70	34.158
252.08	30.000
252.45	26.906
252.82	24.348
253.19	25.532
253.56	24.706
253.94	25.726
254.31	26.172
254.68	26.154
255.05	25.830
255.42	19.512
255.79	23.897
256.16	23.105
256.54	19.788
256.91	21.708
257.28	19.784
257.65	23.762
258.02	23.292
258.39	19.874
258.76	17.391
259.14	19.940
259.51	17.021
259.88	17.702
260.25	18.731
260.62	18.497
260.99	16.149
261.36	19.219
261.73	17.765
262.10	16.570
262.47	20.000
262.85	20.334
263.22	13.390
263.59	19.943
263.96	16.484
264.33	18.799
264.70	21.053
265.07	17.136
265.44	16.919
265.81	17.275
266.18	15.075
266.55	17.073
266.92	17.690
267.29	18.981
267.66	17.202
268.03	16.136
268.40	19.393
268.77	13.126
269.14	16.667
269.51	19.413
269.88	14.219
270.25	14.898
270.62	13.258
270.99	17.419
271.36	13.948
271.73	16.355
272.10	15.435
272.47	15.269
272.84	16.450
273.21	15.933
273.58	14.192
273.95	14.046
274.32	14.876
274.69	16.060
275.06	15.354
275.43	17.447
275.80	14.629
276.17	14.460
276.54	13.306
276.91	15.613
277.28	14.844
277.65	14.313
278.02	10.973
278.39	14.844
278.76	16.545
279.13	15.283
279.50	16.760
279.87	14.542
280.23	13.972
280.60	14.507
280.97	12.939
281.34	14.336
281.71	15.091
282.08	13.436
282.45	13.818
282.82	13.499
283.19	10.873
283.56	13.333
283.92	14.213
284.29	12.522
284.66	12.886
285.03	12.116
285.40	11.444
285.77	12.290
286.14	10.363
286.51	12.500
286.87	13.333
287.24	14.007
287.61	13.804
287.98	13.149
288.35	10.777
288.72	11.994
289.08	13.928
289.45	12.685
289.82	11.870
290.19	11.460
290.56	11.332
290.93	11.934
291.29	10.583
291.66	13.274
292.03	13.372
292.40	14.097
292.77	10.059
293.13	12.836
293.50	11.224
293.87	10.963
294.24	9.778
294.60	10.480
294.97	11.337
295.34	13.258
295.71	11.080
296.08	10.114
296.44	11.692
296.81	10.304
297.18	11.111
297.55	9.235
297.91	10.026
298.28	10.843
298.65	10.966
299.02	9.750
299.38	10.491
299.75	9.030
300.12	9.068
300.48	9.000
300.85	11.097
301.22	9.682
301.59	9.975
301.95	9.824
302.32	8.858
302.69	9.080
303.05	9.939
303.42	9.877
303.79	9.173
304.15	7.692
304.52	8.575
304.89	9.175
305.25	7.773
305.62	9.513
305.99	10.035
306.35	9.060
306.72	8.969
307.09	9.434
307.45	10.248
307.82	8.036
308.19	9.492
308.55	9.817
308.92	8.593
309.29	8.659
309.65	8.590
310.02	8.879
310.38	9.462
310.75	7.709
311.12	9.826
311.48	9.195
311.85	10.273
312.22	8.741
312.58	7.380
312.95	8.659
313.31	9.029
313.68	9.252
314.05	9.665
314.41	9.146
314.78	8.359
315.14	9.136
315.51	8.960
315.87	8.812
316.24	9.335
316.61	7.505
316.97	8.219
317.34	8.708
317.70	8.891
318.07	8.951
318.43	9.100
318.80	9.934
319.16	8.663
319.53	9.475
319.89	9.048
320.26	9.900
320.62	9.921
320.99	8.182
321.35	9.495
321.72	9.446
322.08	8.786
322.45	9.254
322.81	10.368
323.18	9.345
323.54	8.998
323.91	9.811
324.27	9.751
324.64	8.760
325.00	7.394
325.37	9.645
325.73	10.144
326.10	7.855
326.46	8.333
326.83	9.060
327.19	8.796
327.56	8.275
327.92	8.924
328.29	9.583
328.65	8.840
329.01	9.296
329.38	9.436
329.74	9.418
330.11	8.671
330.47	8.081
330.84	10.662
331.20	9.290
331.56	9.633
331.93	8.148
332.29	9.760
332.66	9.646
333.02	7.952
333.38	9.304
333.75	10.517
334.11	8.719
334.48	8.341
334.84	8.548
335.20	9.909
335.57	8.885
335.93	7.411
336.29	8.425
336.66	8.837
337.02	8.235
337.38	9.722
337.75	8.734
338.11	8.147
338.47	9.208
338.84	8.983
339.20	8.165
339.56	8.759
339.93	7.909
340.29	9.239
340.65	8.645
341.02	9.250
341.38	8.719
341.74	7.807
342.11	8.297
342.47	9.515
342.83	9.247
343.20	9.091
343.56	8.088
343.92	8.421
344.28	8.248
344.65	8.426
345.01	7.828
345.37	6.690
345.73	8.460
346.10	8.866
346.46	8.814
346.82	8.814
347.19	8.438
347.55	7.800
347.91	8.414
348.27	8.710
348.63	8.528
349.00	7.686
349.36	8.456
349.72	7.939
350.08	7.455
350.45	8.299
350.81	8.367
351.17	8.185
351.53	8.272
351.89	6.931
352.26	8.287
352.62	8.260
352.98	8.266
353.34	7.806
353.70	7.119
354.07	8.548
354.43	7.857
354.79	7.080
355.15	6.704
355.51	8.633
355.87	7.102
356.24	6.840
356.60	7.779
356.96	6.999
357.32	7.359
357.68	7.953
358.04	7.918
358.40	7.838
358.77	7.668
359.13	7.024
359.49	7.451
359.85	6.032
360.21	6.539
360.57	7.704
360.93	7.769
361.29	7.407
361.66	7.508
362.02	7.985
362.38	7.985
362.74	7.366
363.10	7.402
363.46	7.337
363.82	7.483
364.18	7.342
364.54	7.949
364.90	8.357
365.26	6.838
365.62	7.889
365.98	7.232
366.35	6.805
366.71	7.664
367.07	7.283
367.43	8.055
367.79	8.351
368.15	8.477
368.51	6.904
368.87	7.780
369.23	7.096
369.59	7.676
369.95	6.838
370.31	7.621
370.67	8.406
371.03	7.566
371.39	7.507
371.75	6.912
372.11	7.539
372.47	7.845
372.83	8.141
373.19	7.153
373.55	7.391
373.91	9.131
374.27	7.560
374.63	6.982
374.99	7.910
375.35	6.629
375.71	7.745
376.07	7.819
376.42	7.428
376.78	8.482
377.14	8.005
377.50	8.013
377.86	7.114
378.22	8.470
378.58	7.143
378.94	7.668
379.30	6.934
379.66	7.931
380.02	7.801
380.38	7.165
380.74	8.043
381.09	7.335
381.45	8.605
381.81	8.292
382.17	7.771
382.53	7.170
382.89	7.778
383.25	7.942
383.61	8.302
383.97	7.880
384.32	7.611
384.68	7.621
385.04	7.683
385.40	7.430
385.76	8.108
386.12	8.484
386.48	8.936
386.83	8.531
387.19	8.596
387.55	8.472
387.91	7.678
388.27	8.277
388.62	8.605
388.98	7.740
389.34	9.449
389.70	8.277
390.06	8.999
390.42	8.625
390.77	9.160
391.13	8.743
391.49	8.947
391.85	8.848
392.20	7.697
392.56	8.523
392.92	8.652
393.28	7.692
393.64	9.053
393.99	9.102
394.35	9.119
394.71	8.595
395.07	9.097
395.42	8.344
395.78	8.651
396.14	9.435
396.50	9.148
396.85	8.900
397.21	8.940
397.57	8.989
397.92	8.173
398.28	8.352
398.64	9.558
399.00	8.898
399.35	8.178
399.71	9.433
400.07	8.634
400.42	9.202
400.78	9.168
401.14	9.146
401.49	8.896
401.85	8.348
402.21	7.246
402.57	8.945
402.92	8.764
403.28	9.244
403.63	8.292
403.99	8.471
404.35	8.727
404.70	8.813
405.06	8.969
405.42	9.046
405.77	8.514
406.13	8.183
406.49	9.107
406.84	9.037
407.20	8.333
407.55	8.934
407.91	9.800
408.27	9.445
408.62	9.934
408.98	8.885
409.34	8.979
409.69	9.161
410.05	8.426
410.40	8.930
410.76	8.483
411.11	8.987
411.47	8.179
411.83	9.163
412.18	8.720
412.54	8.966
412.89	9.398
413.25	9.209
413.60	9.697
413.96	8.561
414.31	8.991
414.67	9.316
415.03	9.338
415.38	9.407
415.74	9.132
416.09	8.948
416.45	8.501
416.80	8.526
417.16	9.718
417.51	10.352
417.87	8.606
418.22	9.211
418.58	9.232
418.93	9.029
419.29	9.548
419.64	9.698
420.00	8.963
420.35	9.855
420.71	9.384
421.06	8.115
421.42	8.889
421.77	8.913
422.12	8.366
422.48	8.257
422.83	8.620
423.19	8.950
423.54	9.402
423.90	9.159
424.25	8.878
424.61	9.405
424.96	9.155
425.31	9.247
425.67	9.438
426.02	9.429
426.38	9.096
426.73	9.187
427.09	9.666
427.44	9.201
427.79	8.626
428.15	9.881
428.50	8.660
428.85	10.250
429.21	8.945
429.56	8.657
429.92	8.405
430.27	7.944
430.62	8.244
430.98	8.251
431.33	9.072
431.68	9.529
432.04	8.679
432.39	9.023
432.74	8.797
433.10	9.225
433.45	8.746
433.80	8.647
434.16	8.654
434.51	8.895
434.86	9.122
435.22	8.838
435.57	8.389
435.92	9.011
436.28	8.897
436.63	9.823
436.98	7.956
437.34	9.481
437.69	9.277
438.04	8.938
438.39	8.955
438.75	9.762
439.10	8.771
439.45	9.563
439.81	8.338
440.16	9.034
440.51	9.490
440.86	9.554
441.22	8.788
441.57	9.130
441.92	8.751
442.27	8.611
442.63	8.847
442.98	9.465
443.33	9.511
443.68	9.086
444.03	9.517
444.39	8.228
444.74	9.091
445.09	8.625
445.44	9.021
445.79	9.005
446.15	8.894
446.50	8.831
446.85	9.096
447.20	9.128
447.55	8.431
447.91	9.487
448.26	8.904
448.61	9.158
448.96	9.856
449.31	8.999
449.66	9.004
450.02	8.245
450.37	9.014
450.72	8.742
451.07	8.531
451.42	8.328
451.77	8.573
452.12	9.296
452.47	8.955
452.83	9.207
453.18	9.169
453.53	9.895
453.88	8.919
454.23	9.265
454.58	9.691
454.93	9.536
455.28	9.227
455.63	9.405
455.98	9.643
456.34	9.925
456.69	8.892
457.04	8.793
457.39	8.884
457.74	8.996
458.09	9.833
458.44	8.666
458.79	8.894
459.14	8.804
459.49	9.399
459.84	8.587
460.19	9.193
460.54	9.086
460.89	9.051
461.24	9.168
461.59	9.762
461.94	8.570
462.29	9.970
462.64	9.955
462.99	8.783
463.34	10.133
463.69	8.818
464.04	9.217
464.39	9.797
464.74	9.507
465.09	9.349
465.44	9.197
465.79	8.389
466.14	8.922
466.49	8.454
466.84	8.523
467.19	9.535
467.54	9.688
467.89	9.484
468.24	10.180
468.59	9.646
468.94	9.102
469.29	9.512
469.64	10.375
469.99	9.540
470.34	8.785
470.68	9.842
471.03	9.184
471.38	9.312
471.73	9.727
472.08	9.671
472.43	9.422
472.78	9.151
473.13	9.756
473.48	9.863
473.83	9.390
474.17	9.396
474.52	9.553
474.87	9.749
475.22	8.822
475.57	9.618
475.92	8.656
476.27	8.737
476.61	8.880
476.96	8.906
477.31	9.105
477.66	8.698
478.01	9.148
478.36	9.149
478.70	8.775
479.05	8.786
479.40	8.854
479.75	8.744
480.10	8.151
480.45	8.377
480.79	8.218
481.14	8.855
481.49	8.970
481.84	8.642
482.19	8.269
482.53	8.807
482.88	8.562
483.23	8.925
483.58	9.054
483.92	8.529
484.27	7.887
484.62	8.922
484.97	8.238
485.31	8.390
485.66	7.203
486.01	6.743
486.36	6.316
486.70	6.515
487.05	7.127
487.40	7.227
487.75	7.640
488.09	8.250
488.44	7.772
488.79	8.391
489.13	8.442
489.48	8.524
489.83	8.200
490.17	8.856
490.52	8.680
490.87	8.141
491.22	9.004
491.56	8.474
491.91	8.329
492.26	8.360
492.60	8.479
492.95	7.998
493.30	8.271
493.64	8.353
493.99	8.032
494.34	8.696
494.68	8.562
495.03	8.976
495.37	8.469
495.72	8.821
496.07	8.910
496.41	8.097
496.76	8.311
497.11	7.789
497.45	8.291
497.80	8.973
498.14	8.019
498.49	8.780
498.84	8.821
499.18	8.048
499.53	8.215
499.87	8.621
500.22	8.950
500.56	8.981
500.91	8.365
501.26	8.914
501.60	8.590
501.95	8.203
502.29	8.903
502.64	8.240
502.98	8.462
503.33	8.638
503.67	9.002
504.02	8.466
504.36	8.376
504.71	9.086
505.06	8.916
505.40	8.264
505.75	8.100
506.09	8.795
506.44	8.140
506.78	9.450
507.13	8.783
507.47	8.939
507.82	9.271
508.16	9.017
508.51	9.335
508.85	8.640
509.19	8.673
509.54	9.184
509.88	8.398
510.23	8.843
510.57	9.804
510.92	9.218
511.26	9.455
511.61	9.129
511.95	8.716
512.30	8.908
512.64	9.081
512.98	9.110
513.33	9.582
513.67	8.805
514.02	8.387
514.36	9.885
514.70	8.744
515.05	8.310
515.39	8.525
515.74	8.784
516.08	9.447
516.42	9.656
516.77	9.866
517.11	9.101
517.46	9.481
517.80	8.769
518.14	8.743
518.49	9.510
518.83	9.432
519.17	9.642
519.52	8.829
519.86	9.698
520.20	10.462
520.55	9.096
520.89	10.462
521.23	10.374
521.58	9.724
521.92	9.002
522.26	8.847
522.61	9.159
522.95	9.576
523.29	9.799
523.64	9.695
523.98	9.304
524.32	9.710
524.66	9.802
525.01	10.600
525.35	8.922
525.69	9.360
526.04	9.657
526.38	9.640
526.72	10.429
527.06	10.044
527.41	9.468
527.75	10.225
528.09	9.955
528.43	9.369
528.78	10.633
529.12	9.333
529.46	10.288
529.80	10.087
530.15	10.343
530.49	9.538
530.83	9.937
531.17	11.031
531.51	10.376
531.86	9.742
532.20	10.300
532.54	10.890
532.88	10.141
533.22	9.494
533.57	9.938
533.91	10.355
534.25	10.207
534.59	10.189
534.93	10.291
535.27	10.199
535.62	10.134
535.96	10.107
536.30	9.409
536.64	10.882
536.98	10.285
537.32	9.480
537.66	10.067
538.01	10.665
538.35	11.312
538.69	10.338
539.03	10.201
539.37	9.776
539.71	9.138
540.05	11.046
540.39	9.635
540.73	9.250
541.07	10.837
541.42	9.720
541.76	10.710
542.10	10.155
542.44	9.073
542.78	10.804
543.12	9.533
543.46	11.082
543.80	10.735
544.14	10.205
544.48	10.476
544.82	9.878
545.16	10.410
545.50	9.961
545.84	10.081
546.18	10.707
546.52	11.631
546.86	9.828
547.20	10.587
547.54	10.554
547.88	11.161
548.22	10.274
548.56	10.189
548.90	10.051
549.24	10.101
549.58	10.368
549.92	10.371
550.26	10.014
550.60	10.443
550.94	10.493
551.28	9.656
551.62	10.640
551.96	10.105
552.30	10.512
552.64	10.480
552.98	10.237
553.32	11.396
553.66	10.975
554.00	10.981
554.34	10.214
554.68	11.516
555.02	9.803
555.36	10.369
555.69	10.419
556.03	9.690
556.37	9.891
556.71	10.437
557.05	10.434
557.39	10.707
557.73	9.668
558.07	10.442
558.41	11.216
558.75	10.580
559.08	11.260
559.42	10.431
559.76	10.882
560.10	10.493
560.44	10.203
560.78	10.379
561.12	9.960
561.45	11.213
561.79	10.283
562.13	10.530
562.47	10.587
562.81	10.669
563.15	9.900
563.48	10.212
563.82	9.850
564.16	10.268
564.50	9.635
564.84	10.303
565.17	10.360
565.51	9.968
565.85	10.343
566.19	9.393
566.52	10.070
566.86	9.283
567.20	10.083
567.54	9.932
567.88	9.125
568.21	9.947
568.55	9.505
568.89	8.998
569.23	9.225
569.56	8.462
569.90	8.528
570.24	8.145
570.57	8.228
570.91	8.112
571.25	8.061
571.59	7.923
571.92	7.863
572.26	8.290
572.60	8.228
572.93	8.186
573.27	8.400
573.61	8.319
573.95	7.907
574.28	7.714
574.62	7.775
574.96	7.646
575.29	7.614
575.63	7.749
575.97	8.331
576.30	8.311
576.64	7.961
576.98	7.851
577.31	7.555
577.65	7.448
577.98	7.318
578.32	7.347
578.66	7.358
578.99	7.852
579.33	7.649
579.67	7.638
580.00	7.936
580.34	7.950
580.67	7.894
581.01	7.826
581.35	7.711
581.68	7.439
582.02	7.294
582.35	7.523
582.69	7.466
583.02	7.700
583.36	8.093
583.70	8.067
584.03	8.229
584.37	8.300
584.70	8.072
585.04	8.195
585.37	7.526
585.71	7.918
586.04	7.876
586.38	7.941
586.72	8.092
587.05	7.715
587.39	7.599
587.72	8.220
588.06	7.818
588.39	8.669
588.73	8.155
589.06	8.414
589.40	8.451
589.73	8.307
590.07	8.968
590.40	8.403
590.73	8.509
591.07	9.035
591.40	8.477
591.74	9.610
592.07	9.293
592.41	8.971
592.74	8.614
593.08	8.294
593.41	8.130
593.75	8.057
594.08	7.945
594.41	8.837
594.75	8.466
595.08	8.876
595.42	8.827
595.75	8.369
596.09	8.599
596.42	9.587
596.75	9.540
597.09	10.173
597.42	8.685
597.75	9.702
598.09	9.478
598.42	9.149
598.76	9.080
599.09	8.134
599.42	8.333
599.76	8.748
600.09	8.124
600.42	8.145
600.76	8.036
601.09	8.525
601.42	8.333
601.76	8.349
602.09	8.458
602.42	9.076
602.76	9.069
603.09	8.773
603.42	8.825
603.76	8.689
604.09	8.569
604.42	9.009
604.76	9.237
605.09	9.131
605.42	8.551
605.75	9.106
606.09	8.581
606.42	8.705
606.75	9.000
607.09	9.125
607.42	8.558
607.75	8.776
608.08	8.554
608.42	8.965
608.75	9.107
609.08	9.112
609.41	8.710
609.75	9.052
610.08	9.614
610.41	8.520
610.74	9.130
611.07	10.079
611.41	9.078
611.74	9.603
612.07	9.058
612.40	9.391
612.73	9.579
613.07	9.644
613.40	9.847
613.73	8.495
614.06	9.839
614.39	9.858
614.72	9.263
615.06	9.349
615.39	9.076
615.72	9.611
616.05	9.144
616.38	10.061
616.71	9.620
617.05	10.188
617.38	9.802
617.71	9.309
618.04	9.675
618.37	9.284
618.70	10.454
619.03	11.447
619.36	10.930
619.69	10.845
620.03	10.234
620.36	10.695
620.69	10.822
621.02	11.062
621.35	10.415
621.68	10.748
622.01	10.449
622.34	11.044
622.67	11.027
623.00	9.831
623.33	10.508
623.66	10.365
623.99	10.162
624.32	10.556
624.65	10.028
624.99	9.561
625.32	9.920
625.65	10.894
625.98	11.760
626.31	11.353
626.64	11.347
626.97	11.804
627.30	10.889
627.63	10.500
627.96	11.270
628.29	11.549
628.62	11.802
628.95	13.396
629.28	12.135
629.61	11.274
629.94	11.619
630.26	11.344
630.59	11.725
630.92	11.877
631.25	10.760
631.58	12.513
631.91	11.866
632.24	12.025
632.57	12.382
632.90	12.500
633.23	12.752
633.56	12.316
633.89	12.797
634.22	13.394
634.55	13.964
634.88	12.695
635.20	14.217
635.53	13.614
635.86	12.500
636.19	12.588
636.52	13.149
636.85	13.860
637.18	11.982
637.51	13.593
637.83	12.084
638.16	13.555
638.49	12.091
638.82	13.780
639.15	12.750
639.48	14.713
639.81	12.869
640.13	13.021
640.46	14.765
640.79	13.738
641.12	13.893
641.45	14.385
641.77	13.402
642.10	14.035
642.43	13.363
642.76	15.015
643.09	14.724
643.41	12.898
643.74	16.512
644.07	14.024
644.40	14.877
644.73	15.276
645.05	15.689
645.38	13.270
645.71	14.010
646.04	15.449
646.36	15.192
646.69	16.722
647.02	14.116
647.35	15.120
647.67	16.460
648.00	16.098
648.33	13.036
648.66	15.000
648.98	15.142
649.31	11.510
649.64	15.695
649.96	15.201
650.29	15.798
650.62	14.563
650.94	14.587
651.27	16.723
651.60	15.474
651.92	15.655
652.25	13.844
652.58	15.421
652.90	15.798
653.23	13.405
653.56	13.386
653.88	14.580
654.21	16.272
654.54	14.521
654.86	13.396
655.19	12.568
655.52	8.189
655.84	5.493
656.17	6.733
656.49	9.122
656.82	9.888
657.15	7.980
657.47	6.203
657.80	4.988
658.13	5.368
658.45	8.264
658.78	9.071
659.10	10.227
659.43	10.688
659.75	12.282
660.08	13.291
660.41	14.618
660.73	16.010
661.06	15.924
661.38	17.455
661.71	18.846
662.03	15.779
662.36	15.706
662.68	18.675
663.01	17.172
663.33	15.924
663.66	16.597
663.98	14.687
664.31	17.647
664.63	16.397
664.96	15.694
665.28	16.803
665.61	17.154
665.93	15.292
666.26	16.227
666.58	16.946
666.91	19.027
667.23	15.056
667.56	16.199
667.88	16.239
668.21	16.844
668.53	17.570
668.86	18.398
669.18	20.682
669.50	15.652
669.83	19.390
670.15	18.000
670.48	15.686
670.80	17.457
671.13	18.896
671.45	16.170
671.77	16.904
672.10	16.081
672.42	17.138
672.75	16.418
673.07	14.789
673.39	14.828
673.72	15.625
674.04	13.529
674.37	14.369
674.69	15.746
675.01	12.762
675.34	20.739
675.66	19.368
675.98	18.737
676.31	16.807
676.63	17.197
676.95	16.771
677.28	19.159
677.60	18.462
677.92	22.152
678.25	15.400
678.57	16.335
678.89	15.030
679.22	15.324
679.54	16.603
679.86	16.147
680.18	15.027
680.51	15.957
680.83	14.235
681.15	16.604
681.48	19.660
681.80	17.602
682.12	13.985
682.44	14.507
682.77	17.719
683.09	17.167
683.41	17.960
683.73	19.205
684.06	18.388
684.38	14.090
684.70	15.698
685.02	16.510
685.34	14.652
685.67	13.462
685.99	13.918
686.31	13.823
686.63	13.074
686.96	15.179
687.28	14.440
687.60	13.949
687.92	15.356
688.24	15.779
688.56	16.064
688.89	15.560
689.21	16.376
689.53	16.701
689.85	20.621
690.17	15.114
690.49	18.896
690.82	17.056
691.14	17.634
691.46	16.245
691.78	15.462
692.10	16.736
692.42	17.565
692.74	15.145
693.06	15.957
693.39	17.454
693.71	14.410
694.03	16.000
694.35	17.532
694.67	15.789
694.99	17.317
695.31	16.422
695.63	18.421
695.95	14.425
696.27	15.482
696.59	18.394
696.91	20.725
697.23	16.901
697.56	18.550
697.88	15.542
698.20	17.500
698.52	17.634
698.84	17.595
699.16	16.590
699.48	18.527
699.80	17.391
700.12	19.481
700.44	18.302
700.76	19.613
701.08	19.253
701.40	18.994
701.72	22.157
702.04	23.295
702.36	19.547
702.68	20.113
703.00	17.729
703.32	19.947
703.64	17.158
703.96	17.827
704.28	18.314
704.60	21.701
704.91	19.881
705.23	20.528
705.55	23.588
705.87	24.252
706.19	21.908
706.51	19.938
706.83	17.879
707.15	21.289
707.47	17.172
707.79	20.639
708.11	19.178
708.43	16.429
708.74	16.071
709.06	17.662
709.38	19.948
709.70	21.802
710.02	19.585
710.34	18.788
710.66	20.299
710.98	22.727
711.29	19.767
711.61	25.074
711.93	18.910
712.25	24.759
712.57	19.118
712.89	24.567
713.20	15.502
713.52	22.039
713.84	22.152
714.16	18.598
714.48	18.966
714.80	23.100
715.11	18.444
715.43	19.288
715.75	19.420
716.07	19.169
716.39	20.690
716.70	23.588
717.02	21.583
717.34	24.028
717.66	23.134
717.97	27.888
718.29	21.111
718.61	22.628
718.93	25.000
719.24	22.837
719.56	26.780
719.88	24.746
720.20	25.338
720.51	23.345
720.83	23.048
721.15	22.388
721.46	20.567
721.78	24.014
722.10	25.660
722.42	24.436
722.73	23.970
723.05	21.311
723.37	23.482
723.68	25.869
724.00	21.138
724.32	24.194
724.63	24.390
724.95	24.268
725.27	26.721
725.58	25.000
725.90	26.277
726.22	22.642
726.53	22.222
726.85	23.208
727.16	25.267
727.48	25.532
727.80	25.000
728.11	23.551
728.43	21.154
728.74	27.599
729.06	26.642
729.38	24.632
729.69	25.267
730.01	24.915
730.32	21.181
730.64	20.736
730.96	18.482
731.27	21.192
731.59	22.324
731.90	17.493
732.22	18.323
732.53	18.885
732.85	19.231
733.16	18.006
733.48	24.252
733.80	24.351
734.11	21.019
734.43	19.822
734.74	17.143
735.06	14.900
735.37	23.410
735.69	24.522
736.00	22.222
736.32	23.988
736.63	19.808
736.95	23.642
737.26	17.687
737.58	19.032
737.89	22.408
738.21	23.208
738.52	26.786
738.83	18.868
739.15	20.385
739.46	27.737
739.78	23.264
740.09	23.077
740.41	24.194
740.72	16.028
741.04	27.037
741.35	22.917
741.66	29.333
741.98	26.415
742.29	28.708
742.61	30.603
742.92	23.982
743.23	23.932
743.55	28.400
743.86	27.193
744.18	29.646
744.49	32.536
744.80	28.638
745.12	30.909
745.43	30.396
745.74	30.631
746.06	29.817
746.37	27.354
746.68	28.054
747.00	31.019
747.31	32.857
747.62	23.894
747.94	20.264
748.25	28.936
748.56	28.194
748.88	27.723
749.19	29.000
749.50	22.326
749.82	26.016
750.13	24.490
750.44	26.277
750.75	22.456
751.07	23.151
751.38	22.300
751.69	24.549
752.01	25.940
752.32	22.022
752.63	24.468
752.94	20.492
753.26	30.000
753.57	19.512
753.88	24.609
754.19	23.214
754.51	22.917
754.82	19.495
755.13	27.925
755.44	24.812
755.75	20.803
756.07	23.404
756.38	20.073
756.69	20.805
757.00	16.467
757.31	16.617
757.63	19.006
757.94	16.622
758.25	20.343
758.56	15.556
758.87	17.742
759.18	21.515
759.50	21.003
759.81	20.249
760.12	18.125
760.43	18.338
760.74	18.207
761.05	18.644
761.36	17.647
761.67	20.739
761.99	18.012
762.30	22.569
762.61	24.809
762.92	21.094
763.23	23.529
763.54	27.200
763.85	21.875
764.16	25.769
764.47	27.376
764.78	18.728
765.10	16.456
765.41	22.714
765.72	20.359
766.03	18.182
766.34	23.333
766.65	25.957
766.96	26.923
767.27	30.457
767.58	33.333
767.89	33.684
768.20	33.908
768.51	27.919
768.82	30.734
769.13	26.016
769.44	28.340
769.75	20.172
770.06	23.394
770.37	29.412
770.68	30.556
770.99	27.111
771.30	20.492
771.61	34.529
771.92	25.000
772.23	31.092
772.54	28.718
772.85	33.508
773.16	31.383
773.47	33.152
773.78	33.503
774.09	33.929
774.39	38.012
774.70	33.951
775.01	35.507
775.32	43.791
775.63	34.868
775.94	38.129
776.25	40.157
776.56	41.791
776.87	41.803
777.18	49.219
777.48	40.458
777.79	37.879
778.10	42.222
778.41	40.179
778.72	35.036
779.03	37.584
779.34	38.255
779.65	34.459
779.95	34.969
780.26	35.294
780.57	35.862
780.88	48.438
781.19	41.353
781.50	41.892
781.80	34.591
782.11	33.333
782.42	25.949
782.73	36.196
783.04	39.865
783.34	35.915
783.65	41.781
783.96	42.537
784.27	34.965
784.57	35.252
784.88	38.889
785.19	50.000
785.50	46.226
785.81	44.030
786.11	50.820
786.42	43.411
786.73	42.478
787.04	45.283
787.34	45.536
787.65	43.000
787.96	45.045
788.26	48.760
788.57	44.068
788.88	50.413
789.19	47.222
789.49	41.667
789.80	41.985
790.11	62.857
790.41	64.356
790.72	45.783
791.03	48.913
791.33	43.023
791.64	50.515
791.95	57.426
792.25	62.222
792.56	64.935
792.87	74.359
793.17	77.215
793.48	66.667
793.79	55.172
794.09	57.955
794.40	47.059
794.70	50.735
795.01	44.444
795.32	46.763
795.62	44.094
795.93	49.138
796.23	38.938
796.54	54.118
796.85	67.568
797.15	81.690
797.46	75.758
797.76	73.494
798.07	64.557
798.37	76.923
798.68	65.152
798.99	59.155
799.29	63.636
799.60	55.682
799.90	63.014
800.21	74.627
800.51	75.862
800.82	100.000
801.12	72.131
801.43	74.242
801.73	63.514
802.04	93.651
802.34	67.901
802.65	64.063
802.95	93.220
803.26	85.937
803.56	70.000
803.87	69.231
804.17	77.941
804.48	94.444
804.78	65.517
805.09	86.765
805.39	86.538
805.70	80.357
806.00	83.607
806.30	66.667
806.61	57.317
806.91	63.291
807.22	60.526
807.52	61.194
807.83	77.465
808.13	71.875
808.43	78.333
808.74	71.053
809.04	71.014
809.35	64.179
809.65	67.105
809.95	98.387
810.26	94.915
810.56	82.540
810.86	115.909
811.17	116.667
811.47	93.333
811.77	101.852
812.08	98.182
812.38	88.000
812.69	133.333
812.99	143.182
813.29	93.878
813.59	85.714
813.90	122.449
814.20	76.364
814.50	70.769
814.81	83.824
815.11	97.959
815.41	86.885
815.72	109.524
816.02	109.091
816.32	107.143
816.62	125.000
816.93	102.439
817.23	104.762
817.53	115.909
817.84	148.485
818.14	113.043
818.44	95.556
818.74	141.176
819.04	97.500
819.35	125.714
819.65	158.824
819.95	157.143
820.25	165.000
820.56	146.154
820.86	129.545
821.16	130.233
821.46	143.590
821.76	112.000
822.07	125.714
822.37	145.000
822.67	145.455
822.97	100.000
823.27	164.286
823.57	124.324
823.88	132.500
824.18	150.000
824.48	123.810
824.78	224.000
825.08	162.500
825.38	127.027
825.69	121.951
825.99	204.167
826.29	106.897
826.59	134.211
826.89	139.474
827.19	150.000
827.49	170.968
827.79	125.000
828.09	120.455
828.39	91.489
828.70	108.163
829.00	137.037
829.30	174.194
829.60	112.500
829.90	220.000
830.20	182.143
830.50	186.957
830.80	160.870
831.10	163.333
831.40	146.667
831.70	143.478
832.00	196.154
832.30	192.593
832.60	237.500
832.90	203.333
833.20	342.857
833.50	190.323
833.80	172.414
834.10	181.250
834.40	153.846
834.70	205.556
835.00	271.429
835.30	148.571
835.60	284.615
835.90	196.552
836.20	307.143
836.50	155.172
836.80	152.000
837.10	152.778
837.40	204.762
837.70	323.529
838.00	166.667
838.30	200.000
838.60	233.333
838.90	230.769
839.19	195.000
839.49	328.571
839.79	270.000
840.09	225.000
840.39	214.286
840.69	217.391
840.99	261.111
841.29	460.000
841.59	250.000
841.88	318.750
842.18	137.931
842.48	223.810
842.78	166.667
843.08	204.348
843.38	168.750
843.68	433.333
843.97	215.385
844.27	189.655
844.57	247.619
844.87	281.250
845.17	196.296
845.47	1233.333
845.76	400.000
846.06	300.000
846.36	437.500
846.66	321.429
846.96	250.000
847.25	300.000
847.55	290.909
847.85	243.478
848.15	460.000
848.44	314.286
848.74	238.889
849.04	258.824
849.34	420.000
849.63	210.526
849.93	318.182
850.23	980.000
850.53	442.857
850.82	2150.000
851.12	-4400.000
851.42	4300.000
851.71	245.000
852.01	-866.667
852.31	195.833
852.61	1466.667
852.90	242.857
853.20	236.000
853.50	264.706
853.79	233.333
854.09	191.667
854.39	250.000
854.68	164.865
854.98	145.161
855.28	176.667
855.57	206.897
855.87	177.778
856.17	236.842
856.46	220.000
856.76	217.647
857.05	175.862
857.35	204.167
857.65	320.000
857.94	195.652
858.24	192.308
858.53	280.000
858.83	227.273
859.13	340.000
859.42	0.000
859.72	477.778
860.01	427.273
860.31	259.091
860.60	221.053
860.90	178.261
861.20	511.111
861.49	375.000
861.79	-4100.000
862.08	637.500
862.38	242.857
862.67	261.538
862.97	300.000
863.26	555.556
863.56	227.778
863.85	325.000
864.15	537.500
864.44	320.000
864.74	766.667
865.03	512.500
865.33	263.158
865.62	372.727
865.92	353.846
866.21	316.667
866.51	0.000
866.80	354.545
867.10	940.000
867.39	300.000
867.69	418.182
867.98	236.842
868.27	509.091
868.57	294.737
868.86	-4300.000
869.16	287.500
869.45	2200.000
869.75	-3400.000
870.04	375.000
870.33	671.429
870.63	875.000
870.92	2800.000
871.22	685.714
871.51	317.647
871.80	147.619
872.10	292.857
>>>>>End Processed Spectral Data<<<<<
