SpectraSuite Data File
++++++++++++++++++++++++++++++++++++
Date: Wed May 13 16:32:46 PDT 2015
User: schluterlab
Dark Spectrum Present: Yes
Reference Spectrum Present: Yes
Number of Sampled Component Spectra: 1
Spectrometers: USB2E3373
Integration Time (usec): 3000 (USB2E3373)
Spectra Averaged: 3 (USB2E3373)
Boxcar Smoothing: 0 (USB2E3373)
Correct for Electrical Dark: No (USB2E3373)
Strobe/Lamp Enabled: No (USB2E3373)
Correct for Detector Non-linearity: No (USB2E3373)
Correct for Stray Light: No (USB2E3373)
Number of Pixels in Processed Spectrum: 2048
>>>>>Begin Processed Spectral Data<<<<<
178.53	0.000
178.91	-1100.000
179.29	-1150.000
179.67	-200.000
180.04	-1025.000
180.42	2500.000
180.80	1000.000
181.18	-725.000
181.56	542.857
181.94	0.000
182.31	-614.286
182.69	1466.667
183.07	-562.500
183.45	-600.000
183.83	463.636
184.20	-350.000
184.58	2100.000
184.96	4100.000
185.34	-740.000
185.72	-500.000
186.09	-1800.000
186.47	2350.000
186.85	2350.000
187.23	4000.000
187.61	-1633.333
187.98	1350.000
188.36	536.364
188.74	545.455
189.12	-1020.000
189.49	580.000
189.87	-4000.000
190.25	-1100.000
190.63	421.429
191.00	407.692
191.38	800.000
191.76	-1125.000
192.14	1200.000
192.51	562.500
192.89	816.667
193.27	575.000
193.65	-975.000
194.02	420.000
194.40	900.000
194.78	550.000
195.15	483.333
195.53	650.000
195.91	-1800.000
196.29	325.000
196.66	273.684
197.04	-300.000
197.42	0.000
197.79	550.000
198.17	-4100.000
198.55	600.000
198.92	700.000
199.30	700.000
199.68	0.000
200.05	350.000
200.43	714.286
200.81	3600.000
201.18	1666.667
201.56	-1366.667
201.94	455.556
202.31	500.000
202.69	425.000
203.07	430.000
203.44	0.000
203.82	1200.000
204.19	742.857
204.57	428.571
204.95	537.500
205.32	1700.000
205.70	509.091
206.08	364.286
206.45	2500.000
206.83	356.250
207.20	950.000
207.58	800.000
207.96	261.111
208.33	625.000
208.71	-800.000
209.08	642.857
209.46	555.556
209.84	445.455
210.21	-1200.000
210.59	1225.000
210.96	-437.500
211.34	2550.000
211.71	550.000
212.09	766.667
212.46	0.000
212.84	1833.333
213.22	1175.000
213.59	-4300.000
213.97	733.333
214.34	842.857
214.72	527.273
215.09	980.000
215.47	-2100.000
215.84	-2050.000
216.22	1600.000
216.59	357.143
216.97	1200.000
217.34	536.364
217.72	-700.000
218.09	0.000
218.47	-3600.000
218.84	677.778
219.22	600.000
219.59	1466.667
219.97	-514.286
220.34	1000.000
220.72	-1233.333
221.09	378.571
221.47	1225.000
221.84	-666.667
222.22	0.000
222.59	1375.000
222.97	-1800.000
223.34	1000.000
223.72	369.231
224.09	780.000
224.46	2100.000
224.84	-4900.000
225.21	-840.000
225.59	-4300.000
225.96	540.000
226.34	255.000
226.71	2650.000
227.08	550.000
227.46	430.000
227.83	-900.000
228.21	-1700.000
228.58	622.222
228.95	-2150.000
229.33	-1800.000
229.70	1766.667
230.08	585.714
230.45	-800.000
230.82	391.667
231.20	733.333
231.57	557.143
231.95	450.000
232.32	200.000
232.69	427.273
233.07	628.571
233.44	315.385
233.81	-1200.000
234.19	284.211
234.56	391.667
234.93	300.000
235.31	345.455
235.68	269.231
236.05	364.286
236.43	148.485
236.80	210.526
237.17	3800.000
237.55	223.810
237.92	157.143
238.29	190.476
238.67	154.839
239.04	158.621
239.41	102.778
239.79	69.565
240.16	104.762
240.53	90.909
240.91	82.353
241.28	102.000
241.65	82.000
242.02	86.957
242.40	61.290
242.77	65.000
243.14	48.387
243.51	60.674
243.89	44.706
244.26	44.444
244.63	45.161
245.00	48.936
245.38	45.545
245.75	43.925
246.12	33.945
246.49	49.635
246.87	48.800
247.24	40.000
247.61	29.286
247.98	30.719
248.36	26.351
248.73	27.389
249.10	33.121
249.47	24.859
249.84	28.342
250.22	23.529
250.59	25.444
250.96	28.283
251.33	24.171
251.70	24.257
252.08	22.857
252.45	22.422
252.82	18.261
253.19	21.277
253.56	18.039
253.94	18.672
254.31	20.703
254.68	22.308
255.05	18.450
255.42	19.106
255.79	19.118
256.16	23.105
256.54	17.314
256.91	16.370
257.28	13.309
257.65	13.861
258.02	13.665
258.39	16.088
258.76	12.709
259.14	15.774
259.51	14.590
259.88	13.043
260.25	14.804
260.62	16.474
260.99	11.801
261.36	15.315
261.73	15.473
262.10	15.698
262.47	11.549
262.85	13.092
263.22	12.536
263.59	15.954
263.96	11.538
264.33	12.533
264.70	11.316
265.07	14.066
265.44	12.121
265.81	11.922
266.18	13.568
266.55	12.195
266.92	11.057
267.29	11.343
267.66	13.532
268.03	11.136
268.40	14.252
268.77	9.785
269.14	12.162
269.51	12.415
269.88	14.452
270.25	10.609
270.62	10.562
270.99	15.269
271.36	10.730
271.73	8.178
272.10	11.087
272.47	12.903
272.84	12.554
273.21	10.901
273.58	11.790
273.95	9.434
274.32	9.091
274.69	7.923
275.06	10.039
275.43	10.426
275.80	11.623
276.17	8.350
276.54	10.603
276.91	11.265
277.28	10.547
277.65	10.251
278.02	9.110
278.39	11.914
278.76	8.727
279.13	8.491
279.50	11.546
279.87	8.964
280.23	9.581
280.60	10.058
280.97	8.688
281.34	11.504
281.71	9.091
282.08	9.021
282.45	9.636
282.82	10.480
283.19	7.487
283.56	10.175
283.92	8.799
284.29	7.584
284.66	7.985
285.03	8.499
285.40	8.099
285.77	9.091
286.14	8.981
286.51	9.833
286.87	9.231
287.24	10.912
287.61	10.112
287.98	9.253
288.35	8.082
288.72	9.502
289.08	10.485
289.45	7.908
289.82	9.431
290.19	8.320
290.56	8.576
290.93	7.402
291.29	7.822
291.66	8.702
292.03	10.029
292.40	8.811
292.77	7.840
293.13	8.955
293.50	8.163
293.87	8.296
294.24	8.741
294.60	5.968
294.97	7.994
295.34	9.027
295.71	8.381
296.08	8.120
296.44	8.803
296.81	8.454
297.18	7.995
297.55	4.881
297.91	8.311
298.28	9.237
298.65	9.008
299.02	6.719
299.38	7.570
299.75	4.043
300.12	7.024
300.48	8.375
300.85	8.261
301.22	6.497
301.59	7.197
301.95	6.801
302.32	7.959
302.69	7.527
303.05	6.545
303.42	7.160
303.79	8.154
304.15	5.012
304.52	6.721
304.89	7.201
305.25	6.032
305.62	8.041
305.99	7.438
306.35	7.606
306.72	7.063
307.09	6.992
307.45	8.559
307.82	6.362
308.19	7.064
308.55	7.551
308.92	7.089
309.29	6.758
309.65	6.787
310.02	6.342
310.38	6.989
310.75	7.181
311.12	8.086
311.48	7.315
311.85	8.176
312.22	7.076
312.58	6.549
312.95	7.392
313.31	7.379
313.68	6.237
314.05	9.665
314.41	8.141
314.78	7.351
315.14	6.753
315.51	7.003
315.87	7.228
316.24	6.951
316.61	7.407
316.97	7.241
317.34	6.654
317.70	8.509
318.07	7.122
318.43	6.654
318.80	7.498
319.16	7.815
319.53	7.411
319.89	7.619
320.26	7.900
320.62	7.143
320.99	8.283
321.35	7.576
321.72	7.906
322.08	8.687
322.45	7.662
322.81	6.880
323.18	8.671
323.54	8.163
323.91	7.925
324.27	8.317
324.64	7.456
325.00	6.673
325.37	7.825
325.73	8.438
326.10	7.061
326.46	6.810
326.83	7.161
327.19	7.430
327.56	6.620
327.92	6.649
328.29	6.832
328.65	6.814
329.01	8.123
329.38	6.105
329.74	7.664
330.11	7.917
330.47	8.907
330.84	8.272
331.20	7.923
331.56	6.789
331.93	6.574
332.29	7.098
332.66	7.876
333.02	7.313
333.38	8.040
333.75	8.645
334.11	7.473
334.48	7.098
334.84	6.710
335.20	8.273
335.57	7.434
335.93	7.143
336.29	6.868
336.66	8.115
337.02	6.244
337.38	7.870
337.75	6.684
338.11	6.893
338.47	5.985
338.84	7.883
339.20	6.972
339.56	7.847
339.93	6.364
340.29	6.250
340.65	7.398
341.02	7.766
341.38	6.139
341.74	6.754
342.11	6.812
342.47	7.401
342.83	8.048
343.20	6.753
343.56	7.414
343.92	7.193
344.28	6.888
344.65	6.707
345.01	7.492
345.37	6.175
345.73	7.107
346.10	6.479
346.46	6.864
346.82	7.990
347.19	6.015
347.55	6.568
347.91	7.120
348.27	7.313
348.63	7.023
349.00	6.392
349.36	6.240
349.72	6.496
350.08	5.997
350.45	6.916
350.81	7.230
351.17	5.916
351.53	6.634
351.89	6.683
352.26	7.024
352.62	7.618
352.98	7.131
353.34	6.656
353.70	6.056
354.07	6.694
354.43	6.429
354.79	5.551
355.15	6.225
355.51	6.555
355.87	6.857
356.24	6.515
356.60	5.934
356.96	6.195
357.32	7.032
357.68	6.457
358.04	6.730
358.40	7.363
358.77	6.808
359.13	5.841
359.49	6.667
359.85	5.397
360.21	6.380
360.57	6.926
360.93	7.231
361.29	5.896
361.66	6.347
362.02	6.418
362.38	5.703
362.74	6.920
363.10	6.218
363.46	5.356
363.82	5.971
364.18	6.094
364.54	7.207
364.90	6.516
365.26	6.103
365.62	6.428
365.98	5.625
366.35	5.731
366.71	7.086
367.07	6.482
367.43	6.096
367.79	6.852
368.15	6.825
368.51	5.015
368.87	6.495
369.23	6.072
369.59	7.024
369.95	6.029
370.31	6.481
370.67	5.870
371.03	6.742
371.39	7.143
371.75	6.838
372.11	6.046
372.47	7.258
372.83	6.412
373.19	5.925
373.55	6.430
373.91	7.216
374.27	6.392
374.63	5.673
374.99	6.709
375.35	5.583
375.71	6.511
376.07	6.996
376.42	6.465
376.78	6.759
377.14	5.699
377.50	6.689
377.86	5.652
378.22	7.080
378.58	5.639
378.94	6.537
379.30	5.598
379.66	6.409
380.02	6.818
380.38	5.768
380.74	6.603
381.09	6.418
381.45	7.007
381.81	6.695
382.17	6.624
382.53	6.289
382.89	6.605
383.25	5.941
383.61	6.877
383.97	7.067
384.32	6.675
384.68	5.886
385.04	6.269
385.40	6.440
385.76	6.634
386.12	6.865
386.48	7.048
386.83	7.312
387.19	6.617
387.55	6.865
387.91	7.618
388.27	6.806
388.62	7.191
388.98	7.310
389.34	7.822
389.70	7.603
390.06	7.161
390.42	7.198
390.77	7.188
391.13	7.084
391.49	6.980
391.85	6.620
392.20	5.868
392.56	6.629
392.92	7.004
393.28	6.213
393.64	6.954
393.99	7.636
394.35	6.390
394.71	7.528
395.07	7.227
395.42	7.108
395.78	7.570
396.14	8.007
396.50	8.083
396.85	7.311
397.21	6.473
397.57	7.688
397.92	6.611
398.28	6.278
398.64	7.109
399.00	6.603
399.35	5.979
399.71	7.581
400.07	6.801
400.42	7.239
400.78	7.780
401.14	7.195
401.49	7.522
401.85	6.776
402.21	7.066
402.57	6.354
402.92	6.431
403.28	6.933
403.63	7.673
403.99	6.688
404.35	6.727
404.70	6.415
405.06	6.348
405.42	6.862
405.77	6.343
406.13	7.111
406.49	6.505
406.84	6.852
407.20	6.206
407.55	5.871
407.91	6.467
408.27	6.445
408.62	7.345
408.98	6.618
409.34	6.273
409.69	6.710
410.05	6.506
410.40	6.483
410.76	6.511
411.11	6.815
411.47	6.645
411.83	6.659
412.18	6.061
412.54	6.289
412.89	6.867
413.25	7.084
413.60	6.980
413.96	6.497
414.31	7.412
414.67	7.161
415.03	5.960
415.38	7.732
415.74	6.881
416.09	6.989
416.45	6.158
416.80	5.948
417.16	7.239
417.51	6.901
417.87	6.230
418.22	6.498
418.58	6.714
418.93	7.064
419.29	6.620
419.64	7.305
420.00	7.073
420.35	6.899
420.71	7.113
421.06	6.683
421.42	6.316
421.77	7.623
422.12	5.783
422.48	6.044
422.83	5.999
423.19	7.017
423.54	6.152
423.90	6.609
424.25	6.756
424.61	6.548
424.96	6.414
425.31	7.032
425.67	6.854
426.02	6.743
426.38	6.960
426.73	6.495
427.09	6.809
427.44	6.958
427.79	6.038
428.15	7.560
428.50	7.197
428.85	7.211
429.21	5.908
429.56	6.273
429.92	6.140
430.27	6.504
430.62	6.349
430.98	6.331
431.33	6.753
431.68	6.859
432.04	7.295
432.39	6.396
432.74	7.002
433.10	6.791
433.45	6.706
433.80	6.319
434.16	7.318
434.51	7.579
434.86	6.956
435.22	7.171
435.57	7.416
435.92	6.495
436.28	6.643
436.63	7.395
436.98	6.983
437.34	7.513
437.69	7.468
438.04	6.521
438.39	7.284
438.75	7.147
439.10	7.039
439.45	7.615
439.81	7.311
440.16	7.228
440.51	7.206
440.86	7.296
441.22	6.618
441.57	6.794
441.92	6.755
442.27	7.696
442.63	6.898
442.98	7.493
443.33	7.717
443.68	6.918
444.03	6.442
444.39	6.232
444.74	6.818
445.09	7.170
445.44	7.108
445.79	6.977
446.15	7.623
446.50	6.570
446.85	7.657
447.20	7.241
447.55	7.649
447.91	7.336
448.26	7.290
448.61	6.953
448.96	7.973
449.31	7.480
449.66	7.372
450.02	7.521
450.37	6.803
450.72	7.445
451.07	7.069
451.42	6.748
451.77	7.986
452.12	7.390
452.47	7.338
452.83	7.459
453.18	7.396
453.53	7.483
453.88	7.856
454.23	7.352
454.58	7.813
454.93	8.328
455.28	6.858
455.63	7.646
455.98	7.619
456.34	7.286
456.69	7.639
457.04	7.430
457.39	7.832
457.74	7.197
458.09	7.648
458.44	7.697
458.79	6.833
459.14	7.675
459.49	7.531
459.84	7.590
460.19	7.307
460.54	8.102
460.89	7.460
461.24	7.711
461.59	8.019
461.94	7.583
462.29	8.427
462.64	7.594
462.99	7.677
463.34	8.200
463.69	7.630
464.04	7.362
464.39	8.116
464.74	7.427
465.09	6.996
465.44	7.368
465.79	7.550
466.14	7.061
466.49	7.620
466.84	7.823
467.19	7.483
467.54	8.000
467.89	7.803
468.24	7.446
468.59	7.631
468.94	7.208
469.29	7.841
469.64	8.434
469.99	7.781
470.34	6.737
470.68	7.830
471.03	7.687
471.38	7.505
471.73	8.261
472.08	7.566
472.43	7.852
472.78	8.163
473.13	7.702
473.48	7.428
473.83	7.317
474.17	7.281
474.52	7.258
474.87	8.581
475.22	7.371
475.57	7.362
475.92	6.904
476.27	6.933
476.61	7.060
476.96	6.762
477.31	7.588
477.66	7.440
478.01	6.743
478.36	8.250
478.70	7.269
479.05	7.455
479.40	7.318
479.75	6.914
480.10	6.909
480.45	7.520
480.79	6.593
481.14	6.947
481.49	7.262
481.84	6.401
482.19	6.633
482.53	6.835
482.88	6.794
483.23	6.449
483.58	7.598
483.92	6.795
484.27	6.405
484.62	6.293
484.97	6.346
485.31	6.404
485.66	6.121
486.01	5.435
486.36	5.317
486.70	4.923
487.05	5.593
487.40	5.720
487.75	5.778
488.09	6.248
488.44	5.304
488.79	6.221
489.13	6.417
489.48	7.015
489.83	6.042
490.17	6.401
490.52	6.643
490.87	6.784
491.22	6.958
491.56	5.649
491.91	6.747
492.26	6.982
492.60	6.959
492.95	5.987
493.30	6.402
493.64	6.533
493.99	6.407
494.34	6.614
494.68	7.143
495.03	6.861
495.37	7.073
495.72	6.920
496.07	6.497
496.41	6.858
496.76	6.816
497.11	6.619
497.45	6.893
497.80	6.766
498.14	6.425
498.49	6.634
498.84	6.663
499.18	6.333
499.53	6.933
499.87	6.990
500.22	6.783
500.56	7.184
500.91	6.587
501.26	6.875
501.60	6.929
501.95	6.737
502.29	7.451
502.64	6.425
502.98	6.639
503.33	6.490
503.67	7.007
504.02	6.735
504.36	6.879
504.71	6.790
505.06	7.229
505.40	7.487
505.75	6.268
506.09	6.754
506.44	6.709
506.78	6.917
507.13	6.663
507.47	7.677
507.82	7.345
508.16	7.092
508.51	7.306
508.85	6.802
509.19	7.092
509.54	6.735
509.88	7.264
510.23	7.558
510.57	7.688
510.92	7.250
511.26	7.143
511.61	7.261
511.95	6.994
512.30	6.469
512.64	7.254
512.98	7.235
513.33	7.602
513.67	7.257
514.02	7.305
514.36	7.810
514.70	7.084
515.05	7.250
515.39	7.572
515.74	7.264
516.08	8.329
516.42	7.492
516.77	7.637
517.11	6.992
517.46	7.901
517.80	7.724
518.14	7.180
518.49	8.168
518.83	7.557
519.17	7.794
519.52	8.093
519.86	7.359
520.20	8.150
520.55	8.079
520.89	6.813
521.23	7.901
521.58	8.523
521.92	8.634
522.26	7.200
522.61	7.788
522.95	7.673
523.29	7.912
523.64	8.293
523.98	7.579
524.32	8.444
524.66	8.118
525.01	8.027
525.35	7.373
525.69	7.882
526.04	8.287
526.38	7.444
526.72	7.607
527.06	8.098
527.41	7.426
527.75	8.232
528.09	7.514
528.43	8.158
528.78	7.007
529.12	7.152
529.46	8.879
529.80	7.611
530.15	7.975
530.49	7.446
530.83	8.418
531.17	8.747
531.51	8.949
531.86	8.387
532.20	8.540
532.54	8.136
532.88	8.472
533.22	7.620
533.57	8.272
533.91	8.128
534.25	7.716
534.59	7.444
534.93	7.555
535.27	7.966
535.62	8.242
535.96	7.470
536.30	7.502
536.64	8.049
536.98	8.029
537.32	7.439
537.66	8.267
538.01	8.032
538.35	8.403
538.69	8.488
539.03	7.992
539.37	7.796
539.71	6.675
540.05	8.105
540.39	7.973
540.73	7.827
541.07	7.852
541.42	7.632
541.76	8.452
542.10	7.568
542.44	7.285
542.78	9.223
543.12	7.678
543.46	8.197
543.80	8.133
544.14	6.996
544.48	8.127
544.82	7.633
545.16	7.612
545.50	7.776
545.84	7.728
546.18	8.822
546.52	7.158
546.86	7.629
547.20	8.024
547.54	8.083
547.88	8.546
548.22	7.410
548.56	8.428
548.90	6.914
549.24	7.879
549.58	8.049
549.92	8.379
550.26	8.310
550.60	7.884
550.94	8.451
551.28	7.462
551.62	8.196
551.96	7.719
552.30	8.737
552.64	8.722
552.98	7.729
553.32	8.159
553.66	8.793
554.00	8.099
554.34	7.660
554.68	8.727
555.02	7.969
555.36	8.351
555.69	7.713
556.03	8.345
556.37	8.117
556.71	7.435
557.05	8.894
557.39	8.747
557.73	7.904
558.07	7.687
558.41	8.104
558.75	8.229
559.08	8.799
559.42	8.012
559.76	8.529
560.10	8.565
560.44	7.897
560.78	8.317
561.12	7.784
561.45	7.171
561.79	7.581
562.13	7.713
562.47	7.923
562.81	7.880
563.15	8.027
563.48	7.493
563.82	7.763
564.16	7.979
564.50	7.031
564.84	8.217
565.17	7.400
565.51	6.965
565.85	7.931
566.19	7.264
566.52	7.980
566.86	7.414
567.20	7.960
567.54	7.477
567.88	7.224
568.21	7.513
568.55	6.825
568.89	6.761
569.23	6.595
569.56	6.478
569.90	6.604
570.24	6.746
570.57	6.052
570.91	5.979
571.25	6.393
571.59	6.068
571.92	6.106
572.26	6.124
572.60	6.216
572.93	6.267
573.27	6.389
573.61	5.918
573.95	6.098
574.28	5.879
574.62	5.879
574.96	5.663
575.29	5.432
575.63	5.564
575.97	5.858
576.30	6.028
576.64	5.914
576.98	5.445
577.31	5.776
577.65	5.907
577.98	5.549
578.32	5.500
578.66	5.765
578.99	5.592
579.33	5.640
579.67	5.595
580.00	5.586
580.34	5.695
580.67	5.554
581.01	5.734
581.35	5.584
581.68	5.654
582.02	5.335
582.35	5.588
582.69	5.496
583.02	5.566
583.36	5.672
583.70	6.244
584.03	5.852
584.37	6.113
584.70	5.747
585.04	6.238
585.37	6.128
585.71	6.320
586.04	6.113
586.38	5.721
586.72	6.600
587.05	6.248
587.39	6.121
587.72	6.029
588.06	5.736
588.39	6.283
588.73	5.867
589.06	6.326
589.40	6.768
589.73	6.265
590.07	6.690
590.40	6.686
590.73	6.440
591.07	6.960
591.40	7.423
591.74	7.316
592.07	6.588
592.41	7.482
592.74	6.404
593.08	6.829
593.41	6.201
593.75	6.277
594.08	7.006
594.41	7.034
594.75	6.691
595.08	6.514
595.42	6.620
595.75	6.588
596.09	7.060
596.42	6.955
596.75	6.881
597.09	7.532
597.42	6.450
597.75	7.029
598.09	6.957
598.42	6.615
598.76	6.607
599.09	7.108
599.42	6.841
599.76	6.991
600.09	6.557
600.42	6.538
600.76	6.500
601.09	6.812
601.42	6.773
601.76	6.907
602.09	6.324
602.42	6.927
602.76	7.013
603.09	6.452
603.42	6.716
603.76	7.012
604.09	6.708
604.42	6.686
604.76	7.465
605.09	7.077
605.42	6.584
605.75	6.623
606.09	6.547
606.42	6.702
606.75	7.258
607.09	7.032
607.42	6.889
607.75	6.667
608.08	6.644
608.42	7.844
608.75	7.078
609.08	7.308
609.41	6.426
609.75	7.384
610.08	7.257
610.41	6.471
610.74	6.623
611.07	7.905
611.41	7.556
611.74	7.743
612.07	7.505
612.40	7.555
612.73	6.895
613.07	7.543
613.40	7.899
613.73	6.188
614.06	6.720
614.39	8.180
614.72	7.684
615.06	7.983
615.39	7.166
615.72	7.311
616.05	7.337
616.38	7.727
616.71	7.601
617.05	7.715
617.38	7.637
617.71	7.087
618.04	7.752
618.37	7.983
618.70	8.339
619.03	8.947
619.36	8.350
619.69	8.169
620.03	8.242
620.36	8.690
620.69	8.493
621.02	8.776
621.35	7.831
621.68	8.567
622.01	8.669
622.34	9.153
622.67	8.745
623.00	7.777
623.33	7.934
623.66	8.435
623.99	7.290
624.32	8.488
624.65	7.910
624.99	7.861
625.32	7.386
625.65	7.814
625.98	8.839
626.31	10.031
626.64	10.041
626.97	8.063
627.30	9.310
627.63	9.598
627.96	9.756
628.29	8.749
628.62	9.973
628.95	9.906
629.28	9.580
629.61	10.266
629.94	9.810
630.26	8.866
630.59	9.914
630.92	9.004
631.25	9.872
631.58	9.710
631.91	9.026
632.24	9.388
632.57	9.549
632.90	10.526
633.23	10.067
633.56	10.508
633.89	10.872
634.22	9.194
634.55	11.834
634.88	9.820
635.20	10.633
635.53	10.482
635.86	9.901
636.19	10.824
636.52	10.381
636.85	10.309
637.18	10.253
637.51	10.284
637.83	8.261
638.16	9.974
638.49	10.076
638.82	11.125
639.15	11.625
639.48	13.092
639.81	10.188
640.13	11.068
640.46	11.678
640.79	10.832
641.12	9.078
641.45	10.894
641.77	12.077
642.10	11.404
642.43	11.862
642.76	10.526
643.09	12.883
643.41	11.836
643.74	13.426
644.07	11.890
644.40	13.804
644.73	11.969
645.05	14.263
645.38	11.374
645.71	12.077
646.04	11.130
646.36	15.359
646.69	12.375
647.02	11.735
647.35	13.230
647.67	14.513
648.00	11.707
648.33	11.221
648.66	9.242
648.98	12.594
649.31	11.809
649.64	12.855
649.96	12.370
650.29	12.006
650.62	11.812
650.94	11.831
651.27	13.007
651.60	12.646
651.92	13.898
652.25	11.401
652.58	12.305
652.90	12.164
653.23	11.248
653.56	11.181
653.88	14.422
654.21	12.006
654.54	12.046
654.86	12.305
655.19	9.189
655.52	6.754
655.84	5.055
656.17	6.394
656.49	8.333
656.82	8.394
657.15	6.335
657.47	4.761
657.80	3.741
658.13	3.772
658.45	5.756
658.78	5.667
659.10	6.210
659.43	6.535
659.75	7.057
660.08	7.975
660.41	9.218
660.73	12.325
661.06	12.739
661.38	15.091
661.71	14.231
662.03	15.582
662.36	12.326
662.68	15.261
663.01	12.525
663.33	12.739
663.66	14.706
663.98	12.959
664.31	14.916
664.63	14.170
664.96	13.481
665.28	14.139
665.61	13.645
665.93	12.274
666.26	13.590
666.58	11.715
666.91	16.490
667.23	14.831
667.56	12.743
667.88	15.385
668.21	14.499
668.53	16.703
668.86	13.636
669.18	14.712
669.50	13.913
669.83	18.301
670.15	14.667
670.48	14.815
670.80	14.655
671.13	14.013
671.45	14.894
671.77	15.479
672.10	14.048
672.42	11.661
672.75	12.935
673.07	12.852
673.39	11.031
673.72	11.328
674.04	11.176
674.37	13.398
674.69	13.497
675.01	12.134
675.34	15.400
675.66	17.053
675.98	15.479
676.31	15.756
676.63	13.163
676.95	15.304
677.28	13.551
677.60	16.044
677.92	16.034
678.25	12.731
678.57	14.143
678.89	15.631
679.22	13.360
679.54	12.214
679.86	14.312
680.18	13.417
680.51	13.475
680.83	15.658
681.15	13.208
681.48	14.556
681.80	13.733
682.12	14.176
682.44	11.219
682.77	14.257
683.09	17.811
683.41	13.747
683.73	16.336
684.06	14.669
684.38	12.916
684.70	14.535
685.02	15.760
685.34	12.088
685.67	11.189
685.99	12.199
686.31	12.628
686.63	13.074
686.96	12.321
687.28	12.635
687.60	13.225
687.92	13.528
688.24	12.928
688.56	15.261
688.89	14.315
689.21	16.594
689.53	14.614
689.85	17.960
690.17	16.977
690.49	17.622
690.82	13.084
691.14	15.402
691.46	12.236
691.78	15.663
692.10	13.843
692.42	13.772
692.74	11.826
693.06	13.404
693.39	15.811
693.71	13.100
694.03	15.789
694.35	16.017
694.67	14.645
694.99	14.390
695.31	14.216
695.63	16.268
695.95	15.892
696.27	14.975
696.59	14.767
696.91	17.358
697.23	13.615
697.56	15.991
697.88	13.088
698.20	12.708
698.52	15.914
698.84	14.477
699.16	14.516
699.48	14.014
699.80	17.633
700.12	17.662
700.44	15.119
700.76	16.298
701.08	15.805
701.40	15.922
701.72	19.534
702.04	21.307
702.36	14.731
702.68	15.581
703.00	18.837
703.32	17.553
703.64	19.571
703.96	16.435
704.28	15.407
704.60	18.475
704.91	20.178
705.23	17.889
705.55	20.598
705.87	20.930
706.19	17.314
706.51	21.184
706.83	22.121
707.15	17.367
707.47	17.172
707.79	16.216
708.11	15.297
708.43	17.619
708.74	14.031
709.06	17.662
709.38	17.323
709.70	18.895
710.02	17.804
710.34	16.970
710.66	21.493
710.98	19.602
711.29	18.605
711.61	20.944
711.93	16.987
712.25	19.614
712.57	18.382
712.89	17.301
713.20	18.237
713.52	20.395
713.84	18.038
714.16	16.463
714.48	18.966
714.80	20.973
715.11	18.732
715.43	17.211
715.75	21.449
716.07	19.489
716.39	19.122
716.70	19.934
717.02	21.223
717.34	19.788
717.66	26.866
717.97	25.498
718.29	21.111
718.61	23.358
718.93	18.382
719.24	21.453
719.56	15.932
719.88	20.339
720.20	22.297
720.51	18.467
720.83	23.792
721.15	22.388
721.46	17.730
721.78	23.656
722.10	21.887
722.42	23.684
722.73	22.097
723.05	20.082
723.37	19.433
723.68	23.166
724.00	21.545
724.32	23.387
724.63	20.732
724.95	21.339
725.27	25.911
725.58	24.219
725.90	25.182
726.22	19.245
726.53	22.569
726.85	20.819
727.16	20.285
727.48	21.631
727.80	19.318
728.11	25.725
728.43	16.923
728.74	19.355
729.06	22.628
729.38	25.368
729.69	22.420
730.01	19.113
730.32	20.833
730.64	21.070
730.96	18.152
731.27	24.834
731.59	18.043
731.90	19.825
732.22	18.634
732.53	17.647
732.85	20.513
733.16	18.971
733.48	19.934
733.80	20.130
734.11	22.293
734.43	22.485
734.74	18.571
735.06	16.332
735.37	22.254
735.69	19.427
736.00	20.915
736.32	21.495
736.63	17.572
736.95	22.045
737.26	15.986
737.58	19.355
737.89	21.070
738.21	25.597
738.52	22.857
738.83	24.906
739.15	25.000
739.46	20.073
739.78	21.528
740.09	20.308
740.41	21.290
740.72	19.861
741.04	22.963
741.35	20.417
741.66	28.000
741.98	16.981
742.29	24.402
742.61	31.034
742.92	24.434
743.23	23.504
743.55	28.400
743.86	24.561
744.18	25.664
744.49	26.316
744.80	21.127
745.12	22.273
745.43	24.670
745.74	31.982
746.06	26.147
746.37	24.664
746.68	27.602
747.00	27.315
747.31	27.619
747.62	25.221
747.94	22.467
748.25	20.851
748.56	24.229
748.88	23.762
749.19	31.500
749.50	21.860
749.82	20.325
750.13	20.000
750.44	24.088
750.75	21.404
751.07	24.437
751.38	23.693
751.69	23.466
752.01	23.308
752.32	19.856
752.63	21.631
752.94	26.639
753.26	25.600
753.57	24.390
753.88	29.297
754.19	18.571
754.51	24.306
754.82	20.939
755.13	24.151
755.44	23.684
755.75	19.343
756.07	20.567
756.38	17.153
756.69	24.161
757.00	20.359
757.31	19.585
757.63	18.129
757.94	18.231
758.25	17.157
758.56	16.049
758.87	16.667
759.18	21.818
759.50	17.555
759.81	20.249
760.12	15.313
760.43	18.911
760.74	18.750
761.05	20.056
761.36	17.112
761.67	19.318
761.99	18.323
762.30	24.653
762.61	23.282
762.92	23.438
763.23	26.891
763.54	29.200
763.85	24.609
764.16	23.077
764.47	25.856
764.78	21.555
765.10	17.405
765.41	19.764
765.72	24.251
766.03	19.122
766.34	21.667
766.65	28.085
766.96	26.923
767.27	29.949
767.58	30.208
767.89	34.211
768.20	29.885
768.51	25.888
768.82	27.064
769.13	20.732
769.44	22.267
769.75	20.601
770.06	21.560
770.37	24.887
770.68	23.148
770.99	24.889
771.30	24.180
771.61	27.803
771.92	26.230
772.23	29.412
772.54	27.179
772.85	31.937
773.16	30.851
773.47	31.522
773.78	34.518
774.09	32.738
774.39	33.918
774.70	35.802
775.01	34.058
775.32	47.712
775.63	38.816
775.94	38.849
776.25	45.669
776.56	41.045
776.87	42.623
777.18	39.844
777.48	48.092
777.79	42.424
778.10	38.519
778.41	32.143
778.72	31.387
779.03	36.913
779.34	33.557
779.65	41.216
779.95	33.742
780.26	33.333
780.57	36.552
780.88	50.000
781.19	36.842
781.50	34.459
781.80	39.623
782.11	37.853
782.42	30.380
782.73	29.448
783.04	35.811
783.34	41.549
783.65	45.205
783.96	45.522
784.27	34.965
784.57	33.094
784.88	28.704
785.19	46.825
785.50	39.623
785.81	47.761
786.11	40.164
786.42	42.636
786.73	42.478
787.04	50.943
787.34	43.750
787.65	50.000
787.96	45.946
788.26	41.322
788.57	51.695
788.88	45.455
789.19	44.444
789.49	44.697
789.80	40.458
790.11	56.190
790.41	49.505
790.72	53.012
791.03	54.348
791.33	60.465
791.64	57.732
791.95	52.475
792.25	65.556
792.56	51.948
792.87	76.923
793.17	70.886
793.48	58.621
793.79	54.023
794.09	51.136
794.40	46.218
794.70	51.471
795.01	40.000
795.32	36.691
795.62	41.732
795.93	50.000
796.23	48.673
796.54	51.765
796.85	55.405
797.15	80.282
797.46	68.182
797.76	77.108
798.07	54.430
798.37	66.154
798.68	60.606
798.99	56.338
799.29	67.532
799.60	48.864
799.90	58.904
800.21	77.612
800.51	86.207
800.82	82.456
801.12	81.967
801.43	74.242
801.73	50.000
802.04	77.778
802.34	76.543
802.65	85.938
802.95	98.305
803.26	84.375
803.56	61.429
803.87	78.462
804.17	69.118
804.48	105.556
804.78	79.310
805.09	73.529
805.39	76.923
805.70	92.857
806.00	86.885
806.30	77.273
806.61	64.634
806.91	55.696
807.22	60.526
807.52	62.687
807.83	67.606
808.13	67.188
808.43	85.000
808.74	67.105
809.04	69.565
809.35	77.612
809.65	65.789
809.95	98.387
810.26	81.356
810.56	73.016
810.86	109.091
811.17	152.381
811.47	95.000
811.77	94.444
812.08	105.455
812.38	118.000
812.69	144.444
812.99	109.091
813.29	97.959
813.59	85.714
813.90	108.163
814.20	85.455
814.50	66.154
814.81	85.294
815.11	102.041
815.41	98.361
815.72	119.048
816.02	92.727
816.32	102.381
816.62	85.000
816.93	107.317
817.23	133.333
817.53	111.364
817.84	157.576
818.14	119.565
818.44	95.556
818.74	129.412
819.04	117.500
819.35	122.857
819.65	173.529
819.95	153.571
820.25	205.000
820.56	143.590
820.86	118.182
821.16	118.605
821.46	123.077
821.76	118.000
822.07	140.000
822.37	142.500
822.67	115.152
822.97	105.882
823.27	185.714
823.57	129.730
823.88	127.500
824.18	156.667
824.48	121.429
824.78	184.000
825.08	158.333
825.38	135.135
825.69	119.512
825.99	237.500
826.29	134.483
826.59	150.000
826.89	139.474
827.19	147.059
827.49	161.290
827.79	147.727
828.09	95.455
828.39	97.872
828.70	108.163
829.00	188.889
829.30	138.710
829.60	105.000
829.90	300.000
830.20	153.571
830.50	186.957
830.80	173.913
831.10	173.333
831.40	173.333
831.70	208.696
832.00	184.615
832.30	181.481
832.60	218.750
832.90	140.000
833.20	342.857
833.50	158.065
833.80	175.862
834.10	165.625
834.40	203.846
834.70	233.333
835.00	300.000
835.30	157.143
835.60	261.538
835.90	172.414
836.20	278.571
836.50	189.655
836.80	188.000
837.10	175.000
837.40	214.286
837.70	282.353
838.00	181.481
838.30	185.714
838.60	271.429
838.90	230.769
839.19	215.000
839.49	414.286
839.79	305.000
840.09	245.000
840.39	214.286
840.69	221.739
840.99	255.556
841.29	360.000
841.59	316.667
841.88	293.750
842.18	158.621
842.48	200.000
842.78	153.333
843.08	186.957
843.38	137.500
843.68	816.667
843.97	200.000
844.27	186.207
844.57	271.429
844.87	293.750
845.17	200.000
845.47	1333.333
845.76	455.556
846.06	305.882
846.36	450.000
846.66	307.143
846.96	287.500
847.25	318.182
847.55	390.909
847.85	273.913
848.15	480.000
848.44	342.857
848.74	216.667
849.04	282.353
849.34	400.000
849.63	236.842
849.93	318.182
850.23	1180.000
850.53	407.143
850.82	1800.000
851.12	-3500.000
851.42	3900.000
851.71	250.000
852.01	-1133.333
852.31	266.667
852.61	1533.333
852.90	166.667
853.20	184.000
853.50	241.176
853.79	252.381
854.09	170.833
854.39	243.750
854.68	164.865
854.98	174.194
855.28	156.667
855.57	189.655
855.87	203.704
856.17	236.842
856.46	200.000
856.76	217.647
857.05	175.862
857.35	216.667
857.65	333.333
857.94	247.826
858.24	203.846
858.53	220.000
858.83	209.091
859.13	333.333
859.42	0.000
859.72	444.444
860.01	354.545
860.31	209.091
860.60	194.737
860.90	278.261
861.20	455.556
861.49	433.333
861.79	-4400.000
862.08	612.500
862.38	276.190
862.67	315.385
862.97	311.765
863.26	433.333
863.56	283.333
863.85	300.000
864.15	550.000
864.44	326.667
864.74	866.667
865.03	637.500
865.33	236.842
865.62	363.636
865.92	392.308
866.21	441.667
866.51	0.000
866.80	436.364
867.10	1080.000
867.39	438.462
867.69	454.545
867.98	268.421
868.27	436.364
868.57	284.211
868.86	-3900.000
869.16	400.000
869.45	2500.000
869.75	-3000.000
870.04	400.000
870.33	557.143
870.63	950.000
870.92	2450.000
871.22	657.143
871.51	247.059
871.80	204.762
872.10	264.286
>>>>>End Processed Spectral Data<<<<<
