SpectraSuite Data File
++++++++++++++++++++++++++++++++++++
Date: Wed May 13 16:29:25 PDT 2015
User: schluterlab
Dark Spectrum Present: Yes
Reference Spectrum Present: Yes
Number of Sampled Component Spectra: 1
Spectrometers: USB2E3373
Integration Time (usec): 3000 (USB2E3373)
Spectra Averaged: 3 (USB2E3373)
Boxcar Smoothing: 0 (USB2E3373)
Correct for Electrical Dark: No (USB2E3373)
Strobe/Lamp Enabled: No (USB2E3373)
Correct for Detector Non-linearity: No (USB2E3373)
Correct for Stray Light: No (USB2E3373)
Number of Pixels in Processed Spectrum: 2048
>>>>>Begin Processed Spectral Data<<<<<
178.53	0.000
178.91	-925.000
179.29	-1150.000
179.67	-155.556
180.04	-1225.000
180.42	2550.000
180.80	860.000
181.18	-925.000
181.56	700.000
181.94	0.000
182.31	-657.143
182.69	1633.333
183.07	-425.000
183.45	-433.333
183.83	400.000
184.20	-330.000
184.58	2350.000
184.96	5000.000
185.34	-760.000
185.72	-475.000
186.09	-2000.000
186.47	2700.000
186.85	2000.000
187.23	3900.000
187.61	-1433.333
187.98	1475.000
188.36	627.273
188.74	427.273
189.12	-800.000
189.49	580.000
189.87	-4500.000
190.25	-1100.000
190.63	407.143
191.00	469.231
191.38	733.333
191.76	-825.000
192.14	1225.000
192.51	662.500
192.89	1016.667
193.27	575.000
193.65	-900.000
194.02	480.000
194.40	800.000
194.78	560.000
195.15	475.000
195.53	580.000
195.91	-2300.000
196.29	318.750
196.66	257.895
197.04	-260.000
197.42	0.000
197.79	540.000
198.17	-4100.000
198.55	657.143
198.92	650.000
199.30	800.000
199.68	0.000
200.05	311.111
200.43	728.571
200.81	3000.000
201.18	1466.667
201.56	-1333.333
201.94	600.000
202.31	600.000
202.69	416.667
203.07	490.000
203.44	0.000
203.82	1325.000
204.19	600.000
204.57	392.857
204.95	587.500
205.32	1533.333
205.70	400.000
206.08	364.286
206.45	2450.000
206.83	350.000
207.20	783.333
207.58	520.000
207.96	333.333
208.33	575.000
208.71	-816.667
209.08	771.429
209.46	388.889
209.84	400.000
210.21	-1366.667
210.59	1175.000
210.96	-562.500
211.34	2450.000
211.71	520.000
212.09	800.000
212.46	0.000
212.84	1566.667
213.22	1225.000
213.59	-4800.000
213.97	733.333
214.34	785.714
214.72	527.273
215.09	940.000
215.47	-1900.000
215.84	-2450.000
216.22	2000.000
216.59	357.143
216.97	825.000
217.34	381.818
217.72	-566.667
218.09	0.000
218.47	-5200.000
218.84	633.333
219.22	714.286
219.59	1600.000
219.97	-457.143
220.34	880.000
220.72	-1566.667
221.09	314.286
221.47	1400.000
221.84	-816.667
222.22	0.000
222.59	1350.000
222.97	-2700.000
223.34	1140.000
223.72	407.692
224.09	980.000
224.46	1550.000
224.84	-3900.000
225.21	-980.000
225.59	-3800.000
225.96	540.000
226.34	210.000
226.71	2450.000
227.08	637.500
227.46	500.000
227.83	-750.000
228.21	-1950.000
228.58	544.444
228.95	-2350.000
229.33	-2100.000
229.70	1500.000
230.08	771.429
230.45	-740.000
230.82	458.333
231.20	816.667
231.57	657.143
231.95	391.667
232.32	186.364
232.69	427.273
233.07	657.143
233.44	392.308
233.81	-1400.000
234.19	268.421
234.56	475.000
234.93	358.333
235.31	327.273
235.68	300.000
236.05	371.429
236.43	145.455
236.80	236.842
237.17	3800.000
237.55	190.476
237.92	167.857
238.29	242.857
238.67	132.258
239.04	175.862
239.41	113.889
239.79	97.826
240.16	128.571
240.53	109.091
240.91	58.824
241.28	90.000
241.65	78.000
242.02	73.913
242.40	74.194
242.77	58.333
243.14	52.688
243.51	64.045
243.89	64.706
244.26	53.333
244.63	41.935
245.00	36.170
245.38	47.525
245.75	30.841
246.12	34.862
246.49	45.255
246.87	46.400
247.24	41.538
247.61	35.000
247.98	33.987
248.36	25.676
248.73	30.573
249.10	28.025
249.47	26.554
249.84	32.620
250.22	23.529
250.59	27.219
250.96	30.303
251.33	22.275
251.70	28.218
252.08	19.048
252.45	16.592
252.82	16.087
253.19	22.979
253.56	20.392
253.94	24.481
254.31	19.531
254.68	18.462
255.05	21.033
255.42	15.041
255.79	18.382
256.16	17.329
256.54	16.254
256.91	19.573
257.28	14.029
257.65	15.512
258.02	18.323
258.39	13.880
258.76	13.043
259.14	11.607
259.51	16.413
259.88	13.665
260.25	18.731
260.62	14.740
260.99	13.975
261.36	18.919
261.73	14.327
262.10	14.826
262.47	12.958
262.85	13.370
263.22	12.536
263.59	14.530
263.96	12.637
264.33	12.794
264.70	13.684
265.07	12.788
265.44	11.111
265.81	10.706
266.18	13.568
266.55	11.220
266.92	12.285
267.29	11.806
267.66	15.367
268.03	12.955
268.40	10.748
268.77	7.876
269.14	9.685
269.51	13.318
269.88	11.888
270.25	11.738
270.62	13.034
270.99	14.624
271.36	10.300
271.73	9.579
272.10	10.435
272.47	12.903
272.84	9.740
273.21	12.579
273.58	10.044
273.95	9.224
274.32	9.917
274.69	9.422
275.06	10.236
275.43	10.426
275.80	12.425
276.17	9.572
276.54	11.435
276.91	10.672
277.28	9.570
277.65	11.219
278.02	9.731
278.39	11.328
278.76	11.091
279.13	12.453
279.50	9.683
279.87	10.159
280.23	10.379
280.60	9.671
280.97	9.797
281.34	10.088
281.71	11.455
282.08	11.516
282.45	9.273
282.82	8.526
283.19	8.378
283.56	9.474
283.92	10.660
284.29	8.113
284.66	9.074
285.03	7.233
285.40	8.099
285.77	10.774
286.14	8.463
286.51	9.667
286.87	8.889
287.24	9.609
287.61	8.026
287.98	8.604
288.35	9.033
288.72	9.502
289.08	9.390
289.45	7.414
289.82	9.431
290.19	6.279
290.56	7.351
290.93	7.704
291.29	6.902
291.66	8.555
292.03	10.756
292.40	9.104
292.77	6.213
293.13	8.955
293.50	8.746
293.87	8.148
294.24	7.704
294.60	6.550
294.97	7.558
295.34	8.604
295.71	8.381
296.08	7.550
296.44	6.052
296.81	7.133
297.18	8.130
297.55	6.332
297.91	7.124
298.28	7.363
298.65	8.747
299.02	6.983
299.38	8.499
299.75	4.178
300.12	6.386
300.48	6.125
300.85	6.289
301.22	6.879
301.59	5.934
301.95	7.935
302.32	5.905
302.69	6.691
303.05	6.667
303.42	5.556
303.79	6.116
304.15	6.760
304.52	5.214
304.89	6.852
305.25	6.729
305.62	7.248
305.99	7.792
306.35	6.152
306.72	6.614
307.09	8.657
307.45	6.644
307.82	5.692
308.19	6.843
308.55	7.335
308.92	6.660
309.29	6.019
309.65	6.363
310.02	8.351
310.38	6.559
310.75	6.336
311.12	7.165
311.48	6.897
311.85	7.233
312.22	7.388
312.58	7.069
312.95	6.969
313.31	6.019
313.68	7.796
314.05	9.665
314.41	9.246
314.78	7.351
315.14	8.342
315.51	8.548
315.87	9.604
316.24	8.342
316.61	8.577
316.97	8.904
317.34	7.730
317.70	8.795
318.07	10.010
318.43	9.589
318.80	11.059
319.16	11.488
319.53	10.882
319.89	11.714
320.26	13.400
320.62	14.286
320.99	14.141
321.35	13.333
321.72	15.195
322.08	15.202
322.45	17.413
322.81	16.085
323.18	17.437
323.54	17.811
323.91	18.491
324.27	18.356
324.64	18.453
325.00	19.206
325.37	22.657
325.73	21.993
326.10	22.330
326.46	22.670
326.83	23.986
327.19	23.911
327.56	25.523
327.92	26.422
328.29	27.418
328.65	27.993
329.01	27.978
329.38	29.047
329.74	30.379
330.11	30.443
330.47	29.844
330.84	30.974
331.20	32.149
331.56	31.468
331.93	32.500
332.29	30.967
332.66	32.566
333.02	31.901
333.38	32.972
333.75	34.135
334.11	33.274
334.48	32.653
334.84	33.548
335.20	34.182
335.57	34.814
335.93	34.196
336.29	34.707
336.66	33.814
337.02	33.394
337.38	35.741
337.75	34.759
338.11	34.915
338.47	35.912
338.84	35.105
339.20	34.312
339.56	36.770
339.93	35.727
340.29	35.507
340.65	34.225
341.02	35.428
341.38	36.121
341.74	36.404
342.11	35.109
342.47	37.004
342.83	36.901
343.20	36.190
343.56	34.878
343.92	34.737
344.28	35.374
344.65	36.973
345.01	35.185
345.37	36.364
345.73	36.887
346.10	36.317
346.46	35.593
346.82	34.926
347.19	35.088
347.55	35.140
347.91	37.136
348.27	35.826
348.63	36.204
349.00	36.408
349.36	34.483
349.72	35.204
350.08	34.279
350.45	36.697
350.81	35.256
351.17	36.143
351.53	35.627
351.89	35.149
352.26	37.727
352.62	35.525
352.98	35.413
353.34	37.223
353.70	35.434
354.07	36.613
354.43	35.794
354.79	35.720
355.15	36.233
355.51	36.291
355.87	35.184
356.24	36.319
356.60	36.327
356.96	36.203
357.32	36.795
357.68	36.850
358.04	35.709
358.40	36.738
358.77	36.620
359.13	35.991
359.49	35.608
359.85	35.635
360.21	35.088
360.57	37.198
360.93	37.538
361.29	36.735
361.66	35.836
362.02	35.746
362.38	36.958
362.74	37.277
363.10	36.788
363.46	36.831
363.82	36.508
364.18	37.078
364.54	37.519
364.90	38.102
365.26	37.206
365.62	38.422
365.98	36.523
366.35	36.103
366.71	38.033
367.07	38.674
367.43	38.534
367.79	37.901
368.15	37.787
368.51	37.791
368.87	37.830
369.23	38.259
369.59	38.885
369.95	38.088
370.31	37.108
370.67	36.812
371.03	38.577
371.39	37.901
371.75	38.015
372.11	38.549
372.47	39.589
372.83	40.346
373.19	38.656
373.55	38.211
373.91	39.543
374.27	38.144
374.63	39.855
374.99	40.325
375.35	39.079
375.71	39.342
376.07	40.261
376.42	39.477
376.78	39.894
377.14	39.620
377.50	40.795
377.86	39.362
378.22	40.202
378.58	39.474
378.94	39.158
379.30	39.758
379.66	40.482
380.02	40.479
380.38	39.344
380.74	40.696
381.09	40.403
381.45	41.242
381.81	40.663
382.17	41.656
382.53	41.195
382.89	41.667
383.25	40.775
383.61	41.760
383.97	41.401
384.32	40.424
384.68	41.326
385.04	41.242
385.40	40.062
385.76	40.602
386.12	41.516
386.48	40.906
386.83	41.950
387.19	41.744
387.55	41.373
387.91	40.810
388.27	42.673
388.62	41.549
388.98	40.172
389.34	42.365
389.70	40.834
390.06	41.762
390.42	41.505
390.77	41.603
391.13	41.991
391.49	41.497
391.85	42.139
392.20	41.009
392.56	42.614
392.92	41.260
393.28	40.533
393.64	40.228
393.99	41.478
394.35	40.385
394.71	40.903
395.07	40.062
395.42	41.656
395.78	41.412
396.14	40.658
396.50	40.852
396.85	42.721
397.21	40.999
397.57	42.095
397.92	41.466
398.28	40.751
398.64	41.219
399.00	40.459
399.35	40.891
399.71	40.799
400.07	41.041
400.42	41.472
400.78	41.315
401.14	41.341
401.49	41.313
401.85	40.835
402.21	41.317
402.57	39.358
402.92	40.227
403.28	40.537
403.63	39.418
403.99	41.210
404.35	40.000
404.70	40.588
405.06	40.361
405.42	40.799
405.77	39.714
406.13	40.068
406.49	39.385
406.84	39.161
407.20	39.007
407.55	39.885
407.91	40.333
408.27	40.651
408.62	39.494
408.98	39.706
409.34	40.037
409.69	40.903
410.05	40.644
410.40	39.633
410.76	39.188
411.11	39.204
411.47	38.466
411.83	38.852
412.18	38.404
412.54	39.913
412.89	38.614
413.25	38.194
413.60	40.148
413.96	39.405
414.31	38.882
414.67	39.544
415.03	39.735
415.38	38.789
415.74	39.293
416.09	39.321
416.45	39.357
416.80	38.665
417.16	38.606
417.51	39.151
417.87	38.857
418.22	39.621
418.58	40.090
418.93	38.882
419.29	38.256
419.64	39.421
420.00	39.268
420.35	38.783
420.71	39.211
421.06	39.499
421.42	39.474
421.77	39.462
422.12	38.462
422.48	37.507
422.83	39.429
423.19	38.232
423.54	39.002
423.90	39.014
424.25	39.028
424.61	38.631
424.96	39.417
425.31	38.870
425.67	38.315
426.02	39.029
426.38	39.560
426.73	38.209
427.09	38.784
427.44	39.620
427.79	39.448
428.15	38.869
428.50	39.789
428.85	38.796
429.21	38.266
429.56	38.932
429.92	38.148
430.27	37.736
430.62	38.198
430.98	38.817
431.33	38.299
431.68	38.115
432.04	37.380
432.39	39.577
432.74	39.258
433.10	38.653
433.45	38.367
433.80	39.080
434.16	38.088
434.51	38.579
434.86	39.396
435.22	39.188
435.57	39.392
435.92	37.917
436.28	39.739
436.63	39.018
436.98	39.267
437.34	38.223
437.69	39.848
438.04	39.404
438.39	38.507
438.75	38.815
439.10	39.721
439.45	38.312
439.81	39.396
440.16	39.695
440.51	39.895
440.86	39.143
441.22	39.989
441.57	39.384
441.92	39.816
442.27	39.128
442.63	38.810
442.98	40.169
443.33	38.478
443.68	38.462
444.03	39.190
444.39	38.608
444.74	39.448
445.09	38.652
445.44	39.803
445.79	38.397
446.15	39.121
446.50	38.665
446.85	39.157
447.20	39.419
447.55	39.643
447.91	39.272
448.26	39.065
448.61	39.796
448.96	39.258
449.31	39.426
449.66	38.886
450.02	38.162
450.37	38.832
450.72	39.763
451.07	39.122
451.42	38.419
451.77	39.284
452.12	38.106
452.47	39.055
452.83	39.918
453.18	38.631
453.53	39.641
453.88	38.748
454.23	39.689
454.58	39.310
454.93	39.733
455.28	38.653
455.63	39.442
455.98	40.417
456.34	38.505
456.69	39.386
457.04	39.690
457.39	39.275
457.74	38.944
458.09	38.585
458.44	39.681
458.79	38.449
459.14	39.447
459.49	38.646
459.84	37.839
460.19	39.246
460.54	37.905
460.89	38.289
461.24	38.676
461.59	39.570
461.94	38.286
462.29	39.466
462.64	39.183
462.99	37.736
463.34	39.267
463.69	39.087
464.04	38.435
464.39	37.797
464.74	38.324
465.09	38.480
465.44	38.837
465.79	37.584
466.14	38.041
466.49	37.764
466.84	39.113
467.19	37.477
467.54	39.312
467.89	38.655
468.24	38.627
468.59	37.668
468.94	37.080
469.29	38.496
469.64	38.153
469.99	37.889
470.34	36.988
470.68	38.578
471.03	37.891
471.38	39.541
471.73	37.508
472.08	38.092
472.43	37.688
472.78	37.722
473.13	36.714
473.48	38.202
473.83	38.293
474.17	38.208
474.52	37.159
474.87	38.004
475.22	35.752
475.57	36.808
475.92	36.962
476.27	36.753
476.61	37.397
476.96	36.394
477.31	37.258
477.66	37.418
478.01	36.121
478.36	37.969
478.70	37.072
479.05	37.700
479.40	36.029
479.75	37.265
480.10	36.879
480.45	36.887
480.79	36.598
481.14	36.155
481.49	36.782
481.84	36.763
482.19	36.711
482.53	37.339
482.88	37.180
483.23	36.168
483.58	36.169
483.92	36.410
484.27	35.294
484.62	36.509
484.97	35.357
485.31	37.637
485.66	36.726
486.01	35.851
486.36	34.160
486.70	33.547
487.05	33.401
487.40	34.295
487.75	34.173
488.09	35.396
488.44	35.490
488.79	36.166
489.13	36.516
489.48	35.644
489.83	34.873
490.17	35.598
490.52	34.854
490.87	35.911
491.22	35.334
491.56	34.715
491.91	34.807
492.26	34.405
492.60	35.069
492.95	35.407
493.30	35.047
493.64	34.484
493.99	34.355
494.34	35.939
494.68	35.165
495.03	35.902
495.37	34.248
495.72	35.965
496.07	35.777
496.41	34.956
496.76	35.048
497.11	34.669
497.45	34.746
497.80	34.693
498.14	35.072
498.49	34.683
498.84	34.803
499.18	35.095
499.53	34.520
499.87	34.902
500.22	34.244
500.56	35.388
500.91	34.471
501.26	35.372
501.60	35.216
501.95	34.418
502.29	35.380
502.64	34.683
502.98	34.736
503.33	34.324
503.67	34.432
504.02	33.817
504.36	34.300
504.71	34.831
505.06	35.036
505.40	33.884
505.75	34.185
506.09	34.014
506.44	34.139
506.78	34.730
507.13	34.629
507.47	34.444
507.82	34.904
508.16	34.802
508.51	33.993
508.85	33.565
509.19	33.776
509.54	33.929
509.88	33.952
510.23	34.653
510.57	34.727
510.92	34.076
511.26	33.607
511.61	33.299
511.95	33.768
512.30	32.662
512.64	33.530
512.98	34.137
513.33	34.261
513.67	33.511
514.02	33.550
514.36	34.899
514.70	34.366
515.05	34.077
515.39	33.707
515.74	34.065
516.08	34.265
516.42	34.240
516.77	34.058
517.11	32.852
517.46	33.409
517.80	32.985
518.14	32.310
518.49	33.897
518.83	33.352
519.17	33.776
519.52	33.164
519.86	33.600
520.20	33.179
520.55	35.069
520.89	33.029
521.23	33.715
521.58	33.854
521.92	33.374
522.26	33.801
522.61	34.019
522.95	33.579
523.29	33.049
523.64	32.866
523.98	33.087
524.32	33.172
524.66	33.373
525.01	32.414
525.35	33.024
525.69	33.621
526.04	32.835
526.38	33.679
526.72	32.393
527.06	33.584
527.41	31.312
527.75	34.212
528.09	32.755
528.43	32.696
528.78	32.698
529.12	33.091
529.46	33.619
529.80	33.168
530.15	33.894
530.49	32.677
530.83	33.481
531.17	34.530
531.51	33.268
531.86	32.645
532.20	33.051
532.54	32.479
532.88	32.349
533.22	32.230
533.57	32.901
533.91	33.052
534.25	32.625
534.59	33.374
534.93	32.600
535.27	32.529
535.62	31.807
535.96	33.145
536.30	32.867
536.64	32.968
536.98	32.382
537.32	31.402
537.66	32.600
538.01	32.851
538.35	33.032
538.69	33.823
539.03	33.008
539.37	32.652
539.71	31.627
540.05	32.876
540.39	32.359
540.73	32.536
541.07	33.355
541.42	31.898
541.76	33.290
542.10	32.665
542.44	32.252
542.78	33.136
543.12	31.798
543.46	32.721
543.80	33.051
544.14	32.221
544.48	32.635
544.82	31.815
545.16	32.921
545.50	33.033
545.84	32.191
546.18	32.323
546.52	32.140
546.86	32.715
547.20	32.771
547.54	33.200
547.88	32.972
548.22	32.254
548.56	32.075
548.90	31.306
549.24	32.727
549.58	33.151
549.92	32.143
550.26	33.665
550.60	32.642
550.94	33.169
551.28	31.675
551.62	32.998
551.96	31.719
552.30	32.696
552.64	32.387
552.98	32.746
553.32	32.232
553.66	32.175
554.00	32.739
554.34	32.436
554.68	33.119
555.02	32.370
555.36	32.568
555.69	31.394
556.03	31.696
556.37	31.924
556.71	30.423
557.05	32.003
557.39	31.631
557.73	32.392
558.07	32.125
558.41	31.621
558.75	32.329
559.08	33.408
559.42	33.182
559.76	31.397
560.10	31.478
560.44	31.586
560.78	31.071
561.12	31.926
561.45	32.203
561.79	32.301
562.13	32.260
562.47	32.377
562.81	32.566
563.15	31.973
563.48	32.294
563.82	32.094
564.16	32.963
564.50	31.901
564.84	30.847
565.17	31.660
565.51	32.396
565.85	31.789
566.19	30.933
566.52	32.236
566.86	31.344
567.20	32.488
567.54	32.135
567.88	30.310
568.21	31.640
568.55	31.446
568.89	32.588
569.23	31.328
569.56	31.215
569.90	31.321
570.24	31.360
570.57	30.568
570.91	29.929
571.25	30.698
571.59	30.751
571.92	30.645
572.26	30.416
572.60	30.120
572.93	30.285
573.27	30.908
573.61	30.039
573.95	30.284
574.28	30.050
574.62	30.199
574.96	30.490
575.29	30.068
575.63	29.853
575.97	29.758
576.30	30.351
576.64	29.846
576.98	30.457
577.31	30.545
577.65	30.793
577.98	30.177
578.32	29.984
578.66	29.874
578.99	30.062
579.33	30.380
579.67	29.263
580.00	30.328
580.34	29.948
580.67	30.064
581.01	30.335
581.35	30.477
581.68	30.482
582.02	29.858
582.35	29.711
582.69	29.771
583.02	29.902
583.36	29.652
583.70	30.420
584.03	30.434
584.37	31.067
584.70	30.747
585.04	30.161
585.37	30.382
585.71	30.616
586.04	30.080
586.38	30.904
586.72	30.820
587.05	30.345
587.39	30.686
587.72	30.018
588.06	29.989
588.39	29.822
588.73	29.950
589.06	30.913
589.40	30.707
589.73	31.362
590.07	30.107
590.40	29.850
590.73	30.640
591.07	31.583
591.40	30.578
591.74	31.861
592.07	31.501
592.41	31.129
592.74	30.674
593.08	30.913
593.41	30.370
593.75	29.606
594.08	29.769
594.41	29.834
594.75	30.351
595.08	30.565
595.42	30.473
595.75	30.520
596.09	30.642
596.42	31.041
596.75	29.717
597.09	31.385
597.42	29.511
597.75	31.350
598.09	30.783
598.42	31.014
598.76	30.969
599.09	29.989
599.42	30.131
599.76	30.124
600.09	30.383
600.42	30.460
600.76	29.929
601.09	29.362
601.42	30.289
601.76	30.550
602.09	30.632
602.42	31.250
602.76	30.713
603.09	30.724
603.42	30.808
603.76	29.764
604.09	30.012
604.42	29.433
604.76	31.253
605.09	30.494
605.42	30.269
605.75	30.464
606.09	30.256
606.42	30.241
606.75	30.776
607.09	30.222
607.42	30.252
607.75	30.253
608.08	30.395
608.42	30.793
608.75	30.027
609.08	30.435
609.41	30.129
609.75	29.871
610.08	30.820
610.41	29.935
610.74	30.653
611.07	30.632
611.41	30.324
611.74	31.272
612.07	30.435
612.40	31.322
612.73	31.789
613.07	31.196
613.40	31.016
613.73	29.470
614.06	30.484
614.39	31.044
614.72	31.263
615.06	29.779
615.39	30.998
615.72	30.368
616.05	30.569
616.38	30.517
616.71	31.948
617.05	31.213
617.38	30.547
617.71	31.712
618.04	31.911
618.37	30.633
618.70	31.487
619.03	30.658
619.36	31.161
619.69	31.761
620.03	32.005
620.36	30.147
620.69	31.781
621.02	32.965
621.35	31.010
621.68	30.062
622.01	30.495
622.34	31.392
622.67	32.776
623.00	30.814
623.33	31.808
623.66	31.308
623.99	31.738
624.32	31.740
624.65	31.427
624.99	30.595
625.32	31.427
625.65	31.029
625.98	31.360
626.31	32.659
626.64	32.163
626.97	32.003
627.30	31.920
627.63	31.829
627.96	32.717
628.29	31.321
628.62	32.205
628.95	34.340
629.28	32.299
629.61	31.897
629.94	31.810
630.26	32.316
630.59	31.459
630.92	31.801
631.25	31.688
631.58	31.732
631.91	31.339
632.24	31.435
632.57	31.689
632.90	33.772
633.23	31.544
633.56	32.542
633.89	31.370
634.22	31.669
634.55	33.964
634.88	32.575
635.20	32.855
635.53	32.651
635.86	32.178
636.19	32.000
636.52	32.180
636.85	34.250
637.18	31.682
637.51	33.688
637.83	29.840
638.16	32.864
638.49	33.753
638.82	35.272
639.15	32.375
639.48	34.913
639.81	32.574
640.13	32.552
640.46	33.826
640.79	33.157
641.12	32.187
641.45	32.402
641.77	33.726
642.10	34.064
642.43	32.883
642.76	34.520
643.09	33.282
643.41	33.384
643.74	35.957
644.07	33.384
644.40	33.742
644.73	36.535
645.05	33.281
645.38	32.859
645.71	34.300
646.04	35.050
646.36	35.225
646.69	36.288
647.02	33.844
647.35	34.708
647.67	34.690
648.00	35.122
648.33	32.178
648.66	33.939
648.98	35.232
649.31	32.735
649.64	34.529
649.96	34.724
650.29	34.439
650.62	32.039
650.94	33.063
651.27	35.980
651.60	33.444
651.92	33.866
652.25	33.550
652.58	34.735
652.90	34.281
653.23	34.052
653.56	32.598
653.88	35.341
654.21	34.755
654.54	35.314
654.86	33.333
655.19	32.703
655.52	25.463
655.84	25.970
656.17	33.396
656.49	44.353
656.82	44.755
657.15	33.574
657.47	24.915
657.80	19.332
658.13	19.692
658.45	29.635
658.78	29.695
659.10	30.365
659.43	31.552
659.75	32.515
660.08	34.620
660.41	37.244
660.73	36.468
661.06	36.306
661.38	37.818
661.71	37.500
662.03	38.659
662.36	33.797
662.68	35.743
663.01	36.162
663.33	36.518
663.66	36.345
663.98	36.501
664.31	35.294
664.63	35.020
664.96	35.614
665.28	35.451
665.61	32.554
665.93	35.412
666.26	33.671
666.58	35.356
666.91	37.632
667.23	37.079
667.56	34.773
667.88	36.325
668.21	36.674
668.53	34.056
668.86	34.416
669.18	37.313
669.50	33.478
669.83	37.691
670.15	35.333
670.48	36.819
670.80	35.991
671.13	36.306
671.45	33.404
671.77	36.049
672.10	36.044
672.42	35.159
672.75	32.670
673.07	34.683
673.39	34.539
673.72	31.641
674.04	34.314
674.37	35.728
674.69	33.538
675.01	34.937
675.34	37.166
675.66	38.526
675.98	33.401
676.31	36.134
676.63	35.244
676.95	36.059
677.28	35.748
677.60	37.143
677.92	35.232
678.25	34.292
678.57	32.470
678.89	36.072
679.22	33.792
679.54	32.824
679.86	34.862
680.18	34.705
680.51	34.220
680.83	31.851
681.15	33.962
681.48	34.405
681.80	33.075
682.12	33.908
682.44	29.787
682.77	34.623
683.09	38.197
683.41	37.916
683.73	39.956
684.06	36.570
684.38	33.855
684.70	34.690
685.02	34.522
685.34	33.883
685.67	31.643
685.99	30.756
686.31	31.911
686.63	30.919
686.96	34.286
687.28	34.296
687.60	33.333
687.92	33.821
688.24	35.171
688.56	36.948
688.89	35.062
689.21	35.590
689.53	35.699
689.85	36.807
690.17	33.747
690.49	36.306
690.82	35.514
691.14	33.036
691.46	34.388
691.78	33.333
692.10	34.298
692.42	35.329
692.74	35.270
693.06	37.021
693.39	36.345
693.71	36.026
694.03	34.105
694.35	32.900
694.67	34.783
694.99	36.829
695.31	35.784
695.63	33.971
695.95	36.430
696.27	33.249
696.59	35.492
696.91	36.528
697.23	32.864
697.56	36.461
697.88	31.697
698.20	34.375
698.52	35.699
698.84	34.744
699.16	32.719
699.48	36.580
699.80	35.266
700.12	35.844
700.44	38.992
700.76	39.227
701.08	38.218
701.40	35.754
701.72	38.776
702.04	39.489
702.36	33.994
702.68	39.660
703.00	35.457
703.32	34.574
703.64	34.316
703.96	35.097
704.28	36.047
704.60	36.070
704.91	41.543
705.23	38.123
705.55	41.860
705.87	42.525
706.19	39.576
706.51	36.760
706.83	41.212
707.15	38.095
707.47	33.586
707.79	38.575
708.11	32.648
708.43	34.762
708.74	33.673
709.06	37.662
709.38	37.270
709.70	37.209
710.02	36.795
710.34	37.576
710.66	39.104
710.98	38.352
711.29	37.791
711.61	38.348
711.93	39.423
712.25	36.656
712.57	39.338
712.89	39.792
713.20	34.347
713.52	39.474
713.84	37.025
714.16	37.195
714.48	35.345
714.80	40.729
715.11	35.159
715.43	38.279
715.75	34.493
716.07	39.936
716.39	39.812
716.70	39.203
717.02	38.849
717.34	41.343
717.66	42.164
717.97	42.629
718.29	39.259
718.61	37.956
718.93	41.544
719.24	40.830
719.56	35.254
719.88	41.017
720.20	42.568
720.51	38.328
720.83	44.238
721.15	43.284
721.46	40.426
721.78	38.710
722.10	40.755
722.42	37.218
722.73	42.322
723.05	39.754
723.37	40.081
723.68	41.313
724.00	37.805
724.32	44.355
724.63	43.496
724.95	40.167
725.27	41.700
725.58	41.406
725.90	40.876
726.22	41.887
726.53	37.153
726.85	35.154
727.16	39.858
727.48	40.426
727.80	35.606
728.11	42.029
728.43	40.769
728.74	39.427
729.06	41.241
729.38	44.118
729.69	40.569
730.01	36.860
730.32	38.194
730.64	37.793
730.96	36.304
731.27	38.079
731.59	37.309
731.90	38.484
732.22	36.646
732.53	35.294
732.85	37.500
733.16	35.370
733.48	38.538
733.80	38.312
734.11	35.669
734.43	38.757
734.74	33.143
735.06	32.951
735.37	39.017
735.69	36.624
736.00	40.850
736.32	35.514
736.63	38.019
736.95	34.185
737.26	31.973
737.58	34.839
737.89	40.134
738.21	35.495
738.52	36.071
738.83	40.000
739.15	38.077
739.46	40.146
739.78	39.583
740.09	37.846
740.41	36.774
740.72	35.889
741.04	38.148
741.35	45.000
741.66	48.444
741.98	40.566
742.29	48.804
742.61	43.966
742.92	42.986
743.23	41.880
743.55	40.000
743.86	39.474
744.18	44.248
744.49	44.498
744.80	43.662
745.12	42.727
745.43	45.815
745.74	45.045
746.06	47.706
746.37	43.498
746.68	43.439
747.00	43.056
747.31	42.381
747.62	35.398
747.94	38.326
748.25	37.872
748.56	43.172
748.88	39.604
749.19	48.000
749.50	44.651
749.82	37.398
750.13	37.143
750.44	36.861
750.75	39.649
751.07	39.871
751.38	37.979
751.69	38.267
752.01	37.594
752.32	39.350
752.63	42.199
752.94	42.623
753.26	42.800
753.57	37.805
753.88	41.797
754.19	42.500
754.51	40.625
754.82	38.989
755.13	40.377
755.44	37.218
755.75	40.146
756.07	36.170
756.38	35.766
756.69	35.906
757.00	34.132
757.31	35.608
757.63	35.965
757.94	33.244
758.25	32.598
758.56	33.333
758.87	35.753
759.18	34.848
759.50	35.110
759.81	37.695
760.12	32.188
760.43	35.817
760.74	30.707
761.05	33.333
761.36	33.422
761.67	38.352
761.99	31.677
762.30	35.417
762.61	38.550
762.92	40.625
763.23	41.176
763.54	40.000
763.85	36.719
764.16	40.769
764.47	37.643
764.78	36.042
765.10	32.278
765.41	38.643
765.72	33.234
766.03	36.050
766.34	34.333
766.65	44.255
766.96	42.735
767.27	42.640
767.58	48.958
767.89	43.158
768.20	42.529
768.51	39.594
768.82	41.743
769.13	36.585
769.44	43.725
769.75	41.202
770.06	32.569
770.37	44.344
770.68	43.519
770.99	31.556
771.30	40.984
771.61	43.946
771.92	42.623
772.23	42.857
772.54	39.487
772.85	47.120
773.16	46.809
773.47	39.130
773.78	47.716
774.09	48.810
774.39	45.029
774.70	46.296
775.01	46.377
775.32	48.366
775.63	53.289
775.94	53.237
776.25	59.843
776.56	49.254
776.87	55.738
777.18	47.656
777.48	63.359
777.79	56.061
778.10	55.556
778.41	61.607
778.72	50.365
779.03	52.349
779.34	51.678
779.65	46.622
779.95	47.239
780.26	50.980
780.57	55.862
780.88	55.469
781.19	50.376
781.50	53.378
781.80	49.057
782.11	39.548
782.42	50.633
782.73	39.877
783.04	55.405
783.34	47.183
783.65	65.753
783.96	47.761
784.27	45.455
784.57	47.482
784.88	52.778
785.19	62.698
785.50	58.491
785.81	50.746
786.11	59.016
786.42	47.287
786.73	52.212
787.04	64.151
787.34	60.714
787.65	67.000
787.96	62.162
788.26	51.240
788.57	61.864
788.88	64.463
789.19	61.806
789.49	66.667
789.80	58.779
790.11	60.000
790.41	68.317
790.72	75.904
791.03	75.000
791.33	67.442
791.64	63.918
791.95	73.267
792.25	81.111
792.56	74.026
792.87	84.615
793.17	81.013
793.48	71.264
793.79	82.759
794.09	69.318
794.40	56.303
794.70	55.147
795.01	47.407
795.32	49.640
795.62	56.693
795.93	54.310
796.23	54.867
796.54	74.118
796.85	79.730
797.15	104.225
797.46	90.909
797.76	90.361
798.07	83.544
798.37	75.385
798.68	89.394
798.99	70.423
799.29	72.727
799.60	62.500
799.90	84.932
800.21	91.045
800.51	91.379
800.82	107.018
801.12	77.049
801.43	100.000
801.73	68.919
802.04	106.349
802.34	70.370
802.65	85.938
802.95	108.475
803.26	101.563
803.56	65.714
803.87	86.154
804.17	88.235
804.48	111.111
804.78	87.931
805.09	83.824
805.39	71.154
805.70	103.571
806.00	100.000
806.30	87.879
806.61	62.195
806.91	79.747
807.22	64.474
807.52	56.716
807.83	101.408
808.13	93.750
808.43	95.000
808.74	78.947
809.04	95.652
809.35	83.582
809.65	73.684
809.95	90.323
810.26	94.915
810.56	98.413
810.86	115.909
811.17	142.857
811.47	121.667
811.77	98.148
812.08	123.636
812.38	106.000
812.69	158.333
812.99	131.818
813.29	108.163
813.59	102.381
813.90	118.367
814.20	101.818
814.50	81.538
814.81	95.588
815.11	120.408
815.41	91.803
815.72	135.714
816.02	103.636
816.32	119.048
816.62	100.000
816.93	104.878
817.23	119.048
817.53	93.182
817.84	163.636
818.14	108.696
818.44	111.111
818.74	170.588
819.04	107.500
819.35	145.714
819.65	138.235
819.95	164.286
820.25	230.000
820.56	125.641
820.86	115.909
821.16	125.581
821.46	100.000
821.76	124.000
822.07	171.429
822.37	132.500
822.67	163.636
822.97	78.431
823.27	171.429
823.57	127.027
823.88	122.500
824.18	183.333
824.48	140.476
824.78	176.000
825.08	204.167
825.38	154.054
825.69	104.878
825.99	216.667
826.29	113.793
826.59	136.842
826.89	160.526
827.19	129.412
827.49	180.645
827.79	134.091
828.09	122.727
828.39	106.383
828.70	130.612
829.00	170.370
829.30	174.194
829.60	142.500
829.90	266.667
830.20	153.571
830.50	213.043
830.80	178.261
831.10	213.333
831.40	166.667
831.70	221.739
832.00	219.231
832.30	188.889
832.60	281.250
832.90	190.000
833.20	342.857
833.50	190.323
833.80	179.310
834.10	181.250
834.40	200.000
834.70	261.111
835.00	266.667
835.30	140.000
835.60	261.538
835.90	175.862
836.20	350.000
836.50	182.759
836.80	184.000
837.10	150.000
837.40	252.381
837.70	311.765
838.00	200.000
838.30	228.571
838.60	266.667
838.90	192.308
839.19	225.000
839.49	357.143
839.79	270.000
840.09	255.000
840.39	271.429
840.69	273.913
840.99	311.111
841.29	460.000
841.59	291.667
841.88	262.500
842.18	168.966
842.48	304.762
842.78	183.333
843.08	295.652
843.38	150.000
843.68	733.333
843.97	223.077
844.27	179.310
844.57	271.429
844.87	331.250
845.17	188.889
845.47	1700.000
845.76	388.889
846.06	288.235
846.36	612.500
846.66	328.571
846.96	312.500
847.25	390.909
847.55	354.545
847.85	247.826
848.15	420.000
848.44	335.714
848.74	222.222
849.04	241.176
849.34	540.000
849.63	268.421
849.93	381.818
850.23	760.000
850.53	285.714
850.82	2100.000
851.12	-4000.000
851.42	4100.000
851.71	235.000
852.01	-866.667
852.31	254.167
852.61	1666.667
852.90	209.524
853.20	176.000
853.50	317.647
853.79	261.905
854.09	204.167
854.39	350.000
854.68	164.865
854.98	187.097
855.28	143.333
855.57	237.931
855.87	200.000
856.17	231.579
856.46	260.000
856.76	258.824
857.05	189.655
857.35	220.833
857.65	280.000
857.94	191.304
858.24	226.923
858.53	295.000
858.83	250.000
859.13	326.667
859.42	0.000
859.72	533.333
860.01	409.091
860.31	227.273
860.60	278.947
860.90	182.609
861.20	511.111
861.49	483.333
861.79	-4900.000
862.08	487.500
862.38	271.429
862.67	276.923
862.97	317.647
863.26	411.111
863.56	211.111
863.85	366.667
864.15	562.500
864.44	313.333
864.74	766.667
865.03	737.500
865.33	263.158
865.62	427.273
865.92	384.615
866.21	375.000
866.51	0.000
866.80	390.909
867.10	940.000
867.39	469.231
867.69	427.273
867.98	326.316
868.27	463.636
868.57	315.789
868.86	-3900.000
869.16	343.750
869.45	2100.000
869.75	-2900.000
870.04	425.000
870.33	628.571
870.63	925.000
870.92	2300.000
871.22	571.429
871.51	382.353
871.80	209.524
872.10	371.429
>>>>>End Processed Spectral Data<<<<<
