SpectraSuite Data File
++++++++++++++++++++++++++++++++++++
Date: Wed May 13 16:17:38 PDT 2015
User: schluterlab
Dark Spectrum Present: Yes
Reference Spectrum Present: Yes
Number of Sampled Component Spectra: 1
Spectrometers: USB2E3373
Integration Time (usec): 3000 (USB2E3373)
Spectra Averaged: 3 (USB2E3373)
Boxcar Smoothing: 0 (USB2E3373)
Correct for Electrical Dark: No (USB2E3373)
Strobe/Lamp Enabled: No (USB2E3373)
Correct for Detector Non-linearity: No (USB2E3373)
Correct for Stray Light: No (USB2E3373)
Number of Pixels in Processed Spectrum: 2048
>>>>>Begin Processed Spectral Data<<<<<
178.53	0.000
178.91	-1050.000
179.29	-975.000
179.67	-150.000
180.04	-1025.000
180.42	2250.000
180.80	720.000
181.18	-725.000
181.56	385.714
181.94	0.000
182.31	-628.571
182.69	1266.667
183.07	-325.000
183.45	-355.556
183.83	463.636
184.20	-340.000
184.58	1750.000
184.96	4600.000
185.34	-660.000
185.72	-462.500
186.09	-1700.000
186.47	2450.000
186.85	1800.000
187.23	3900.000
187.61	-1266.667
187.98	975.000
188.36	490.909
188.74	436.364
189.12	-800.000
189.49	470.000
189.87	-3700.000
190.25	-875.000
190.63	464.286
191.00	315.385
191.38	683.333
191.76	-1275.000
192.14	1300.000
192.51	637.500
192.89	616.667
193.27	525.000
193.65	-875.000
194.02	420.000
194.40	760.000
194.78	430.000
195.15	383.333
195.53	630.000
195.91	-2250.000
196.29	250.000
196.66	236.842
197.04	-290.000
197.42	0.000
197.79	440.000
198.17	-4000.000
198.55	514.286
198.92	612.500
199.30	800.000
199.68	0.000
200.05	205.556
200.43	671.429
200.81	3700.000
201.18	1233.333
201.56	-933.333
201.94	433.333
202.31	477.778
202.69	333.333
203.07	480.000
203.44	0.000
203.82	1000.000
204.19	657.143
204.57	342.857
204.95	512.500
205.32	1300.000
205.70	381.818
206.08	285.714
206.45	2200.000
206.83	300.000
207.20	683.333
207.58	600.000
207.96	277.778
208.33	712.500
208.71	-750.000
209.08	600.000
209.46	422.222
209.84	400.000
210.21	-1200.000
210.59	1250.000
210.96	-300.000
211.34	2100.000
211.71	490.000
212.09	650.000
212.46	0.000
212.84	1466.667
213.22	1000.000
213.59	-3700.000
213.97	650.000
214.34	628.571
214.72	472.727
215.09	800.000
215.47	-1750.000
215.84	-2050.000
216.22	1400.000
216.59	364.286
216.97	1125.000
217.34	336.364
217.72	-566.667
218.09	0.000
218.47	-3900.000
218.84	522.222
219.22	728.571
219.59	1300.000
219.97	-500.000
220.34	820.000
220.72	-1400.000
221.09	257.143
221.47	1250.000
221.84	-850.000
222.22	0.000
222.59	925.000
222.97	-2150.000
223.34	800.000
223.72	400.000
224.09	1020.000
224.46	1450.000
224.84	-4000.000
225.21	-880.000
225.59	-4700.000
225.96	560.000
226.34	250.000
226.71	1900.000
227.08	575.000
227.46	480.000
227.83	-750.000
228.21	-2050.000
228.58	466.667
228.95	-1800.000
229.33	-2000.000
229.70	1166.667
230.08	585.714
230.45	-780.000
230.82	283.333
231.20	733.333
231.57	557.143
231.95	383.333
232.32	200.000
232.69	336.364
233.07	614.286
233.44	300.000
233.81	-1066.667
234.19	168.421
234.56	366.667
234.93	250.000
235.31	418.182
235.68	269.231
236.05	271.429
236.43	109.091
236.80	200.000
237.17	3800.000
237.55	166.667
237.92	175.000
238.29	185.714
238.67	119.355
239.04	168.966
239.41	100.000
239.79	97.826
240.16	109.524
240.53	90.909
240.91	66.667
241.28	72.000
241.65	64.000
242.02	60.870
242.40	75.806
242.77	51.667
243.14	55.914
243.51	51.685
243.89	54.118
244.26	45.556
244.63	37.634
245.00	42.553
245.38	46.535
245.75	39.252
246.12	28.440
246.49	37.956
246.87	40.000
247.24	33.077
247.61	35.714
247.98	34.641
248.36	27.027
248.73	22.930
249.10	24.841
249.47	24.859
249.84	24.599
250.22	20.321
250.59	21.893
250.96	21.717
251.33	20.853
251.70	23.762
252.08	24.286
252.45	20.628
252.82	20.000
253.19	24.255
253.56	21.961
253.94	22.822
254.31	16.406
254.68	21.154
255.05	18.081
255.42	15.854
255.79	19.118
256.16	18.773
256.54	14.134
256.91	17.794
257.28	11.151
257.65	14.521
258.02	14.907
258.39	14.511
258.76	15.385
259.14	15.179
259.51	13.678
259.88	10.248
260.25	15.710
260.62	17.919
260.99	12.422
261.36	16.517
261.73	11.461
262.10	8.721
262.47	14.085
262.85	10.306
263.22	8.832
263.59	15.100
263.96	11.538
264.33	9.661
264.70	12.105
265.07	10.997
265.44	10.606
265.81	10.462
266.18	11.558
266.55	10.244
266.92	9.582
267.29	11.574
267.66	9.633
268.03	9.318
268.40	10.514
268.77	9.547
269.14	10.135
269.51	10.158
269.88	8.392
270.25	9.481
270.62	8.764
270.99	11.398
271.36	9.227
271.73	7.944
272.10	9.348
272.47	10.753
272.84	10.173
273.21	11.111
273.58	9.389
273.95	8.595
274.32	9.298
274.69	10.921
275.06	7.480
275.43	7.872
275.80	8.818
276.17	9.572
276.54	9.356
276.91	7.708
277.28	8.594
277.65	9.865
278.02	7.660
278.39	8.398
278.76	9.091
279.13	9.434
279.50	9.125
279.87	9.562
280.23	6.986
280.60	7.930
280.97	8.318
281.34	8.673
281.71	8.545
282.08	8.445
282.45	8.182
282.82	9.059
283.19	7.487
283.56	7.895
283.92	8.799
284.29	7.055
284.66	7.985
285.03	7.233
285.40	8.275
285.77	7.239
286.14	7.772
286.51	8.833
286.87	9.573
287.24	9.121
287.61	9.310
287.98	9.091
288.35	6.815
288.72	8.567
289.08	7.668
289.45	6.919
289.82	7.154
290.19	6.122
290.56	5.513
290.93	6.647
291.29	6.902
291.66	7.965
292.03	9.593
292.40	9.838
292.77	7.101
293.13	8.657
293.50	7.143
293.87	5.926
294.24	5.778
294.60	6.114
294.97	7.122
295.34	6.770
295.71	8.949
296.08	5.128
296.44	6.465
296.81	6.077
297.18	7.588
297.55	3.826
297.91	6.464
298.28	6.426
298.65	8.747
299.02	6.456
299.38	5.843
299.75	4.313
300.12	6.897
300.48	6.625
300.85	6.042
301.22	6.752
301.59	6.061
301.95	6.423
302.32	6.547
302.69	6.691
303.05	5.576
303.42	6.173
303.79	5.210
304.15	5.245
304.52	5.214
304.89	5.923
305.25	4.988
305.62	5.663
305.99	6.257
306.35	6.376
306.72	6.726
307.09	6.326
307.45	6.419
307.82	5.357
308.19	7.395
308.55	6.580
308.92	6.337
309.29	6.125
309.65	5.514
310.02	6.871
310.38	7.312
310.75	5.913
311.12	6.755
311.48	7.524
311.85	8.071
312.22	6.452
312.58	6.133
312.95	7.075
313.31	5.437
313.68	7.796
314.05	9.270
314.41	6.935
314.78	7.654
315.14	6.356
315.51	7.621
315.87	7.525
316.24	7.944
316.61	6.725
316.97	6.947
317.34	6.751
317.70	7.361
318.07	8.373
318.43	8.023
318.80	8.060
319.16	9.228
319.53	8.818
319.89	8.476
320.26	10.600
320.62	9.127
320.99	8.990
321.35	9.394
321.72	9.548
322.08	10.365
322.45	11.343
322.81	10.756
323.18	10.790
323.54	11.503
323.91	11.981
324.27	11.472
324.64	10.065
325.00	10.911
325.37	12.648
325.73	12.208
326.10	12.180
326.46	10.753
326.83	13.201
327.19	13.493
327.56	13.240
327.92	13.561
328.29	13.310
328.65	14.733
329.01	14.801
329.38	14.801
329.74	14.220
330.11	15.080
330.47	15.611
330.84	16.176
331.20	15.209
331.56	14.495
331.93	15.093
332.29	15.794
332.66	15.929
333.02	14.717
333.38	16.350
333.75	16.488
334.11	16.103
334.48	16.415
334.84	16.912
335.20	16.455
335.57	15.866
335.93	14.554
336.29	15.293
336.66	15.960
337.02	15.837
337.38	15.926
337.75	15.330
338.11	16.204
338.47	15.746
338.84	16.224
339.20	14.954
339.56	16.515
339.93	16.182
340.29	15.308
340.65	16.043
341.02	16.667
341.38	16.192
341.74	16.404
342.11	16.157
342.47	16.740
342.83	16.610
343.20	16.710
343.56	15.333
343.92	15.965
344.28	16.156
344.65	15.735
345.01	15.404
345.37	15.266
345.73	16.074
346.10	15.857
346.46	16.186
346.82	15.486
347.19	14.703
347.55	14.943
347.91	15.049
348.27	15.119
348.63	15.385
349.00	15.453
349.36	14.286
349.72	15.557
350.08	14.019
350.45	14.890
350.81	15.516
351.17	14.992
351.53	14.742
351.89	15.759
352.26	15.943
352.62	14.755
352.98	14.749
353.34	15.201
353.70	13.502
354.07	15.081
354.43	14.603
354.79	14.562
355.15	14.445
355.51	15.188
355.87	14.776
356.24	14.414
356.60	14.354
356.96	14.159
357.32	15.454
357.68	14.646
358.04	14.727
358.40	14.964
358.77	14.632
359.13	14.049
359.49	14.824
359.85	13.889
360.21	14.195
360.57	14.864
360.93	14.538
361.29	13.908
361.66	13.854
362.02	14.179
362.38	14.753
362.74	14.509
363.10	13.620
363.46	14.160
363.82	14.286
364.18	15.198
364.54	15.527
364.90	14.873
365.26	14.044
365.62	15.486
365.98	14.390
366.35	13.968
366.71	14.823
367.07	13.838
367.43	15.239
367.79	15.061
368.15	15.445
368.51	13.445
368.87	14.276
369.23	14.484
369.59	14.337
369.95	14.779
370.31	15.100
370.67	14.203
371.03	14.981
371.39	15.087
371.75	14.044
372.11	14.651
372.47	15.029
372.83	15.346
373.19	14.306
373.55	14.265
373.91	15.758
374.27	14.433
374.63	14.545
374.99	16.102
375.35	13.957
375.71	14.736
376.07	15.021
376.42	14.512
376.78	13.917
377.14	15.943
377.50	15.033
377.86	14.561
378.22	14.791
378.58	13.910
378.94	14.016
379.30	14.758
379.66	14.721
380.02	14.558
380.38	13.843
380.74	14.946
381.09	15.037
381.45	14.813
381.81	15.541
382.17	13.885
382.53	14.717
382.89	15.494
383.25	14.884
383.61	14.684
383.97	14.822
384.32	15.097
384.68	15.861
385.04	14.505
385.40	15.542
385.76	14.558
386.12	14.637
386.48	15.167
386.83	14.945
387.19	15.337
387.55	15.028
387.91	15.236
388.27	14.899
388.62	16.472
388.98	14.312
389.34	15.895
389.70	14.899
390.06	15.463
390.42	14.656
390.77	15.267
391.13	15.507
391.49	15.609
391.85	14.322
392.20	14.637
392.56	14.962
392.92	15.421
393.28	13.787
393.64	14.329
393.99	14.722
394.35	14.950
394.71	14.806
395.07	15.514
395.42	14.586
395.78	15.076
396.14	15.705
396.50	15.038
396.85	15.067
397.21	15.043
397.57	15.499
397.92	14.724
398.28	13.733
398.64	14.994
399.00	14.661
399.35	14.044
399.71	14.525
400.07	14.843
400.42	14.969
400.78	15.259
401.14	14.695
401.49	14.866
401.85	14.640
402.21	13.473
402.57	13.880
402.92	14.628
403.28	13.991
403.63	14.356
403.99	13.567
404.35	14.485
404.70	13.609
405.06	14.269
405.42	14.535
405.77	13.543
406.13	13.995
406.49	14.488
406.84	13.703
407.20	13.416
407.55	15.444
407.91	13.333
408.27	14.550
408.62	13.787
408.98	13.603
409.34	13.469
409.69	14.129
410.05	13.817
410.40	14.067
410.76	14.098
411.11	14.294
411.47	14.121
411.83	13.806
412.18	13.234
412.54	13.574
412.89	14.096
413.25	13.518
413.60	13.465
413.96	13.540
414.31	13.730
414.67	14.575
415.03	14.106
415.38	13.660
415.74	13.826
416.09	13.847
416.45	13.788
416.80	12.426
417.16	14.812
417.51	13.869
417.87	13.231
418.22	14.132
418.58	13.428
418.93	13.882
419.29	14.640
419.64	13.287
420.00	13.963
420.35	13.855
420.71	14.465
421.06	13.365
421.42	13.743
421.77	13.901
422.12	12.858
422.48	13.168
422.83	13.687
423.19	13.370
423.54	13.175
423.90	14.203
424.25	13.289
424.61	13.274
424.96	13.819
425.31	14.286
425.67	13.315
426.02	13.771
426.38	14.286
426.73	13.400
427.09	13.435
427.44	14.204
427.79	13.341
428.15	14.226
428.50	13.341
428.85	13.707
429.21	13.308
429.56	13.841
429.92	13.035
430.27	14.002
430.62	12.750
430.98	13.492
431.33	13.402
431.68	13.822
432.04	13.898
432.39	13.992
432.74	13.645
433.10	14.035
433.45	13.469
433.80	13.137
434.16	13.622
434.51	13.526
434.86	13.227
435.22	13.174
435.57	13.921
435.92	13.985
436.28	14.472
436.63	14.625
436.98	13.394
437.34	14.132
437.69	14.469
438.04	13.772
438.39	13.552
438.75	14.701
439.10	14.190
439.45	15.112
439.81	13.656
440.16	14.173
440.51	14.236
440.86	13.897
441.22	13.849
441.57	13.960
441.92	13.715
442.27	13.402
442.63	13.533
442.98	14.141
443.33	14.239
443.68	13.733
444.03	13.958
444.39	12.756
444.74	13.853
445.09	14.286
445.44	14.106
445.79	14.151
446.15	14.558
446.50	13.732
446.85	13.720
447.20	13.819
447.55	14.294
447.91	13.789
448.26	14.135
448.61	13.680
448.96	13.732
449.31	14.342
449.66	14.012
450.02	13.816
450.37	13.662
450.72	14.044
451.07	13.528
451.42	14.164
451.77	14.210
452.12	13.972
452.47	14.428
452.83	14.161
453.18	14.670
453.53	14.471
453.88	14.176
454.23	14.345
454.58	14.173
454.93	15.702
455.28	13.653
455.63	14.138
455.98	14.405
456.34	14.133
456.69	14.527
457.04	14.675
457.39	13.968
457.74	14.452
458.09	14.779
458.44	14.253
458.79	13.829
459.14	13.883
459.49	13.660
459.84	13.961
460.19	13.966
460.54	14.294
460.89	14.482
461.24	14.086
461.59	14.991
461.94	14.858
462.29	15.074
462.64	14.359
462.99	13.858
463.34	14.933
463.69	14.509
464.04	14.203
464.39	14.145
464.74	14.557
465.09	14.536
465.44	13.795
465.79	13.758
466.14	14.176
466.49	14.627
466.84	14.011
467.19	14.363
467.54	14.250
467.89	13.806
468.24	13.787
468.59	14.286
468.94	13.806
469.29	14.589
469.64	15.462
469.99	14.208
470.34	14.531
470.68	14.871
471.03	13.946
471.38	14.315
471.73	13.791
472.08	15.724
472.43	14.322
472.78	14.615
473.13	14.763
473.48	14.170
473.83	14.939
474.17	14.188
474.52	14.206
474.87	14.828
475.22	13.871
475.57	13.864
475.92	13.595
476.27	13.923
476.61	13.955
476.96	14.239
477.31	13.972
477.66	14.278
478.01	13.853
478.36	14.543
478.70	13.499
479.05	14.217
479.40	13.869
479.75	13.828
480.10	13.469
480.45	13.089
480.79	13.426
481.14	13.845
481.49	14.333
481.84	14.220
482.19	13.448
482.53	13.394
482.88	13.867
483.23	13.411
483.58	14.058
483.92	14.105
484.27	12.767
484.62	12.888
484.97	13.007
485.31	13.253
485.66	12.660
486.01	11.717
486.36	11.505
486.70	11.347
487.05	11.795
487.40	12.487
487.75	12.541
488.09	12.951
488.44	12.842
488.79	13.599
489.13	13.751
489.48	13.051
489.83	13.034
490.17	13.591
490.52	13.685
490.87	13.116
491.22	13.461
491.56	13.030
491.91	13.076
492.26	13.000
492.60	13.364
492.95	12.582
493.30	13.224
493.64	12.879
493.99	12.767
494.34	12.627
494.68	13.599
495.03	13.440
495.37	13.867
495.72	13.938
496.07	13.596
496.41	13.186
496.76	13.017
497.11	12.832
497.45	12.902
497.80	12.812
498.14	12.850
498.49	12.585
498.84	13.327
499.18	13.095
499.53	13.343
499.87	13.001
500.22	13.424
500.56	13.883
500.91	13.798
501.26	13.608
501.60	13.384
501.95	12.649
502.29	13.496
502.64	13.315
502.98	13.277
503.33	12.751
503.67	12.947
504.02	12.488
504.36	12.962
504.71	13.434
505.06	12.819
505.40	13.418
505.75	13.211
506.09	13.168
506.44	13.123
506.78	12.859
507.13	12.468
507.47	13.283
507.82	13.171
508.16	13.475
508.51	13.293
508.85	13.009
509.19	13.163
509.54	12.806
509.88	13.035
510.23	12.596
510.57	13.622
510.92	13.465
511.26	13.515
511.61	13.485
511.95	12.891
512.30	12.566
512.64	13.864
512.98	13.719
513.33	13.490
513.67	12.967
514.02	12.716
514.36	13.326
514.70	12.507
515.05	13.051
515.39	13.797
515.74	12.782
516.08	13.918
516.42	13.541
516.77	14.158
517.11	11.987
517.46	14.052
517.80	13.473
518.14	13.086
518.49	14.119
518.83	13.580
519.17	13.337
519.52	13.130
519.86	14.489
520.20	13.526
520.55	13.405
520.89	13.504
521.23	13.752
521.58	13.145
521.92	13.962
522.26	12.447
522.61	13.458
522.95	13.505
523.29	13.512
523.64	13.415
523.98	12.939
524.32	13.269
524.66	14.131
525.01	13.051
525.35	12.701
525.69	13.485
526.04	12.960
526.38	12.691
526.72	13.436
527.06	13.245
527.41	12.871
527.75	13.633
528.09	13.873
528.43	13.767
528.78	13.460
529.12	13.030
529.46	13.901
529.80	13.304
530.15	13.769
530.49	12.985
530.83	13.165
531.17	13.969
531.51	14.332
531.86	12.968
532.20	14.407
532.54	13.837
532.88	13.030
533.22	13.616
533.57	13.827
533.91	12.884
534.25	12.940
534.59	13.728
534.93	12.255
535.27	12.975
535.62	13.248
535.96	13.497
536.30	12.842
536.64	13.458
536.98	12.409
537.32	13.101
537.66	12.867
538.01	13.430
538.35	13.639
538.69	13.976
539.03	12.995
539.37	12.843
539.71	12.314
540.05	12.810
540.39	12.824
540.73	12.743
541.07	14.147
541.42	13.307
541.76	13.613
542.10	12.743
542.44	12.119
542.78	13.307
543.12	12.796
543.46	13.377
543.80	13.338
544.14	12.580
544.48	13.333
544.82	13.085
545.16	13.338
545.50	13.046
545.84	12.298
546.18	13.064
546.52	13.421
546.86	12.509
547.20	12.812
547.54	13.226
547.88	13.265
548.22	12.453
548.56	12.579
548.90	12.228
549.24	12.121
549.58	13.438
549.92	13.049
550.26	12.500
550.60	13.485
550.94	12.183
551.28	12.802
551.62	13.372
551.96	12.561
552.30	13.584
552.64	13.793
552.98	12.746
553.32	12.879
553.66	13.020
554.00	13.658
554.34	13.182
554.68	12.876
555.02	12.553
555.36	13.013
555.69	12.043
556.03	12.921
556.37	12.619
556.71	12.756
557.05	12.885
557.39	13.366
557.73	12.562
558.07	12.763
558.41	12.663
558.75	13.299
559.08	13.050
559.42	12.245
559.76	13.529
560.10	12.634
560.44	13.138
560.78	11.510
561.12	12.533
561.45	13.233
561.79	12.657
562.13	12.140
562.47	12.500
562.81	12.831
563.15	12.375
563.48	12.732
563.82	12.133
564.16	11.969
564.50	11.458
564.84	12.010
565.17	11.969
565.51	11.821
565.85	12.310
566.19	11.897
566.52	12.033
566.86	12.598
567.20	12.087
567.54	12.272
567.88	11.027
568.21	11.640
568.55	11.881
568.89	11.625
569.23	11.230
569.56	10.729
569.90	10.868
570.24	10.154
570.57	10.099
570.91	10.472
571.25	10.037
571.59	10.515
571.92	9.793
572.26	10.456
572.60	10.511
572.93	10.255
573.27	10.382
573.61	10.553
573.95	10.594
574.28	9.799
574.62	9.742
574.96	9.892
575.29	9.918
575.63	9.832
575.97	9.711
576.30	10.250
576.64	10.184
576.98	9.844
577.31	9.681
577.65	10.098
577.98	9.429
578.32	9.452
578.66	9.895
578.99	9.564
579.33	9.877
579.67	9.681
580.00	9.830
580.34	9.729
580.67	9.809
581.01	10.142
581.35	9.470
581.68	9.262
582.02	9.393
582.35	9.349
582.69	9.551
583.02	9.688
583.36	9.684
583.70	10.040
584.03	10.162
584.37	10.540
584.70	9.979
585.04	10.005
585.37	10.368
585.71	9.845
586.04	10.051
586.38	10.214
586.72	10.356
587.05	9.780
587.39	9.578
587.72	9.997
588.06	9.578
588.39	10.069
588.73	9.856
589.06	10.377
589.40	10.337
589.73	9.926
590.07	10.320
590.40	9.719
590.73	10.148
591.07	10.704
591.40	10.628
591.74	10.649
592.07	10.689
592.41	10.955
592.74	9.925
593.08	10.127
593.41	10.376
593.75	9.307
594.08	9.588
594.41	10.428
594.75	10.129
595.08	10.558
595.42	10.263
595.75	9.509
596.09	10.402
596.42	10.570
596.75	10.848
597.09	11.818
597.42	10.118
597.75	10.177
598.09	10.609
598.42	10.309
598.76	10.134
599.09	9.540
599.42	10.189
599.76	9.810
600.09	10.055
600.42	9.533
600.76	10.357
601.09	9.982
601.42	10.008
601.76	10.133
602.09	10.237
602.42	9.992
602.76	10.036
603.09	9.913
603.42	10.465
603.76	9.794
604.09	9.965
604.42	9.702
604.76	10.755
605.09	10.310
605.42	10.432
605.75	10.141
606.09	10.126
606.42	9.931
606.75	10.369
607.09	10.423
607.42	10.184
607.75	10.380
608.08	9.857
608.42	10.489
608.75	10.550
609.08	9.621
609.41	10.281
609.75	9.814
610.08	10.745
610.41	9.916
610.74	9.839
611.07	10.326
611.41	10.550
611.74	11.664
612.07	10.818
612.40	10.965
612.73	10.632
613.07	11.207
613.40	10.795
613.73	10.488
614.06	10.323
614.39	10.750
614.72	10.368
615.06	10.767
615.39	9.926
615.72	10.583
616.05	9.995
616.38	11.062
616.71	10.273
617.05	10.483
617.38	10.583
617.71	10.991
618.04	10.757
618.37	10.763
618.70	10.205
619.03	11.447
619.36	10.998
619.69	11.197
620.03	11.745
620.36	10.829
620.69	12.466
621.02	11.283
621.35	11.355
621.68	11.293
622.01	11.146
622.34	10.590
622.67	12.243
623.00	10.638
623.33	12.009
623.66	11.651
623.99	10.236
624.32	11.198
624.65	11.794
624.99	10.623
625.32	11.803
625.65	10.744
625.98	11.453
626.31	12.131
626.64	11.918
626.97	11.471
627.30	10.640
627.63	13.208
627.96	11.606
628.29	11.811
628.62	12.443
628.95	12.642
629.28	12.318
629.61	12.924
629.94	10.476
630.26	12.011
630.59	11.535
630.92	11.782
631.25	12.142
631.58	12.713
631.91	12.576
632.24	10.127
632.57	13.221
632.90	13.158
633.23	12.528
633.56	13.898
633.89	14.043
634.22	13.734
634.55	12.899
634.88	12.335
635.20	12.664
635.53	13.735
635.86	13.119
636.19	12.471
636.52	13.264
636.85	11.913
637.18	11.982
637.51	12.766
637.83	11.467
638.16	12.148
638.49	13.098
638.82	13.906
639.15	12.875
639.48	14.090
639.81	14.879
640.13	14.583
640.46	13.154
640.79	15.324
641.12	12.380
641.45	11.592
641.77	12.960
642.10	13.012
642.43	11.862
642.76	13.932
643.09	14.110
643.41	13.505
643.74	15.432
644.07	13.415
644.40	15.031
644.73	15.118
645.05	14.580
645.38	13.902
645.71	14.332
646.04	14.950
646.36	14.023
646.69	15.217
647.02	16.497
647.35	15.979
647.67	14.867
648.00	14.634
648.33	13.861
648.66	14.545
648.98	13.943
649.31	13.303
649.64	14.350
649.96	14.903
650.29	14.850
650.62	13.916
650.94	15.721
651.27	16.216
651.60	14.476
651.92	15.335
652.25	12.866
652.58	13.240
652.90	15.640
653.23	13.405
653.56	14.646
653.88	16.006
654.21	16.430
654.54	14.191
654.86	14.019
655.19	12.973
655.52	8.727
655.84	6.435
656.17	7.990
656.49	11.014
656.82	11.059
657.15	8.862
657.47	6.356
657.80	5.157
658.13	5.583
658.45	8.492
658.78	8.895
659.10	9.382
659.43	9.803
659.75	10.719
660.08	11.962
660.41	13.873
660.73	15.121
661.06	14.490
661.38	15.818
661.71	15.385
662.03	17.357
662.36	12.724
662.68	17.671
663.01	14.343
663.33	15.074
663.66	17.227
663.98	16.631
664.31	14.286
664.63	15.385
664.96	13.682
665.28	16.803
665.61	14.230
665.93	17.706
666.26	16.633
666.58	16.527
666.91	16.068
667.23	14.831
667.56	12.959
667.88	16.880
668.21	15.778
668.53	16.269
668.86	14.935
669.18	17.910
669.50	15.435
669.83	17.647
670.15	17.333
670.48	14.815
670.80	17.026
671.13	16.136
671.45	13.830
671.77	16.090
672.10	15.896
672.42	13.428
672.75	13.765
673.07	12.148
673.39	15.552
673.72	14.648
674.04	15.294
674.37	15.146
674.69	14.724
675.01	14.435
675.34	18.480
675.66	16.842
675.98	15.071
676.31	17.437
676.63	14.225
676.95	15.723
677.28	15.888
677.60	15.165
677.92	16.667
678.25	15.811
678.57	15.538
678.89	15.832
679.22	14.735
679.54	13.931
679.86	14.495
680.18	13.238
680.51	14.362
680.83	15.302
681.15	13.774
681.48	16.257
681.80	11.992
682.12	12.644
682.44	12.766
682.77	16.701
683.09	18.670
683.41	15.521
683.73	17.219
684.06	16.116
684.38	15.068
684.70	15.310
685.02	16.886
685.34	12.088
685.67	11.888
685.99	13.918
686.31	13.140
686.63	10.777
686.96	14.107
687.28	14.440
687.60	13.949
687.92	12.249
688.24	15.209
688.56	17.269
688.89	15.975
689.21	17.467
689.53	16.701
689.85	13.747
690.17	15.114
690.49	14.437
690.82	14.486
691.14	14.732
691.46	13.502
691.78	15.863
692.10	14.256
692.42	15.369
692.74	14.108
693.06	14.681
693.39	14.990
693.71	14.847
694.03	16.211
694.35	16.667
694.67	15.789
694.99	17.317
695.31	15.686
695.63	16.507
695.95	16.626
696.27	13.959
696.59	14.249
696.91	18.135
697.23	11.502
697.56	14.712
697.88	13.088
698.20	14.583
698.52	17.204
698.84	17.817
699.16	15.207
699.48	14.727
699.80	19.324
700.12	20.260
700.44	17.507
700.76	18.508
701.08	16.667
701.40	18.994
701.72	18.659
702.04	21.307
702.36	13.881
702.68	18.414
703.00	16.898
703.32	15.160
703.64	17.158
703.96	17.549
704.28	16.279
704.60	21.701
704.91	18.694
705.23	20.235
705.55	21.262
705.87	19.934
706.19	18.375
706.51	19.315
706.83	20.000
707.15	19.888
707.47	15.404
707.79	17.199
708.11	17.352
708.43	15.714
708.74	14.796
709.06	16.364
709.38	16.535
709.70	18.023
710.02	16.914
710.34	15.758
710.66	19.701
710.98	18.466
711.29	18.605
711.61	20.059
711.93	15.705
712.25	19.936
712.57	19.853
712.89	17.301
713.20	18.845
713.52	19.737
713.84	17.089
714.16	14.634
714.48	16.954
714.80	18.845
715.11	20.461
715.43	18.694
715.75	17.101
716.07	16.294
716.39	16.614
716.70	23.920
717.02	21.223
717.34	20.848
717.66	21.642
717.97	21.912
718.29	18.889
718.61	21.533
718.93	20.956
719.24	18.339
719.56	18.983
719.88	21.017
720.20	20.270
720.51	21.951
720.83	20.818
721.15	18.284
721.46	17.021
721.78	21.147
722.10	19.245
722.42	25.188
722.73	20.599
723.05	20.492
723.37	21.053
723.68	21.236
724.00	21.545
724.32	21.371
724.63	19.919
724.95	18.828
725.27	25.911
725.58	23.438
725.90	22.628
726.22	18.113
726.53	22.917
726.85	22.526
727.16	20.285
727.48	18.794
727.80	23.485
728.11	19.565
728.43	21.538
728.74	19.355
729.06	24.088
729.38	22.794
729.69	18.861
730.01	19.113
730.32	15.278
730.64	19.732
730.96	16.172
731.27	24.172
731.59	18.654
731.90	18.950
732.22	16.149
732.53	15.480
732.85	20.192
733.16	19.293
733.48	17.276
733.80	19.481
734.11	17.834
734.43	18.047
734.74	16.286
735.06	16.905
735.37	20.231
735.69	13.376
736.00	21.242
736.32	22.118
736.63	14.696
736.95	16.613
737.26	12.925
737.58	16.774
737.89	22.074
738.21	21.502
738.52	18.214
738.83	20.377
739.15	19.231
739.46	21.533
739.78	21.528
740.09	17.846
740.41	21.290
740.72	17.422
741.04	20.000
741.35	17.083
741.66	28.000
741.98	24.528
742.29	25.359
742.61	29.310
742.92	17.195
743.23	22.222
743.55	20.800
743.86	20.175
744.18	24.779
744.49	20.574
744.80	26.291
745.12	27.727
745.43	22.907
745.74	21.171
746.06	22.477
746.37	26.009
746.68	22.624
747.00	24.074
747.31	26.667
747.62	21.681
747.94	25.551
748.25	21.702
748.56	25.551
748.88	23.762
749.19	28.500
749.50	27.442
749.82	20.732
750.13	20.000
750.44	21.168
750.75	17.193
751.07	22.830
751.38	20.557
751.69	19.856
752.01	18.045
752.32	19.134
752.63	21.631
752.94	20.492
753.26	24.800
753.57	13.008
753.88	23.828
754.19	20.714
754.51	21.181
754.82	18.051
755.13	20.000
755.44	19.549
755.75	21.168
756.07	19.504
756.38	18.248
756.69	18.121
757.00	17.964
757.31	16.617
757.63	16.374
757.94	18.231
758.25	16.667
758.56	15.309
758.87	17.473
759.18	17.879
759.50	17.241
759.81	18.380
760.12	16.875
760.43	16.619
760.74	14.130
761.05	14.407
761.36	17.914
761.67	15.625
761.99	15.839
762.30	19.444
762.61	19.084
762.92	21.484
763.23	22.689
763.54	22.800
763.85	19.922
764.16	21.154
764.47	19.392
764.78	19.435
765.10	16.772
765.41	20.354
765.72	17.365
766.03	16.928
766.34	19.333
766.65	20.426
766.96	22.222
767.27	25.888
767.58	26.562
767.89	31.579
768.20	26.437
768.51	19.289
768.82	22.936
769.13	20.732
769.44	19.028
769.75	24.893
770.06	14.679
770.37	23.529
770.68	26.852
770.99	24.889
771.30	18.033
771.61	30.045
771.92	22.951
772.23	26.471
772.54	27.179
772.85	28.272
773.16	25.000
773.47	28.261
773.78	29.949
774.09	29.167
774.39	22.222
774.70	23.457
775.01	26.087
775.32	35.294
775.63	32.895
775.94	26.619
776.25	40.157
776.56	34.328
776.87	39.344
777.18	32.813
777.48	41.221
777.79	37.121
778.10	40.000
778.41	36.607
778.72	24.088
779.03	37.584
779.34	25.503
779.65	27.027
779.95	32.515
780.26	37.255
780.57	33.103
780.88	42.187
781.19	35.338
781.50	28.378
781.80	33.333
782.11	25.989
782.42	27.215
782.73	24.540
783.04	29.054
783.34	34.507
783.65	43.151
783.96	38.806
784.27	26.573
784.57	29.496
784.88	37.037
785.19	39.683
785.50	43.396
785.81	42.537
786.11	44.262
786.42	34.884
786.73	37.168
787.04	50.000
787.34	33.036
787.65	41.000
787.96	43.243
788.26	34.711
788.57	42.373
788.88	39.669
789.19	37.500
789.49	49.242
789.80	42.748
790.11	44.762
790.41	49.505
790.72	56.627
791.03	52.174
791.33	44.186
791.64	48.454
791.95	54.455
792.25	51.111
792.56	44.156
792.87	69.231
793.17	65.823
793.48	50.575
793.79	48.276
794.09	54.545
794.40	39.496
794.70	38.235
795.01	31.111
795.32	36.691
795.62	37.795
795.93	37.069
796.23	34.513
796.54	42.353
796.85	54.054
797.15	59.155
797.46	54.545
797.76	59.036
798.07	58.228
798.37	55.385
798.68	54.545
798.99	43.662
799.29	53.247
799.60	37.500
799.90	60.274
800.21	53.731
800.51	65.517
800.82	75.439
801.12	68.852
801.43	65.152
801.73	62.162
802.04	69.841
802.34	65.432
802.65	68.750
802.95	79.661
803.26	87.500
803.56	48.571
803.87	55.385
804.17	57.353
804.48	79.630
804.78	79.310
805.09	55.882
805.39	65.385
805.70	62.500
806.00	73.770
806.30	43.939
806.61	76.829
806.91	59.494
807.22	61.842
807.52	62.687
807.83	64.789
808.13	84.375
808.43	63.333
808.74	53.947
809.04	73.913
809.35	58.209
809.65	61.842
809.95	80.645
810.26	74.576
810.56	71.429
810.86	72.727
811.17	109.524
811.47	85.000
811.77	77.778
812.08	70.909
812.38	110.000
812.69	91.667
812.99	100.000
813.29	71.429
813.59	83.333
813.90	104.082
814.20	85.455
814.50	56.923
814.81	72.059
815.11	67.347
815.41	73.770
815.72	104.762
816.02	89.091
816.32	107.143
816.62	77.500
816.93	124.390
817.23	114.286
817.53	115.909
817.84	118.182
818.14	95.652
818.44	104.444
818.74	126.471
819.04	100.000
819.35	100.000
819.65	123.529
819.95	128.571
820.25	175.000
820.56	112.821
820.86	115.909
821.16	125.581
821.46	128.205
821.76	116.000
822.07	131.429
822.37	110.000
822.67	100.000
822.97	101.961
823.27	164.286
823.57	94.595
823.88	132.500
824.18	153.333
824.48	135.714
824.78	168.000
825.08	150.000
825.38	137.838
825.69	107.317
825.99	162.500
826.29	131.034
826.59	157.895
826.89	100.000
827.19	132.353
827.49	119.355
827.79	113.636
828.09	97.727
828.39	91.489
828.70	85.714
829.00	144.444
829.30	109.677
829.60	110.000
829.90	200.000
830.20	132.143
830.50	152.174
830.80	152.174
831.10	150.000
831.40	180.000
831.70	73.913
832.00	157.692
832.30	170.370
832.60	218.750
832.90	196.667
833.20	350.000
833.50	164.516
833.80	113.793
834.10	146.875
834.40	153.846
834.70	255.556
835.00	252.381
835.30	111.429
835.60	215.385
835.90	113.793
836.20	271.429
836.50	155.172
836.80	144.000
837.10	147.222
837.40	171.429
837.70	247.059
838.00	155.556
838.30	219.048
838.60	209.524
838.90	165.385
839.19	220.000
839.49	321.429
839.79	270.000
840.09	205.000
840.39	200.000
840.69	213.043
840.99	166.667
841.29	310.000
841.59	291.667
841.88	250.000
842.18	155.172
842.48	223.810
842.78	176.667
843.08	165.217
843.38	168.750
843.68	466.667
843.97	157.692
844.27	155.172
844.57	204.762
844.87	293.750
845.17	170.370
845.47	1400.000
845.76	411.111
846.06	211.765
846.36	387.500
846.66	342.857
846.96	243.750
847.25	300.000
847.55	354.545
847.85	208.696
848.15	370.000
848.44	292.857
848.74	216.667
849.04	211.765
849.34	450.000
849.63	221.053
849.93	300.000
850.23	860.000
850.53	314.286
850.82	1500.000
851.12	-3000.000
851.42	3500.000
851.71	200.000
852.01	-766.667
852.31	212.500
852.61	1233.333
852.90	238.095
853.20	200.000
853.50	241.176
853.79	204.762
854.09	175.000
854.39	206.250
854.68	151.351
854.98	170.968
855.28	130.000
855.57	168.966
855.87	155.556
856.17	210.526
856.46	226.667
856.76	182.353
857.05	162.069
857.35	183.333
857.65	213.333
857.94	200.000
858.24	192.308
858.53	255.000
858.83	213.636
859.13	260.000
859.42	0.000
859.72	422.222
860.01	281.818
860.31	231.818
860.60	189.474
860.90	186.957
861.20	366.667
861.49	433.333
861.79	-3800.000
862.08	500.000
862.38	166.667
862.67	315.385
862.97	264.706
863.26	488.889
863.56	177.778
863.85	325.000
864.15	612.500
864.44	333.333
864.74	766.667
865.03	562.500
865.33	247.368
865.62	390.909
865.92	346.154
866.21	308.333
866.51	0.000
866.80	436.364
867.10	900.000
867.39	400.000
867.69	363.636
867.98	200.000
868.27	354.545
868.57	205.263
868.86	-3800.000
869.16	256.250
869.45	1600.000
869.75	-3000.000
870.04	266.667
870.33	600.000
870.63	725.000
870.92	2150.000
871.22	757.143
871.51	270.588
871.80	233.333
872.10	235.714
>>>>>End Processed Spectral Data<<<<<
