SpectraSuite Data File
++++++++++++++++++++++++++++++++++++
Date: Wed May 13 16:09:39 PDT 2015
User: schluterlab
Dark Spectrum Present: Yes
Reference Spectrum Present: Yes
Number of Sampled Component Spectra: 1
Spectrometers: USB2E3373
Integration Time (usec): 3000 (USB2E3373)
Spectra Averaged: 3 (USB2E3373)
Boxcar Smoothing: 0 (USB2E3373)
Correct for Electrical Dark: No (USB2E3373)
Strobe/Lamp Enabled: No (USB2E3373)
Correct for Detector Non-linearity: No (USB2E3373)
Correct for Stray Light: No (USB2E3373)
Number of Pixels in Processed Spectrum: 2048
>>>>>Begin Processed Spectral Data<<<<<
178.53	0.000
178.91	-750.000
179.29	-925.000
179.67	-166.667
180.04	-900.000
180.42	1650.000
180.80	960.000
181.18	-850.000
181.56	514.286
181.94	0.000
182.31	-471.429
182.69	1233.333
183.07	-262.500
183.45	-355.556
183.83	418.182
184.20	-300.000
184.58	1950.000
184.96	4500.000
185.34	-560.000
185.72	-325.000
186.09	-2200.000
186.47	1900.000
186.85	2150.000
187.23	3600.000
187.61	-1133.333
187.98	1025.000
188.36	436.364
188.74	418.182
189.12	-560.000
189.49	380.000
189.87	-3100.000
190.25	-875.000
190.63	364.286
191.00	323.077
191.38	500.000
191.76	-875.000
192.14	1050.000
192.51	537.500
192.89	750.000
193.27	500.000
193.65	-925.000
194.02	370.000
194.40	700.000
194.78	440.000
195.15	391.667
195.53	490.000
195.91	-2000.000
196.29	306.250
196.66	205.263
197.04	-180.000
197.42	0.000
197.79	460.000
198.17	-3700.000
198.55	528.571
198.92	387.500
199.30	740.000
199.68	0.000
200.05	266.667
200.43	457.143
200.81	4200.000
201.18	1333.333
201.56	-933.333
201.94	455.556
202.31	488.889
202.69	300.000
203.07	430.000
203.44	0.000
203.82	750.000
204.19	500.000
204.57	350.000
204.95	450.000
205.32	1033.333
205.70	390.909
206.08	307.143
206.45	1700.000
206.83	268.750
207.20	650.000
207.58	380.000
207.96	216.667
208.33	475.000
208.71	-616.667
209.08	600.000
209.46	466.667
209.84	290.909
210.21	-1266.667
210.59	1025.000
210.96	-337.500
211.34	1450.000
211.71	360.000
212.09	366.667
212.46	0.000
212.84	1233.333
213.22	975.000
213.59	-2600.000
213.97	483.333
214.34	614.286
214.72	427.273
215.09	720.000
215.47	-1550.000
215.84	-1750.000
216.22	966.667
216.59	285.714
216.97	775.000
217.34	354.545
217.72	-500.000
218.09	0.000
218.47	-3500.000
218.84	433.333
219.22	628.571
219.59	1400.000
219.97	-428.571
220.34	880.000
220.72	-1300.000
221.09	292.857
221.47	975.000
221.84	-566.667
222.22	0.000
222.59	1200.000
222.97	-1800.000
223.34	840.000
223.72	276.923
224.09	680.000
224.46	1700.000
224.84	-2300.000
225.21	-680.000
225.59	-3400.000
225.96	480.000
226.34	200.000
226.71	1850.000
227.08	362.500
227.46	340.000
227.83	-825.000
228.21	-1550.000
228.58	488.889
228.95	-1400.000
229.33	-1550.000
229.70	1433.333
230.08	600.000
230.45	-640.000
230.82	300.000
231.20	600.000
231.57	471.429
231.95	291.667
232.32	209.091
232.69	281.818
233.07	442.857
233.44	261.538
233.81	-1266.667
234.19	173.684
234.56	266.667
234.93	241.667
235.31	309.091
235.68	200.000
236.05	192.857
236.43	133.333
236.80	194.737
237.17	2900.000
237.55	157.143
237.92	139.286
238.29	200.000
238.67	119.355
239.04	158.621
239.41	75.000
239.79	78.261
240.16	97.619
240.53	84.091
240.91	80.392
241.28	68.000
241.65	54.000
242.02	56.522
242.40	61.290
242.77	48.333
243.14	58.065
243.51	58.427
243.89	52.941
244.26	32.222
244.63	39.785
245.00	39.362
245.38	32.673
245.75	35.514
246.12	33.945
246.49	33.577
246.87	38.400
247.24	37.692
247.61	32.143
247.98	33.987
248.36	23.649
248.73	21.019
249.10	31.210
249.47	21.469
249.84	29.412
250.22	24.064
250.59	25.444
250.96	23.737
251.33	28.436
251.70	23.267
252.08	24.762
252.45	15.695
252.82	20.870
253.19	19.574
253.56	16.471
253.94	22.822
254.31	16.797
254.68	19.615
255.05	18.450
255.42	14.634
255.79	18.015
256.16	19.495
256.54	11.307
256.91	16.726
257.28	13.309
257.65	17.492
258.02	15.839
258.39	16.088
258.76	14.047
259.14	16.071
259.51	17.933
259.88	12.733
260.25	16.314
260.62	13.006
260.99	14.907
261.36	17.117
261.73	11.461
262.10	12.791
262.47	17.465
262.85	13.649
263.22	10.826
263.59	14.530
263.96	14.286
264.33	14.883
264.70	11.316
265.07	15.345
265.44	13.384
265.81	11.192
266.18	12.814
266.55	11.951
266.92	10.811
267.29	14.120
267.66	12.385
268.03	12.727
268.40	11.215
268.77	10.979
269.14	8.108
269.51	13.995
269.88	12.587
270.25	10.835
270.62	12.584
270.99	15.484
271.36	11.803
271.73	9.346
272.10	9.130
272.47	11.398
272.84	13.203
273.21	13.417
273.58	8.515
273.95	9.644
274.32	9.091
274.69	9.422
275.06	10.630
275.43	11.064
275.80	11.824
276.17	10.387
276.54	11.019
276.91	9.684
277.28	8.789
277.65	11.025
278.02	9.524
278.39	13.086
278.76	10.545
279.13	12.453
279.50	13.408
279.87	9.761
280.23	11.976
280.60	9.478
280.97	9.242
281.34	11.681
281.71	12.182
282.08	10.365
282.45	10.364
282.82	8.881
283.19	8.021
283.56	8.947
283.92	9.814
284.29	11.817
284.66	9.982
285.03	8.680
285.40	9.859
285.77	10.101
286.14	8.808
286.51	10.000
286.87	9.744
287.24	9.121
287.61	9.791
287.98	9.740
288.35	9.667
288.72	9.502
289.08	8.138
289.45	10.379
289.82	9.106
290.19	9.890
290.56	7.657
290.93	6.647
291.29	8.742
291.66	9.587
292.03	11.773
292.40	11.307
292.77	9.615
293.13	8.657
293.50	8.309
293.87	7.259
294.24	8.444
294.60	6.841
294.97	7.413
295.34	9.027
295.71	8.097
296.08	7.692
296.44	6.878
296.81	8.058
297.18	9.756
297.55	6.069
297.91	7.784
298.28	8.969
298.65	10.183
299.02	9.091
299.38	6.906
299.75	4.447
300.12	7.407
300.48	6.750
300.85	7.645
301.22	6.752
301.59	7.702
301.95	7.557
302.32	6.033
302.69	6.452
303.05	9.212
303.42	8.642
303.79	6.908
304.15	7.459
304.52	6.025
304.89	5.459
305.25	7.077
305.62	7.361
305.99	8.501
306.35	7.159
306.72	8.408
307.09	6.659
307.45	8.333
307.82	6.138
308.19	7.285
308.55	8.846
308.92	7.411
309.29	6.547
309.65	4.772
310.02	7.294
310.38	6.559
310.75	6.969
311.12	7.677
311.48	7.106
311.85	8.491
312.22	6.452
312.58	7.380
312.95	7.603
313.31	5.922
313.68	6.861
314.05	9.270
314.41	7.337
314.78	7.553
315.14	7.051
315.51	8.239
315.87	8.812
316.24	7.646
316.61	8.090
316.97	6.849
317.34	6.556
317.70	7.935
318.07	7.507
318.43	8.219
318.80	8.247
319.16	8.192
319.53	7.223
319.89	8.762
320.26	8.700
320.62	9.623
320.99	9.293
321.35	10.404
321.72	10.370
322.08	10.958
322.45	11.144
322.81	10.562
323.18	11.946
323.54	10.111
323.91	10.849
324.27	11.090
324.64	10.438
325.00	10.640
325.37	12.648
325.73	13.645
326.10	13.592
326.46	12.903
326.83	12.425
327.19	14.005
327.56	14.024
327.92	14.348
328.29	13.665
328.65	14.825
329.01	14.621
329.38	15.264
329.74	15.235
330.11	15.080
330.47	15.519
330.84	14.798
331.20	17.213
331.56	17.798
331.93	15.556
332.29	17.835
332.66	17.168
333.02	17.002
333.38	18.428
333.75	18.717
334.11	17.705
334.48	17.657
334.84	18.199
335.20	18.909
335.57	17.316
335.93	17.321
336.29	17.582
336.66	18.665
337.02	17.557
337.38	17.870
337.75	19.162
338.11	18.263
338.47	18.785
338.84	18.607
339.20	18.257
339.56	19.708
339.93	18.364
340.29	18.207
340.65	18.806
341.02	20.070
341.38	19.039
341.74	18.596
342.11	19.214
342.47	18.943
342.83	19.606
343.20	19.307
343.56	19.545
343.92	18.947
344.28	19.133
344.65	18.831
345.01	19.360
345.37	19.383
345.73	18.697
346.10	19.693
346.46	18.983
346.82	19.852
347.19	18.964
347.55	19.212
347.91	19.660
348.27	19.721
348.63	18.227
349.00	18.851
349.36	18.062
349.72	18.845
350.08	18.476
350.45	19.365
350.81	18.522
351.17	18.882
351.53	18.919
351.89	18.069
352.26	19.968
352.62	18.364
352.98	18.639
353.34	19.228
353.70	18.576
354.07	19.194
354.43	19.444
354.79	18.584
355.15	19.074
355.51	19.664
355.87	18.204
356.24	18.730
356.60	17.402
356.96	18.584
357.32	19.052
357.68	19.685
358.04	19.557
358.40	19.477
358.77	18.701
359.13	18.785
359.49	18.824
359.85	17.381
360.21	18.262
360.57	19.844
360.93	19.077
361.29	18.670
361.66	17.957
362.02	19.627
362.38	18.859
362.74	19.643
363.10	18.061
363.46	18.342
363.82	18.896
364.18	18.796
364.54	19.911
364.90	19.476
365.26	18.088
365.62	19.284
365.98	19.065
366.35	17.908
366.71	18.800
367.07	18.791
367.43	19.086
367.79	19.986
368.15	20.043
368.51	18.532
368.87	19.343
369.23	18.727
369.59	19.117
369.95	19.412
370.31	19.017
370.67	18.913
371.03	20.300
371.39	18.513
371.75	19.265
372.11	18.634
372.47	20.088
372.83	20.245
373.19	19.003
373.55	19.660
373.91	19.146
374.27	18.900
374.63	18.764
374.99	19.562
375.35	19.121
375.71	19.602
376.07	20.508
376.42	18.982
376.78	20.345
377.14	19.878
377.50	20.066
377.86	18.418
378.22	19.343
378.58	19.486
378.94	19.799
379.30	19.402
379.66	20.685
380.02	19.410
380.38	19.004
380.74	19.688
381.09	19.866
381.45	19.975
381.81	20.147
382.17	19.873
382.53	19.434
382.89	19.938
383.25	20.013
383.61	21.437
383.97	20.013
384.32	19.900
384.68	19.765
385.04	19.053
385.40	19.195
385.76	19.595
386.12	20.272
386.48	19.887
386.83	21.552
387.19	20.532
387.55	20.099
387.91	20.012
388.27	19.926
388.62	21.143
388.98	19.656
389.34	20.025
389.70	20.233
390.06	20.469
390.42	20.623
390.77	21.120
391.13	19.592
391.49	22.018
391.85	20.624
392.20	20.063
392.56	20.518
392.92	20.012
393.28	19.349
393.64	20.683
393.99	20.037
394.35	20.533
394.71	20.013
395.07	20.436
395.42	20.519
395.78	20.802
396.14	20.298
396.50	20.551
396.85	21.043
397.21	20.469
397.57	20.025
397.92	20.012
398.28	19.563
398.64	20.191
399.00	20.034
399.35	19.741
399.71	20.081
400.07	20.047
400.42	20.245
400.78	20.084
401.14	20.366
401.49	20.119
401.85	19.540
402.21	19.940
402.57	18.816
402.92	20.113
403.28	19.738
403.63	20.050
403.99	19.682
404.35	20.000
404.70	19.844
405.06	19.569
405.42	20.025
405.77	19.657
406.13	18.849
406.49	20.757
406.84	19.138
407.20	19.799
407.55	19.911
407.91	20.000
408.27	19.592
408.62	19.687
408.98	20.159
409.34	19.250
409.69	20.258
410.05	19.021
410.40	19.266
410.76	18.698
411.11	20.567
411.47	18.914
411.83	20.220
412.18	19.357
412.54	19.988
412.89	19.398
413.25	18.949
413.60	19.271
413.96	18.883
414.31	19.380
414.67	20.279
415.03	19.669
415.38	20.103
415.74	18.778
416.09	20.118
416.45	19.612
416.80	19.498
417.16	19.839
417.51	20.770
417.87	19.396
418.22	19.811
418.58	18.334
418.93	20.577
419.29	19.032
419.64	20.655
420.00	20.305
420.35	20.348
420.71	20.741
421.06	19.391
421.42	19.766
421.77	19.899
422.12	18.810
422.48	19.050
422.83	19.511
423.19	19.448
423.54	19.791
423.90	19.594
424.25	19.430
424.61	19.345
424.96	19.650
425.31	19.546
425.67	19.326
426.02	19.429
426.38	20.452
426.73	20.012
427.09	20.061
427.44	19.896
427.79	19.839
428.15	20.298
428.50	20.187
428.85	20.143
429.21	19.879
429.56	19.803
429.92	20.684
430.27	19.613
430.62	19.508
430.98	20.135
431.33	20.052
431.68	20.524
432.04	19.649
432.39	20.160
432.74	19.928
433.10	20.543
433.45	20.991
433.80	20.122
434.16	20.032
434.51	20.632
434.86	20.810
435.22	20.122
435.57	20.243
435.92	20.597
436.28	21.530
436.63	21.468
436.98	21.351
437.34	20.990
437.69	21.762
438.04	21.248
438.39	20.955
438.75	21.092
439.10	20.782
439.45	21.488
439.81	21.631
440.16	20.836
440.51	21.265
440.86	21.598
441.22	22.080
441.57	21.497
441.92	21.085
442.27	21.475
442.63	21.274
442.98	22.479
443.33	21.957
443.68	21.580
444.03	21.864
444.39	20.740
444.74	21.374
445.09	22.102
445.44	21.268
445.79	21.920
446.15	22.710
446.50	22.617
446.85	22.508
447.20	21.724
447.55	22.334
447.91	22.339
448.26	23.317
448.61	22.046
448.96	22.536
449.31	22.103
449.66	22.679
450.02	22.284
450.37	21.655
450.72	23.012
451.07	22.486
451.42	23.404
451.77	23.664
452.12	22.748
452.47	23.010
452.83	22.844
453.18	22.922
453.53	23.995
453.88	22.327
454.23	23.252
454.58	23.985
454.93	24.348
455.28	22.880
455.63	22.694
455.98	24.524
456.34	24.749
456.69	23.732
457.04	23.653
457.39	23.787
457.74	24.782
458.09	24.094
458.44	24.344
458.79	23.265
459.14	23.702
459.49	23.876
459.84	23.657
460.19	24.101
460.54	23.206
460.89	23.478
461.24	24.044
461.59	25.160
461.94	23.921
462.29	25.163
462.64	24.059
462.99	23.813
463.34	24.800
463.69	24.640
464.04	24.754
464.39	23.130
464.74	23.351
465.09	23.643
465.44	24.155
465.79	24.161
466.14	23.755
466.49	24.027
466.84	24.635
467.19	24.623
467.54	25.250
467.89	24.790
468.24	24.142
468.59	24.908
468.94	23.702
469.29	25.193
469.64	25.971
469.99	25.575
470.34	24.901
470.68	24.928
471.03	25.578
471.38	26.338
471.73	24.917
472.08	25.724
472.43	24.812
472.78	25.806
473.13	25.481
473.48	25.780
473.83	25.122
474.17	25.638
474.52	25.434
474.87	25.569
475.22	24.666
475.57	24.449
475.92	25.173
476.27	25.761
476.61	25.427
476.96	24.574
477.31	25.222
477.66	25.164
478.01	24.046
478.36	25.648
478.70	24.351
479.05	25.399
479.40	25.384
479.75	24.860
480.10	24.602
480.45	24.607
480.79	25.036
481.14	24.902
481.49	25.676
481.84	25.057
482.19	24.625
482.53	24.587
482.88	25.547
483.23	25.140
483.58	25.296
483.92	26.101
484.27	24.314
484.62	25.733
484.97	24.714
485.31	25.274
485.66	24.287
486.01	23.029
486.36	21.947
486.70	21.834
487.05	22.463
487.40	23.493
487.75	23.467
488.09	24.841
488.44	24.350
488.79	24.919
489.13	25.554
489.48	25.408
489.83	25.852
490.17	26.260
490.52	25.554
490.87	26.323
491.22	25.921
491.56	24.829
491.91	25.361
492.26	25.310
492.60	26.083
492.95	25.538
493.30	26.168
493.64	26.645
493.99	25.534
494.34	26.364
494.68	26.419
495.03	25.752
495.37	25.966
495.72	26.511
496.07	25.893
496.41	25.487
496.76	26.253
497.11	25.934
497.45	26.083
497.80	26.488
498.14	25.845
498.49	26.341
498.84	26.031
499.18	26.238
499.53	26.496
499.87	25.955
500.22	26.802
500.56	27.282
500.91	26.106
501.26	26.268
501.60	27.243
501.95	26.444
502.29	26.757
502.64	26.909
502.98	26.180
503.33	26.280
503.67	26.265
504.02	26.707
504.36	26.860
504.71	26.429
505.06	27.133
505.40	26.592
505.75	26.712
506.09	26.482
506.44	27.035
506.78	27.472
507.13	27.309
507.47	27.929
507.82	27.153
508.16	27.204
508.51	27.803
508.85	27.309
509.19	27.602
509.54	27.398
509.88	27.769
510.23	28.329
510.57	28.844
510.92	28.276
511.26	27.903
511.61	27.645
511.95	27.349
512.30	27.200
512.64	27.942
512.98	28.296
513.33	28.694
513.67	27.535
514.02	27.652
514.36	27.635
514.70	29.330
515.05	28.444
515.39	29.052
515.74	28.266
516.08	28.899
516.42	29.634
516.77	29.097
517.11	28.468
517.46	29.007
517.80	28.804
518.14	28.373
518.49	29.697
518.83	28.352
519.17	28.811
519.52	28.806
519.86	29.093
520.20	29.364
520.55	29.683
520.89	29.501
521.23	30.760
521.58	30.012
521.92	29.271
522.26	29.469
522.61	29.470
522.95	29.343
523.29	29.823
523.64	29.512
523.98	29.698
524.32	29.433
524.66	29.765
525.01	30.270
525.35	30.173
525.69	29.002
526.04	30.343
526.38	30.323
526.72	28.466
527.06	31.011
527.41	29.394
527.75	30.482
528.09	29.737
528.43	30.019
528.78	30.178
529.12	29.758
529.46	29.945
529.80	29.889
530.15	30.405
530.49	30.154
530.83	30.063
531.17	30.614
531.51	31.258
531.86	30.968
532.20	30.639
532.54	31.582
532.88	30.167
533.22	30.044
533.57	30.247
533.91	29.681
534.25	30.134
534.59	30.567
534.93	29.863
535.27	30.175
535.62	30.281
535.96	29.567
536.30	30.642
536.64	30.972
536.98	32.117
537.32	30.810
537.66	30.933
538.01	31.271
538.35	31.351
538.69	31.589
539.03	29.955
539.37	30.032
539.71	28.970
540.05	30.261
540.39	31.096
540.73	30.336
541.07	30.110
541.42	30.855
541.76	30.839
542.10	31.565
542.44	30.397
542.78	31.489
543.12	31.158
543.46	31.148
543.80	29.733
544.14	30.424
544.48	30.540
544.82	30.404
545.16	29.928
545.50	31.362
545.84	30.376
546.18	30.707
546.52	31.865
546.86	31.478
547.20	31.153
547.54	31.931
547.88	32.015
548.22	30.075
548.56	31.069
548.90	29.834
549.24	30.168
549.58	31.037
549.92	31.525
550.26	32.599
550.60	31.397
550.94	30.915
551.28	31.090
551.62	31.560
551.96	31.509
552.30	31.877
552.64	31.102
552.98	32.407
553.32	32.569
553.66	31.357
554.00	32.258
554.34	31.539
554.68	33.047
555.02	30.606
555.36	32.220
555.69	30.920
556.03	31.090
556.37	32.606
556.71	30.696
557.05	31.863
557.39	31.770
557.73	32.181
558.07	32.705
558.41	31.042
558.75	31.815
559.08	32.289
559.42	32.577
559.76	31.838
560.10	32.405
560.44	33.124
560.78	31.337
561.12	31.530
561.45	31.356
561.79	32.103
562.13	32.394
562.47	31.762
562.81	31.729
563.15	31.572
563.48	31.300
563.82	32.485
564.16	30.804
564.50	30.924
564.84	31.226
565.17	31.982
565.51	31.310
565.85	31.726
566.19	31.872
566.52	32.299
566.86	31.947
567.20	31.368
567.54	31.221
567.88	29.821
568.21	30.847
568.55	30.182
568.89	30.302
569.23	29.323
569.56	29.190
569.90	28.528
570.24	28.956
570.57	29.140
570.91	28.151
571.25	27.733
571.59	27.865
571.92	27.765
572.26	27.412
572.60	28.168
572.93	27.916
573.27	28.305
573.61	28.001
573.95	27.907
574.28	27.010
574.62	27.235
574.96	26.882
575.29	26.964
575.63	27.744
575.97	26.894
576.30	27.642
576.64	27.799
576.98	28.075
577.31	27.126
577.65	26.992
577.98	26.699
578.32	26.549
578.66	26.771
578.99	26.934
579.33	27.185
579.67	27.244
580.00	27.667
580.34	27.456
580.67	27.109
581.01	27.906
581.35	27.327
581.68	27.171
582.02	26.517
582.35	26.745
582.69	26.435
583.02	26.491
583.36	27.715
583.70	27.498
584.03	28.109
584.37	28.617
584.70	28.161
585.04	28.351
585.37	27.842
585.71	28.148
586.04	27.857
586.38	28.239
586.72	28.556
587.05	28.145
587.39	27.836
587.72	27.802
588.06	27.988
588.39	28.093
588.73	27.633
589.06	28.856
589.40	28.788
589.73	28.969
590.07	29.466
590.40	28.900
590.73	29.977
591.07	30.118
591.40	30.072
591.74	30.866
592.07	30.846
592.41	30.302
592.74	29.139
593.08	29.347
593.41	28.504
593.75	28.076
594.08	29.031
594.41	29.551
594.75	29.538
595.08	29.205
595.42	29.457
595.75	29.523
596.09	29.440
596.42	30.255
596.75	29.970
597.09	31.342
597.42	30.438
597.75	29.582
598.09	29.870
598.42	30.541
598.76	29.712
599.09	29.190
599.42	28.675
599.76	29.466
600.09	29.035
600.42	28.598
600.76	29.036
601.09	28.816
601.42	29.718
601.76	29.602
602.09	29.289
602.42	29.976
602.76	30.754
603.09	29.819
603.42	29.676
603.76	29.764
604.09	30.128
604.42	30.697
604.76	30.367
605.09	30.843
605.42	30.184
605.75	29.677
606.09	30.012
606.42	30.527
606.75	29.614
607.09	29.971
607.42	30.295
607.75	29.705
608.08	29.353
608.42	30.973
608.75	30.703
609.08	30.620
609.41	30.652
609.75	30.634
610.08	31.951
610.41	31.145
610.74	30.322
611.07	32.263
611.41	31.060
611.74	31.674
612.07	31.936
612.40	32.686
612.73	31.526
613.07	32.920
613.40	32.649
613.73	31.148
614.06	31.344
614.39	31.306
614.72	31.263
615.06	32.143
615.39	31.529
615.72	30.982
616.05	31.366
616.38	31.351
616.71	32.957
617.05	32.097
617.38	33.073
617.71	32.733
618.04	34.014
618.37	31.875
618.70	32.732
619.03	33.618
619.36	32.994
619.69	34.437
620.03	34.547
620.36	33.957
620.69	34.452
621.02	34.513
621.35	35.239
621.68	33.567
622.01	35.217
622.34	34.720
622.67	34.829
623.00	33.822
623.33	33.524
623.66	34.453
623.99	34.242
624.32	33.524
624.65	34.040
624.99	33.003
625.32	33.599
625.65	34.485
625.98	34.896
626.31	34.526
626.64	36.000
626.97	36.575
627.30	36.243
627.63	36.177
627.96	35.744
628.29	35.696
628.62	36.139
628.95	37.358
629.28	37.135
629.61	36.847
629.94	38.095
630.26	37.083
630.59	35.176
630.92	36.973
631.25	37.512
631.58	38.338
631.91	37.323
632.24	37.553
632.57	37.880
632.90	37.719
633.23	38.143
633.56	41.243
633.89	38.505
634.22	38.593
634.55	39.408
634.88	38.084
635.20	40.980
635.53	39.277
635.86	41.213
636.19	38.471
636.52	39.216
636.85	39.633
637.18	38.249
637.51	39.835
637.83	38.101
638.16	40.153
638.49	40.554
638.82	42.099
639.15	40.500
639.48	40.524
639.81	43.834
640.13	40.495
640.46	41.879
640.79	40.687
641.12	40.028
641.45	38.827
641.77	43.299
642.10	42.982
642.43	39.640
642.76	45.201
643.09	44.018
643.41	40.668
643.74	43.981
644.07	41.616
644.40	44.632
644.73	43.937
645.05	43.265
645.38	42.496
645.71	43.800
646.04	43.854
646.36	44.741
646.69	42.140
647.02	44.218
647.35	45.189
647.67	44.602
648.00	43.740
648.33	42.904
648.66	43.030
648.98	41.979
649.31	39.761
649.64	41.555
649.96	42.772
650.29	39.968
650.62	41.909
650.94	42.788
651.27	45.101
651.60	42.762
651.92	43.131
652.25	40.717
652.58	40.966
652.90	42.970
653.23	38.829
653.56	42.362
653.88	41.204
654.21	41.390
654.54	42.739
654.86	44.081
655.19	38.514
655.52	28.571
655.84	24.771
656.17	30.763
656.49	40.687
656.82	41.317
657.15	31.606
657.47	23.736
657.80	18.449
658.13	19.368
658.45	29.255
658.78	30.420
659.10	31.607
659.43	33.935
659.75	34.971
660.08	39.494
660.41	43.110
660.73	46.252
661.06	44.427
661.38	47.636
661.71	45.769
662.03	48.718
662.36	46.322
662.68	42.169
663.01	45.051
663.33	47.558
663.66	46.008
663.98	47.732
664.31	47.899
664.63	43.522
664.96	45.070
665.28	46.926
665.61	45.614
665.93	44.668
666.26	43.205
666.58	48.326
666.91	45.032
667.23	48.764
667.56	46.004
667.88	46.154
668.21	48.401
668.53	48.807
668.86	47.619
669.18	46.695
669.50	47.609
669.83	48.802
670.15	46.444
670.48	45.316
670.80	46.983
671.13	47.346
671.45	41.064
671.77	47.862
672.10	45.841
672.42	42.580
672.75	40.796
673.07	41.549
673.39	42.315
673.72	44.141
674.04	44.902
674.37	44.272
674.69	41.104
675.01	45.607
675.34	47.844
675.66	49.263
675.98	45.621
676.31	46.008
676.63	45.860
676.95	46.331
677.28	47.664
677.60	45.495
677.92	45.359
678.25	45.175
678.57	44.821
678.89	42.685
679.22	43.615
679.54	44.275
679.86	43.670
680.18	43.292
680.51	40.603
680.83	37.722
681.15	42.075
681.48	41.966
681.80	43.327
682.12	44.061
682.44	42.940
682.77	43.788
683.09	47.210
683.41	46.120
683.73	44.592
684.06	48.347
684.38	44.618
684.70	43.217
685.02	44.090
685.34	43.407
685.67	38.636
685.99	40.550
686.31	42.150
686.63	40.989
686.96	40.536
687.28	41.155
687.60	41.123
687.92	41.682
688.24	42.205
688.56	44.980
688.89	46.888
689.21	45.415
689.53	42.797
689.85	47.228
690.17	40.994
690.49	46.497
690.82	46.729
691.14	42.411
691.46	40.717
691.78	42.369
692.10	43.595
692.42	42.715
692.74	41.909
693.06	43.191
693.39	44.148
693.71	43.886
694.03	43.158
694.35	43.290
694.67	44.394
694.99	48.293
695.31	48.775
695.63	47.847
695.95	45.721
696.27	44.416
696.59	44.560
696.91	45.855
697.23	41.784
697.56	43.710
697.88	40.286
698.20	40.417
698.52	41.505
698.84	42.762
699.16	44.931
699.48	42.518
699.80	48.551
700.12	49.610
700.44	45.889
700.76	46.685
701.08	47.414
701.40	43.296
701.72	49.563
702.04	50.568
702.36	44.193
702.68	46.742
703.00	49.030
703.32	43.883
703.64	42.895
703.96	46.240
704.28	50.581
704.60	50.147
704.91	50.148
705.23	45.455
705.55	53.156
705.87	49.834
706.19	50.177
706.51	47.040
706.83	47.576
707.15	44.818
707.47	43.687
707.79	45.700
708.11	45.662
708.43	42.619
708.74	43.112
709.06	42.857
709.38	47.244
709.70	46.802
710.02	49.258
710.34	46.970
710.66	47.164
710.98	44.602
711.29	48.256
711.61	50.147
711.93	50.000
712.25	50.161
712.57	54.044
712.89	48.443
713.20	48.024
713.52	50.329
713.84	43.987
714.16	47.256
714.48	46.552
714.80	48.936
715.11	46.686
715.43	47.774
715.75	44.348
716.07	45.048
716.39	42.947
716.70	48.837
717.02	49.640
717.34	51.237
717.66	53.731
717.97	56.972
718.29	50.370
718.61	50.730
718.93	44.118
719.24	47.405
719.56	46.102
719.88	46.441
720.20	46.959
720.51	49.826
720.83	50.929
721.15	51.493
721.46	46.454
721.78	49.821
722.10	49.434
722.42	50.376
722.73	49.438
723.05	53.689
723.37	48.988
723.68	49.035
724.00	52.033
724.32	49.194
724.63	47.967
724.95	48.954
725.27	51.012
725.58	53.125
725.90	47.810
726.22	46.792
726.53	44.444
726.85	47.782
727.16	49.466
727.48	48.227
727.80	49.621
728.11	50.362
728.43	48.462
728.74	46.953
729.06	48.540
729.38	49.632
729.69	50.534
730.01	43.686
730.32	46.528
730.64	43.478
730.96	43.894
731.27	47.020
731.59	43.425
731.90	43.732
732.22	44.410
732.53	43.653
732.85	47.436
733.16	45.016
733.48	40.199
733.80	43.831
734.11	49.682
734.43	43.787
734.74	39.714
735.06	40.688
735.37	44.220
735.69	45.860
736.00	41.503
736.32	46.729
736.63	44.089
736.95	49.201
737.26	40.476
737.58	41.935
737.89	45.485
738.21	47.440
738.52	44.286
738.83	42.264
739.15	50.385
739.46	49.635
739.78	48.611
740.09	43.385
740.41	48.710
740.72	43.902
741.04	50.741
741.35	50.000
741.66	50.222
741.98	50.472
742.29	52.632
742.61	52.586
742.92	54.299
743.23	47.009
743.55	46.800
743.86	52.632
744.18	51.327
744.49	55.502
744.80	50.704
745.12	55.909
745.43	47.137
745.74	58.108
746.06	48.624
746.37	54.709
746.68	47.964
747.00	55.556
747.31	56.667
747.62	44.690
747.94	47.577
748.25	47.660
748.56	49.780
748.88	47.030
749.19	56.000
749.50	52.558
749.82	48.780
750.13	42.449
750.44	45.985
750.75	43.158
751.07	46.302
751.38	49.477
751.69	45.848
752.01	46.241
752.32	42.238
752.63	47.872
752.94	47.541
753.26	50.400
753.57	46.341
753.88	55.078
754.19	43.571
754.51	46.875
754.82	41.877
755.13	45.283
755.44	43.609
755.75	50.365
756.07	45.390
756.38	42.336
756.69	45.638
757.00	41.317
757.31	42.730
757.63	40.936
757.94	38.874
758.25	38.480
758.56	38.519
758.87	41.667
759.18	45.455
759.50	38.871
759.81	42.991
760.12	40.312
760.43	44.413
760.74	38.859
761.05	38.983
761.36	40.642
761.67	40.341
761.99	42.236
762.30	46.181
762.61	43.893
762.92	47.656
763.23	47.479
763.54	48.400
763.85	42.578
764.16	46.538
764.47	46.008
764.78	42.049
765.10	35.443
765.41	42.478
765.72	44.910
766.03	41.379
766.34	45.000
766.65	50.638
766.96	50.427
767.27	52.792
767.58	52.083
767.89	52.632
768.20	58.046
768.51	50.254
768.82	49.541
769.13	43.089
769.44	42.915
769.75	48.498
770.06	42.202
770.37	52.489
770.68	41.667
770.99	44.000
771.30	43.033
771.61	47.534
771.92	47.131
772.23	44.118
772.54	47.692
772.85	55.497
773.16	54.255
773.47	45.109
773.78	55.838
774.09	52.381
774.39	54.971
774.70	48.765
775.01	53.623
775.32	67.974
775.63	55.921
775.94	56.115
776.25	61.417
776.56	54.478
776.87	56.557
777.18	60.938
777.48	61.832
777.79	58.333
778.10	62.222
778.41	53.571
778.72	48.905
779.03	55.034
779.34	53.020
779.65	55.405
779.95	54.601
780.26	60.784
780.57	68.966
780.88	72.656
781.19	54.135
781.50	64.865
781.80	59.748
782.11	50.847
782.42	54.430
782.73	52.147
783.04	57.432
783.34	59.859
783.65	59.589
783.96	58.209
784.27	55.245
784.57	46.763
784.88	50.000
785.19	55.556
785.50	63.208
785.81	60.448
786.11	60.656
786.42	65.891
786.73	57.522
787.04	72.642
787.34	66.964
787.65	54.000
787.96	58.559
788.26	56.198
788.57	66.949
788.88	55.372
789.19	63.889
789.49	56.818
789.80	57.252
790.11	77.143
790.41	65.347
790.72	63.855
791.03	73.913
791.33	59.302
791.64	62.887
791.95	69.307
792.25	72.222
792.56	83.117
792.87	88.462
793.17	93.671
793.48	74.713
793.79	70.115
794.09	75.000
794.40	63.025
794.70	62.500
795.01	59.259
795.32	56.835
795.62	55.118
795.93	60.345
796.23	61.062
796.54	67.059
796.85	83.784
797.15	107.042
797.46	81.818
797.76	79.518
798.07	75.949
798.37	75.385
798.68	84.848
798.99	69.014
799.29	63.636
799.60	65.909
799.90	93.151
800.21	92.537
800.51	86.207
800.82	105.263
801.12	90.164
801.43	90.909
801.73	55.405
802.04	106.349
802.34	82.716
802.65	84.375
802.95	115.254
803.26	85.937
803.56	75.714
803.87	80.000
804.17	98.529
804.48	96.296
804.78	98.276
805.09	95.588
805.39	115.385
805.70	100.000
806.00	86.885
806.30	84.848
806.61	75.610
806.91	78.481
807.22	84.211
807.52	70.149
807.83	95.775
808.13	85.938
808.43	95.000
808.74	78.947
809.04	75.362
809.35	89.552
809.65	73.684
809.95	111.290
810.26	98.305
810.56	93.651
810.86	143.182
811.17	102.381
811.47	100.000
811.77	94.444
812.08	103.636
812.38	118.000
812.69	136.111
812.99	115.909
813.29	100.000
813.59	116.667
813.90	126.531
814.20	94.545
814.50	80.000
814.81	83.824
815.11	104.082
815.41	95.082
815.72	126.190
816.02	96.364
816.32	90.476
816.62	115.000
816.93	114.634
817.23	133.333
817.53	93.182
817.84	139.394
818.14	97.826
818.44	120.000
818.74	144.118
819.04	117.500
819.35	114.286
819.65	141.176
819.95	167.857
820.25	200.000
820.56	107.692
820.86	120.455
821.16	139.535
821.46	94.872
821.76	108.000
822.07	154.286
822.37	142.500
822.67	118.182
822.97	100.000
823.27	171.429
823.57	129.730
823.88	147.500
824.18	173.333
824.48	123.810
824.78	188.000
825.08	154.167
825.38	116.216
825.69	100.000
825.99	191.667
826.29	148.276
826.59	157.895
826.89	147.368
827.19	138.235
827.49	196.774
827.79	122.727
828.09	134.091
828.39	121.277
828.70	100.000
829.00	129.630
829.30	125.806
829.60	100.000
829.90	233.333
830.20	178.571
830.50	160.870
830.80	143.478
831.10	153.333
831.40	136.667
831.70	156.522
832.00	203.846
832.30	162.963
832.60	218.750
832.90	166.667
833.20	321.429
833.50	158.065
833.80	168.966
834.10	159.375
834.40	196.154
834.70	250.000
835.00	266.667
835.30	131.429
835.60	261.538
835.90	179.310
836.20	271.429
836.50	168.966
836.80	184.000
837.10	161.111
837.40	166.667
837.70	264.706
838.00	166.667
838.30	190.476
838.60	219.048
838.90	184.615
839.19	210.000
839.49	392.857
839.79	280.000
840.09	205.000
840.39	180.952
840.69	226.087
840.99	266.667
841.29	300.000
841.59	258.333
841.88	287.500
842.18	141.379
842.48	204.762
842.78	183.333
843.08	186.957
843.38	159.375
843.68	766.667
843.97	211.538
844.27	124.138
844.57	242.857
844.87	306.250
845.17	166.667
845.47	1100.000
845.76	300.000
846.06	200.000
846.36	450.000
846.66	357.143
846.96	237.500
847.25	309.091
847.55	227.273
847.85	221.739
848.15	420.000
848.44	221.429
848.74	277.778
849.04	205.882
849.34	360.000
849.63	200.000
849.93	354.545
850.23	780.000
850.53	378.571
850.82	1500.000
851.12	-3500.000
851.42	3900.000
851.71	195.000
852.01	-933.333
852.31	200.000
852.61	1433.333
852.90	223.810
853.20	196.000
853.50	305.882
853.79	190.476
854.09	175.000
854.39	287.500
854.68	129.730
854.98	129.032
855.28	130.000
855.57	189.655
855.87	148.148
856.17	168.421
856.46	146.667
856.76	182.353
857.05	179.310
857.35	175.000
857.65	233.333
857.94	204.348
858.24	200.000
858.53	185.000
858.83	240.909
859.13	273.333
859.42	0.000
859.72	477.778
860.01	309.091
860.31	250.000
860.60	189.474
860.90	173.913
861.20	555.556
861.49	391.667
861.79	-2800.000
862.08	462.500
862.38	214.286
862.67	269.231
862.97	211.765
863.26	400.000
863.56	205.556
863.85	291.667
864.15	437.500
864.44	300.000
864.74	583.333
865.03	475.000
865.33	268.421
865.62	290.909
865.92	369.231
866.21	408.333
866.51	0.000
866.80	472.727
867.10	720.000
867.39	230.769
867.69	363.636
867.98	184.211
868.27	327.273
868.57	247.368
868.86	-3000.000
869.16	250.000
869.45	1750.000
869.75	-2200.000
870.04	366.667
870.33	414.286
870.63	800.000
870.92	1850.000
871.22	500.000
871.51	258.824
871.80	128.571
872.10	300.000
>>>>>End Processed Spectral Data<<<<<
