SpectraSuite Data File
++++++++++++++++++++++++++++++++++++
Date: Wed May 13 16:21:47 PDT 2015
User: schluterlab
Dark Spectrum Present: Yes
Reference Spectrum Present: Yes
Number of Sampled Component Spectra: 1
Spectrometers: USB2E3373
Integration Time (usec): 3000 (USB2E3373)
Spectra Averaged: 3 (USB2E3373)
Boxcar Smoothing: 0 (USB2E3373)
Correct for Electrical Dark: No (USB2E3373)
Strobe/Lamp Enabled: No (USB2E3373)
Correct for Detector Non-linearity: No (USB2E3373)
Correct for Stray Light: No (USB2E3373)
Number of Pixels in Processed Spectrum: 2048
>>>>>Begin Processed Spectral Data<<<<<
178.53	0.000
178.91	-1100.000
179.29	-1150.000
179.67	-211.111
180.04	-1400.000
180.42	2300.000
180.80	1040.000
181.18	-1100.000
181.56	571.429
181.94	0.000
182.31	-557.143
182.69	1466.667
183.07	-412.500
183.45	-488.889
183.83	472.727
184.20	-390.000
184.58	2400.000
184.96	5100.000
185.34	-900.000
185.72	-512.500
186.09	-2300.000
186.47	2650.000
186.85	2100.000
187.23	3500.000
187.61	-1466.667
187.98	1250.000
188.36	481.818
188.74	436.364
189.12	-960.000
189.49	580.000
189.87	-5300.000
190.25	-1200.000
190.63	414.286
191.00	438.462
191.38	866.667
191.76	-775.000
192.14	1300.000
192.51	587.500
192.89	750.000
193.27	512.500
193.65	-925.000
194.02	480.000
194.40	960.000
194.78	520.000
195.15	475.000
195.53	570.000
195.91	-2050.000
196.29	287.500
196.66	257.895
197.04	-310.000
197.42	0.000
197.79	510.000
198.17	-4400.000
198.55	585.714
198.92	587.500
199.30	960.000
199.68	0.000
200.05	277.778
200.43	728.571
200.81	4200.000
201.18	1400.000
201.56	-1266.667
201.94	455.556
202.31	566.667
202.69	341.667
203.07	500.000
203.44	0.000
203.82	1025.000
204.19	685.714
204.57	407.143
204.95	500.000
205.32	1233.333
205.70	490.909
206.08	357.143
206.45	2300.000
206.83	368.750
207.20	683.333
207.58	880.000
207.96	311.111
208.33	587.500
208.71	-783.333
209.08	714.286
209.46	544.444
209.84	400.000
210.21	-1066.667
210.59	1250.000
210.96	-512.500
211.34	2050.000
211.71	490.000
212.09	750.000
212.46	0.000
212.84	1466.667
213.22	1250.000
213.59	-4300.000
213.97	800.000
214.34	700.000
214.72	509.091
215.09	880.000
215.47	-2350.000
215.84	-2100.000
216.22	1766.667
216.59	364.286
216.97	1300.000
217.34	463.636
217.72	-766.667
218.09	0.000
218.47	-3300.000
218.84	588.889
219.22	757.143
219.59	1700.000
219.97	-457.143
220.34	980.000
220.72	-1266.667
221.09	357.143
221.47	1550.000
221.84	-916.667
222.22	0.000
222.59	1175.000
222.97	-2250.000
223.34	1140.000
223.72	338.462
224.09	960.000
224.46	1700.000
224.84	-3700.000
225.21	-860.000
225.59	-4200.000
225.96	640.000
226.34	230.000
226.71	2800.000
227.08	600.000
227.46	540.000
227.83	-1200.000
228.21	-2250.000
228.58	566.667
228.95	-2150.000
229.33	-2250.000
229.70	1233.333
230.08	742.857
230.45	-620.000
230.82	350.000
231.20	733.333
231.57	614.286
231.95	458.333
232.32	227.273
232.69	336.364
233.07	585.714
233.44	315.385
233.81	-1433.333
234.19	268.421
234.56	425.000
234.93	308.333
235.31	381.818
235.68	230.769
236.05	278.571
236.43	133.333
236.80	242.105
237.17	3200.000
237.55	204.762
237.92	146.429
238.29	204.762
238.67	154.839
239.04	168.966
239.41	116.667
239.79	97.826
240.16	107.143
240.53	106.818
240.91	80.392
241.28	60.000
241.65	80.000
242.02	79.710
242.40	79.032
242.77	70.000
243.14	66.667
243.51	58.427
243.89	54.118
244.26	55.556
244.63	54.839
245.00	43.617
245.38	36.634
245.75	38.318
246.12	30.275
246.49	51.095
246.87	43.200
247.24	46.154
247.61	33.571
247.98	33.333
248.36	28.378
248.73	28.662
249.10	33.121
249.47	31.638
249.84	35.294
250.22	28.877
250.59	30.178
250.96	29.798
251.33	31.754
251.70	30.693
252.08	30.476
252.45	18.834
252.82	27.826
253.19	30.638
253.56	21.569
253.94	26.556
254.31	20.703
254.68	23.077
255.05	23.985
255.42	21.545
255.79	18.750
256.16	24.910
256.54	19.435
256.91	22.420
257.28	13.309
257.65	22.112
258.02	21.739
258.39	17.666
258.76	19.398
259.14	21.131
259.51	17.933
259.88	18.012
260.25	16.918
260.62	16.763
260.99	16.460
261.36	18.919
261.73	14.613
262.10	17.151
262.47	18.028
262.85	16.992
263.22	13.960
263.59	19.658
263.96	15.385
264.33	14.360
264.70	16.842
265.07	16.880
265.44	15.404
265.81	15.572
266.18	14.322
266.55	14.878
266.92	14.005
267.29	17.361
267.66	14.679
268.03	17.045
268.40	14.720
268.77	12.411
269.14	12.838
269.51	17.607
269.88	15.152
270.25	13.318
270.62	15.056
270.99	18.065
271.36	16.094
271.73	14.019
272.10	13.261
272.47	15.269
272.84	15.368
273.21	14.885
273.58	11.790
273.95	10.901
274.32	12.810
274.69	13.276
275.06	12.598
275.43	14.255
275.80	14.629
276.17	13.238
276.54	14.761
276.91	12.846
277.28	12.500
277.65	14.120
278.02	13.251
278.39	13.281
278.76	13.455
279.13	13.585
279.50	13.966
279.87	12.948
280.23	10.978
280.60	10.638
280.97	12.569
281.34	13.451
281.71	14.727
282.08	13.052
282.45	15.455
282.82	13.144
283.19	10.339
283.56	12.632
283.92	13.875
284.29	11.640
284.66	12.886
285.03	12.839
285.40	11.092
285.77	11.279
286.14	11.399
286.51	13.667
286.87	13.846
287.24	13.029
287.61	12.360
287.98	12.338
288.35	10.618
288.72	12.305
289.08	11.111
289.45	11.697
289.82	12.195
290.19	9.576
290.56	10.720
290.93	9.063
291.29	11.656
291.66	11.357
292.03	13.517
292.40	11.160
292.77	9.467
293.13	10.597
293.50	9.621
293.87	10.074
294.24	9.037
294.60	11.063
294.97	9.593
295.34	11.142
295.71	11.506
296.08	9.117
296.44	10.867
296.81	10.436
297.18	9.350
297.55	8.839
297.91	8.575
298.28	10.040
298.65	9.138
299.02	9.486
299.38	10.624
299.75	8.221
300.12	8.812
300.48	9.250
300.85	9.248
301.22	8.280
301.59	8.838
301.95	9.320
302.32	7.702
302.69	8.602
303.05	9.939
303.42	7.778
303.79	8.947
304.15	8.042
304.52	7.648
304.89	8.479
305.25	7.657
305.62	8.494
305.99	8.146
306.35	8.949
306.72	9.305
307.09	8.657
307.45	9.459
307.82	6.696
308.19	9.161
308.55	8.091
308.92	7.411
309.29	7.181
309.65	7.635
310.02	8.140
310.38	8.817
310.75	8.237
311.12	8.393
311.48	8.464
311.85	8.805
312.22	8.533
312.58	8.420
312.95	8.448
313.31	8.155
313.68	7.796
314.05	10.256
314.41	9.146
314.78	7.956
315.14	7.646
315.51	8.857
315.87	8.218
316.24	7.646
316.61	8.674
316.97	7.143
317.34	7.828
317.70	7.839
318.07	9.047
318.43	8.219
318.80	9.091
319.16	8.098
319.53	7.880
319.89	7.810
320.26	9.500
320.62	8.135
320.99	8.788
321.35	8.990
321.72	9.856
322.08	9.576
322.45	10.448
322.81	10.174
323.18	10.597
323.54	9.369
323.91	10.000
324.27	10.612
324.64	8.295
325.00	9.197
325.37	11.192
325.73	10.952
326.10	10.150
326.46	9.677
326.83	10.095
327.19	11.102
327.56	10.714
327.92	11.286
328.29	10.648
328.65	9.761
329.01	10.740
329.38	10.916
329.74	11.265
330.11	11.122
330.47	11.754
330.84	12.040
331.20	10.929
331.56	12.477
331.93	11.111
332.29	12.600
332.66	12.389
333.02	12.706
333.38	12.466
333.75	12.834
334.11	13.078
334.48	12.245
334.84	11.949
335.20	13.909
335.57	11.967
335.93	12.054
336.29	11.538
336.66	13.796
337.02	11.584
337.38	12.500
337.75	11.676
338.11	11.996
338.47	12.891
338.84	13.749
339.20	11.651
339.56	13.412
339.93	11.909
340.29	11.594
340.65	13.102
341.02	13.438
341.38	13.167
341.74	12.018
342.11	13.013
342.47	13.128
342.83	12.500
343.20	12.468
343.56	11.963
343.92	12.281
344.28	11.650
344.65	12.812
345.01	12.121
345.37	11.750
345.73	12.014
346.10	12.702
346.46	13.136
346.82	12.438
347.19	11.612
347.55	13.300
347.91	13.269
348.27	12.736
348.63	12.542
349.00	11.570
349.36	12.562
349.72	12.670
350.08	12.723
350.45	11.717
350.81	11.779
351.17	12.156
351.53	11.957
351.89	11.716
352.26	12.786
352.62	12.029
352.98	12.399
353.34	12.079
353.70	11.375
354.07	11.935
354.43	12.222
354.79	12.228
355.15	11.492
355.51	13.669
355.87	13.061
356.24	11.564
356.60	11.708
356.96	11.826
357.32	12.183
357.68	12.283
358.04	13.539
358.40	12.668
358.77	13.380
359.13	11.287
359.49	12.235
359.85	10.635
360.21	10.686
360.57	12.607
360.93	13.154
361.29	12.094
361.66	11.765
362.02	12.537
362.38	12.548
362.74	12.798
363.10	11.991
363.46	11.959
363.82	11.791
364.18	12.261
364.54	13.076
364.90	12.748
365.26	11.765
365.62	13.294
365.98	11.980
366.35	11.676
366.71	12.798
367.07	13.401
367.43	12.337
367.79	12.777
368.15	13.865
368.51	12.863
368.87	12.634
369.23	13.241
369.59	12.672
369.95	12.279
370.31	12.678
370.67	12.174
371.03	13.558
371.39	13.120
371.75	12.279
372.11	13.442
372.47	13.270
372.83	12.968
373.19	12.428
373.55	14.782
373.91	13.697
374.27	13.471
374.63	12.800
374.99	13.912
375.35	12.352
375.71	12.132
376.07	13.855
376.42	13.549
376.78	13.121
377.14	13.297
377.50	13.841
377.86	13.298
378.22	13.211
378.58	12.782
378.94	13.199
379.30	12.532
379.66	13.769
380.02	13.698
380.38	13.540
380.74	14.106
381.09	13.570
381.45	12.969
381.81	14.619
382.17	14.395
382.53	14.151
382.89	14.815
383.25	13.634
383.61	14.064
383.97	13.571
384.32	13.163
384.68	13.321
385.04	13.768
385.40	14.180
385.76	13.452
386.12	14.832
386.48	14.726
386.83	15.138
387.19	14.224
387.55	15.152
387.91	13.785
388.27	13.979
388.62	14.321
388.98	14.558
389.34	14.831
389.70	14.838
390.06	14.956
390.42	15.240
390.77	14.504
391.13	15.188
391.49	15.292
391.85	14.768
392.20	13.628
392.56	14.899
392.92	14.420
393.28	14.201
393.64	14.748
393.99	14.783
394.35	14.640
394.71	14.492
395.07	14.642
395.42	14.710
395.78	15.394
396.14	14.649
396.50	15.789
396.85	15.067
397.21	14.365
397.57	15.313
397.92	14.603
398.28	13.117
398.64	15.352
399.00	14.941
399.35	14.213
399.71	14.815
400.07	14.902
400.42	15.399
400.78	14.656
401.14	14.390
401.49	14.746
401.85	13.612
402.21	14.731
402.57	13.634
402.92	15.132
403.28	15.303
403.63	14.790
403.99	14.586
404.35	15.576
404.70	14.868
405.06	14.851
405.42	14.535
405.77	14.629
406.13	14.673
406.49	14.784
406.84	14.589
407.20	13.534
407.55	14.614
407.91	14.867
408.27	14.550
408.62	14.750
408.98	14.706
409.34	14.699
409.69	14.065
410.05	14.932
410.40	14.557
410.76	14.636
411.11	15.320
411.47	14.058
411.83	14.478
412.18	14.471
412.54	14.570
412.89	14.578
413.25	13.577
413.60	14.947
413.96	14.026
414.31	15.006
414.67	15.209
415.03	14.901
415.38	15.335
415.74	15.113
416.09	14.827
416.45	14.926
416.80	14.276
417.16	15.349
417.51	14.930
417.87	13.809
418.22	14.890
418.58	15.107
418.93	15.295
419.29	15.213
419.64	15.491
420.00	15.183
420.35	15.072
420.71	14.345
421.06	15.036
421.42	14.854
421.77	14.630
422.12	14.374
422.48	13.923
422.83	14.910
423.19	14.144
423.54	14.684
423.90	15.130
424.25	14.126
424.61	14.405
424.96	14.810
425.31	15.559
425.67	14.157
426.02	13.714
426.38	15.263
426.73	14.160
427.09	13.739
427.44	14.549
427.79	15.181
428.15	15.238
428.50	15.565
428.85	15.316
429.21	13.970
429.56	14.982
429.92	14.494
430.27	14.548
430.62	14.183
430.98	14.738
431.33	14.794
431.68	14.398
432.04	14.856
432.39	14.792
432.74	15.679
433.10	15.393
433.45	15.394
433.80	15.466
434.16	15.011
434.51	15.000
434.86	15.222
435.22	14.842
435.57	15.441
435.92	15.623
436.28	15.718
436.63	16.225
436.98	14.768
437.34	15.265
437.69	15.694
438.04	15.065
438.39	16.000
438.75	16.734
439.10	15.475
439.45	15.939
439.81	15.106
440.16	15.415
440.51	15.524
440.86	15.866
441.22	16.073
441.57	15.764
441.92	15.148
442.27	15.554
442.63	15.324
442.98	16.620
443.33	16.250
443.68	15.333
444.03	14.934
444.39	15.336
444.74	16.396
445.09	15.526
445.44	15.582
445.79	15.685
446.15	17.628
446.50	16.532
446.85	15.930
447.20	16.471
447.55	15.969
447.91	15.609
448.26	15.971
448.61	16.054
448.96	16.944
449.31	16.535
449.66	16.207
450.02	16.212
450.37	16.837
450.72	16.187
451.07	15.661
451.42	15.866
451.77	16.031
452.12	16.166
452.47	16.604
452.83	15.559
453.18	17.176
453.53	16.141
453.88	16.775
454.23	16.198
454.58	16.596
454.93	16.592
455.28	15.399
455.63	16.444
455.98	17.321
456.34	16.960
456.69	16.594
457.04	16.471
457.39	16.540
457.74	15.612
458.09	16.331
458.44	16.420
458.79	15.727
459.14	16.140
459.49	17.104
459.84	16.510
460.19	17.148
460.54	16.088
460.89	17.115
461.24	16.879
461.59	17.838
461.94	16.584
462.29	17.685
462.64	16.273
462.99	16.265
463.34	17.267
463.69	16.760
464.04	17.391
464.39	16.174
464.74	16.518
465.09	16.164
465.44	16.898
465.79	15.772
466.14	16.311
466.49	16.463
466.84	16.929
467.19	16.536
467.54	16.750
467.89	16.687
468.24	17.452
468.59	17.277
468.94	16.555
469.29	17.545
469.64	18.273
469.99	17.050
470.34	16.446
470.68	17.672
471.03	16.803
471.38	17.443
471.73	17.722
472.08	17.237
472.43	17.148
472.78	17.314
473.13	18.036
473.48	17.478
473.83	16.890
474.17	17.113
474.52	17.556
474.87	17.688
475.22	17.644
475.57	16.604
475.92	16.357
476.27	16.855
476.61	16.602
476.96	16.767
477.31	16.902
477.66	17.341
478.01	17.198
478.36	17.821
478.70	17.186
479.05	16.933
479.40	17.144
479.75	16.472
480.10	16.551
480.45	15.992
480.79	16.006
481.14	16.585
481.49	17.038
481.84	16.141
482.19	16.629
482.53	16.606
482.88	17.217
483.23	16.963
483.58	17.015
483.92	16.823
484.27	15.599
484.62	16.724
484.97	16.673
485.31	16.918
485.66	15.683
486.01	14.904
486.36	14.083
486.70	13.836
487.05	14.795
487.40	15.041
487.75	15.498
488.09	16.166
488.44	16.244
488.79	16.564
489.13	16.769
489.48	16.843
489.83	16.789
490.17	16.440
490.52	16.120
490.87	16.508
491.22	16.735
491.56	16.446
491.91	16.752
492.26	17.226
492.60	16.590
492.95	16.464
493.30	16.729
493.64	16.939
493.99	17.177
494.34	16.790
494.68	17.949
495.03	17.293
495.37	16.845
495.72	16.618
496.07	17.401
496.41	16.150
496.76	16.843
497.11	16.524
497.45	16.814
497.80	16.987
498.14	16.908
498.49	16.878
498.84	17.641
499.18	16.571
499.53	17.379
499.87	17.195
500.22	17.240
500.56	17.476
500.91	17.260
501.26	16.548
501.60	17.750
501.95	16.453
502.29	17.760
502.64	17.737
502.98	17.391
503.33	16.728
503.67	17.123
504.02	17.493
504.36	17.548
504.71	17.538
505.06	17.831
505.40	17.258
505.75	17.020
506.09	17.007
506.44	17.218
506.78	17.487
507.13	17.516
507.47	17.828
507.82	18.136
508.16	17.984
508.51	18.468
508.85	17.974
509.19	17.296
509.54	18.163
509.88	17.877
510.23	17.995
510.57	18.782
510.92	18.022
511.26	18.088
511.61	18.050
511.95	18.424
512.30	17.656
512.64	18.323
512.98	19.185
513.33	19.379
513.67	18.303
514.02	18.019
514.36	19.388
514.70	18.428
515.05	18.015
515.39	18.452
515.74	19.313
516.08	18.726
516.42	19.145
516.77	19.621
517.11	18.590
517.46	19.526
517.80	19.570
518.14	19.398
518.49	19.720
518.83	19.375
519.17	19.457
519.52	20.147
519.86	19.224
520.20	19.769
520.55	20.168
520.89	20.255
521.23	19.903
521.58	20.528
521.92	20.331
522.26	18.792
522.61	19.688
522.95	19.767
523.29	20.085
523.64	20.793
523.98	19.901
524.32	19.903
524.66	20.084
525.01	20.221
525.35	19.641
525.69	20.690
526.04	20.997
526.38	20.317
526.72	19.877
527.06	20.778
527.41	19.369
527.75	21.029
528.09	20.039
528.43	21.224
528.78	21.328
529.12	20.182
529.46	20.576
529.80	20.421
530.15	20.623
530.49	20.000
530.83	19.810
531.17	21.802
531.51	20.298
531.86	20.194
532.20	21.773
532.54	21.653
532.88	20.860
533.22	20.362
533.57	20.617
533.91	20.048
534.25	20.231
534.59	20.622
534.93	20.107
535.27	20.217
535.62	20.024
535.96	20.402
536.30	19.898
536.64	21.185
536.98	21.102
537.32	20.013
537.66	20.667
538.01	20.606
538.35	21.008
538.69	21.570
539.03	21.118
539.37	20.383
539.71	19.572
540.05	20.523
540.39	20.598
540.73	20.828
541.07	21.350
541.42	21.461
541.76	20.710
542.10	21.734
542.44	20.331
542.78	21.673
543.12	19.706
543.46	21.049
543.80	20.429
544.14	20.732
544.48	20.698
544.82	20.334
545.16	20.364
545.50	19.666
545.84	21.640
546.18	21.077
546.52	20.440
546.86	20.550
547.20	21.645
547.54	21.042
547.88	21.046
548.22	19.863
548.56	20.440
548.90	20.743
549.24	20.067
549.58	21.623
549.92	20.810
550.26	20.810
550.60	20.263
550.94	20.000
551.28	20.117
551.62	22.214
551.96	20.491
552.30	21.229
552.64	21.433
552.98	20.814
553.32	20.229
553.66	20.654
554.00	20.728
554.34	20.428
554.68	20.744
555.02	21.368
555.36	20.251
555.69	20.636
556.03	20.525
556.37	20.873
556.71	20.055
557.05	21.779
557.39	20.014
557.73	20.960
558.07	20.522
558.41	21.418
558.75	20.279
559.08	22.148
559.42	21.693
559.76	21.544
560.10	21.342
560.44	19.567
560.78	20.226
561.12	21.636
561.45	21.317
561.79	20.897
562.13	21.060
562.47	21.311
562.81	20.711
563.15	20.936
563.48	22.215
563.82	19.896
564.16	20.733
564.50	20.117
564.84	19.785
565.17	20.656
565.51	20.256
565.85	20.876
566.19	19.286
566.52	19.696
566.86	18.927
567.20	20.873
567.54	19.920
567.88	19.446
568.21	19.101
568.55	18.857
568.89	18.434
569.23	18.449
569.56	18.219
569.90	17.585
570.24	18.515
570.57	17.749
570.91	17.356
571.25	17.171
571.59	17.113
571.92	17.051
572.26	17.129
572.60	17.417
572.93	16.792
573.27	17.510
573.61	17.365
573.95	17.416
574.28	16.432
574.62	16.885
574.96	16.177
575.29	16.319
575.63	16.565
575.97	16.975
576.30	16.941
576.64	16.831
576.98	16.383
577.31	16.682
577.65	16.656
577.98	16.003
578.32	15.945
578.66	16.143
578.99	16.480
579.33	16.340
579.67	16.176
580.00	16.351
580.34	16.445
580.67	16.615
581.01	16.775
581.35	16.159
581.68	16.180
582.02	15.743
582.35	15.570
582.69	15.804
583.02	16.238
583.36	16.440
583.70	16.633
584.03	16.954
584.37	17.391
584.70	16.823
585.04	17.319
585.37	16.309
585.71	16.494
586.04	16.381
586.38	16.745
586.72	16.349
587.05	16.762
587.39	16.201
587.72	16.800
588.06	16.596
588.39	16.626
588.73	16.808
589.06	17.202
589.40	17.778
589.73	17.212
590.07	17.260
590.40	17.245
590.73	17.838
591.07	18.437
591.40	17.967
591.74	18.485
592.07	18.194
592.41	17.693
592.74	17.790
593.08	16.789
593.41	16.798
593.75	16.334
594.08	16.292
594.41	17.073
594.75	17.264
595.08	16.714
595.42	17.338
595.75	17.165
596.09	17.048
596.42	18.232
596.75	17.729
597.09	18.139
597.42	18.044
597.75	18.068
598.09	17.696
598.42	17.311
598.76	17.957
599.09	16.724
599.42	16.121
599.76	17.130
600.09	16.503
600.42	16.618
600.76	16.679
601.09	16.721
601.42	17.161
601.76	17.154
602.09	16.759
602.42	18.750
602.76	17.654
603.09	17.663
603.42	17.610
603.76	16.845
604.09	16.440
604.42	16.755
604.76	18.220
605.09	17.344
605.42	16.759
605.75	17.301
606.09	16.877
606.42	16.919
606.75	17.710
607.09	18.041
607.42	16.859
607.75	16.920
608.08	17.412
608.42	17.705
608.75	16.952
609.08	17.253
609.41	17.230
609.75	17.294
610.08	18.332
610.41	17.039
610.74	17.266
611.07	17.540
611.41	17.076
611.74	18.049
612.07	17.961
612.40	18.311
612.73	17.632
613.07	18.103
613.40	18.115
613.73	17.462
614.06	17.903
614.39	17.986
614.72	18.263
615.06	17.805
615.39	17.887
615.72	17.894
616.05	17.065
616.38	18.344
616.71	18.052
617.05	18.492
617.38	18.461
617.71	16.937
618.04	18.329
618.37	18.096
618.70	18.606
619.03	18.684
619.36	18.194
619.69	19.225
620.03	19.093
620.36	19.452
620.69	19.452
621.02	18.879
621.35	18.637
621.68	18.925
622.01	19.118
622.34	19.970
622.67	19.087
623.00	17.828
623.33	17.870
623.66	18.227
623.99	19.219
624.32	18.688
624.65	18.291
624.99	17.280
625.32	18.537
625.65	18.933
625.98	19.293
626.31	18.974
626.64	19.184
626.97	20.033
627.30	19.701
627.63	20.180
627.96	19.260
628.29	20.297
628.62	19.579
628.95	21.509
629.28	19.982
629.61	20.348
629.94	20.095
630.26	19.352
630.59	19.352
630.92	19.828
631.25	19.743
631.58	20.020
631.91	21.095
632.24	21.624
632.57	20.042
632.90	22.039
633.23	23.043
633.56	21.921
633.89	21.857
634.22	21.566
634.55	21.775
634.88	20.479
635.20	21.625
635.53	20.602
635.86	21.287
636.19	21.412
636.52	20.761
636.85	21.077
637.18	20.968
637.51	22.340
637.83	18.619
638.16	21.483
638.49	20.403
638.82	21.618
639.15	22.125
639.48	22.818
639.81	23.861
640.13	23.698
640.46	21.611
640.79	21.532
641.12	21.183
641.45	22.207
641.77	22.828
642.10	22.222
642.43	22.823
642.76	24.149
643.09	22.853
643.41	23.065
643.74	23.302
644.07	22.561
644.40	22.393
644.73	23.465
645.05	25.515
645.38	22.591
645.71	23.188
646.04	24.419
646.36	23.038
646.69	25.920
647.02	22.279
647.35	25.086
647.67	24.248
648.00	24.553
648.33	22.277
648.66	23.182
648.98	23.688
649.31	23.169
649.64	23.169
649.96	24.292
650.29	24.645
650.62	21.359
650.94	22.042
651.27	24.831
651.60	25.291
651.92	22.843
652.25	20.195
652.58	25.234
652.90	24.171
653.23	21.263
653.56	23.465
653.88	23.138
654.21	23.855
654.54	23.102
654.86	23.053
655.19	19.865
655.52	13.688
655.84	11.219
656.17	13.976
656.49	19.024
656.82	19.767
657.15	15.307
657.47	11.414
657.80	9.042
658.13	9.668
658.45	14.951
658.78	15.528
659.10	16.147
659.43	17.563
659.75	18.669
660.08	19.620
660.41	22.439
660.73	25.032
661.06	24.204
661.38	25.455
661.71	25.962
662.03	27.219
662.36	22.863
662.68	24.297
663.01	25.051
663.33	24.628
663.66	24.790
663.98	23.758
664.31	26.261
664.63	23.684
664.96	22.736
665.28	26.844
665.61	22.027
665.93	25.956
666.26	23.935
666.58	26.987
666.91	27.484
667.23	24.270
667.56	22.894
667.88	26.282
668.21	25.586
668.53	27.549
668.86	23.810
669.18	28.145
669.50	26.957
669.83	26.362
670.15	24.889
670.48	23.747
670.80	23.707
671.13	24.841
671.45	24.043
671.77	25.662
672.10	26.248
672.42	22.085
672.75	20.730
673.07	23.592
673.39	20.796
673.72	24.805
674.04	24.118
674.37	23.495
674.69	23.926
675.01	22.594
675.34	26.489
675.66	25.053
675.98	24.847
676.31	24.790
676.63	27.601
676.95	24.948
677.28	24.533
677.60	25.714
677.92	27.215
678.25	27.105
678.57	23.506
678.89	25.651
679.22	22.986
679.54	22.901
679.86	24.587
680.18	23.435
680.51	23.404
680.83	21.708
681.15	24.906
681.48	25.898
681.80	22.050
682.12	21.456
682.44	20.116
682.77	23.014
683.09	27.468
683.41	25.055
683.73	24.724
684.06	23.760
684.38	23.679
684.70	24.806
685.02	24.578
685.34	23.626
685.67	21.154
685.99	22.509
686.31	21.331
686.63	21.555
686.96	21.250
687.28	20.939
687.60	21.014
687.92	24.314
688.24	22.053
688.56	22.892
688.89	22.407
689.21	26.201
689.53	24.008
689.85	25.721
690.17	23.188
690.49	23.355
690.82	25.467
691.14	22.098
691.46	22.363
691.78	24.699
692.10	23.347
692.42	23.553
692.74	22.199
693.06	22.340
693.39	23.614
693.71	24.236
694.03	26.105
694.35	23.810
694.67	24.027
694.99	24.878
695.31	26.471
695.63	26.555
695.95	27.139
696.27	24.112
696.59	21.762
696.91	24.870
697.23	21.596
697.56	25.160
697.88	21.881
698.20	20.625
698.52	23.226
698.84	24.053
699.16	23.502
699.48	25.416
699.80	26.570
700.12	29.091
700.44	28.117
700.76	26.243
701.08	27.299
701.40	27.654
701.72	30.029
702.04	31.818
702.36	24.646
702.68	29.178
703.00	26.039
703.32	22.340
703.64	25.469
703.96	27.577
704.28	26.744
704.60	25.806
704.91	27.893
705.23	25.806
705.55	28.239
705.87	33.887
706.19	29.329
706.51	28.037
706.83	29.697
707.15	26.331
707.47	23.232
707.79	26.044
708.11	26.256
708.43	23.571
708.74	22.449
709.06	25.714
709.38	26.247
709.70	27.907
710.02	28.487
710.34	23.636
710.66	28.358
710.98	28.693
711.29	26.453
711.61	28.024
711.93	28.205
712.25	32.797
712.57	33.456
712.89	29.412
713.20	27.964
713.52	30.921
713.84	26.899
714.16	25.305
714.48	25.000
714.80	31.611
715.11	26.225
715.43	29.377
715.75	27.246
716.07	26.837
716.39	27.900
716.70	31.894
717.02	30.935
717.34	31.095
717.66	29.851
717.97	34.263
718.29	27.037
718.61	27.737
718.93	30.515
719.24	30.450
719.56	32.881
719.88	25.763
720.20	29.392
720.51	28.571
720.83	31.227
721.15	28.731
721.46	28.369
721.78	32.258
722.10	32.453
722.42	32.707
722.73	29.213
723.05	29.508
723.37	28.340
723.68	32.046
724.00	30.894
724.32	35.081
724.63	28.049
724.95	31.381
725.27	31.984
725.58	30.469
725.90	33.942
726.22	29.057
726.53	30.903
726.85	34.471
727.16	28.114
727.48	26.950
727.80	28.788
728.11	30.072
728.43	29.231
728.74	29.749
729.06	33.212
729.38	34.191
729.69	31.673
730.01	26.962
730.32	28.472
730.64	28.428
730.96	24.752
731.27	26.821
731.59	27.829
731.90	27.405
732.22	23.913
732.53	23.839
732.85	24.359
733.16	24.759
733.48	26.246
733.80	26.299
734.11	27.389
734.43	28.994
734.74	22.857
735.06	22.923
735.37	27.457
735.69	23.248
736.00	26.797
736.32	30.841
736.63	25.559
736.95	26.198
737.26	19.048
737.58	26.129
737.89	26.087
738.21	27.986
738.52	26.429
738.83	29.057
739.15	25.385
739.46	32.482
739.78	26.042
740.09	26.462
740.41	28.387
740.72	22.997
741.04	28.148
741.35	28.333
741.66	37.333
741.98	31.604
742.29	32.536
742.61	34.052
742.92	31.674
743.23	35.470
743.55	28.000
743.86	27.632
744.18	33.186
744.49	35.885
744.80	38.028
745.12	37.273
745.43	38.767
745.74	34.234
746.06	33.945
746.37	32.735
746.68	34.842
747.00	37.500
747.31	30.000
747.62	28.761
747.94	31.718
748.25	27.234
748.56	31.718
748.88	33.168
749.19	37.500
749.50	33.023
749.82	29.675
750.13	28.163
750.44	27.737
750.75	27.018
751.07	28.939
751.38	28.920
751.69	31.047
752.01	26.692
752.32	27.076
752.63	31.915
752.94	28.689
753.26	32.000
753.57	29.675
753.88	26.953
754.19	29.286
754.51	27.083
754.82	25.271
755.13	28.679
755.44	29.699
755.75	22.628
756.07	29.787
756.38	20.438
756.69	31.208
757.00	24.850
757.31	21.958
757.63	24.269
757.94	22.520
758.25	24.020
758.56	21.481
758.87	23.387
759.18	24.242
759.50	24.138
759.81	25.857
760.12	22.500
760.43	28.367
760.74	20.652
761.05	22.316
761.36	22.460
761.67	25.852
761.99	23.913
762.30	26.389
762.61	32.824
762.92	35.937
763.23	29.412
763.54	32.800
763.85	25.781
764.16	32.692
764.47	30.038
764.78	23.675
765.10	23.734
765.41	23.304
765.72	25.150
766.03	26.646
766.34	24.000
766.65	29.787
766.96	30.342
767.27	35.025
767.58	38.021
767.89	42.632
768.20	33.908
768.51	37.056
768.82	31.651
769.13	26.423
769.44	30.769
769.75	32.189
770.06	30.734
770.37	36.652
770.68	37.037
770.99	29.333
771.30	29.918
771.61	29.148
771.92	31.557
772.23	32.773
772.54	38.462
772.85	35.602
773.16	35.638
773.47	38.587
773.78	36.548
774.09	38.095
774.39	38.012
774.70	33.951
775.01	43.478
775.32	50.980
775.63	38.158
775.94	36.691
776.25	43.307
776.56	49.254
776.87	46.721
777.18	43.750
777.48	41.985
777.79	50.758
778.10	48.148
778.41	57.143
778.72	40.146
779.03	46.309
779.34	39.597
779.65	36.486
779.95	41.718
780.26	47.059
780.57	48.276
780.88	50.000
781.19	47.368
781.50	43.919
781.80	37.736
782.11	29.944
782.42	39.241
782.73	36.810
783.04	44.595
783.34	44.366
783.65	43.836
783.96	48.507
784.27	39.161
784.57	32.374
784.88	40.741
785.19	55.556
785.50	53.774
785.81	55.224
786.11	45.902
786.42	50.388
786.73	44.248
787.04	45.283
787.34	48.214
787.65	54.000
787.96	52.252
788.26	47.107
788.57	55.932
788.88	56.198
789.19	43.750
789.49	46.970
789.80	46.565
790.11	60.952
790.41	61.386
790.72	63.855
791.03	59.783
791.33	58.140
791.64	59.794
791.95	65.347
792.25	61.111
792.56	67.532
792.87	76.923
793.17	86.076
793.48	62.069
793.79	75.862
794.09	56.818
794.40	46.218
794.70	52.206
795.01	48.148
795.32	41.007
795.62	51.181
795.93	55.172
796.23	53.097
796.54	61.176
796.85	67.568
797.15	85.915
797.46	62.121
797.76	72.289
798.07	59.494
798.37	75.385
798.68	59.091
798.99	54.930
799.29	59.740
799.60	65.909
799.90	71.233
800.21	71.642
800.51	96.552
800.82	78.947
801.12	75.410
801.43	87.879
801.73	77.027
802.04	82.540
802.34	79.012
802.65	73.438
802.95	100.000
803.26	78.125
803.56	51.429
803.87	80.000
804.17	60.294
804.48	94.444
804.78	82.759
805.09	83.824
805.39	84.615
805.70	103.571
806.00	72.131
806.30	75.758
806.61	64.634
806.91	60.759
807.22	76.316
807.52	71.642
807.83	88.732
808.13	78.125
808.43	85.000
808.74	64.474
809.04	73.913
809.35	91.045
809.65	67.105
809.95	103.226
810.26	89.831
810.56	92.063
810.86	115.909
811.17	114.286
811.47	110.000
811.77	88.889
812.08	101.818
812.38	122.000
812.69	130.556
812.99	140.909
813.29	124.490
813.59	104.762
813.90	116.327
814.20	96.364
814.50	73.846
814.81	97.059
815.11	100.000
815.41	91.803
815.72	128.571
816.02	118.182
816.32	128.571
816.62	95.000
816.93	117.073
817.23	135.714
817.53	125.000
817.84	142.424
818.14	110.870
818.44	108.889
818.74	144.118
819.04	122.500
819.35	131.429
819.65	135.294
819.95	146.429
820.25	195.000
820.56	107.692
820.86	111.364
821.16	148.837
821.46	115.385
821.76	126.000
822.07	140.000
822.37	122.500
822.67	139.394
822.97	90.196
823.27	164.286
823.57	145.946
823.88	160.000
824.18	176.667
824.48	128.571
824.78	244.000
825.08	166.667
825.38	148.649
825.69	126.829
825.99	204.167
826.29	148.276
826.59	131.579
826.89	139.474
827.19	150.000
827.49	148.387
827.79	147.727
828.09	131.818
828.39	100.000
828.70	110.204
829.00	151.852
829.30	125.806
829.60	125.000
829.90	333.333
830.20	203.571
830.50	178.261
830.80	204.348
831.10	186.667
831.40	166.667
831.70	165.217
832.00	180.769
832.30	166.667
832.60	212.500
832.90	193.333
833.20	321.429
833.50	193.548
833.80	165.517
834.10	190.625
834.40	184.615
834.70	283.333
835.00	271.429
835.30	122.857
835.60	307.692
835.90	144.828
836.20	378.571
836.50	206.897
836.80	164.000
837.10	161.111
837.40	228.571
837.70	205.882
838.00	177.778
838.30	223.810
838.60	295.238
838.90	196.154
839.19	270.000
839.49	314.286
839.79	305.000
840.09	225.000
840.39	257.143
840.69	221.739
840.99	222.222
841.29	360.000
841.59	250.000
841.88	268.750
842.18	148.276
842.48	266.667
842.78	153.333
843.08	221.739
843.38	165.625
843.68	633.333
843.97	188.462
844.27	162.069
844.57	276.190
844.87	318.750
845.17	207.407
845.47	1566.667
845.76	455.556
846.06	264.706
846.36	487.500
846.66	335.714
846.96	262.500
847.25	363.636
847.55	381.818
847.85	252.174
848.15	450.000
848.44	335.714
848.74	333.333
849.04	288.235
849.34	410.000
849.63	221.053
849.93	400.000
850.23	860.000
850.53	371.429
850.82	2150.000
851.12	-4100.000
851.42	4400.000
851.71	260.000
852.01	-866.667
852.31	204.167
852.61	1500.000
852.90	242.857
853.20	200.000
853.50	276.471
853.79	219.048
854.09	150.000
854.39	268.750
854.68	162.162
854.98	161.290
855.28	170.000
855.57	193.103
855.87	207.407
856.17	226.316
856.46	213.333
856.76	217.647
857.05	182.759
857.35	200.000
857.65	320.000
857.94	195.652
858.24	203.846
858.53	275.000
858.83	231.818
859.13	346.667
859.42	0.000
859.72	522.222
860.01	290.909
860.31	218.182
860.60	263.158
860.90	226.087
861.20	466.667
861.49	458.333
861.79	-4400.000
862.08	475.000
862.38	214.286
862.67	292.308
862.97	276.471
863.26	566.667
863.56	244.444
863.85	333.333
864.15	550.000
864.44	333.333
864.74	583.333
865.03	562.500
865.33	278.947
865.62	409.091
865.92	353.846
866.21	291.667
866.51	0.000
866.80	363.636
867.10	1040.000
867.39	476.923
867.69	390.909
867.98	284.211
868.27	436.364
868.57	263.158
868.86	-3600.000
869.16	325.000
869.45	2250.000
869.75	-4100.000
870.04	408.333
870.33	542.857
870.63	1050.000
870.92	2350.000
871.22	585.714
871.51	276.471
871.80	185.714
872.10	357.143
>>>>>End Processed Spectral Data<<<<<
