SpectraSuite Data File
++++++++++++++++++++++++++++++++++++
Date: Wed May 13 16:17:59 PDT 2015
User: schluterlab
Dark Spectrum Present: Yes
Reference Spectrum Present: Yes
Number of Sampled Component Spectra: 1
Spectrometers: USB2E3373
Integration Time (usec): 3000 (USB2E3373)
Spectra Averaged: 3 (USB2E3373)
Boxcar Smoothing: 0 (USB2E3373)
Correct for Electrical Dark: No (USB2E3373)
Strobe/Lamp Enabled: No (USB2E3373)
Correct for Detector Non-linearity: No (USB2E3373)
Correct for Stray Light: No (USB2E3373)
Number of Pixels in Processed Spectrum: 2048
>>>>>Begin Processed Spectral Data<<<<<
178.53	0.000
178.91	-1200.000
179.29	-1225.000
179.67	-227.778
180.04	-1200.000
180.42	2250.000
180.80	920.000
181.18	-725.000
181.56	542.857
181.94	0.000
182.31	-485.714
182.69	1400.000
183.07	-525.000
183.45	-344.444
183.83	418.182
184.20	-360.000
184.58	1550.000
184.96	4900.000
185.34	-820.000
185.72	-475.000
186.09	-2050.000
186.47	2300.000
186.85	1600.000
187.23	4400.000
187.61	-1166.667
187.98	1225.000
188.36	436.364
188.74	472.727
189.12	-600.000
189.49	510.000
189.87	-4300.000
190.25	-1000.000
190.63	350.000
191.00	338.462
191.38	800.000
191.76	-900.000
192.14	975.000
192.51	650.000
192.89	900.000
193.27	387.500
193.65	-1150.000
194.02	400.000
194.40	920.000
194.78	430.000
195.15	366.667
195.53	510.000
195.91	-1800.000
196.29	237.500
196.66	252.632
197.04	-250.000
197.42	0.000
197.79	490.000
198.17	-3600.000
198.55	457.143
198.92	550.000
199.30	820.000
199.68	0.000
200.05	255.556
200.43	700.000
200.81	3000.000
201.18	1800.000
201.56	-1333.333
201.94	500.000
202.31	455.556
202.69	400.000
203.07	400.000
203.44	0.000
203.82	1025.000
204.19	671.429
204.57	364.286
204.95	425.000
205.32	1200.000
205.70	372.727
206.08	285.714
206.45	2200.000
206.83	318.750
207.20	816.667
207.58	600.000
207.96	311.111
208.33	650.000
208.71	-633.333
209.08	642.857
209.46	466.667
209.84	409.091
210.21	-1266.667
210.59	1175.000
210.96	-450.000
211.34	2200.000
211.71	440.000
212.09	750.000
212.46	0.000
212.84	1233.333
213.22	1325.000
213.59	-3400.000
213.97	633.333
214.34	685.714
214.72	427.273
215.09	860.000
215.47	-1600.000
215.84	-2300.000
216.22	1333.333
216.59	335.714
216.97	1050.000
217.34	390.909
217.72	-516.667
218.09	0.000
218.47	-3600.000
218.84	544.444
219.22	571.429
219.59	1466.667
219.97	-457.143
220.34	880.000
220.72	-1200.000
221.09	364.286
221.47	1225.000
221.84	-883.333
222.22	0.000
222.59	1150.000
222.97	-2400.000
223.34	1000.000
223.72	346.154
224.09	1120.000
224.46	2350.000
224.84	-4000.000
225.21	-800.000
225.59	-3600.000
225.96	510.000
226.34	210.000
226.71	2450.000
227.08	625.000
227.46	420.000
227.83	-950.000
228.21	-2150.000
228.58	522.222
228.95	-2550.000
229.33	-2100.000
229.70	1366.667
230.08	514.286
230.45	-560.000
230.82	358.333
231.20	566.667
231.57	557.143
231.95	483.333
232.32	218.182
232.69	345.455
233.07	600.000
233.44	338.462
233.81	-1433.333
234.19	273.684
234.56	366.667
234.93	391.667
235.31	454.545
235.68	346.154
236.05	328.571
236.43	169.697
236.80	284.211
237.17	4900.000
237.55	257.143
237.92	235.714
238.29	257.143
238.67	167.742
239.04	210.345
239.41	147.222
239.79	147.826
240.16	166.667
240.53	154.545
240.91	145.098
241.28	140.000
241.65	128.000
242.02	120.290
242.40	132.258
242.77	126.667
243.14	98.925
243.51	101.124
243.89	101.176
244.26	92.222
244.63	93.548
245.00	94.681
245.38	92.079
245.75	94.393
246.12	94.495
246.49	91.971
246.87	84.000
247.24	92.308
247.61	84.286
247.98	77.778
248.36	77.703
248.73	77.707
249.10	82.166
249.47	79.661
249.84	79.679
250.22	71.658
250.59	75.740
250.96	77.778
251.33	75.355
251.70	73.762
252.08	73.333
252.45	65.022
252.82	67.826
253.19	70.213
253.56	65.098
253.94	67.635
254.31	71.094
254.68	77.308
255.05	61.993
255.42	74.390
255.79	70.221
256.16	69.675
256.54	65.724
256.91	66.904
257.28	62.590
257.65	65.347
258.02	63.043
258.39	64.038
258.76	63.211
259.14	66.369
259.51	61.398
259.88	64.596
260.25	63.444
260.62	63.584
260.99	66.460
261.36	65.465
261.73	63.610
262.10	64.826
262.47	68.451
262.85	60.167
263.22	64.103
263.59	65.242
263.96	62.637
264.33	60.052
264.70	62.105
265.07	64.194
265.44	63.889
265.81	56.448
266.18	65.829
266.55	61.951
266.92	62.408
267.29	60.648
267.66	62.385
268.03	58.409
268.40	60.047
268.77	59.189
269.14	60.811
269.51	60.045
269.88	62.238
270.25	60.497
270.62	60.000
270.99	62.151
271.36	59.013
271.73	60.280
272.10	56.739
272.47	60.215
272.84	60.173
273.21	55.556
273.58	57.205
273.95	56.394
274.32	60.331
274.69	61.670
275.06	55.118
275.43	57.234
275.80	57.315
276.17	56.008
276.54	57.380
276.91	58.498
277.28	55.273
277.65	57.834
278.02	59.006
278.39	54.492
278.76	55.091
279.13	57.736
279.50	56.052
279.87	55.179
280.23	58.882
280.60	56.093
280.97	55.453
281.34	54.690
281.71	56.364
282.08	57.965
282.45	55.091
282.82	55.773
283.19	54.724
283.56	54.737
283.92	56.345
284.29	51.852
284.66	54.809
285.03	53.165
285.40	54.401
285.77	54.040
286.14	52.332
286.51	55.333
286.87	54.530
287.24	53.420
287.61	50.722
287.98	51.948
288.35	52.932
288.72	49.533
289.08	50.235
289.45	50.412
289.82	48.618
290.19	49.765
290.56	48.545
290.93	49.698
291.29	48.313
291.66	47.198
292.03	49.564
292.40	50.808
292.77	46.893
293.13	46.418
293.50	48.834
293.87	46.667
294.24	45.333
294.60	44.687
294.97	46.366
295.34	45.839
295.71	47.301
296.08	44.729
296.44	44.429
296.81	42.668
297.18	45.393
297.55	41.689
297.91	44.063
298.28	43.775
298.65	43.081
299.02	44.796
299.38	42.895
299.75	40.296
300.12	43.678
300.48	42.250
300.85	40.937
301.22	41.146
301.59	41.540
301.95	42.947
302.32	41.078
302.69	40.980
303.05	42.303
303.42	39.259
303.79	39.524
304.15	40.210
304.52	38.470
304.89	39.954
305.25	39.559
305.62	40.204
305.99	40.968
306.35	38.367
306.72	41.256
307.09	39.512
307.45	39.865
307.82	39.844
308.19	39.625
308.55	40.129
308.92	38.024
309.29	37.487
309.65	39.449
310.02	39.323
310.38	38.925
310.75	39.282
311.12	38.178
311.48	39.707
311.85	38.050
312.22	37.669
312.58	38.358
312.95	39.282
313.31	38.350
313.68	39.917
314.05	40.434
314.41	39.799
314.78	38.671
315.14	38.630
315.51	39.547
315.87	39.307
316.24	38.828
316.61	39.279
316.97	38.258
317.34	39.432
317.70	39.293
318.07	39.942
318.43	39.726
318.80	38.988
319.16	38.512
319.53	38.180
319.89	40.095
320.26	39.700
320.62	39.683
320.99	38.889
321.35	38.889
321.72	40.657
322.08	39.092
322.45	40.100
322.81	39.535
323.18	39.017
323.54	38.776
323.91	39.057
324.27	40.249
324.64	39.329
325.00	39.225
325.37	40.309
325.73	40.395
326.10	38.835
326.46	38.351
326.83	39.344
327.19	39.112
327.56	38.502
327.92	38.233
328.29	38.953
328.65	40.884
329.01	38.809
329.38	39.223
329.74	39.520
330.11	39.397
330.47	39.486
330.84	40.533
331.20	38.069
331.56	38.807
331.93	37.407
332.29	39.130
332.66	38.142
333.02	37.843
333.38	38.121
333.75	38.681
334.11	38.078
334.48	38.421
334.84	39.062
335.20	38.000
335.57	37.897
335.93	37.054
336.29	38.187
336.66	38.503
337.02	36.018
337.38	36.944
337.75	37.077
338.11	36.885
338.47	38.029
338.84	37.764
339.20	37.706
339.56	38.686
339.93	37.636
340.29	36.957
340.65	36.809
341.02	38.482
341.38	36.655
341.74	36.930
342.11	37.380
342.47	37.093
342.83	35.616
343.20	37.576
343.56	36.310
343.92	36.491
344.28	36.990
344.65	37.489
345.01	36.785
345.37	34.906
345.73	37.394
346.10	35.209
346.46	36.864
346.82	35.832
347.19	34.921
347.55	35.632
347.91	36.570
348.27	36.072
348.63	35.368
349.00	35.032
349.36	35.714
349.72	35.445
350.08	35.413
350.45	35.313
350.81	35.662
351.17	34.846
351.53	35.053
351.89	33.828
352.26	36.385
352.62	35.204
352.98	34.927
353.34	35.251
353.70	34.779
354.07	35.081
354.43	33.492
354.79	33.709
355.15	33.520
355.51	34.213
355.87	35.102
356.24	34.853
356.60	33.440
356.96	35.318
357.32	34.832
357.68	35.512
358.04	34.917
358.40	35.313
358.77	34.351
359.13	33.623
359.49	34.118
359.85	32.460
360.21	34.689
360.57	35.331
360.93	34.308
361.29	34.240
361.66	34.056
362.02	34.328
362.38	34.905
362.74	34.301
363.10	33.087
363.46	33.456
363.82	34.996
364.18	33.627
364.54	34.621
364.90	35.057
365.26	33.529
365.62	33.601
365.98	33.163
366.35	32.808
366.71	34.273
367.07	34.159
367.43	33.454
367.79	33.619
368.15	34.626
368.51	31.977
368.87	34.404
369.23	33.943
369.59	35.119
369.95	33.235
370.31	32.479
370.67	34.203
371.03	33.184
371.39	33.236
371.75	33.235
372.11	33.001
372.47	33.798
372.83	34.942
373.19	34.176
373.55	34.294
373.91	34.242
374.27	32.440
374.63	33.964
374.99	33.898
375.35	32.938
375.71	33.242
376.07	33.539
376.42	33.081
376.78	33.930
377.14	34.193
377.50	33.311
377.86	32.513
378.22	33.565
378.58	32.206
378.94	33.250
379.30	32.952
379.66	32.678
380.02	33.415
380.38	32.301
380.74	33.193
381.09	33.374
381.45	34.173
381.81	33.538
382.17	34.204
382.53	33.145
382.89	34.074
383.25	32.770
383.61	34.511
383.97	33.583
384.32	32.252
384.68	33.024
385.04	33.620
385.40	33.127
385.76	31.880
386.12	33.549
386.48	32.914
386.83	33.419
387.19	33.952
387.55	33.333
387.91	34.583
388.27	32.679
388.62	33.989
388.98	32.248
389.34	34.168
389.70	33.231
390.06	34.094
390.42	33.139
390.77	33.524
391.13	34.014
391.49	34.010
391.85	33.736
392.20	33.186
392.56	33.586
392.92	33.902
393.28	32.899
393.64	33.153
393.99	33.476
394.35	33.127
394.71	33.312
395.07	32.586
395.42	33.189
395.78	33.651
396.14	33.085
396.50	34.085
396.85	33.121
397.21	32.676
397.57	33.602
397.92	32.572
398.28	32.175
398.64	32.915
399.00	33.408
399.35	32.826
399.71	32.639
400.07	33.708
400.42	32.577
400.78	32.811
401.14	32.561
401.49	32.776
401.85	33.152
402.21	32.156
402.57	32.943
402.92	32.787
403.28	33.292
403.63	32.240
403.99	33.567
404.35	32.667
404.70	32.734
405.06	32.440
405.42	33.375
405.77	32.286
406.13	31.264
406.49	32.762
406.84	31.837
407.20	31.738
407.55	32.546
407.91	32.267
408.27	32.100
408.62	32.872
408.98	32.047
409.34	32.042
409.69	32.258
410.05	31.660
410.40	32.477
410.76	31.601
411.11	32.449
411.47	30.863
411.83	32.743
412.18	31.293
412.54	31.445
412.89	32.108
413.25	31.818
413.60	31.686
413.96	31.148
414.31	32.078
414.67	31.812
415.03	31.523
415.38	32.603
415.74	31.897
416.09	31.940
416.45	31.258
416.80	31.923
417.16	32.842
417.51	32.382
417.87	31.214
418.22	32.177
418.58	32.473
418.93	32.371
419.29	31.381
419.64	30.919
420.00	31.463
420.35	30.899
420.71	30.604
421.06	31.921
421.42	31.637
421.77	31.446
422.12	30.545
422.48	30.977
422.83	32.033
423.19	31.271
423.54	31.225
423.90	31.594
424.25	31.044
424.61	31.667
424.96	31.487
425.31	31.894
425.67	30.955
426.02	30.400
426.38	31.502
426.73	30.895
427.09	31.307
427.44	31.685
427.79	31.340
428.15	31.131
428.50	31.188
428.85	32.658
429.21	31.143
429.56	31.830
429.92	31.505
430.27	30.685
430.62	30.671
430.98	31.188
431.33	31.082
431.68	31.466
432.04	31.203
432.39	30.954
432.74	31.299
433.10	31.183
433.45	32.070
433.80	31.264
434.16	30.609
434.51	30.895
434.86	30.958
435.22	31.073
435.57	30.942
435.92	31.246
436.28	31.969
436.63	30.795
436.98	30.452
437.34	32.081
437.69	31.097
438.04	30.748
438.39	31.284
438.75	31.435
439.10	31.564
439.45	30.992
439.81	32.266
440.16	31.112
440.51	31.810
440.86	31.326
441.22	31.535
441.57	31.051
441.92	31.883
442.27	31.055
442.63	31.174
442.98	31.944
443.33	31.413
443.68	30.821
444.03	31.820
444.39	31.256
444.74	31.115
445.09	30.512
445.44	30.618
445.79	30.678
446.15	31.498
446.50	30.533
446.85	30.884
447.20	30.699
447.55	31.379
447.91	30.833
448.26	31.886
448.61	31.374
448.96	31.229
449.31	31.384
449.66	31.514
450.02	30.529
450.37	30.839
450.72	31.190
451.07	30.469
451.42	29.666
451.77	32.002
452.12	31.293
452.47	31.779
452.83	31.585
453.18	31.235
453.53	31.416
453.88	31.010
454.23	31.022
454.58	31.738
454.93	32.104
455.28	30.985
455.63	31.735
455.98	31.667
456.34	31.595
456.69	31.434
457.04	30.155
457.39	30.976
457.74	31.225
458.09	30.362
458.44	31.414
458.79	30.260
459.14	31.490
459.49	31.290
459.84	29.917
460.19	30.407
460.54	29.977
460.89	30.938
461.24	30.905
461.59	31.261
461.94	30.210
462.29	30.861
462.64	30.377
462.99	30.124
463.34	31.600
463.69	31.395
464.04	31.014
464.39	30.261
464.74	31.670
465.09	30.881
465.44	30.360
465.79	30.369
466.14	30.925
466.49	30.979
466.84	31.232
467.19	30.537
467.54	31.250
467.89	30.612
468.24	30.716
468.59	30.769
468.94	29.627
469.29	30.527
469.64	30.656
469.99	31.664
470.34	30.845
470.68	31.466
471.03	30.136
471.38	30.229
471.73	30.247
472.08	31.053
472.43	30.905
472.78	30.020
473.13	30.745
473.48	30.774
473.83	30.671
474.17	29.620
474.52	31.079
474.87	31.115
475.22	30.064
475.57	29.876
475.92	29.793
476.27	29.481
476.61	30.833
476.96	29.852
477.31	30.141
477.66	30.088
478.01	29.117
478.36	30.301
478.70	29.283
479.05	30.245
479.40	30.502
479.75	30.503
480.10	29.871
480.45	29.510
480.79	29.288
481.14	31.164
481.49	30.185
481.84	29.675
482.19	30.168
482.53	29.495
482.88	30.340
483.23	29.112
483.58	30.255
483.92	29.850
484.27	28.889
484.62	30.000
484.97	29.957
485.31	31.336
485.66	31.318
486.01	30.306
486.36	29.584
486.70	27.727
487.05	28.056
487.40	28.473
487.75	28.697
488.09	29.360
488.44	29.486
488.79	29.729
489.13	29.794
489.48	29.608
489.83	28.485
490.17	29.329
490.52	28.875
490.87	29.625
491.22	28.377
491.56	28.383
491.91	28.711
492.26	28.847
492.60	28.940
492.95	28.812
493.30	28.598
493.64	29.025
493.99	28.552
494.34	29.371
494.68	29.075
495.03	28.994
495.37	28.897
495.72	28.606
496.07	28.631
496.41	28.407
496.76	29.112
497.11	28.501
497.45	28.319
497.80	28.551
498.14	28.454
498.49	28.878
498.84	28.571
499.18	28.571
499.53	28.110
499.87	29.450
500.22	27.791
500.56	29.272
500.91	27.981
501.26	28.924
501.60	29.758
501.95	28.139
502.29	29.194
502.64	29.236
502.98	28.986
503.33	28.519
503.67	29.002
504.02	28.812
504.36	27.656
504.71	28.481
505.06	28.916
505.40	28.877
505.75	28.351
506.09	28.037
506.44	28.959
506.78	28.787
507.13	28.470
507.47	28.384
507.82	28.622
508.16	28.977
508.51	28.463
508.85	27.805
509.19	28.469
509.54	28.163
509.88	28.336
510.23	28.586
510.57	28.999
510.92	28.120
511.26	28.777
511.61	28.216
511.95	27.192
512.30	27.200
512.64	29.178
512.98	28.189
513.33	28.480
513.67	27.908
514.02	27.489
514.36	28.181
514.70	28.556
515.05	28.277
515.39	28.491
515.74	27.815
516.08	27.837
516.42	28.468
516.77	28.540
517.11	27.802
517.46	28.781
517.80	28.455
518.14	27.157
518.49	28.180
518.83	27.670
519.17	28.753
519.52	28.127
519.86	28.523
520.20	28.844
520.55	28.426
520.89	29.075
521.23	27.986
521.58	27.311
521.92	28.108
522.26	27.395
522.61	27.850
522.95	28.300
523.29	27.024
523.64	28.780
523.98	28.035
524.32	27.925
524.66	27.480
525.01	28.186
525.35	27.571
525.69	26.786
526.04	26.978
526.38	27.456
526.72	27.239
527.06	27.307
527.41	26.300
527.75	28.296
528.09	29.030
528.43	28.171
528.78	28.519
529.12	27.758
529.46	28.781
529.80	28.032
530.15	28.162
530.49	27.631
530.83	27.722
531.17	27.872
531.51	28.275
531.86	26.968
532.20	27.901
532.54	27.803
532.88	27.985
533.22	27.670
533.57	27.963
533.91	27.754
534.25	28.129
534.59	26.846
534.93	27.424
535.27	27.942
535.62	28.571
535.96	28.249
536.30	27.463
536.64	27.495
536.98	27.870
537.32	26.926
537.66	27.533
538.01	28.835
538.35	27.731
538.69	28.526
539.03	27.031
539.37	26.901
539.71	27.090
540.05	28.889
540.39	27.508
540.73	26.779
541.07	28.877
541.42	27.984
541.76	28.387
542.10	27.878
542.44	28.344
542.78	28.920
543.12	26.807
543.46	28.066
543.80	28.042
544.14	27.728
544.48	27.619
544.82	26.812
545.16	28.432
545.50	26.735
545.84	26.546
546.18	27.744
546.52	27.805
546.86	26.667
547.20	27.714
547.54	27.054
547.88	28.061
548.22	27.584
548.56	27.673
548.90	27.273
549.24	26.599
549.58	28.718
549.92	27.816
550.26	28.409
550.60	26.487
550.94	27.746
551.28	25.604
551.62	27.822
551.96	27.439
552.30	27.918
552.64	27.924
552.98	27.254
553.32	27.444
553.66	27.335
554.00	27.454
554.34	27.467
554.68	28.398
555.02	26.939
555.36	27.905
555.69	26.658
556.03	27.524
556.37	27.285
556.71	26.739
557.05	27.381
557.39	27.292
557.73	26.253
558.07	27.846
558.41	27.135
558.75	26.892
559.08	27.740
559.42	27.211
559.76	26.985
560.10	27.623
560.44	27.603
560.78	26.547
561.12	27.836
561.45	27.705
561.79	28.411
562.13	26.224
562.47	27.322
562.81	26.430
563.15	26.087
563.48	26.857
563.82	27.136
564.16	27.273
564.50	27.214
564.84	27.497
565.17	27.027
565.51	26.965
565.85	26.777
566.19	26.988
566.52	27.802
566.86	27.366
567.20	28.007
567.54	27.854
567.88	27.702
568.21	28.201
568.55	27.503
568.89	28.064
569.23	28.030
569.56	27.733
569.90	28.377
570.24	28.418
570.57	27.406
570.91	26.988
571.25	27.980
571.59	27.806
571.92	27.880
572.26	27.499
572.60	27.538
572.93	27.526
573.27	27.862
573.61	27.973
573.95	28.450
574.28	27.864
574.62	27.672
574.96	27.742
575.29	27.352
575.63	27.566
575.97	27.363
576.30	27.987
576.64	28.330
576.98	27.613
577.31	28.096
577.65	28.274
577.98	28.428
578.32	27.899
578.66	27.379
578.99	27.300
579.33	27.790
579.67	27.122
580.00	28.123
580.34	28.097
580.67	27.440
581.01	28.154
581.35	28.738
581.68	28.622
582.02	27.619
582.35	28.228
582.69	27.857
583.02	27.872
583.36	28.107
583.70	28.072
584.03	27.691
584.37	27.958
584.70	28.083
585.04	27.666
585.37	27.586
585.71	28.454
586.04	27.712
586.38	28.370
586.72	28.059
587.05	27.520
587.39	27.678
587.72	27.828
588.06	27.615
588.39	27.627
588.73	27.163
589.06	27.984
589.40	28.485
589.73	27.702
590.07	27.438
590.40	27.585
590.73	27.440
591.07	28.002
591.40	27.541
591.74	27.922
592.07	28.272
592.41	27.863
592.74	27.566
593.08	28.015
593.41	28.472
593.75	27.483
594.08	27.757
594.41	26.688
594.75	27.616
595.08	27.416
595.42	27.881
595.75	27.172
596.09	27.713
596.42	27.859
596.75	28.282
597.09	27.403
597.42	26.433
597.75	27.900
598.09	27.261
598.42	27.491
598.76	27.037
599.09	27.328
599.42	26.783
599.76	27.526
600.09	27.140
600.42	26.662
600.76	27.393
601.09	27.213
601.42	27.359
601.76	27.400
602.09	27.352
602.42	27.349
602.76	27.287
603.09	28.009
603.42	26.982
603.76	27.896
604.09	27.569
604.42	27.232
604.76	27.288
605.09	26.474
605.42	27.661
605.75	27.194
606.09	27.532
606.42	28.320
606.75	27.623
607.09	26.957
607.42	27.685
607.75	26.709
608.08	26.661
608.42	26.939
608.75	26.781
609.08	26.364
609.41	26.226
609.75	26.679
610.08	27.521
610.41	27.002
610.74	26.727
611.07	27.717
611.41	27.478
611.74	28.105
612.07	27.588
612.40	27.597
612.73	26.947
613.07	27.963
613.40	27.225
613.73	27.058
614.06	27.849
614.39	27.058
614.72	26.737
615.06	26.471
615.39	26.380
615.72	25.818
616.05	26.050
616.38	27.237
616.71	27.257
617.05	27.856
617.38	27.360
617.71	26.967
618.04	26.803
618.37	26.434
618.70	27.629
619.03	26.776
619.36	27.155
619.69	27.254
620.03	27.953
620.36	27.005
620.69	27.192
621.02	27.286
621.35	26.625
621.68	26.791
622.01	27.012
622.34	26.702
622.67	26.768
623.00	26.632
623.33	26.305
623.66	27.091
623.99	27.393
624.32	26.961
624.65	27.754
624.99	26.700
625.32	25.489
625.65	26.146
625.98	27.287
626.31	25.894
626.64	27.510
626.97	27.348
627.30	27.598
627.63	28.630
627.96	26.409
628.29	26.334
628.62	26.349
628.95	28.396
629.28	25.821
629.61	26.489
629.94	26.095
630.26	26.120
630.59	25.834
630.92	26.437
631.25	26.160
631.58	26.426
631.91	25.051
632.24	25.211
632.57	26.023
632.90	25.548
633.23	25.056
633.56	25.198
633.89	25.708
634.22	27.696
634.55	27.219
634.88	26.108
635.20	25.687
635.53	26.145
635.86	27.475
636.19	26.000
636.52	26.874
636.85	27.148
637.18	25.461
637.51	26.714
637.83	24.168
638.16	26.982
638.49	26.826
638.82	26.802
639.15	26.375
639.48	27.556
639.81	26.273
640.13	26.563
640.46	25.772
640.79	26.684
641.12	26.547
641.45	27.793
641.77	25.920
642.10	26.462
642.43	27.477
642.76	25.077
643.09	27.454
643.41	26.100
643.74	28.086
644.07	27.439
644.40	27.914
644.73	26.929
645.05	26.307
645.38	27.014
645.71	26.892
646.04	28.405
646.36	27.880
646.69	27.592
647.02	28.401
647.35	28.007
647.67	28.319
648.00	28.293
648.33	28.548
648.66	26.667
648.98	28.186
649.31	28.251
649.64	24.664
649.96	27.422
650.29	26.224
650.62	26.699
650.94	26.094
651.27	30.574
651.60	27.953
651.92	27.796
652.25	28.013
652.58	28.816
652.90	26.698
653.23	25.424
653.56	25.669
653.88	27.575
654.21	26.382
654.54	29.373
654.86	28.505
655.19	25.676
655.52	23.252
655.84	25.351
656.17	33.481
656.49	44.506
656.82	43.948
657.15	32.259
657.47	23.481
657.80	17.644
658.13	18.582
658.45	26.653
658.78	26.224
659.10	26.533
659.43	26.617
659.75	27.423
660.08	29.810
660.41	31.192
660.73	29.352
661.06	27.866
661.38	28.727
661.71	27.308
662.03	28.797
662.36	25.845
662.68	25.904
663.01	27.273
663.33	28.450
663.66	27.101
663.98	27.214
664.31	27.311
664.63	28.340
664.96	22.938
665.28	29.918
665.61	27.485
665.93	26.761
666.26	28.600
666.58	28.243
666.91	30.233
667.23	29.663
667.56	24.622
667.88	27.991
668.21	26.866
668.53	28.200
668.86	27.922
669.18	29.851
669.50	28.261
669.83	29.412
670.15	29.333
670.48	27.669
670.80	28.448
671.13	28.238
671.45	24.255
671.77	30.143
672.10	28.466
672.42	27.739
672.75	29.187
673.07	26.937
673.39	28.391
673.72	28.320
674.04	30.588
674.37	28.544
674.69	29.448
675.01	28.243
675.34	29.158
675.66	30.316
675.98	29.532
676.31	26.891
676.63	29.087
676.95	28.721
677.28	26.168
677.60	28.571
677.92	30.169
678.25	28.131
678.57	29.084
678.89	28.657
679.22	28.880
679.54	28.053
679.86	28.807
680.18	28.265
680.51	27.128
680.83	27.936
681.15	28.302
681.48	30.246
681.80	28.240
682.12	28.544
682.44	26.692
682.77	30.346
683.09	29.399
683.41	28.381
683.73	30.905
684.06	30.785
684.38	30.333
684.70	30.620
685.02	32.270
685.34	27.106
685.67	26.573
685.99	28.522
686.31	27.816
686.63	27.032
686.96	28.214
687.28	27.617
687.60	27.899
687.92	29.982
688.24	26.806
688.56	29.116
688.89	30.705
689.21	29.476
689.53	30.271
689.85	32.594
690.17	27.950
690.49	31.210
690.82	30.374
691.14	28.125
691.46	28.692
691.78	29.518
692.10	30.165
692.42	29.541
692.74	30.705
693.06	28.085
693.39	29.774
693.71	30.131
694.03	29.895
694.35	27.706
694.67	29.519
694.99	30.732
695.31	28.922
695.63	28.469
695.95	27.873
696.27	28.426
696.59	28.497
696.91	31.347
697.23	23.709
697.56	30.064
697.88	29.039
698.20	28.125
698.52	31.613
698.84	30.290
699.16	28.802
699.48	28.979
699.80	32.367
700.12	34.545
700.44	31.830
700.76	29.282
701.08	28.448
701.40	29.609
701.72	33.236
702.04	34.375
702.36	28.895
702.68	29.745
703.00	31.579
703.32	28.457
703.64	32.976
703.96	33.148
704.28	35.465
704.60	32.258
704.91	27.596
705.23	32.551
705.55	35.880
705.87	32.226
706.19	27.562
706.51	29.907
706.83	33.636
707.15	29.412
707.47	32.323
707.79	32.924
708.11	31.279
708.43	32.143
708.74	29.337
709.06	30.909
709.38	30.709
709.70	32.849
710.02	32.938
710.34	30.909
710.66	34.925
710.98	32.102
711.29	28.198
711.61	33.628
711.93	29.487
712.25	33.119
712.57	30.147
712.89	32.872
713.20	32.827
713.52	32.566
713.84	27.848
714.16	33.232
714.48	32.759
714.80	39.514
715.11	32.853
715.43	31.157
715.75	31.884
716.07	34.505
716.39	31.661
716.70	36.545
717.02	34.892
717.34	34.629
717.66	38.433
717.97	35.060
718.29	36.296
718.61	33.212
718.93	32.353
719.24	34.948
719.56	31.186
719.88	37.288
720.20	36.824
720.51	32.753
720.83	35.316
721.15	35.448
721.46	31.560
721.78	36.559
722.10	34.340
722.42	33.835
722.73	35.955
723.05	32.787
723.37	37.652
723.68	35.907
724.00	30.081
724.32	35.887
724.63	37.805
724.95	31.799
725.27	35.628
725.58	41.406
725.90	39.781
726.22	35.849
726.53	31.597
726.85	35.154
727.16	33.452
727.48	33.688
727.80	32.955
728.11	35.145
728.43	30.769
728.74	35.842
729.06	39.416
729.38	39.706
729.69	37.011
730.01	30.717
730.32	33.681
730.64	30.769
730.96	29.373
731.27	35.430
731.59	34.251
731.90	35.277
732.22	38.199
732.53	34.365
732.85	34.615
733.16	36.334
733.48	33.223
733.80	32.792
734.11	34.395
734.43	37.278
734.74	32.000
735.06	34.384
735.37	37.283
735.69	32.484
736.00	36.601
736.32	33.956
736.63	32.588
736.95	35.144
737.26	30.952
737.58	30.645
737.89	38.127
738.21	36.177
738.52	34.643
738.83	33.585
739.15	39.615
739.46	38.321
739.78	35.764
740.09	35.692
740.41	39.677
740.72	30.662
741.04	39.259
741.35	33.333
741.66	40.889
741.98	36.792
742.29	42.584
742.61	39.655
742.92	39.367
743.23	35.043
743.55	37.600
743.86	40.351
744.18	41.593
744.49	41.627
744.80	39.437
745.12	40.455
745.43	37.885
745.74	39.189
746.06	41.743
746.37	41.256
746.68	40.271
747.00	42.130
747.31	44.762
747.62	41.593
747.94	36.123
748.25	34.043
748.56	43.612
748.88	39.109
749.19	47.500
749.50	40.000
749.82	34.959
750.13	40.000
750.44	37.591
750.75	38.246
751.07	40.193
751.38	37.979
751.69	38.267
752.01	38.722
752.32	35.018
752.63	36.879
752.94	41.803
753.26	40.400
753.57	34.553
753.88	37.891
754.19	34.286
754.51	38.194
754.82	33.574
755.13	40.755
755.44	37.218
755.75	35.401
756.07	37.943
756.38	33.942
756.69	36.577
757.00	33.533
757.31	32.047
757.63	32.164
757.94	34.048
758.25	34.559
758.56	34.815
758.87	31.183
759.18	31.818
759.50	36.050
759.81	32.710
760.12	36.562
760.43	33.238
760.74	32.337
761.05	34.181
761.36	34.225
761.67	39.205
761.99	35.404
762.30	39.236
762.61	37.023
762.92	35.937
763.23	38.235
763.54	39.600
763.85	38.281
764.16	41.538
764.47	44.487
764.78	36.396
765.10	31.646
765.41	34.808
765.72	35.928
766.03	36.364
766.34	34.333
766.65	43.404
766.96	38.889
767.27	42.132
767.58	40.104
767.89	42.105
768.20	50.000
768.51	41.624
768.82	42.202
769.13	40.244
769.44	37.247
769.75	44.206
770.06	34.404
770.37	41.176
770.68	41.204
770.99	45.778
771.30	36.475
771.61	48.879
771.92	42.623
772.23	42.857
772.54	46.667
772.85	42.932
773.16	43.617
773.47	43.478
773.78	45.685
774.09	41.071
774.39	42.690
774.70	45.062
775.01	46.377
775.32	55.556
775.63	41.447
775.94	47.482
776.25	51.181
776.56	45.522
776.87	53.279
777.18	45.313
777.48	63.359
777.79	50.758
778.10	48.889
778.41	58.929
778.72	45.985
779.03	52.349
779.34	42.953
779.65	46.622
779.95	47.239
780.26	55.556
780.57	48.966
780.88	61.719
781.19	47.368
781.50	58.108
781.80	48.428
782.11	44.633
782.42	39.241
782.73	43.558
783.04	52.703
783.34	55.634
783.65	56.849
783.96	53.731
784.27	39.860
784.57	47.482
784.88	51.852
785.19	53.175
785.50	53.774
785.81	61.940
786.11	47.541
786.42	51.938
786.73	57.522
787.04	70.755
787.34	55.357
787.65	58.000
787.96	60.360
788.26	50.413
788.57	62.712
788.88	61.983
789.19	57.639
789.49	61.364
789.80	52.672
790.11	61.905
790.41	63.366
790.72	75.904
791.03	59.783
791.33	62.791
791.64	60.825
791.95	70.297
792.25	76.667
792.56	67.532
792.87	69.231
793.17	86.076
793.48	66.667
793.79	67.816
794.09	64.773
794.40	57.983
794.70	60.294
795.01	51.111
795.32	54.676
795.62	54.331
795.93	62.931
796.23	54.867
796.54	51.765
796.85	60.811
797.15	76.056
797.46	77.273
797.76	73.494
798.07	68.354
798.37	73.846
798.68	81.818
798.99	74.648
799.29	71.429
799.60	63.636
799.90	95.890
800.21	77.612
800.51	86.207
800.82	101.754
801.12	80.328
801.43	107.576
801.73	81.081
802.04	90.476
802.34	76.543
802.65	79.687
802.95	91.525
803.26	85.937
803.56	60.000
803.87	73.846
804.17	83.824
804.48	107.407
804.78	86.207
805.09	80.882
805.39	88.462
805.70	87.500
806.00	90.164
806.30	81.818
806.61	73.171
806.91	67.089
807.22	67.105
807.52	71.642
807.83	95.775
808.13	85.938
808.43	88.333
808.74	73.684
809.04	92.754
809.35	79.104
809.65	81.579
809.95	98.387
810.26	86.441
810.56	85.714
810.86	122.727
811.17	126.190
811.47	86.667
811.77	103.704
812.08	107.273
812.38	114.000
812.69	113.889
812.99	111.364
813.29	95.918
813.59	90.476
813.90	132.653
814.20	105.455
814.50	81.538
814.81	97.059
815.11	126.531
815.41	95.082
815.72	133.333
816.02	109.091
816.32	109.524
816.62	105.000
816.93	109.756
817.23	114.286
817.53	129.545
817.84	145.455
818.14	110.870
818.44	108.889
818.74	150.000
819.04	105.000
819.35	134.286
819.65	135.294
819.95	150.000
820.25	165.000
820.56	128.205
820.86	113.636
821.16	116.279
821.46	123.077
821.76	122.000
822.07	145.714
822.37	132.500
822.67	133.333
822.97	101.961
823.27	160.714
823.57	132.432
823.88	137.500
824.18	166.667
824.48	147.619
824.78	140.000
825.08	158.333
825.38	127.027
825.69	129.268
825.99	187.500
826.29	127.586
826.59	121.053
826.89	121.053
827.19	158.824
827.49	141.935
827.79	120.455
828.09	115.909
828.39	119.149
828.70	108.163
829.00	133.333
829.30	132.258
829.60	142.500
829.90	213.333
830.20	178.571
830.50	117.391
830.80	217.391
831.10	146.667
831.40	150.000
831.70	160.870
832.00	203.846
832.30	170.370
832.60	212.500
832.90	210.000
833.20	335.714
833.50	177.419
833.80	179.310
834.10	196.875
834.40	192.308
834.70	250.000
835.00	266.667
835.30	165.714
835.60	246.154
835.90	151.724
836.20	221.429
836.50	148.276
836.80	124.000
837.10	172.222
837.40	223.810
837.70	264.706
838.00	185.185
838.30	185.714
838.60	233.333
838.90	188.462
839.19	235.000
839.49	314.286
839.79	265.000
840.09	225.000
840.39	247.619
840.69	234.783
840.99	233.333
841.29	310.000
841.59	341.667
841.88	256.250
842.18	134.483
842.48	228.571
842.78	143.333
843.08	173.913
843.38	143.750
843.68	583.333
843.97	173.077
844.27	165.517
844.57	242.857
844.87	250.000
845.17	185.185
845.47	1500.000
845.76	377.778
846.06	241.176
846.36	437.500
846.66	321.429
846.96	218.750
847.25	345.455
847.55	309.091
847.85	186.957
848.15	330.000
848.44	307.143
848.74	138.889
849.04	300.000
849.34	410.000
849.63	205.263
849.93	381.818
850.23	780.000
850.53	328.571
850.82	1600.000
851.12	-2900.000
851.42	4300.000
851.71	230.000
852.01	-1066.667
852.31	254.167
852.61	1500.000
852.90	242.857
853.20	204.000
853.50	264.706
853.79	228.571
854.09	191.667
854.39	237.500
854.68	167.568
854.98	177.419
855.28	176.667
855.57	179.310
855.87	170.370
856.17	236.842
856.46	220.000
856.76	258.824
857.05	134.483
857.35	208.333
857.65	300.000
857.94	165.217
858.24	192.308
858.53	260.000
858.83	259.091
859.13	300.000
859.42	0.000
859.72	433.333
860.01	336.364
860.31	231.818
860.60	215.789
860.90	200.000
861.20	522.222
861.49	475.000
861.79	-3800.000
862.08	550.000
862.38	219.048
862.67	253.846
862.97	276.471
863.26	511.111
863.56	261.111
863.85	325.000
864.15	350.000
864.44	300.000
864.74	650.000
865.03	550.000
865.33	247.368
865.62	354.545
865.92	423.077
866.21	258.333
866.51	0.000
866.80	327.273
867.10	1060.000
867.39	346.154
867.69	409.091
867.98	252.632
868.27	363.636
868.57	236.842
868.86	-4900.000
869.16	312.500
869.45	2100.000
869.75	-3200.000
870.04	350.000
870.33	557.143
870.63	850.000
870.92	2250.000
871.22	714.286
871.51	270.588
871.80	176.190
872.10	350.000
>>>>>End Processed Spectral Data<<<<<
