SpectraSuite Data File
++++++++++++++++++++++++++++++++++++
Date: Wed May 13 16:15:11 PDT 2015
User: schluterlab
Dark Spectrum Present: Yes
Reference Spectrum Present: Yes
Number of Sampled Component Spectra: 1
Spectrometers: USB2E3373
Integration Time (usec): 3000 (USB2E3373)
Spectra Averaged: 3 (USB2E3373)
Boxcar Smoothing: 0 (USB2E3373)
Correct for Electrical Dark: No (USB2E3373)
Strobe/Lamp Enabled: No (USB2E3373)
Correct for Detector Non-linearity: No (USB2E3373)
Correct for Stray Light: No (USB2E3373)
Number of Pixels in Processed Spectrum: 2048
>>>>>Begin Processed Spectral Data<<<<<
178.53	0.000
178.91	-825.000
179.29	-925.000
179.67	-144.444
180.04	-1100.000
180.42	2100.000
180.80	940.000
181.18	-800.000
181.56	628.571
181.94	0.000
182.31	-400.000
182.69	1366.667
183.07	-550.000
183.45	-400.000
183.83	427.273
184.20	-280.000
184.58	1700.000
184.96	4200.000
185.34	-560.000
185.72	-325.000
186.09	-1600.000
186.47	1700.000
186.85	2050.000
187.23	3700.000
187.61	-1100.000
187.98	1025.000
188.36	445.455
188.74	463.636
189.12	-700.000
189.49	460.000
189.87	-3900.000
190.25	-850.000
190.63	328.571
191.00	338.462
191.38	716.667
191.76	-775.000
192.14	950.000
192.51	475.000
192.89	750.000
193.27	387.500
193.65	-850.000
194.02	390.000
194.40	680.000
194.78	470.000
195.15	366.667
195.53	460.000
195.91	-1650.000
196.29	237.500
196.66	305.263
197.04	-220.000
197.42	0.000
197.79	420.000
198.17	-4100.000
198.55	628.571
198.92	637.500
199.30	740.000
199.68	0.000
200.05	355.556
200.43	614.286
200.81	4400.000
201.18	966.667
201.56	-1466.667
201.94	433.333
202.31	500.000
202.69	250.000
203.07	390.000
203.44	0.000
203.82	975.000
204.19	700.000
204.57	364.286
204.95	500.000
205.32	1466.667
205.70	400.000
206.08	350.000
206.45	1800.000
206.83	293.750
207.20	700.000
207.58	560.000
207.96	266.667
208.33	650.000
208.71	-750.000
209.08	685.714
209.46	466.667
209.84	436.364
210.21	-1266.667
210.59	1125.000
210.96	-337.500
211.34	2300.000
211.71	480.000
212.09	616.667
212.46	0.000
212.84	1200.000
213.22	1200.000
213.59	-3800.000
213.97	633.333
214.34	614.286
214.72	436.364
215.09	820.000
215.47	-1900.000
215.84	-2000.000
216.22	1300.000
216.59	278.571
216.97	1000.000
217.34	400.000
217.72	-666.667
218.09	0.000
218.47	-2800.000
218.84	477.778
219.22	585.714
219.59	1166.667
219.97	-514.286
220.34	680.000
220.72	-1300.000
221.09	292.857
221.47	1125.000
221.84	-733.333
222.22	0.000
222.59	1150.000
222.97	-1950.000
223.34	740.000
223.72	284.615
224.09	920.000
224.46	2000.000
224.84	-3800.000
225.21	-800.000
225.59	-2800.000
225.96	480.000
226.34	260.000
226.71	1950.000
227.08	437.500
227.46	420.000
227.83	-950.000
228.21	-2100.000
228.58	422.222
228.95	-1850.000
229.33	-1450.000
229.70	1633.333
230.08	614.286
230.45	-600.000
230.82	316.667
231.20	716.667
231.57	571.429
231.95	391.667
232.32	227.273
232.69	318.182
233.07	600.000
233.44	176.923
233.81	-1233.333
234.19	173.684
234.56	400.000
234.93	350.000
235.31	390.909
235.68	315.385
236.05	257.143
236.43	160.606
236.80	242.105
237.17	3700.000
237.55	204.762
237.92	171.429
238.29	195.238
238.67	135.484
239.04	172.414
239.41	133.333
239.79	82.609
240.16	111.905
240.53	109.091
240.91	86.275
241.28	84.000
241.65	86.000
242.02	84.058
242.40	82.258
242.77	80.000
243.14	60.215
243.51	59.551
243.89	67.059
244.26	53.333
244.63	61.290
245.00	52.128
245.38	65.347
245.75	55.140
246.12	55.046
246.49	54.015
246.87	63.200
247.24	52.308
247.61	46.429
247.98	50.980
248.36	45.946
248.73	47.771
249.10	47.134
249.47	49.718
249.84	51.872
250.22	41.711
250.59	42.604
250.96	39.899
251.33	38.863
251.70	48.020
252.08	36.190
252.45	39.462
252.82	36.087
253.19	40.851
253.56	36.471
253.94	39.004
254.31	35.937
254.68	35.385
255.05	36.900
255.42	37.398
255.79	32.353
256.16	37.906
256.54	36.042
256.91	36.655
257.28	35.971
257.65	31.683
258.02	34.472
258.39	30.915
258.76	34.114
259.14	33.036
259.51	33.131
259.88	31.677
260.25	33.837
260.62	32.081
260.99	34.472
261.36	34.535
261.73	31.805
262.10	32.558
262.47	35.493
262.85	30.362
263.22	28.205
263.59	31.909
263.96	30.220
264.33	34.465
264.70	31.579
265.07	32.737
265.44	30.556
265.81	30.414
266.18	30.905
266.55	30.244
266.92	32.432
267.29	30.556
267.66	31.193
268.03	31.591
268.40	30.841
268.77	30.072
269.14	31.306
269.51	28.217
269.88	31.002
270.25	30.700
270.62	30.112
270.99	29.247
271.36	30.043
271.73	30.374
272.10	28.261
272.47	31.398
272.84	30.519
273.21	29.560
273.58	28.384
273.95	27.044
274.32	27.273
274.69	30.193
275.06	27.953
275.43	28.085
275.80	28.257
276.17	27.291
276.54	29.314
276.91	27.470
277.28	27.344
277.65	26.692
278.02	28.986
278.39	28.711
278.76	27.818
279.13	26.226
279.50	29.236
279.87	27.291
280.23	29.142
280.60	26.886
280.97	27.726
281.34	28.673
281.71	29.818
282.08	24.760
282.45	26.727
282.82	25.933
283.19	25.490
283.56	27.544
283.92	25.550
284.29	25.926
284.66	25.408
285.03	25.859
285.40	26.937
285.77	27.441
286.14	25.043
286.51	26.333
286.87	27.863
287.24	27.524
287.61	22.953
287.98	25.649
288.35	24.406
288.72	26.012
289.08	25.039
289.45	23.558
289.82	23.577
290.19	23.391
290.56	24.809
290.93	23.263
291.29	23.466
291.66	25.811
292.03	25.145
292.40	23.935
292.77	21.450
293.13	24.030
293.50	24.490
293.87	23.259
294.24	21.778
294.60	21.543
294.97	22.529
295.34	24.260
295.71	22.869
296.08	20.513
296.44	22.008
296.81	20.872
297.18	21.816
297.55	20.580
297.91	19.921
298.28	21.419
298.65	21.018
299.02	20.949
299.38	21.514
299.75	17.520
300.12	20.307
300.48	20.875
300.85	19.236
301.22	20.510
301.59	19.571
301.95	19.521
302.32	20.668
302.69	18.996
303.05	18.545
303.42	18.765
303.79	19.026
304.15	18.881
304.52	19.235
304.89	18.931
305.25	19.142
305.62	19.026
305.99	19.244
306.35	17.897
306.72	18.946
307.09	19.978
307.45	19.482
307.82	17.188
308.19	18.102
308.55	19.094
308.92	19.012
309.29	18.796
309.65	17.285
310.02	18.499
310.38	18.817
310.75	18.163
311.12	18.833
311.48	17.973
311.85	18.763
312.22	18.002
312.58	17.152
312.95	18.163
313.31	17.087
313.68	17.775
314.05	19.724
314.41	17.789
314.78	17.523
315.14	18.570
315.51	18.126
315.87	17.426
316.24	17.875
316.61	16.959
316.97	18.004
317.34	16.732
317.70	18.451
318.07	17.421
318.43	18.787
318.80	18.369
319.16	17.232
319.53	16.979
319.89	18.095
320.26	18.700
320.62	18.452
320.99	18.687
321.35	17.677
321.72	19.097
322.08	18.460
322.45	19.005
322.81	18.314
323.18	18.112
323.54	18.924
323.91	17.453
324.27	18.069
324.64	17.894
325.00	17.493
325.37	18.016
325.73	18.851
326.10	17.829
326.46	16.756
326.83	18.637
327.19	18.617
327.56	18.206
327.92	17.585
328.29	18.456
328.65	17.956
329.01	17.509
329.38	17.576
329.74	17.636
330.11	18.002
330.47	18.090
330.84	18.290
331.20	17.395
331.56	17.890
331.93	16.111
332.29	17.835
332.66	18.053
333.02	18.282
333.38	18.157
333.75	18.449
334.11	17.616
334.48	16.859
334.84	17.371
335.20	18.091
335.57	18.132
335.93	17.054
336.29	17.857
336.66	17.583
337.02	17.647
337.38	17.037
337.75	16.043
338.11	16.831
338.47	17.311
338.84	16.407
339.20	15.596
339.56	17.518
339.93	16.545
340.29	17.754
340.65	18.004
341.02	17.714
341.38	16.815
341.74	16.930
342.11	18.341
342.47	17.269
342.83	17.551
343.20	17.922
343.56	17.607
343.92	17.281
344.28	17.432
344.65	17.455
345.01	17.256
345.37	16.724
345.73	17.174
346.10	17.136
346.46	16.695
346.82	15.898
347.19	15.789
347.55	15.846
347.91	17.314
348.27	17.091
348.63	16.054
349.00	17.718
349.36	15.025
349.72	16.921
350.08	15.883
350.45	16.680
350.81	16.084
351.17	16.775
351.53	15.315
351.89	15.924
352.26	16.969
352.62	16.119
352.98	15.397
353.34	16.023
353.70	15.057
354.07	16.210
354.43	15.000
354.79	16.412
355.15	15.962
355.51	16.707
355.87	15.184
356.24	16.042
356.60	15.397
356.96	16.171
357.32	16.517
357.68	16.614
358.04	15.439
358.40	15.202
358.77	17.371
359.13	14.996
359.49	15.216
359.85	14.365
360.21	15.231
360.57	16.109
360.93	15.538
361.29	15.646
361.66	14.551
362.02	15.522
362.38	16.046
362.74	16.220
363.10	15.396
363.46	14.820
363.82	15.797
364.18	15.639
364.54	15.676
364.90	15.793
365.26	15.368
365.62	15.924
365.98	14.755
366.35	15.115
366.71	15.257
367.07	15.149
367.43	15.675
367.79	15.846
368.15	16.595
368.51	15.625
368.87	15.703
369.23	15.069
369.59	15.713
369.95	15.074
370.31	15.741
370.67	15.435
371.03	16.030
371.39	16.254
371.75	14.779
372.11	15.292
372.47	16.202
372.83	15.850
373.19	16.040
373.55	16.260
373.91	16.642
374.27	14.433
374.63	14.909
374.99	15.184
375.35	13.957
375.71	14.873
376.07	15.501
376.42	15.543
376.78	15.507
377.14	16.214
377.50	15.497
377.86	14.096
378.22	16.245
378.58	14.662
378.94	14.896
379.30	14.186
379.66	15.736
380.02	15.233
380.38	14.208
380.74	15.246
381.09	15.526
381.45	15.612
381.81	15.602
382.17	15.541
382.53	14.843
382.89	15.000
383.25	15.385
383.61	15.180
383.97	15.572
384.32	15.471
384.68	15.551
385.04	15.489
385.40	15.046
385.76	14.865
386.12	15.285
386.48	15.104
386.83	15.138
387.19	15.523
387.55	16.141
387.91	15.780
388.27	15.573
388.62	15.550
388.98	15.049
389.34	14.706
389.70	15.880
390.06	16.793
390.42	15.694
390.77	15.903
391.13	15.635
391.49	15.419
391.85	15.277
392.20	14.448
392.56	15.720
392.92	15.480
393.28	15.030
393.64	15.168
393.99	15.944
394.35	15.136
394.71	15.935
395.07	15.389
395.42	15.204
395.78	14.695
396.14	15.332
396.50	15.351
396.85	15.321
397.21	15.845
397.57	14.693
397.92	14.724
398.28	15.247
398.64	15.472
399.00	15.165
399.35	15.116
399.71	15.914
400.07	15.376
400.42	15.706
400.78	15.501
401.14	14.817
401.49	15.284
401.85	15.487
402.21	14.850
402.57	15.238
402.92	16.393
403.28	15.365
403.63	15.347
403.99	15.223
404.35	15.697
404.70	15.228
405.06	15.201
405.42	16.032
405.77	14.514
406.13	15.181
406.49	14.843
406.84	15.416
407.20	14.539
407.55	15.061
407.91	15.200
408.27	14.997
408.62	16.014
408.98	15.502
409.34	15.560
409.69	15.935
410.05	15.861
410.40	15.535
410.76	15.711
411.11	15.561
411.47	14.952
411.83	16.127
412.18	15.090
412.54	15.006
412.89	15.482
413.25	15.466
413.60	15.318
413.96	15.118
414.31	15.674
414.67	15.209
415.03	15.695
415.38	15.399
415.74	15.691
416.09	16.199
416.45	15.997
416.80	15.069
417.16	16.086
417.51	15.262
417.87	14.772
418.22	15.773
418.58	15.881
418.93	15.602
419.29	15.595
419.64	16.373
420.00	15.915
420.35	15.768
420.71	16.019
421.06	14.797
421.42	15.906
421.77	15.919
422.12	15.328
422.48	14.517
422.83	15.259
423.19	15.249
423.54	15.090
423.90	16.406
424.25	14.517
424.61	15.238
424.96	14.927
425.31	15.338
425.67	14.831
426.02	15.314
426.38	15.324
426.73	15.506
427.09	14.711
427.44	15.066
427.79	15.469
428.15	15.536
428.50	15.097
428.85	16.150
429.21	15.461
429.56	15.293
429.92	14.997
430.27	14.896
430.62	14.644
430.98	15.309
431.33	15.052
431.68	15.340
432.04	14.856
432.39	15.248
432.74	15.560
433.10	15.563
433.45	15.394
433.80	15.576
434.16	14.690
434.51	15.474
434.86	15.906
435.22	15.620
435.57	14.894
435.92	14.980
436.28	15.421
436.63	16.170
436.98	15.341
437.34	15.146
437.69	15.753
438.04	15.402
438.39	16.418
438.75	15.224
439.10	15.754
439.45	15.939
439.81	16.133
440.16	15.359
440.51	15.583
440.86	16.271
441.22	16.185
441.57	15.021
441.92	15.507
442.27	15.877
442.63	14.481
442.98	15.268
443.33	15.489
443.68	15.488
444.03	15.129
444.39	14.557
444.74	15.368
445.09	15.472
445.44	15.637
445.79	15.141
446.15	15.934
446.50	15.293
446.85	15.211
447.20	15.196
447.55	15.522
447.91	15.389
448.26	16.082
448.61	15.828
448.96	15.947
449.31	16.142
449.66	14.969
450.02	15.320
450.37	14.966
450.72	15.736
451.07	15.174
451.42	15.441
451.77	16.735
452.12	15.242
452.47	15.734
452.83	15.152
453.18	15.770
453.53	16.265
453.88	15.830
454.23	15.900
454.58	15.990
454.93	16.592
455.28	15.212
455.63	15.898
455.98	16.905
456.34	15.892
456.69	16.218
457.04	15.604
457.39	15.780
457.74	15.670
458.09	15.929
458.44	15.964
458.79	15.401
459.14	15.688
459.49	16.287
459.84	15.789
460.19	15.675
460.54	15.451
460.89	16.072
461.24	15.543
461.59	17.025
461.94	15.968
462.29	16.558
462.64	15.699
462.99	15.680
463.34	17.400
463.69	16.510
464.04	15.710
464.39	16.174
464.74	16.043
465.09	15.862
465.44	14.515
465.79	16.107
466.14	15.216
466.49	15.239
466.84	16.287
467.19	15.993
467.54	16.500
467.89	15.066
468.24	16.463
468.59	15.812
468.94	15.272
469.29	14.974
469.64	17.403
469.99	15.697
470.34	15.720
470.68	16.667
471.03	17.075
471.38	17.165
471.73	16.056
472.08	17.039
472.43	16.018
472.78	16.524
473.13	16.239
473.48	15.980
473.83	15.854
474.17	15.246
474.52	17.370
474.87	16.404
475.22	16.193
475.57	15.852
475.92	15.454
476.27	16.065
476.61	16.106
476.96	15.448
477.31	15.594
477.66	15.864
478.01	15.630
478.36	15.812
478.70	15.628
479.05	16.081
479.40	16.121
479.75	16.218
480.10	15.805
480.45	15.421
480.79	15.432
481.14	15.753
481.49	16.137
481.84	15.821
482.19	15.266
482.53	15.367
482.88	15.170
483.23	16.402
483.58	15.696
483.92	15.370
484.27	14.858
484.62	15.259
484.97	15.175
485.31	15.616
485.66	14.454
486.01	13.559
486.36	12.939
486.70	12.683
487.05	13.396
487.40	13.560
487.75	13.636
488.09	14.680
488.44	14.410
488.79	14.973
489.13	15.393
489.48	15.171
489.83	15.149
490.17	15.563
490.52	15.722
490.87	15.423
491.22	15.553
491.56	15.171
491.91	15.403
492.26	15.021
492.60	15.438
492.95	14.920
493.30	16.028
493.64	15.446
493.99	15.599
494.34	16.096
494.68	15.659
495.03	15.836
495.37	15.589
495.72	15.595
496.07	16.102
496.41	15.177
496.76	15.919
497.11	14.903
497.45	15.929
497.80	15.883
498.14	15.217
498.49	15.610
498.84	15.772
499.18	15.476
499.53	16.429
499.87	15.610
500.22	15.450
500.56	16.165
500.91	15.769
501.26	15.742
501.60	16.754
501.95	15.674
502.29	16.448
502.64	15.549
502.98	15.054
503.33	15.676
503.67	16.102
504.02	15.575
504.36	15.957
504.71	15.340
505.06	16.289
505.40	16.529
505.75	16.008
506.09	15.986
506.44	15.688
506.78	16.512
507.13	15.851
507.47	16.364
507.82	16.312
508.16	15.805
508.51	16.337
508.85	15.541
509.19	15.918
509.54	16.020
509.88	15.817
510.23	15.733
510.57	16.718
510.92	16.002
511.26	15.827
511.61	15.560
511.95	16.180
512.30	15.748
512.64	16.443
512.98	16.935
513.33	16.381
513.67	16.329
514.02	16.342
514.36	17.094
514.70	17.266
515.05	15.561
515.39	16.657
515.74	16.667
516.08	17.775
516.42	17.592
516.77	17.336
517.11	16.315
517.46	17.494
517.80	16.899
518.14	15.981
518.49	16.861
518.83	16.705
519.17	17.148
519.52	16.469
519.86	16.714
520.20	16.879
520.55	17.534
520.89	17.640
521.23	17.491
521.58	16.687
521.92	17.024
522.26	16.779
522.61	17.383
522.95	16.575
523.29	16.616
523.64	17.683
523.98	16.081
524.32	17.973
524.66	17.498
525.01	17.279
525.35	16.729
525.69	16.749
526.04	17.695
526.38	17.389
526.72	17.301
527.06	17.389
527.41	16.584
527.75	17.685
528.09	16.570
528.43	18.037
528.78	17.271
529.12	16.848
529.46	17.942
529.80	17.265
530.15	17.570
530.49	16.246
530.83	18.038
531.17	18.342
531.51	18.677
531.86	17.226
532.20	18.579
532.54	16.976
532.88	17.522
533.22	17.052
533.57	17.469
533.91	17.098
534.25	17.072
534.59	16.656
534.93	17.490
535.27	17.200
535.62	16.789
535.96	16.824
536.30	17.228
536.64	17.128
536.98	16.987
537.32	17.512
537.66	17.733
538.01	17.643
538.35	17.970
538.69	18.060
539.03	16.114
539.37	16.613
539.71	16.202
540.05	17.582
540.39	16.346
540.73	16.559
541.07	18.430
541.42	18.200
541.76	17.742
542.10	17.723
542.44	16.755
542.78	17.787
543.12	16.187
543.46	16.984
543.80	17.697
544.14	16.110
544.48	16.762
544.82	17.126
545.16	17.567
545.50	16.195
545.84	17.473
546.18	17.710
546.52	17.343
546.86	17.663
547.20	17.802
547.54	17.034
547.88	18.176
548.22	16.563
548.56	16.604
548.90	16.773
549.24	17.172
549.58	17.872
549.92	17.445
550.26	17.898
550.60	17.704
550.94	16.549
551.28	16.313
551.62	18.620
551.96	18.386
552.30	18.089
552.64	17.918
552.98	18.508
553.32	18.071
553.66	17.860
554.00	18.119
554.34	17.943
554.68	18.312
555.02	18.477
555.36	17.397
555.69	17.050
556.03	17.833
556.37	17.190
556.71	17.190
557.05	17.437
557.39	18.055
557.73	17.855
558.07	18.274
558.41	17.004
558.75	18.148
559.08	18.419
559.42	17.687
559.76	18.162
560.10	17.630
560.44	16.702
560.78	17.365
561.12	17.414
561.45	17.731
561.79	17.007
562.13	17.371
562.47	17.964
562.81	16.946
563.15	17.592
563.48	17.374
563.82	17.808
564.16	17.201
564.50	17.122
564.84	17.573
565.17	17.375
565.51	17.764
565.85	17.322
566.19	16.531
566.52	16.783
566.86	16.757
567.20	17.158
567.54	16.667
567.88	16.784
568.21	16.402
568.55	15.976
568.89	16.488
569.23	15.285
569.56	15.142
569.90	15.358
570.24	14.747
570.57	14.553
570.91	14.253
571.25	14.237
571.59	14.580
571.92	13.998
572.26	14.414
572.60	14.264
572.93	14.333
573.27	14.848
573.61	14.098
573.95	14.057
574.28	13.467
574.62	13.800
574.96	13.692
575.29	13.749
575.63	13.491
575.97	13.564
576.30	13.914
576.64	13.697
576.98	13.855
577.31	13.933
577.65	13.398
577.98	13.530
578.32	13.384
578.66	13.208
578.99	13.467
579.33	13.241
579.67	13.306
580.00	13.570
580.34	13.194
580.67	13.779
581.01	13.560
581.35	13.663
581.68	13.669
582.02	13.294
582.35	13.327
582.69	12.886
583.02	13.141
583.36	13.466
583.70	13.736
584.03	13.767
584.37	14.308
584.70	13.636
585.04	13.919
585.37	13.933
585.71	14.051
586.04	13.892
586.38	13.689
586.72	14.278
587.05	13.882
587.39	13.404
587.72	13.811
588.06	13.874
588.39	13.745
588.73	13.904
589.06	14.428
589.40	14.444
589.73	14.748
590.07	14.555
590.40	13.884
590.73	15.027
591.07	15.018
591.40	14.888
591.74	15.455
592.07	15.663
592.41	15.420
592.74	14.757
593.08	14.257
593.41	14.046
593.75	13.835
594.08	14.046
594.41	14.422
594.75	14.270
595.08	14.674
595.42	14.956
595.75	13.996
596.09	14.307
596.42	15.167
596.75	15.281
597.09	15.325
597.42	14.924
597.75	14.791
598.09	15.348
598.42	14.905
598.76	14.795
599.09	14.405
599.42	14.156
599.76	14.531
600.09	14.353
600.42	14.427
600.76	14.357
601.09	14.098
601.42	14.269
601.76	14.649
602.09	14.901
602.42	15.486
602.76	15.155
603.09	14.673
603.42	14.565
603.76	14.748
604.09	14.230
604.42	14.391
604.76	15.268
605.09	14.941
605.42	14.408
605.75	14.694
606.09	14.315
606.42	15.039
606.75	14.226
607.09	14.860
607.42	15.062
607.75	14.430
608.08	15.154
608.42	15.016
608.75	15.059
609.08	15.079
609.41	15.469
609.75	15.341
610.08	15.598
610.41	14.944
610.74	14.948
611.07	15.761
611.41	15.456
611.74	15.988
612.07	15.580
612.40	15.477
612.73	16.000
613.07	15.733
613.40	15.482
613.73	14.997
614.06	15.108
614.39	15.627
614.72	15.737
615.06	15.389
615.39	15.021
615.72	15.644
616.05	15.098
616.38	15.953
616.71	15.914
617.05	16.078
617.38	15.935
617.71	15.495
618.04	16.526
618.37	16.203
618.70	16.801
619.03	16.579
619.36	17.108
619.69	16.972
620.03	17.170
620.36	16.711
620.69	17.945
621.02	17.035
621.35	16.601
621.68	17.134
622.01	16.718
622.34	17.625
622.67	16.578
623.00	17.095
623.33	17.012
623.66	17.370
623.99	16.789
624.32	16.120
624.65	17.020
624.99	16.431
625.32	16.655
625.65	16.153
625.98	18.063
626.31	18.351
626.64	17.714
626.97	18.537
627.30	17.041
627.63	18.294
627.96	17.830
628.29	17.673
628.62	18.207
628.95	18.396
629.28	17.974
629.61	18.790
629.94	18.286
630.26	17.636
630.59	19.256
630.92	19.157
631.25	17.769
631.58	19.119
631.91	18.966
632.24	18.987
632.57	19.307
632.90	19.627
633.23	18.456
633.56	20.226
633.89	18.913
634.22	20.545
634.55	21.065
634.88	19.162
635.20	20.908
635.53	21.325
635.86	21.906
636.19	21.059
636.52	19.493
636.85	19.817
637.18	20.276
637.51	19.267
637.83	19.605
638.16	20.972
638.49	19.773
638.82	19.975
639.15	21.375
639.48	19.576
639.81	19.437
640.13	21.615
640.46	19.597
640.79	20.872
641.12	20.083
641.45	20.251
641.77	21.797
642.10	21.930
642.43	20.721
642.76	20.898
643.09	22.853
643.41	19.575
643.74	22.840
644.07	22.104
644.40	22.699
644.73	22.992
645.05	24.089
645.38	20.695
645.71	21.578
646.04	23.920
646.36	23.706
646.69	23.746
647.02	23.639
647.35	23.711
647.67	24.956
648.00	23.252
648.33	22.442
648.66	22.121
648.98	22.789
649.31	19.133
649.64	21.375
649.96	22.504
650.29	20.379
650.62	19.903
650.94	22.366
651.27	22.804
651.60	23.461
651.92	24.441
652.25	20.521
652.58	21.651
652.90	23.539
653.23	18.798
653.56	21.102
653.88	23.138
654.21	22.749
654.54	20.792
654.86	22.741
655.19	20.811
655.52	13.867
655.84	11.928
656.17	14.223
656.49	19.219
656.82	19.046
657.15	14.349
657.47	10.548
657.80	8.135
658.13	8.504
658.45	12.994
658.78	12.695
659.10	13.716
659.43	14.704
659.75	15.677
660.08	18.101
660.41	20.019
660.73	22.236
661.06	22.134
661.38	26.182
661.71	21.538
662.03	25.049
662.36	22.863
662.68	22.892
663.01	23.434
663.33	22.293
663.66	24.160
663.98	23.542
664.31	22.059
664.63	24.291
664.96	22.535
665.28	24.180
665.61	24.951
665.93	22.133
666.26	25.355
666.58	21.757
666.91	26.216
667.23	26.292
667.56	24.622
667.88	23.932
668.21	23.667
668.53	22.560
668.86	25.974
669.18	26.013
669.50	22.609
669.83	27.887
670.15	27.778
670.48	23.965
670.80	27.371
671.13	25.690
671.45	22.553
671.77	24.644
672.10	23.845
672.42	21.731
672.75	19.569
673.07	19.894
673.39	19.530
673.72	24.609
674.04	23.922
674.37	25.631
674.69	22.086
675.01	21.130
675.34	23.819
675.66	24.632
675.98	23.625
676.31	27.311
676.63	26.539
676.95	24.528
677.28	24.299
677.60	23.736
677.92	24.051
678.25	24.025
678.57	23.904
678.89	22.244
679.22	23.576
679.54	22.137
679.86	24.220
680.18	23.077
680.51	20.745
680.83	22.242
681.15	22.830
681.48	25.142
681.80	23.211
682.12	23.563
682.44	21.857
682.77	23.218
683.09	25.751
683.41	22.616
683.73	23.841
684.06	26.446
684.38	21.135
684.70	24.419
685.02	24.203
685.34	22.344
685.67	20.629
685.99	21.993
686.31	20.648
686.63	18.905
686.96	20.179
687.28	24.729
687.60	23.370
687.92	21.389
688.24	21.103
688.56	22.691
688.89	23.651
689.21	25.328
689.53	22.965
689.85	24.169
690.17	20.704
690.49	24.628
690.82	25.935
691.14	22.321
691.46	21.519
691.78	23.695
692.10	24.587
692.42	22.954
692.74	22.199
693.06	23.404
693.39	24.435
693.71	23.144
694.03	23.158
694.35	22.511
694.67	22.654
694.99	27.317
695.31	22.549
695.63	25.598
695.95	25.917
696.27	24.112
696.59	22.798
696.91	27.202
697.23	22.535
697.56	25.586
697.88	20.245
698.20	22.708
698.52	23.226
698.84	24.722
699.16	23.272
699.48	23.278
699.80	24.638
700.12	29.610
700.44	26.260
700.76	25.414
701.08	23.563
701.40	26.257
701.72	28.863
702.04	30.682
702.36	25.779
702.68	26.062
703.00	26.316
703.32	22.872
703.64	25.469
703.96	26.741
704.28	27.616
704.60	26.686
704.91	30.564
705.23	28.152
705.55	27.575
705.87	27.243
706.19	24.382
706.51	27.726
706.83	29.394
707.15	28.291
707.47	24.242
707.79	22.359
708.11	25.342
708.43	23.333
708.74	20.663
709.06	25.714
709.38	26.247
709.70	26.744
710.02	26.409
710.34	25.758
710.66	29.254
710.98	27.841
711.29	28.198
711.61	25.369
711.93	25.641
712.25	31.190
712.57	33.088
712.89	30.104
713.20	28.875
713.52	27.632
713.84	27.848
714.16	26.829
714.48	27.299
714.80	30.699
715.11	23.343
715.43	23.739
715.75	22.319
716.07	30.671
716.39	28.527
716.70	28.904
717.02	29.496
717.34	28.269
717.66	35.448
717.97	32.271
718.29	28.148
718.61	31.387
718.93	27.574
719.24	27.336
719.56	26.102
719.88	26.780
720.20	28.041
720.51	28.920
720.83	27.138
721.15	26.493
721.46	28.369
721.78	31.183
722.10	24.528
722.42	31.579
722.73	32.959
723.05	31.557
723.37	29.150
723.68	33.205
724.00	28.862
724.32	31.048
724.63	28.862
724.95	31.799
725.27	35.223
725.58	28.516
725.90	33.942
726.22	29.811
726.53	29.167
726.85	31.058
727.16	32.384
727.48	26.596
727.80	28.030
728.11	30.435
728.43	27.692
728.74	26.165
729.06	29.927
729.38	30.515
729.69	28.826
730.01	26.280
730.32	27.083
730.64	29.097
730.96	26.073
731.27	28.808
731.59	31.498
731.90	26.239
732.22	24.845
732.53	27.245
732.85	25.321
733.16	26.688
733.48	29.236
733.80	26.299
734.11	26.433
734.43	27.811
734.74	25.714
735.06	22.350
735.37	25.723
735.69	22.293
736.00	30.392
736.32	25.857
736.63	27.476
736.95	28.435
737.26	23.810
737.58	26.129
737.89	22.074
738.21	30.375
738.52	27.857
738.83	26.792
739.15	26.923
739.46	31.387
739.78	29.861
740.09	28.308
740.41	27.742
740.72	25.087
741.04	29.259
741.35	27.083
741.66	34.667
741.98	31.132
742.29	38.278
742.61	35.776
742.92	34.389
743.23	32.479
743.55	30.800
743.86	29.386
744.18	32.743
744.49	31.100
744.80	37.089
745.12	37.273
745.43	29.075
745.74	36.486
746.06	34.862
746.37	30.045
746.68	34.389
747.00	32.870
747.31	36.190
747.62	29.646
747.94	31.718
748.25	28.511
748.56	33.921
748.88	33.168
749.19	38.000
749.50	30.698
749.82	30.894
750.13	26.122
750.44	28.832
750.75	28.772
751.07	33.119
751.38	28.571
751.69	25.993
752.01	30.451
752.32	28.881
752.63	29.078
752.94	23.361
753.26	32.000
753.57	24.797
753.88	32.422
754.19	25.714
754.51	30.556
754.82	27.437
755.13	29.811
755.44	27.444
755.75	24.088
756.07	26.950
756.38	25.547
756.69	25.839
757.00	28.144
757.31	25.816
757.63	22.515
757.94	22.252
758.25	24.020
758.56	21.481
758.87	26.344
759.18	27.273
759.50	27.273
759.81	26.168
760.12	25.312
760.43	24.928
760.74	25.272
761.05	25.706
761.36	21.390
761.67	25.000
761.99	27.950
762.30	27.778
762.61	27.863
762.92	30.078
763.23	28.992
763.54	32.400
763.85	26.562
764.16	28.462
764.47	36.502
764.78	27.562
765.10	21.835
765.41	26.549
765.72	24.251
766.03	28.527
766.34	28.667
766.65	30.638
766.96	26.923
767.27	34.010
767.58	31.771
767.89	36.842
768.20	37.356
768.51	34.518
768.82	35.321
769.13	28.049
769.44	27.530
769.75	33.047
770.06	27.982
770.37	36.199
770.68	27.778
770.99	29.333
771.30	23.361
771.61	29.596
771.92	30.738
772.23	35.294
772.54	33.333
772.85	32.461
773.16	37.766
773.47	38.587
773.78	39.086
774.09	38.690
774.39	30.409
774.70	33.951
775.01	49.275
775.32	44.444
775.63	42.105
775.94	37.410
776.25	51.181
776.56	46.269
776.87	38.525
777.18	45.313
777.48	45.038
777.79	45.455
778.10	41.481
778.41	50.000
778.72	37.956
779.03	41.611
779.34	45.638
779.65	31.757
779.95	41.718
780.26	43.791
780.57	38.621
780.88	52.344
781.19	36.842
781.50	47.297
781.80	45.283
782.11	40.678
782.42	37.342
782.73	35.583
783.04	40.541
783.34	46.479
783.65	53.425
783.96	45.522
784.27	38.462
784.57	38.129
784.88	41.667
785.19	50.794
785.50	39.623
785.81	50.746
786.11	45.902
786.42	41.860
786.73	46.903
787.04	49.057
787.34	48.214
787.65	54.000
787.96	43.243
788.26	42.975
788.57	59.322
788.88	55.372
789.19	47.222
789.49	51.515
789.80	46.565
790.11	59.048
790.41	54.455
790.72	55.422
791.03	52.174
791.33	58.140
791.64	46.392
791.95	61.386
792.25	67.778
792.56	63.636
792.87	78.205
793.17	75.949
793.48	71.264
793.79	59.770
794.09	72.727
794.40	49.580
794.70	45.588
795.01	29.630
795.32	38.129
795.62	38.583
795.93	39.655
796.23	50.442
796.54	44.706
796.85	68.919
797.15	73.239
797.46	65.152
797.76	65.060
798.07	60.759
798.37	67.692
798.68	66.667
798.99	56.338
799.29	70.130
799.60	48.864
799.90	71.233
800.21	77.612
800.51	75.862
800.82	71.930
801.12	70.492
801.43	93.939
801.73	62.162
802.04	82.540
802.34	76.543
802.65	76.563
802.95	89.831
803.26	95.312
803.56	57.143
803.87	60.000
804.17	61.765
804.48	101.852
804.78	67.241
805.09	64.706
805.39	69.231
805.70	82.143
806.00	78.689
806.30	68.182
806.61	73.171
806.91	54.430
807.22	63.158
807.52	64.179
807.83	77.465
808.13	68.750
808.43	81.667
808.74	56.579
809.04	78.261
809.35	79.104
809.65	64.474
809.95	100.000
810.26	76.271
810.56	77.778
810.86	90.909
811.17	133.333
811.47	91.667
811.77	83.333
812.08	80.000
812.38	90.000
812.69	136.111
812.99	118.182
813.29	102.041
813.59	64.286
813.90	95.918
814.20	78.182
814.50	75.385
814.81	80.882
815.11	106.122
815.41	93.443
815.72	114.286
816.02	90.909
816.32	90.476
816.62	105.000
816.93	97.561
817.23	128.571
817.53	97.727
817.84	112.121
818.14	110.870
818.44	95.556
818.74	161.765
819.04	112.500
819.35	131.429
819.65	141.176
819.95	139.286
820.25	190.000
820.56	125.641
820.86	115.909
821.16	120.930
821.46	100.000
821.76	122.000
822.07	111.429
822.37	137.500
822.67	121.212
822.97	111.765
823.27	128.571
823.57	151.351
823.88	150.000
824.18	163.333
824.48	142.857
824.78	156.000
825.08	112.500
825.38	113.514
825.69	109.756
825.99	166.667
826.29	117.241
826.59	92.105
826.89	123.684
827.19	138.235
827.49	148.387
827.79	134.091
828.09	97.727
828.39	89.362
828.70	134.694
829.00	137.037
829.30	116.129
829.60	125.000
829.90	240.000
830.20	153.571
830.50	147.826
830.80	182.609
831.10	166.667
831.40	156.667
831.70	147.826
832.00	219.231
832.30	140.741
832.60	225.000
832.90	196.667
833.20	357.143
833.50	161.290
833.80	131.034
834.10	153.125
834.40	180.769
834.70	261.111
835.00	257.143
835.30	142.857
835.60	276.923
835.90	165.517
836.20	264.286
836.50	162.069
836.80	180.000
837.10	144.444
837.40	219.048
837.70	247.059
838.00	162.963
838.30	147.619
838.60	266.667
838.90	215.385
839.19	195.000
839.49	328.571
839.79	245.000
840.09	190.000
840.39	209.524
840.69	208.696
840.99	211.111
841.29	280.000
841.59	200.000
841.88	300.000
842.18	155.172
842.48	228.571
842.78	160.000
843.08	156.522
843.38	115.625
843.68	766.667
843.97	161.538
844.27	134.483
844.57	228.571
844.87	312.500
845.17	151.852
845.47	933.333
845.76	233.333
846.06	211.765
846.36	425.000
846.66	300.000
846.96	312.500
847.25	318.182
847.55	245.455
847.85	226.087
848.15	280.000
848.44	300.000
848.74	216.667
849.04	258.824
849.34	370.000
849.63	221.053
849.93	318.182
850.23	700.000
850.53	350.000
850.82	2150.000
851.12	-2800.000
851.42	3100.000
851.71	225.000
852.01	-733.333
852.31	187.500
852.61	1266.667
852.90	200.000
853.20	204.000
853.50	252.941
853.79	214.286
854.09	141.667
854.39	256.250
854.68	159.459
854.98	161.290
855.28	190.000
855.57	175.862
855.87	159.259
856.17	163.158
856.46	220.000
856.76	170.588
857.05	165.517
857.35	179.167
857.65	186.667
857.94	178.261
858.24	203.846
858.53	225.000
858.83	222.727
859.13	253.333
859.42	0.000
859.72	444.444
860.01	400.000
860.31	186.364
860.60	168.421
860.90	147.826
861.20	388.889
861.49	391.667
861.79	-3500.000
862.08	475.000
862.38	223.810
862.67	307.692
862.97	294.118
863.26	455.556
863.56	155.556
863.85	383.333
864.15	362.500
864.44	293.333
864.74	650.000
865.03	462.500
865.33	252.632
865.62	363.636
865.92	323.077
866.21	241.667
866.51	0.000
866.80	363.636
867.10	920.000
867.39	315.385
867.69	281.818
867.98	257.895
868.27	327.273
868.57	221.053
868.86	-4100.000
869.16	337.500
869.45	1400.000
869.75	-3100.000
870.04	250.000
870.33	528.571
870.63	850.000
870.92	1900.000
871.22	614.286
871.51	229.412
871.80	138.095
872.10	200.000
>>>>>End Processed Spectral Data<<<<<
