SpectraSuite Data File
++++++++++++++++++++++++++++++++++++
Date: Wed May 13 16:10:17 PDT 2015
User: schluterlab
Dark Spectrum Present: Yes
Reference Spectrum Present: Yes
Number of Sampled Component Spectra: 1
Spectrometers: USB2E3373
Integration Time (usec): 3000 (USB2E3373)
Spectra Averaged: 3 (USB2E3373)
Boxcar Smoothing: 0 (USB2E3373)
Correct for Electrical Dark: No (USB2E3373)
Strobe/Lamp Enabled: No (USB2E3373)
Correct for Detector Non-linearity: No (USB2E3373)
Correct for Stray Light: No (USB2E3373)
Number of Pixels in Processed Spectrum: 2048
>>>>>Begin Processed Spectral Data<<<<<
178.53	0.000
178.91	-1000.000
179.29	-825.000
179.67	-155.556
180.04	-1000.000
180.42	1750.000
180.80	780.000
181.18	-850.000
181.56	457.143
181.94	0.000
182.31	-542.857
182.69	1200.000
183.07	-375.000
183.45	-322.222
183.83	409.091
184.20	-270.000
184.58	1700.000
184.96	3600.000
185.34	-760.000
185.72	-437.500
186.09	-1950.000
186.47	1800.000
186.85	2150.000
187.23	3000.000
187.61	-1300.000
187.98	925.000
188.36	418.182
188.74	445.455
189.12	-600.000
189.49	450.000
189.87	-3100.000
190.25	-700.000
190.63	307.143
191.00	353.846
191.38	600.000
191.76	-700.000
192.14	1150.000
192.51	337.500
192.89	700.000
193.27	450.000
193.65	-900.000
194.02	440.000
194.40	560.000
194.78	290.000
195.15	425.000
195.53	500.000
195.91	-1350.000
196.29	237.500
196.66	236.842
197.04	-240.000
197.42	0.000
197.79	640.000
198.17	-4500.000
198.55	571.429
198.92	537.500
199.30	540.000
199.68	0.000
200.05	227.778
200.43	514.286
200.81	3200.000
201.18	1500.000
201.56	-1100.000
201.94	444.444
202.31	566.667
202.69	316.667
203.07	440.000
203.44	0.000
203.82	1000.000
204.19	528.571
204.57	328.571
204.95	625.000
205.32	1466.667
205.70	381.818
206.08	257.143
206.45	2000.000
206.83	300.000
207.20	683.333
207.58	480.000
207.96	233.333
208.33	500.000
208.71	-666.667
209.08	571.429
209.46	344.444
209.84	372.727
210.21	-1466.667
210.59	1000.000
210.96	-275.000
211.34	1950.000
211.71	500.000
212.09	666.667
212.46	0.000
212.84	1400.000
213.22	1150.000
213.59	-3900.000
213.97	616.667
214.34	700.000
214.72	445.455
215.09	620.000
215.47	-1550.000
215.84	-1850.000
216.22	1333.333
216.59	271.429
216.97	875.000
217.34	290.909
217.72	-583.333
218.09	0.000
218.47	-3600.000
218.84	533.333
219.22	514.286
219.59	1133.333
219.97	-385.714
220.34	680.000
220.72	-1200.000
221.09	328.571
221.47	1350.000
221.84	-750.000
222.22	0.000
222.59	975.000
222.97	-1650.000
223.34	740.000
223.72	284.615
224.09	680.000
224.46	1900.000
224.84	-4100.000
225.21	-800.000
225.59	-2900.000
225.96	520.000
226.34	210.000
226.71	2350.000
227.08	325.000
227.46	480.000
227.83	-600.000
228.21	-1850.000
228.58	500.000
228.95	-1800.000
229.33	-1650.000
229.70	1533.333
230.08	657.143
230.45	-660.000
230.82	358.333
231.20	616.667
231.57	357.143
231.95	366.667
232.32	213.636
232.69	290.909
233.07	614.286
233.44	292.308
233.81	-1333.333
234.19	215.789
234.56	358.333
234.93	316.667
235.31	272.727
235.68	269.231
236.05	300.000
236.43	148.485
236.80	142.105
237.17	3600.000
237.55	209.524
237.92	185.714
238.29	171.429
238.67	138.710
239.04	151.724
239.41	122.222
239.79	110.870
240.16	114.286
240.53	131.818
240.91	92.157
241.28	100.000
241.65	88.000
242.02	91.304
242.40	75.806
242.77	86.667
243.14	82.796
243.51	85.393
243.89	69.412
244.26	77.778
244.63	65.591
245.00	71.277
245.38	66.337
245.75	58.879
246.12	61.468
246.49	67.883
246.87	63.200
247.24	66.154
247.61	57.857
247.98	52.941
248.36	52.703
248.73	54.140
249.10	54.140
249.47	61.017
249.84	54.545
250.22	55.615
250.59	51.479
250.96	57.576
251.33	57.346
251.70	55.446
252.08	51.429
252.45	44.395
252.82	50.435
253.19	55.745
253.56	50.196
253.94	49.378
254.31	49.609
254.68	51.923
255.05	49.815
255.42	45.122
255.79	48.897
256.16	47.653
256.54	42.049
256.91	44.840
257.28	44.245
257.65	44.884
258.02	44.099
258.39	45.426
258.76	42.140
259.14	48.512
259.51	41.641
259.88	42.857
260.25	45.619
260.62	43.931
260.99	43.789
261.36	45.345
261.73	40.974
262.10	44.767
262.47	47.606
262.85	43.454
263.22	40.171
263.59	45.584
263.96	43.407
264.33	37.859
264.70	40.263
265.07	42.711
265.44	42.424
265.81	37.713
266.18	41.960
266.55	40.732
266.92	42.506
267.29	43.750
267.66	38.991
268.03	42.500
268.40	40.888
268.77	37.470
269.14	40.315
269.51	40.181
269.88	41.725
270.25	40.406
270.62	40.899
270.99	43.011
271.36	39.056
271.73	41.822
272.10	40.217
272.47	42.796
272.84	40.476
273.21	40.252
273.58	36.900
273.95	37.736
274.32	39.876
274.69	40.471
275.06	38.386
275.43	39.362
275.80	39.078
276.17	41.344
276.54	38.877
276.91	40.316
277.28	39.258
277.65	39.072
278.02	38.509
278.39	39.062
278.76	38.182
279.13	39.057
279.50	40.037
279.87	39.641
280.23	38.723
280.60	37.331
280.97	37.523
281.34	36.283
281.71	38.182
282.08	39.731
282.45	34.727
282.82	39.076
283.19	35.116
283.56	35.614
283.92	38.748
284.29	35.979
284.66	36.479
285.03	35.443
285.40	35.563
285.77	37.374
286.14	35.579
286.51	35.667
286.87	34.359
287.24	35.668
287.61	35.313
287.98	35.714
288.35	34.707
288.72	33.333
289.08	32.238
289.45	33.278
289.82	31.382
290.19	31.240
290.56	32.925
290.93	31.873
291.29	31.902
291.66	32.301
292.03	33.866
292.40	34.802
292.77	31.213
293.13	32.687
293.50	31.487
293.87	31.407
294.24	30.222
294.60	29.258
294.97	30.814
295.34	32.158
295.71	29.403
296.08	29.202
296.44	30.261
296.81	28.402
297.18	31.707
297.55	29.024
297.91	28.892
298.28	29.317
298.65	28.851
299.02	27.800
299.38	28.154
299.75	26.550
300.12	28.097
300.48	26.125
300.85	28.853
301.22	26.752
301.59	28.030
301.95	28.212
302.32	26.187
302.69	28.315
303.05	28.242
303.42	25.432
303.79	27.067
304.15	25.408
304.52	27.115
304.89	26.597
305.25	26.798
305.62	28.199
305.99	27.273
306.35	26.846
306.72	26.233
307.09	26.415
307.45	26.802
307.82	26.228
308.19	27.594
308.55	27.184
308.92	26.745
309.29	26.716
309.65	25.769
310.02	26.638
310.38	26.667
310.75	27.138
311.12	26.612
311.48	24.869
311.85	28.302
312.22	26.951
312.58	25.468
312.95	27.455
313.31	26.019
313.68	26.195
314.05	28.107
314.41	26.734
314.78	27.291
315.14	26.415
315.51	27.188
315.87	27.228
316.24	26.316
316.61	26.218
316.97	26.517
317.34	27.202
317.70	28.585
318.07	27.238
318.43	28.767
318.80	28.116
319.16	27.684
319.53	27.955
319.89	29.429
320.26	29.700
320.62	28.373
320.99	28.990
321.35	30.000
321.72	28.850
322.08	30.109
322.45	30.547
322.81	29.845
323.18	29.961
323.54	30.148
323.91	30.472
324.27	29.637
324.64	28.984
325.00	29.306
325.37	31.301
325.73	30.610
326.10	30.274
326.46	29.391
326.83	30.716
327.19	29.974
327.56	31.707
327.92	30.884
328.29	31.411
328.65	33.057
329.01	31.047
329.38	32.470
329.74	29.732
330.11	30.349
330.47	31.497
330.84	31.710
331.20	30.965
331.56	32.385
331.93	31.296
332.29	30.524
332.66	31.150
333.02	31.170
333.38	31.617
333.75	31.373
334.11	31.584
334.48	31.411
334.84	30.882
335.20	30.909
335.57	31.006
335.93	29.375
336.29	30.311
336.66	30.568
337.02	29.140
337.38	31.204
337.75	30.481
338.11	29.812
338.47	31.031
338.84	31.256
339.20	30.183
339.56	31.661
339.93	30.364
340.29	30.707
340.65	30.749
341.02	31.326
341.38	30.872
341.74	30.877
342.11	31.004
342.47	30.220
342.83	30.651
343.20	31.082
343.56	30.581
343.92	29.386
344.28	29.677
344.65	30.267
345.01	29.209
345.37	29.503
345.73	30.711
346.10	30.009
346.46	29.831
346.82	30.725
347.19	29.741
347.55	29.885
347.91	30.502
348.27	29.910
348.63	30.686
349.00	29.288
349.36	30.460
349.72	30.152
350.08	28.606
350.45	30.106
350.81	28.920
351.17	29.741
351.53	28.993
351.89	28.713
352.26	30.150
352.62	31.275
352.98	29.498
353.34	29.910
353.70	29.787
354.07	31.048
354.43	28.413
354.79	28.479
355.15	29.848
355.51	30.056
355.87	30.367
356.24	29.479
356.60	29.030
356.96	29.284
357.32	29.191
357.68	29.843
358.04	29.375
358.40	30.325
358.77	30.282
359.13	28.493
359.49	30.039
359.85	28.333
360.21	29.665
360.57	30.117
360.93	30.231
361.29	29.630
361.66	28.251
362.02	30.373
362.38	30.190
362.74	28.199
363.10	29.238
363.46	29.861
363.82	28.874
364.18	29.956
364.54	30.609
364.90	29.887
365.26	30.000
365.62	30.022
365.98	29.511
366.35	29.011
366.71	29.718
367.07	30.080
367.43	30.552
367.79	31.335
368.15	31.825
368.51	28.634
368.87	30.264
369.23	29.700
369.59	31.064
369.95	29.779
370.31	31.125
370.67	30.290
371.03	31.086
371.39	31.633
371.75	29.926
372.11	30.156
372.47	31.378
372.83	32.421
373.19	31.069
373.55	31.559
373.91	31.443
374.27	30.997
374.63	31.782
374.99	31.992
375.35	31.263
375.71	30.500
376.07	31.893
376.42	31.706
376.78	31.412
377.14	30.936
377.50	32.053
377.86	30.984
378.22	32.807
378.58	30.702
378.94	32.432
379.30	31.552
379.66	32.043
380.02	32.002
380.38	32.058
380.74	33.133
381.09	32.885
381.45	33.682
381.81	33.108
382.17	33.503
382.53	33.082
382.89	33.951
383.25	33.583
383.61	34.572
383.97	33.021
384.32	33.313
384.68	33.829
385.04	33.313
385.40	33.622
385.76	34.398
386.12	35.687
386.48	35.116
386.83	36.049
387.19	35.931
387.55	35.622
387.91	34.099
388.27	34.825
388.62	34.726
388.98	35.442
389.34	36.045
389.70	35.071
390.06	37.136
390.42	35.279
390.77	34.796
391.13	35.929
391.49	35.977
391.85	35.455
392.20	35.899
392.56	36.301
392.92	35.727
393.28	35.621
393.64	36.691
393.99	35.736
394.35	35.732
394.71	36.198
395.07	35.639
395.42	37.145
395.78	37.023
396.14	37.616
396.50	37.155
396.85	37.190
397.21	35.758
397.57	36.330
397.92	36.779
398.28	35.706
398.64	38.053
399.00	36.933
399.35	37.451
399.71	37.616
400.07	36.014
400.42	38.098
400.78	36.188
401.14	38.415
401.49	37.254
401.85	37.084
402.21	36.467
402.57	37.631
402.92	37.768
403.28	37.477
403.63	37.067
403.99	37.325
404.35	36.606
404.70	38.129
405.06	37.333
405.42	38.054
405.77	37.200
406.13	37.415
406.49	38.439
406.84	37.448
407.20	37.234
407.55	38.226
407.91	38.600
408.27	37.843
408.62	36.424
408.98	37.316
409.34	37.946
409.69	38.323
410.05	38.352
410.40	37.737
410.76	37.754
411.11	37.817
411.47	37.444
411.83	37.874
412.18	36.797
412.54	38.667
412.89	38.012
413.25	37.190
413.60	38.481
413.96	37.523
414.31	37.789
414.67	37.833
415.03	37.351
415.38	37.951
415.74	37.749
416.09	39.582
416.45	37.483
416.80	38.268
417.16	38.606
417.51	38.885
417.87	36.994
418.22	38.170
418.58	36.862
418.93	38.206
419.29	38.701
419.64	38.224
420.00	39.085
420.35	38.435
420.71	38.972
421.06	37.172
421.42	38.947
421.77	37.892
422.12	37.956
422.48	37.129
422.83	39.196
423.19	38.177
423.54	37.086
423.90	38.435
424.25	38.414
424.61	38.274
424.96	38.950
425.31	37.597
425.67	37.640
426.02	38.057
426.38	38.400
426.73	37.624
427.09	37.629
427.44	37.953
427.79	38.240
428.15	38.929
428.50	37.741
428.85	38.260
429.21	38.321
429.56	38.051
429.92	37.645
430.27	38.034
430.62	37.942
430.98	38.142
431.33	37.835
431.68	39.005
432.04	37.327
432.39	38.664
432.74	39.557
433.10	38.314
433.45	39.184
433.80	38.470
434.16	38.942
434.51	37.474
434.86	37.685
435.22	38.633
435.57	40.000
435.92	37.390
436.28	38.731
436.63	38.521
436.98	37.951
437.34	39.714
437.69	39.090
438.04	38.617
438.39	38.627
438.75	39.047
439.10	39.330
439.45	37.898
439.81	38.671
440.16	38.171
440.51	38.957
440.86	39.433
441.22	38.209
441.57	38.057
441.92	40.072
442.27	39.074
442.63	38.020
442.98	38.986
443.33	38.696
443.68	38.668
444.03	39.824
444.39	38.900
444.74	39.286
445.09	38.760
445.44	38.491
445.79	39.287
446.15	38.698
446.50	38.826
446.85	38.643
447.20	38.501
447.55	39.475
447.91	38.996
448.26	38.620
448.61	39.288
448.96	39.424
449.31	39.426
449.66	39.280
450.02	39.666
450.37	39.512
450.72	39.199
451.07	38.391
451.42	38.967
451.77	39.871
452.12	38.222
452.47	39.366
452.83	39.918
453.18	38.386
453.53	40.012
453.88	39.811
454.23	38.912
454.58	40.036
454.93	40.305
455.28	39.090
455.63	40.049
455.98	39.940
456.34	38.693
456.69	39.887
457.04	40.372
457.39	39.568
457.74	39.350
458.09	38.528
458.44	39.225
458.79	39.208
459.14	39.221
459.49	39.463
459.84	39.169
460.19	39.246
460.54	37.847
460.89	38.782
461.24	38.919
461.59	39.105
461.94	38.224
462.29	39.228
462.64	39.119
462.99	39.167
463.34	39.867
463.69	39.275
464.04	39.594
464.39	38.783
464.74	39.156
465.09	37.817
465.44	38.726
465.79	39.206
466.14	39.190
466.49	38.543
466.84	39.113
467.19	39.891
467.54	39.562
467.89	38.115
468.24	39.558
468.59	39.011
468.94	37.691
469.29	39.910
469.64	39.826
469.99	39.039
470.34	39.234
470.68	39.152
471.03	39.184
471.38	39.819
471.73	39.574
472.08	40.461
472.43	39.761
472.78	39.434
473.13	39.024
473.48	38.639
473.83	39.573
474.17	39.888
474.52	39.516
474.87	39.288
475.22	39.872
475.57	37.775
475.92	38.715
476.27	38.895
476.61	39.823
476.96	37.878
477.31	38.305
477.66	38.895
478.01	38.369
478.36	39.556
478.70	37.850
479.05	39.137
479.40	39.150
479.75	38.129
480.10	37.873
480.45	37.934
480.79	38.270
481.14	38.454
481.49	38.253
481.84	37.677
482.19	39.119
482.53	38.349
482.88	37.645
483.23	38.505
483.58	37.398
483.92	38.894
484.27	37.734
484.62	37.672
484.97	38.865
485.31	38.596
485.66	37.783
486.01	36.625
486.36	34.853
486.70	34.151
487.05	35.295
487.40	35.444
487.75	35.186
488.09	36.609
488.44	36.458
488.79	37.866
489.13	37.204
489.48	38.173
489.83	37.808
490.17	38.536
490.52	37.644
490.87	37.449
491.22	37.608
491.56	36.674
491.91	37.413
492.26	36.932
492.60	38.756
492.95	37.465
493.30	37.430
493.64	37.517
493.99	37.047
494.34	38.575
494.68	37.408
495.03	38.393
495.37	37.413
495.72	38.207
496.07	38.097
496.41	37.434
496.76	37.203
497.11	37.686
497.45	37.122
497.80	38.628
498.14	37.150
498.49	37.073
498.84	38.399
499.18	37.048
499.53	37.892
499.87	37.465
500.22	38.059
500.56	39.175
500.91	37.596
501.26	37.980
501.60	39.250
501.95	36.755
502.29	37.769
502.64	37.663
502.98	37.307
503.33	36.654
503.67	37.912
504.02	37.325
504.36	37.623
504.71	37.909
505.06	37.157
505.40	37.239
505.75	36.500
506.09	38.678
506.44	37.691
506.78	37.847
507.13	38.112
507.47	37.525
507.82	38.298
508.16	37.943
508.51	38.356
508.85	37.140
509.19	37.449
509.54	37.704
509.88	37.094
510.23	38.098
510.57	38.958
510.92	38.581
511.26	38.129
511.61	38.589
511.95	36.639
512.30	37.752
512.64	38.528
512.98	37.728
513.33	38.651
513.67	37.994
514.02	37.284
514.36	37.794
514.70	38.683
515.05	38.483
515.39	38.587
515.74	38.457
516.08	39.072
516.42	39.512
516.77	39.019
517.11	38.457
517.46	38.600
517.80	38.850
518.14	37.811
518.49	39.440
518.83	39.205
519.17	38.568
519.52	38.314
519.86	38.905
520.20	37.977
520.55	39.677
520.89	39.781
521.23	38.601
521.58	39.016
521.92	38.518
522.26	38.560
522.61	39.502
522.95	38.674
523.29	38.710
523.64	39.085
523.98	39.248
524.32	38.299
524.66	37.703
525.01	38.787
525.35	39.343
525.69	38.116
526.04	38.255
526.38	38.865
526.72	37.362
527.06	38.732
527.41	37.067
527.75	41.093
528.09	39.178
528.43	39.133
528.78	38.967
529.12	38.061
529.46	37.906
529.80	38.676
530.15	38.816
530.49	37.723
530.83	38.987
531.17	38.903
531.51	39.948
531.86	38.774
532.20	38.983
532.54	38.117
532.88	39.089
533.22	37.851
533.57	37.593
533.91	37.146
534.25	38.882
534.59	38.255
534.93	38.608
535.27	36.814
535.62	38.767
535.96	38.104
536.30	37.762
536.64	37.669
536.98	37.558
537.32	37.393
537.66	38.333
538.01	37.788
538.35	37.621
538.69	38.226
539.03	37.752
539.37	37.380
539.71	36.552
540.05	38.693
540.39	38.073
540.73	36.869
541.07	38.936
541.42	38.748
541.76	38.839
542.10	37.063
542.44	39.205
542.78	38.669
543.12	37.364
543.46	38.295
543.80	37.736
544.14	36.264
544.48	38.159
544.82	37.716
545.16	38.061
545.50	36.889
545.84	38.508
546.18	37.374
546.52	37.164
546.86	38.488
547.20	38.705
547.54	37.275
547.88	37.883
548.22	36.924
548.56	37.547
548.90	37.004
549.24	37.037
549.58	37.381
549.92	36.882
550.26	38.210
550.60	37.552
550.94	37.606
551.28	37.893
551.62	37.958
551.96	37.754
552.30	37.679
552.64	38.675
552.98	38.034
553.32	38.638
553.66	37.832
554.00	38.298
554.34	36.922
554.68	37.840
555.02	37.024
555.36	38.761
555.69	37.754
556.03	37.214
556.37	38.131
556.71	36.085
557.05	38.095
557.39	37.649
557.73	37.756
558.07	37.418
558.41	37.120
558.75	37.840
559.08	38.404
559.42	37.868
559.76	37.868
560.10	37.830
560.44	37.107
560.78	36.394
561.12	37.731
561.45	36.897
561.79	36.915
562.13	37.156
562.47	36.339
562.81	37.029
563.15	36.120
563.48	36.870
563.82	37.247
564.16	36.691
564.50	36.393
564.84	36.726
565.17	35.714
565.51	37.125
565.85	36.739
566.19	35.441
566.52	36.289
566.86	35.624
567.20	37.028
567.54	36.701
567.88	35.307
568.21	37.090
568.55	35.238
568.89	35.603
569.23	34.447
569.56	34.656
569.90	34.189
570.24	33.764
570.57	33.696
570.91	33.807
571.25	33.045
571.59	33.373
571.92	33.151
572.26	32.842
572.60	33.213
572.93	32.954
573.27	33.274
573.61	33.277
573.95	32.584
574.28	32.864
574.62	32.264
574.96	31.995
575.29	32.468
575.63	32.470
575.97	32.153
576.30	33.006
576.64	32.651
576.98	32.353
577.31	32.278
577.65	32.769
577.98	32.067
578.32	31.712
578.66	31.698
578.99	32.207
579.33	31.542
579.67	31.963
580.00	32.175
580.34	32.985
580.67	32.238
581.01	32.809
581.35	32.256
581.68	32.025
582.02	31.642
582.35	31.537
582.69	31.798
583.02	31.722
583.36	31.911
583.70	32.642
584.03	31.818
584.37	33.017
584.70	32.654
585.04	32.265
585.37	32.269
585.71	31.955
586.04	31.988
586.38	32.393
586.72	32.256
587.05	32.165
587.39	31.504
587.72	32.311
588.06	32.177
588.39	32.071
588.73	32.502
589.06	32.565
589.40	32.593
589.73	33.193
590.07	33.096
590.40	32.115
590.73	33.411
591.07	34.025
591.40	34.416
591.74	35.195
592.07	34.162
592.41	33.774
592.74	32.547
593.08	33.178
593.41	32.585
593.75	32.011
594.08	32.518
594.41	32.662
594.75	33.013
595.08	32.892
595.42	33.765
595.75	33.048
596.09	32.707
596.42	33.988
596.75	33.010
597.09	34.156
597.42	33.347
597.75	33.549
598.09	33.174
598.42	32.775
598.76	32.793
599.09	32.231
599.42	31.514
599.76	32.796
600.09	31.730
600.42	32.213
600.76	31.821
601.09	32.532
601.42	32.230
601.76	32.486
602.09	32.134
602.42	33.041
602.76	33.333
603.09	32.966
603.42	33.346
603.76	31.898
604.09	32.183
604.42	32.409
604.76	33.151
605.09	33.028
605.42	31.979
605.75	32.326
606.09	32.656
606.42	33.102
606.75	32.974
607.09	32.566
607.42	33.333
607.75	32.405
608.08	32.914
608.42	33.079
608.75	32.507
609.08	32.655
609.41	32.794
609.75	33.444
610.08	32.988
610.41	32.123
610.74	33.775
611.07	33.844
611.41	33.170
611.74	33.585
612.07	33.126
612.40	33.788
612.73	34.158
613.07	34.806
613.40	32.491
613.73	32.826
614.06	33.817
614.39	32.774
614.72	32.842
615.06	33.351
615.39	33.546
615.72	32.566
616.05	32.111
616.38	32.407
616.71	34.323
617.05	34.158
617.38	33.494
617.71	33.333
618.04	33.894
618.37	33.353
618.70	33.541
619.03	34.803
619.36	34.352
619.69	34.296
620.03	35.440
620.36	35.294
620.69	35.753
621.02	35.029
621.35	34.612
621.68	34.190
622.01	34.985
622.34	34.644
622.67	34.525
623.00	35.730
623.33	33.238
623.66	35.239
623.99	35.052
624.32	33.666
624.65	34.534
624.99	34.278
625.32	33.454
625.65	34.786
625.98	35.434
626.31	36.314
626.64	35.184
626.97	35.411
627.30	35.079
627.63	34.619
627.96	35.156
628.29	36.045
628.62	35.682
628.95	36.038
629.28	36.131
629.61	36.389
629.94	36.857
630.26	37.369
630.59	35.462
630.92	35.920
631.25	36.229
631.58	35.936
631.91	35.903
632.24	35.865
632.57	36.201
632.90	35.855
633.23	36.801
633.56	37.853
633.89	37.826
634.22	37.798
634.55	38.580
634.88	37.006
635.20	38.112
635.53	38.072
635.86	38.243
636.19	36.706
636.52	38.408
636.85	35.853
637.18	36.751
637.51	38.180
637.83	34.525
638.16	37.212
638.49	36.902
638.82	38.685
639.15	35.500
639.48	37.781
639.81	39.008
640.13	40.625
640.46	39.329
640.79	38.177
641.12	35.763
641.45	38.268
641.77	37.997
642.10	39.620
642.43	36.637
642.76	38.390
643.09	39.724
643.41	38.392
643.74	39.815
644.07	37.348
644.40	40.184
644.73	38.583
645.05	40.729
645.38	38.705
645.71	39.130
646.04	42.027
646.36	39.232
646.69	40.301
647.02	38.776
647.35	41.753
647.67	40.354
648.00	39.350
648.33	40.264
648.66	37.121
648.98	36.732
649.31	36.771
649.64	37.519
649.96	38.003
650.29	39.179
650.62	38.188
650.94	37.115
651.27	39.020
651.60	39.601
651.92	37.859
652.25	39.577
652.58	38.629
652.90	37.915
653.23	35.285
653.56	37.323
653.88	38.986
654.21	39.810
654.54	38.614
654.86	38.162
655.19	37.703
655.52	29.229
655.84	27.518
656.17	34.780
656.49	45.770
656.82	45.340
657.15	33.591
657.47	24.898
657.80	18.984
658.13	19.649
658.45	29.445
658.78	29.168
659.10	30.312
659.43	32.063
659.75	32.693
660.08	34.241
660.41	38.547
660.73	38.628
661.06	39.172
661.38	40.545
661.71	39.808
662.03	42.209
662.36	40.358
662.68	40.562
663.01	40.404
663.33	38.641
663.66	38.445
663.98	40.389
664.31	40.546
664.63	38.259
664.96	38.028
665.28	42.623
665.61	38.012
665.93	37.827
666.26	37.728
666.58	39.958
666.91	42.072
667.23	43.596
667.56	39.525
667.88	39.103
668.21	41.791
668.53	40.347
668.86	40.476
669.18	42.217
669.50	42.391
669.83	42.484
670.15	38.000
670.48	41.830
670.80	42.241
671.13	41.826
671.45	39.787
671.77	41.548
672.10	39.741
672.42	39.576
672.75	35.323
673.07	38.204
673.39	40.868
673.72	37.695
674.04	39.020
674.37	37.670
674.69	39.264
675.01	38.494
675.34	44.559
675.66	42.105
675.98	42.974
676.31	39.706
676.63	40.764
676.95	42.558
677.28	41.355
677.60	41.099
677.92	44.726
678.25	38.193
678.57	38.048
678.89	40.681
679.22	37.721
679.54	38.359
679.86	38.165
680.18	35.957
680.51	38.830
680.83	38.434
681.15	39.623
681.48	38.563
681.80	38.104
682.12	36.973
682.44	37.524
682.77	41.141
683.09	43.133
683.41	42.350
683.73	43.267
684.06	40.289
684.38	36.595
684.70	38.566
685.02	40.713
685.34	37.546
685.67	37.937
685.99	36.426
686.31	37.713
686.63	34.982
686.96	36.429
687.28	38.448
687.60	37.500
687.92	38.574
688.24	38.213
688.56	37.751
688.89	42.946
689.21	44.323
689.53	38.205
689.85	37.472
690.17	37.060
690.49	38.854
690.82	42.991
691.14	40.625
691.46	39.241
691.78	37.952
692.10	39.050
692.42	37.126
692.74	38.797
693.06	38.511
693.39	38.809
693.71	38.865
694.03	38.526
694.35	39.610
694.67	36.156
694.99	42.195
695.31	39.461
695.63	37.560
695.95	39.120
696.27	39.848
696.59	40.415
696.91	41.710
697.23	38.028
697.56	40.299
697.88	36.401
698.20	38.958
698.52	37.849
698.84	39.644
699.16	37.327
699.48	38.717
699.80	39.614
700.12	44.156
700.44	42.706
700.76	42.818
701.08	41.667
701.40	39.944
701.72	45.773
702.04	50.284
702.36	38.810
702.68	42.776
703.00	43.490
703.32	39.628
703.64	39.678
703.96	40.390
704.28	44.477
704.60	42.815
704.91	43.323
705.23	40.176
705.55	47.841
705.87	48.837
706.19	44.170
706.51	40.187
706.83	42.424
707.15	42.017
707.47	38.636
707.79	41.769
708.11	42.009
708.43	39.048
708.74	37.755
709.06	39.740
709.38	40.420
709.70	41.279
710.02	45.104
710.34	36.364
710.66	41.791
710.98	42.330
711.29	40.116
711.61	44.248
711.93	41.987
712.25	46.945
712.57	47.426
712.89	43.599
713.20	40.426
713.52	45.395
713.84	39.873
714.16	42.378
714.48	41.092
714.80	46.505
715.11	44.092
715.43	42.730
715.75	42.029
716.07	43.131
716.39	42.006
716.70	44.186
717.02	44.604
717.34	41.343
717.66	46.642
717.97	45.817
718.29	44.444
718.61	43.796
718.93	47.426
719.24	41.869
719.56	42.712
719.88	48.814
720.20	46.622
720.51	43.206
720.83	44.610
721.15	43.284
721.46	38.652
721.78	44.086
722.10	46.792
722.42	47.744
722.73	42.697
723.05	43.852
723.37	43.320
723.68	45.174
724.00	44.715
724.32	47.984
724.63	47.154
724.95	46.025
725.27	45.749
725.58	47.656
725.90	47.080
726.22	47.925
726.53	37.847
726.85	44.027
727.16	48.043
727.48	39.362
727.80	42.803
728.11	42.754
728.43	45.000
728.74	40.860
729.06	41.971
729.38	46.324
729.69	44.840
730.01	40.273
730.32	42.708
730.64	42.140
730.96	40.924
731.27	42.384
731.59	41.284
731.90	39.650
732.22	44.099
732.53	36.842
732.85	41.987
733.16	42.765
733.48	44.518
733.80	42.208
734.11	40.764
734.43	39.645
734.74	38.857
735.06	37.822
735.37	41.329
735.69	35.032
736.00	41.503
736.32	42.991
736.63	41.534
736.95	40.256
737.26	40.476
737.58	35.806
737.89	44.482
738.21	43.003
738.52	41.786
738.83	39.245
739.15	41.154
739.46	43.431
739.78	41.319
740.09	38.769
740.41	41.935
740.72	40.418
741.04	43.333
741.35	44.167
741.66	54.222
741.98	45.755
742.29	47.847
742.61	52.155
742.92	42.986
743.23	48.291
743.55	46.400
743.86	43.860
744.18	50.885
744.49	47.368
744.80	47.418
745.12	53.182
745.43	46.256
745.74	52.252
746.06	50.459
746.37	44.395
746.68	44.796
747.00	58.333
747.31	46.190
747.62	42.920
747.94	45.374
748.25	46.383
748.56	46.696
748.88	51.485
749.19	55.000
749.50	45.581
749.82	45.528
750.13	40.408
750.44	43.796
750.75	42.105
751.07	47.588
751.38	44.251
751.69	45.487
752.01	46.241
752.32	41.516
752.63	42.908
752.94	39.754
753.26	40.400
753.57	46.341
753.88	44.141
754.19	41.786
754.51	47.569
754.82	41.877
755.13	43.019
755.44	40.977
755.75	37.591
756.07	40.780
756.38	36.496
756.69	40.268
757.00	38.323
757.31	41.543
757.63	39.766
757.94	39.946
758.25	35.784
758.56	35.062
758.87	37.366
759.18	39.394
759.50	38.558
759.81	40.498
760.12	38.437
760.43	40.401
760.74	39.402
761.05	43.785
761.36	39.840
761.67	40.909
761.99	36.335
762.30	43.056
762.61	41.985
762.92	39.062
763.23	40.336
763.54	45.200
763.85	44.141
764.16	46.538
764.47	45.247
764.78	38.516
765.10	38.291
765.41	39.233
765.72	42.216
766.03	38.871
766.34	38.667
766.65	46.809
766.96	44.017
767.27	51.269
767.58	48.958
767.89	51.579
768.20	54.023
768.51	47.208
768.82	51.835
769.13	42.683
769.44	42.510
769.75	47.639
770.06	40.367
770.37	44.796
770.68	47.222
770.99	45.333
771.30	40.164
771.61	48.430
771.92	46.311
772.23	44.118
772.54	45.128
772.85	48.691
773.16	56.915
773.47	54.891
773.78	53.299
774.09	50.595
774.39	56.725
774.70	47.531
775.01	56.522
775.32	62.092
775.63	53.947
775.94	48.201
776.25	59.055
776.56	57.463
776.87	50.000
777.18	57.031
777.48	60.305
777.79	54.545
778.10	60.741
778.41	66.964
778.72	48.175
779.03	57.718
779.34	51.007
779.65	51.351
779.95	47.853
780.26	54.902
780.57	53.793
780.88	57.813
781.19	54.887
781.50	57.432
781.80	50.943
782.11	49.718
782.42	46.203
782.73	49.080
783.04	55.405
783.34	57.042
783.65	58.219
783.96	54.478
784.27	49.650
784.57	51.079
784.88	53.704
785.19	69.048
785.50	66.038
785.81	55.224
786.11	66.393
786.42	58.915
786.73	52.212
787.04	60.377
787.34	64.286
787.65	75.000
787.96	54.054
788.26	56.198
788.57	71.186
788.88	63.636
789.19	61.111
789.49	56.061
789.80	61.832
790.11	70.476
790.41	65.347
790.72	69.880
791.03	66.304
791.33	68.605
791.64	61.856
791.95	67.327
792.25	73.333
792.56	79.221
792.87	88.462
793.17	83.544
793.48	79.310
793.79	72.414
794.09	53.409
794.40	63.025
794.70	64.706
795.01	56.296
795.32	48.921
795.62	55.906
795.93	62.931
796.23	53.982
796.54	63.529
796.85	55.405
797.15	84.507
797.46	86.364
797.76	79.518
798.07	69.620
798.37	70.769
798.68	87.879
798.99	63.380
799.29	64.935
799.60	71.591
799.90	91.781
800.21	74.627
800.51	96.552
800.82	98.246
801.12	86.885
801.43	90.909
801.73	83.784
802.04	84.127
802.34	74.074
802.65	90.625
802.95	101.695
803.26	90.625
803.56	61.429
803.87	84.615
804.17	83.824
804.48	107.407
804.78	86.207
805.09	79.412
805.39	100.000
805.70	92.857
806.00	95.082
806.30	75.758
806.61	74.390
806.91	74.684
807.22	71.053
807.52	64.179
807.83	60.563
808.13	84.375
808.43	93.333
808.74	78.947
809.04	88.406
809.35	86.567
809.65	90.789
809.95	100.000
810.26	84.746
810.56	87.302
810.86	118.182
811.17	126.190
811.47	98.333
811.77	103.704
812.08	87.273
812.38	94.000
812.69	127.778
812.99	138.636
813.29	91.837
813.59	95.238
813.90	120.408
814.20	70.909
814.50	76.923
814.81	89.706
815.11	118.367
815.41	77.049
815.72	109.524
816.02	103.636
816.32	111.905
816.62	110.000
816.93	109.756
817.23	107.143
817.53	109.091
817.84	151.515
818.14	108.696
818.44	117.778
818.74	108.824
819.04	102.500
819.35	148.571
819.65	141.176
819.95	153.571
820.25	215.000
820.56	158.974
820.86	111.364
821.16	118.605
821.46	112.821
821.76	122.000
822.07	117.143
822.37	120.000
822.67	163.636
822.97	103.922
823.27	182.143
823.57	135.135
823.88	140.000
824.18	123.333
824.48	126.190
824.78	184.000
825.08	179.167
825.38	148.649
825.69	119.512
825.99	204.167
826.29	168.966
826.59	136.842
826.89	107.895
827.19	147.059
827.49	158.065
827.79	138.636
828.09	95.455
828.39	102.128
828.70	122.449
829.00	125.926
829.30	129.032
829.60	122.500
829.90	260.000
830.20	125.000
830.50	156.522
830.80	186.957
831.10	170.000
831.40	160.000
831.70	134.783
832.00	176.923
832.30	144.444
832.60	187.500
832.90	200.000
833.20	292.857
833.50	141.935
833.80	148.276
834.10	175.000
834.40	157.692
834.70	238.889
835.00	257.143
835.30	157.143
835.60	276.923
835.90	155.172
836.20	235.714
836.50	158.621
836.80	168.000
837.10	133.333
837.40	233.333
837.70	205.882
838.00	159.259
838.30	200.000
838.60	242.857
838.90	180.769
839.19	225.000
839.49	314.286
839.79	250.000
840.09	170.000
840.39	190.476
840.69	165.217
840.99	222.222
841.29	330.000
841.59	350.000
841.88	243.750
842.18	144.828
842.48	200.000
842.78	163.333
843.08	156.522
843.38	171.875
843.68	650.000
843.97	180.769
844.27	148.276
844.57	214.286
844.87	306.250
845.17	174.074
845.47	1033.333
845.76	422.222
846.06	264.706
846.36	362.500
846.66	278.571
846.96	218.750
847.25	400.000
847.55	281.818
847.85	195.652
848.15	410.000
848.44	292.857
848.74	172.222
849.04	252.941
849.34	350.000
849.63	189.474
849.93	345.455
850.23	600.000
850.53	314.286
850.82	1550.000
851.12	-3500.000
851.42	2400.000
851.71	240.000
852.01	-600.000
852.31	158.333
852.61	1366.667
852.90	219.048
853.20	160.000
853.50	211.765
853.79	228.571
854.09	162.500
854.39	250.000
854.68	162.162
854.98	180.645
855.28	146.667
855.57	179.310
855.87	166.667
856.17	200.000
856.46	166.667
856.76	270.588
857.05	127.586
857.35	195.833
857.65	340.000
857.94	221.739
858.24	153.846
858.53	225.000
858.83	213.636
859.13	293.333
859.42	0.000
859.72	344.444
860.01	327.273
860.31	200.000
860.60	226.316
860.90	204.348
861.20	433.333
861.49	441.667
861.79	-3600.000
862.08	662.500
862.38	185.714
862.67	223.077
862.97	294.118
863.26	433.333
863.56	211.111
863.85	266.667
864.15	500.000
864.44	293.333
864.74	633.333
865.03	512.500
865.33	242.105
865.62	336.364
865.92	276.923
866.21	275.000
866.51	0.000
866.80	427.273
867.10	800.000
867.39	346.154
867.69	345.455
867.98	231.579
868.27	390.909
868.57	210.526
868.86	-3500.000
869.16	275.000
869.45	1650.000
869.75	-2800.000
870.04	375.000
870.33	514.286
870.63	900.000
870.92	2200.000
871.22	600.000
871.51	288.235
871.80	138.095
872.10	271.429
>>>>>End Processed Spectral Data<<<<<
