SpectraSuite Data File
++++++++++++++++++++++++++++++++++++
Date: Wed May 13 16:19:28 PDT 2015
User: schluterlab
Dark Spectrum Present: Yes
Reference Spectrum Present: Yes
Number of Sampled Component Spectra: 1
Spectrometers: USB2E3373
Integration Time (usec): 3000 (USB2E3373)
Spectra Averaged: 3 (USB2E3373)
Boxcar Smoothing: 0 (USB2E3373)
Correct for Electrical Dark: No (USB2E3373)
Strobe/Lamp Enabled: No (USB2E3373)
Correct for Detector Non-linearity: No (USB2E3373)
Correct for Stray Light: No (USB2E3373)
Number of Pixels in Processed Spectrum: 2048
>>>>>Begin Processed Spectral Data<<<<<
178.53	0.000
178.91	-1250.000
179.29	-1075.000
179.67	-188.889
180.04	-1225.000
180.42	2150.000
180.80	780.000
181.18	-975.000
181.56	571.429
181.94	0.000
182.31	-442.857
182.69	1466.667
183.07	-375.000
183.45	-555.556
183.83	481.818
184.20	-370.000
184.58	2450.000
184.96	4100.000
185.34	-720.000
185.72	-462.500
186.09	-2100.000
186.47	2000.000
186.85	1800.000
187.23	3500.000
187.61	-1633.333
187.98	1225.000
188.36	563.636
188.74	400.000
189.12	-820.000
189.49	380.000
189.87	-4200.000
190.25	-975.000
190.63	371.429
191.00	415.385
191.38	616.667
191.76	-1075.000
192.14	1025.000
192.51	675.000
192.89	866.667
193.27	512.500
193.65	-1125.000
194.02	440.000
194.40	800.000
194.78	430.000
195.15	441.667
195.53	640.000
195.91	-2200.000
196.29	293.750
196.66	284.211
197.04	-270.000
197.42	0.000
197.79	660.000
198.17	-4800.000
198.55	600.000
198.92	650.000
199.30	780.000
199.68	0.000
200.05	322.222
200.43	685.714
200.81	3800.000
201.18	1633.333
201.56	-1233.333
201.94	500.000
202.31	477.778
202.69	316.667
203.07	490.000
203.44	0.000
203.82	1000.000
204.19	614.286
204.57	392.857
204.95	487.500
205.32	1233.333
205.70	418.182
206.08	285.714
206.45	2050.000
206.83	306.250
207.20	800.000
207.58	720.000
207.96	294.444
208.33	612.500
208.71	-600.000
209.08	657.143
209.46	544.444
209.84	363.636
210.21	-1433.333
210.59	1300.000
210.96	-337.500
211.34	2000.000
211.71	490.000
212.09	650.000
212.46	0.000
212.84	1466.667
213.22	1000.000
213.59	-2900.000
213.97	716.667
214.34	728.571
214.72	518.182
215.09	820.000
215.47	-1900.000
215.84	-2150.000
216.22	1366.667
216.59	321.429
216.97	950.000
217.34	363.636
217.72	-583.333
218.09	0.000
218.47	-4400.000
218.84	544.444
219.22	614.286
219.59	1333.333
219.97	-471.429
220.34	840.000
220.72	-1133.333
221.09	307.143
221.47	1125.000
221.84	-633.333
222.22	0.000
222.59	1225.000
222.97	-2000.000
223.34	980.000
223.72	330.769
224.09	920.000
224.46	1700.000
224.84	-3400.000
225.21	-900.000
225.59	-3800.000
225.96	440.000
226.34	270.000
226.71	2550.000
227.08	487.500
227.46	460.000
227.83	-900.000
228.21	-2150.000
228.58	455.556
228.95	-1850.000
229.33	-2250.000
229.70	1333.333
230.08	757.143
230.45	-680.000
230.82	408.333
231.20	666.667
231.57	442.857
231.95	400.000
232.32	200.000
232.69	300.000
233.07	557.143
233.44	261.538
233.81	-1333.333
234.19	268.421
234.56	341.667
234.93	300.000
235.31	436.364
235.68	269.231
236.05	342.857
236.43	139.394
236.80	236.842
237.17	3300.000
237.55	190.476
237.92	164.286
238.29	190.476
238.67	138.710
239.04	165.517
239.41	127.778
239.79	82.609
240.16	107.143
240.53	102.273
240.91	70.588
241.28	70.000
241.65	80.000
242.02	53.623
242.40	48.387
242.77	48.333
243.14	49.462
243.51	58.427
243.89	51.765
244.26	48.889
244.63	39.785
245.00	39.362
245.38	41.584
245.75	45.794
246.12	23.853
246.49	40.876
246.87	30.400
247.24	34.615
247.61	29.286
247.98	21.569
248.36	26.351
248.73	23.567
249.10	26.115
249.47	24.294
249.84	27.807
250.22	23.529
250.59	26.036
250.96	23.232
251.33	25.592
251.70	22.277
252.08	19.524
252.45	19.731
252.82	20.870
253.19	23.404
253.56	15.686
253.94	17.842
254.31	19.531
254.68	17.308
255.05	18.081
255.42	15.854
255.79	16.176
256.16	16.245
256.54	13.074
256.91	17.438
257.28	12.590
257.65	11.221
258.02	13.665
258.39	11.356
258.76	9.030
259.14	15.476
259.51	13.374
259.88	13.043
260.25	14.502
260.62	13.295
260.99	12.422
261.36	16.817
261.73	11.748
262.10	9.012
262.47	12.394
262.85	11.978
263.22	9.687
263.59	14.530
263.96	9.890
264.33	12.272
264.70	11.579
265.07	13.555
265.44	10.354
265.81	9.976
266.18	11.558
266.55	9.268
266.92	9.828
267.29	11.806
267.66	10.321
268.03	10.455
268.40	9.346
268.77	10.024
269.14	8.559
269.51	11.287
269.88	10.490
270.25	9.481
270.62	8.989
270.99	12.043
271.36	10.300
271.73	10.748
272.10	8.478
272.47	9.892
272.84	9.091
273.21	10.692
273.58	7.424
273.95	7.966
274.32	5.992
274.69	7.066
275.06	9.252
275.43	9.149
275.80	9.419
276.17	7.128
276.54	9.148
276.91	7.115
277.28	6.641
277.65	7.737
278.02	10.145
278.39	9.766
278.76	8.545
279.13	7.736
279.50	9.311
279.87	9.363
280.23	8.383
280.60	7.930
280.97	7.948
281.34	7.965
281.71	7.818
282.08	7.869
282.45	6.727
282.82	9.414
283.19	3.743
283.56	8.421
283.92	8.799
284.29	8.642
284.66	6.534
285.03	6.510
285.40	6.690
285.77	6.229
286.14	6.736
286.51	9.167
286.87	8.547
287.24	7.329
287.61	7.063
287.98	6.981
288.35	7.290
288.72	7.321
289.08	6.416
289.45	7.249
289.82	8.780
290.19	5.808
290.56	7.198
290.93	6.193
291.29	6.748
291.66	7.670
292.03	9.012
292.40	8.223
292.77	6.065
293.13	6.866
293.50	5.394
293.87	6.222
294.24	5.185
294.60	8.006
294.97	5.087
295.34	7.334
295.71	6.392
296.08	7.123
296.44	5.089
296.81	5.680
297.18	7.588
297.55	3.430
297.91	6.069
298.28	6.560
298.65	7.050
299.02	6.588
299.38	4.515
299.75	3.504
300.12	3.959
300.48	4.625
300.85	5.549
301.22	5.223
301.59	3.409
301.95	5.164
302.32	5.135
302.69	5.974
303.05	4.727
303.42	4.568
303.79	6.002
304.15	3.963
304.52	4.403
304.89	4.646
305.25	4.756
305.62	6.002
305.99	5.667
306.35	4.810
306.72	5.157
307.09	5.771
307.45	7.095
307.82	4.353
308.19	4.857
308.55	6.041
308.92	5.048
309.29	4.013
309.65	3.924
310.02	5.285
310.38	5.591
310.75	4.224
311.12	5.015
311.48	4.807
311.85	4.822
312.22	4.266
312.58	5.405
312.95	5.385
313.31	4.078
313.68	4.366
314.05	7.002
314.41	5.226
314.78	4.632
315.14	4.270
315.51	4.737
315.87	4.950
316.24	5.065
316.61	3.899
316.97	4.501
317.34	4.697
317.70	4.111
318.07	4.331
318.43	4.403
318.80	5.061
319.16	5.179
319.53	3.565
319.89	5.714
320.26	5.800
320.62	4.464
320.99	6.465
321.35	5.051
321.72	6.160
322.08	6.713
322.45	5.075
322.81	6.202
323.18	5.684
323.54	5.009
323.91	5.377
324.27	4.780
324.64	3.728
325.00	5.050
325.37	5.187
325.73	5.835
326.10	6.355
326.46	5.018
326.83	6.040
327.19	5.380
327.56	4.704
327.92	4.724
328.29	5.768
328.65	5.249
329.01	5.235
329.38	4.348
329.74	4.524
330.11	4.430
330.47	5.877
330.84	7.169
331.20	5.100
331.56	5.505
331.93	4.259
332.29	4.437
332.66	6.283
333.02	5.027
333.38	6.052
333.75	4.813
334.11	5.071
334.48	5.146
334.84	4.871
335.20	5.727
335.57	4.896
335.93	4.643
336.29	4.762
336.66	5.140
337.02	4.163
337.38	6.019
337.75	4.278
338.11	4.655
338.47	4.328
338.84	4.950
339.20	3.761
339.56	6.204
339.93	4.455
340.29	5.163
340.65	3.832
341.02	5.846
341.38	4.982
341.74	4.825
342.11	5.153
342.47	5.110
342.83	4.110
343.20	4.848
343.56	5.055
343.92	5.175
344.28	4.422
344.65	4.557
345.01	5.051
345.37	4.202
345.73	4.653
346.10	4.348
346.46	5.424
346.82	4.860
347.19	4.177
347.55	4.680
347.91	5.583
348.27	5.094
348.63	4.849
349.00	5.421
349.36	4.023
349.72	4.812
350.08	3.404
350.45	5.289
350.81	4.874
351.17	5.186
351.53	4.832
351.89	4.373
352.26	5.367
352.62	5.052
352.98	5.024
353.34	5.670
353.70	4.173
354.07	5.161
354.43	5.159
354.79	4.907
355.15	4.549
355.51	4.956
355.87	4.490
356.24	3.746
356.60	3.849
356.96	4.183
357.32	4.906
357.68	4.803
358.04	4.592
358.40	5.701
358.77	4.304
359.13	3.394
359.49	3.922
359.85	3.175
360.21	2.871
360.57	4.358
360.93	4.385
361.29	4.762
361.66	3.483
362.02	4.254
362.38	4.411
362.74	4.018
363.10	3.923
363.46	3.888
363.82	3.628
364.18	4.405
364.54	4.458
364.90	5.241
365.26	4.338
365.62	4.237
365.98	3.652
366.35	3.367
366.71	4.338
367.07	4.516
367.43	3.483
367.79	4.854
368.15	5.460
368.51	4.070
368.87	4.640
369.23	3.804
369.59	4.562
369.95	3.824
370.31	4.345
370.67	4.565
371.03	5.094
371.39	4.519
371.75	3.750
372.11	4.410
372.47	4.839
372.83	4.611
373.19	4.408
373.55	4.287
373.91	4.418
374.27	4.467
374.63	3.927
374.99	4.873
375.35	3.629
375.71	3.907
376.07	4.870
376.42	3.851
376.78	4.573
377.14	4.003
377.50	4.305
377.86	4.122
378.22	5.436
378.58	3.822
378.94	4.400
379.30	3.753
379.66	3.553
380.02	4.791
380.38	4.250
380.74	4.622
381.09	4.584
381.45	5.040
381.81	5.344
382.17	4.650
382.53	4.214
382.89	5.000
383.25	4.253
383.61	4.709
383.97	5.066
384.32	4.367
384.68	4.647
385.04	3.995
385.40	4.644
385.76	4.484
386.12	4.469
386.48	5.790
386.83	4.618
387.19	5.133
387.55	5.133
387.91	4.353
388.27	4.782
388.62	5.286
388.98	4.177
389.34	5.632
389.70	5.089
390.06	4.943
390.42	5.058
390.77	5.025
391.13	5.233
391.49	5.711
391.85	4.328
392.20	3.785
392.56	4.861
392.92	4.885
393.28	4.083
393.64	4.257
393.99	5.681
394.35	5.025
394.71	5.646
395.07	4.611
395.42	5.130
395.78	5.725
396.14	5.649
396.50	6.015
396.85	5.785
397.21	5.302
397.57	5.518
397.92	4.447
398.28	4.484
398.64	5.137
399.00	4.924
399.35	5.076
399.71	5.498
400.07	6.032
400.42	5.460
400.78	5.549
401.14	5.305
401.49	5.433
401.85	5.566
402.21	4.192
402.57	4.318
402.92	5.170
403.28	5.247
403.63	4.332
403.99	5.223
404.35	5.212
404.70	4.916
405.06	4.776
405.42	4.866
405.77	4.800
406.13	4.853
406.49	5.263
406.84	4.962
407.20	4.787
407.55	5.105
407.91	4.867
408.27	4.914
408.62	5.178
408.98	5.025
409.34	4.736
409.69	5.677
410.05	4.957
410.40	5.688
410.76	4.958
411.11	5.428
411.47	5.112
411.83	5.376
412.18	4.638
412.54	4.857
412.89	5.723
413.25	4.841
413.60	4.694
413.96	5.039
414.31	5.346
414.67	4.880
415.03	6.026
415.38	5.928
415.74	5.338
416.09	5.160
416.45	4.886
416.80	4.891
417.16	5.697
417.51	5.574
417.87	5.267
418.22	5.552
418.58	5.746
418.93	4.853
419.29	5.538
419.64	5.164
420.00	5.427
420.35	5.623
420.71	4.782
421.06	4.773
421.42	5.731
421.77	5.549
422.12	4.660
422.48	4.371
422.83	4.950
423.19	5.525
423.54	5.281
423.90	4.986
424.25	5.472
424.61	4.762
424.96	5.423
425.31	5.260
425.67	5.056
426.02	5.200
426.38	5.250
426.73	5.500
427.09	5.593
427.44	5.003
427.79	5.060
428.15	5.655
428.50	5.266
428.85	5.662
429.21	4.307
429.56	4.510
429.92	4.630
430.27	4.469
430.62	5.069
430.98	4.411
431.33	5.103
431.68	4.607
432.04	5.059
432.39	4.340
432.74	5.925
433.10	4.980
433.45	5.073
433.80	4.435
434.16	5.556
434.51	5.316
434.86	5.074
435.22	5.170
435.57	4.863
435.92	4.389
436.28	5.042
436.63	5.850
436.98	4.923
437.34	4.711
437.69	5.076
438.04	4.441
438.39	5.552
438.75	5.462
439.10	4.358
439.45	4.959
439.81	4.834
440.16	4.574
440.51	5.038
440.86	5.385
441.22	4.060
441.57	5.202
441.92	5.118
442.27	5.005
442.63	4.634
442.98	5.183
443.33	5.380
443.68	5.369
444.03	4.734
444.39	4.479
444.74	4.762
445.09	4.906
445.44	4.702
445.79	4.899
446.15	6.300
446.50	5.277
446.85	4.779
447.20	4.742
447.55	4.858
447.91	4.578
448.26	5.231
448.61	4.466
448.96	4.928
449.31	4.893
449.66	5.234
450.02	4.735
450.37	5.215
450.72	4.851
451.07	4.083
451.42	4.681
451.77	4.932
452.12	4.850
452.47	5.348
452.83	4.837
453.18	5.562
453.53	6.122
453.88	4.607
454.23	4.961
454.58	5.633
454.93	5.785
455.28	5.860
455.63	4.854
455.98	6.071
456.34	5.465
456.69	5.573
457.04	5.635
457.39	4.617
457.74	4.701
458.09	5.290
458.44	4.960
458.79	4.555
459.14	5.361
459.49	5.137
459.84	5.042
460.19	4.596
460.54	5.382
460.89	4.772
461.24	5.222
461.59	5.869
461.94	5.364
462.29	5.638
462.64	5.105
462.99	5.400
463.34	5.867
463.69	5.691
464.04	5.681
464.39	5.333
464.74	4.991
465.09	4.584
465.44	5.208
465.79	5.089
466.14	5.528
466.49	4.950
466.84	5.954
467.19	5.371
467.54	5.812
467.89	4.322
468.24	6.166
468.59	5.617
468.94	4.948
469.29	4.949
469.64	6.158
469.99	4.871
470.34	4.425
470.68	6.034
471.03	5.578
471.38	5.490
471.73	5.663
472.08	5.658
472.43	4.837
472.78	5.925
473.13	5.712
473.48	5.930
473.83	4.878
474.17	5.040
474.52	5.273
474.87	5.312
475.22	5.630
475.57	4.944
475.92	4.992
476.27	4.735
476.61	4.964
476.96	4.508
477.31	4.814
477.66	5.252
478.01	4.914
478.36	4.759
478.70	4.206
479.05	4.792
479.40	5.322
479.75	4.474
480.10	4.225
480.45	4.426
480.79	4.491
481.14	4.648
481.49	4.888
481.84	4.664
482.19	4.725
482.53	5.092
482.88	5.026
483.23	5.000
483.58	5.369
483.92	4.545
484.27	4.183
484.62	4.569
484.97	4.493
485.31	4.349
485.66	3.319
486.01	3.298
486.36	2.868
486.70	3.111
487.05	3.518
487.40	3.626
487.75	3.587
488.09	3.579
488.44	4.069
488.79	4.268
489.13	4.469
489.48	4.201
489.83	4.316
490.17	4.559
490.52	4.562
490.87	4.523
491.22	4.684
491.56	4.009
491.91	4.467
492.26	4.088
492.60	4.470
492.95	4.069
493.30	5.000
493.64	4.620
493.99	4.318
494.34	4.764
494.68	4.716
495.03	4.840
495.37	4.235
495.72	4.825
496.07	4.501
496.41	4.867
496.76	4.529
497.11	4.998
497.45	4.844
497.80	4.127
498.14	4.686
498.49	4.390
498.84	4.410
499.18	4.143
499.53	4.084
499.87	4.846
500.22	4.239
500.56	4.515
500.91	4.279
501.26	4.694
501.60	5.078
501.95	4.675
502.29	4.873
502.64	4.562
502.98	4.441
503.33	4.570
503.67	4.965
504.02	4.443
504.36	5.147
504.71	4.201
505.06	4.771
505.40	4.764
505.75	3.905
506.09	4.373
506.44	4.588
506.78	4.725
507.13	4.745
507.47	4.848
507.82	5.572
508.16	4.813
508.51	4.363
508.85	4.518
509.19	4.745
509.54	4.898
509.88	4.585
510.23	4.730
510.57	5.470
510.92	4.505
511.26	4.933
511.61	4.720
511.95	4.854
512.30	4.613
512.64	4.890
512.98	5.413
513.33	5.246
513.67	4.909
514.02	4.275
514.36	4.806
514.70	5.091
515.05	4.016
515.39	5.440
515.74	5.236
516.08	5.198
516.42	5.161
516.77	6.466
517.11	4.661
517.46	5.587
517.80	4.820
518.14	4.517
518.49	4.551
518.83	5.625
519.17	4.850
519.52	4.980
519.86	5.876
520.20	6.127
520.55	5.386
520.89	5.231
521.23	5.790
521.58	5.942
521.92	5.511
522.26	4.881
522.61	5.234
522.95	5.402
523.29	5.965
523.64	5.671
523.98	5.114
524.32	5.247
524.66	5.953
525.01	5.760
525.35	5.328
525.69	4.988
526.04	5.919
526.38	6.345
526.72	5.337
527.06	5.524
527.41	4.394
527.75	5.531
528.09	5.845
528.43	5.035
528.78	5.470
529.12	5.879
529.46	5.573
529.80	5.693
530.15	5.857
530.49	5.538
530.83	6.076
531.17	5.809
531.51	5.901
531.86	5.419
532.20	6.584
532.54	6.470
532.88	6.290
533.22	4.809
533.57	6.296
533.91	5.719
534.25	5.468
534.59	5.125
534.93	5.711
535.27	5.009
535.62	5.861
535.96	5.085
536.30	4.959
536.64	6.182
536.98	5.906
537.32	5.727
537.66	5.933
538.01	5.464
538.35	6.206
538.69	6.382
539.03	5.848
539.37	4.728
539.71	4.925
540.05	4.902
540.39	5.249
540.73	5.692
541.07	6.230
541.42	5.284
541.76	6.387
542.10	5.627
542.44	5.629
542.78	6.588
543.12	5.950
543.46	5.311
543.80	5.921
544.14	4.750
544.48	5.905
544.82	5.196
545.16	4.815
545.50	5.398
545.84	5.780
546.18	5.993
546.52	5.643
546.86	5.223
547.20	6.069
547.54	5.745
547.88	6.888
548.22	5.542
548.56	5.597
548.90	5.186
549.24	4.848
549.58	6.003
549.92	5.701
550.26	5.540
550.60	5.947
550.94	5.493
551.28	4.535
551.62	5.679
551.96	4.982
552.30	6.348
552.64	5.612
552.98	6.102
553.32	6.339
553.66	6.203
554.00	6.246
554.34	5.797
554.68	6.152
555.02	5.289
555.36	5.637
555.69	5.345
556.03	5.585
556.37	6.344
556.71	5.730
557.05	5.672
557.39	5.598
557.73	5.646
558.07	6.526
558.41	4.920
558.75	6.098
559.08	6.711
559.42	5.820
559.76	6.324
560.10	5.710
560.44	5.590
560.78	4.923
561.12	5.343
561.45	5.802
561.79	5.471
562.13	5.097
562.47	5.943
562.81	5.300
563.15	5.418
563.48	5.769
563.82	5.936
564.16	5.167
564.50	4.753
564.84	5.752
565.17	5.470
565.51	5.367
565.85	6.218
566.19	4.947
566.52	4.750
566.86	4.762
567.20	5.307
567.54	4.737
567.88	4.726
568.21	4.868
568.55	5.005
568.89	4.572
569.23	4.724
569.56	3.927
569.90	4.113
570.24	3.947
570.57	4.012
570.91	3.426
571.25	3.799
571.59	3.770
571.92	3.715
572.26	3.322
572.60	3.694
572.93	3.958
573.27	3.786
573.61	3.908
573.95	4.005
574.28	3.518
574.62	3.158
574.96	3.274
575.29	3.225
575.63	3.506
575.97	3.411
576.30	3.664
576.64	3.513
576.98	3.233
577.31	3.373
577.65	3.322
577.98	2.875
578.32	3.058
578.66	3.312
578.99	3.013
579.33	3.123
579.67	2.968
580.00	3.357
580.34	3.393
580.67	3.356
581.01	3.171
581.35	2.986
581.68	3.050
582.02	2.991
582.35	3.020
582.69	3.203
583.02	2.825
583.36	3.044
583.70	3.372
584.03	3.187
584.37	3.794
584.70	2.926
585.04	3.425
585.37	3.308
585.71	3.595
586.04	3.334
586.38	3.135
586.72	3.645
587.05	3.314
587.39	2.718
587.72	3.350
588.06	3.122
588.39	3.539
588.73	3.373
589.06	3.739
589.40	3.906
589.73	3.520
590.07	3.665
590.40	3.434
590.73	3.630
591.07	3.826
591.40	4.386
591.74	4.329
592.07	3.927
592.41	4.423
592.74	3.933
593.08	4.197
593.41	3.290
593.75	3.623
594.08	3.621
594.41	3.888
594.75	3.919
595.08	3.973
595.42	3.993
595.75	3.561
596.09	4.243
596.42	4.401
596.75	4.221
597.09	4.935
597.42	4.005
597.75	3.924
598.09	4.174
598.42	4.124
598.76	3.851
599.09	3.269
599.42	3.675
599.76	3.917
600.09	3.570
600.42	3.470
600.76	3.821
601.09	3.862
601.42	4.033
601.76	3.795
602.09	3.478
602.42	4.339
602.76	3.990
603.09	3.895
603.42	4.217
603.76	3.773
604.09	3.606
604.42	4.199
604.76	4.302
605.09	3.495
605.42	4.233
605.75	3.767
606.09	3.904
606.42	3.637
606.75	4.106
607.09	4.395
607.42	3.637
607.75	3.882
608.08	4.168
608.42	4.617
608.75	4.463
609.08	4.302
609.41	4.141
609.75	4.192
610.08	4.288
610.41	3.631
610.74	4.021
611.07	4.595
611.41	4.073
611.74	5.329
612.07	4.555
612.40	4.302
612.73	4.421
613.07	4.688
613.40	4.423
613.73	3.723
614.06	5.054
614.39	4.090
614.72	4.421
615.06	4.464
615.39	4.087
615.72	4.448
616.05	4.466
616.38	4.558
616.71	4.335
617.05	4.770
617.38	4.390
617.71	4.384
618.04	4.808
618.37	4.140
618.70	5.289
619.03	5.921
619.36	5.295
619.69	5.986
620.03	5.426
620.36	5.816
620.69	5.959
621.02	5.752
621.35	5.090
621.68	6.075
622.01	5.186
622.34	5.976
622.67	5.932
623.00	5.136
623.33	5.075
623.66	5.361
623.99	4.934
624.32	4.922
624.65	5.720
624.99	4.391
625.32	4.200
625.65	5.259
625.98	4.919
626.31	5.988
626.64	5.469
626.97	5.569
627.30	4.821
627.63	6.481
627.96	6.644
628.29	5.949
628.62	7.594
628.95	7.075
629.28	6.478
629.61	7.333
629.94	6.095
630.26	5.243
630.59	6.292
630.92	6.705
631.25	6.515
631.58	6.006
631.91	5.274
632.24	6.224
632.57	6.611
632.90	6.579
633.23	7.830
633.56	7.458
633.89	8.041
634.22	7.037
634.55	7.219
634.88	6.826
635.20	8.841
635.53	7.590
635.86	6.683
636.19	7.765
636.52	7.612
636.85	6.644
637.18	6.797
637.51	8.511
637.83	6.289
638.16	7.673
638.49	7.053
638.82	7.459
639.15	8.375
639.48	6.858
639.81	7.373
640.13	8.984
640.46	8.188
640.79	8.851
641.12	7.015
641.45	7.682
641.77	8.984
642.10	9.211
642.43	7.508
642.76	8.050
643.09	9.816
643.41	8.194
643.74	9.722
644.07	9.146
644.40	9.663
644.73	9.449
645.05	9.826
645.38	9.005
645.71	9.018
646.04	9.967
646.36	10.851
646.69	10.368
647.02	8.503
647.35	9.622
647.67	8.673
648.00	11.220
648.33	8.086
648.66	10.000
648.98	9.295
649.31	7.922
649.64	9.417
649.96	7.750
650.29	8.847
650.62	9.061
650.94	10.373
651.27	9.797
651.60	9.151
651.92	9.585
652.25	7.980
652.58	11.215
652.90	10.269
653.23	7.550
653.56	9.291
653.88	9.826
654.21	8.689
654.54	9.406
654.86	8.879
655.19	7.432
655.52	4.363
655.84	2.205
656.17	2.471
656.49	3.165
656.82	3.242
657.15	2.527
657.47	1.918
657.80	1.629
658.13	1.628
658.45	2.641
658.78	2.789
659.10	3.092
659.43	3.540
659.75	4.154
660.08	4.430
660.41	6.052
660.73	7.243
661.06	8.758
661.38	11.455
661.71	11.346
662.03	11.637
662.36	8.946
662.68	9.237
663.01	12.323
663.33	9.766
663.66	9.664
663.98	11.447
664.31	9.244
664.63	9.919
664.96	8.249
665.28	11.475
665.61	12.476
665.93	6.640
666.26	10.548
666.58	11.506
666.91	12.262
667.23	12.584
667.56	10.151
667.88	12.179
668.21	12.367
668.53	10.629
668.86	11.039
669.18	12.793
669.50	9.783
669.83	13.290
670.15	12.889
670.48	10.240
670.80	13.578
671.13	14.013
671.45	8.723
671.77	9.980
672.10	10.906
672.42	10.601
672.75	9.950
673.07	8.275
673.39	8.499
673.72	8.984
674.04	8.039
674.37	9.320
674.69	9.202
675.01	7.950
675.34	13.347
675.66	13.263
675.98	11.813
676.31	11.555
676.63	12.739
676.95	10.692
677.28	10.748
677.60	9.670
677.92	13.080
678.25	10.883
678.57	10.159
678.89	11.423
679.22	10.413
679.54	11.641
679.86	9.908
680.18	11.091
680.51	9.043
680.83	11.210
681.15	9.623
681.48	10.586
681.80	11.219
682.12	9.579
682.44	8.317
682.77	12.627
683.09	12.876
683.41	11.308
683.73	9.934
684.06	10.537
684.38	12.720
684.70	8.721
685.02	10.882
685.34	7.692
685.67	9.266
685.99	9.450
686.31	6.997
686.63	7.420
686.96	9.821
687.28	10.650
687.60	8.514
687.92	10.420
688.24	7.985
688.56	11.446
688.89	12.033
689.21	11.354
689.53	10.438
689.85	10.421
690.17	9.524
690.49	14.013
690.82	10.514
691.14	10.045
691.46	10.970
691.78	10.241
692.10	10.331
692.42	11.976
692.74	8.714
693.06	11.064
693.39	11.294
693.71	10.480
694.03	11.579
694.35	10.823
694.67	12.815
694.99	10.244
695.31	12.990
695.63	11.722
695.95	13.447
696.27	9.898
696.59	13.212
696.91	12.953
697.23	10.094
697.56	12.580
697.88	9.407
698.20	10.625
698.52	10.538
698.84	12.027
699.16	8.525
699.48	12.352
699.80	10.870
700.12	15.065
700.44	11.936
700.76	10.221
701.08	12.644
701.40	12.570
701.72	13.994
702.04	16.477
702.36	11.048
702.68	14.164
703.00	13.019
703.32	11.702
703.64	14.745
703.96	14.206
704.28	12.791
704.60	15.836
704.91	14.837
705.23	15.249
705.55	16.279
705.87	17.608
706.19	14.134
706.51	19.626
706.83	17.576
707.15	11.765
707.47	13.636
707.79	13.268
708.11	11.872
708.43	11.667
708.74	9.439
709.06	14.545
709.38	14.698
709.70	13.953
710.02	14.837
710.34	13.636
710.66	15.224
710.98	15.057
711.29	17.733
711.61	15.929
711.93	14.423
712.25	14.469
712.57	13.235
712.89	14.879
713.20	18.845
713.52	16.447
713.84	15.506
714.16	16.159
714.48	16.379
714.80	15.502
715.11	14.409
715.43	14.540
715.75	13.623
716.07	14.696
716.39	16.301
716.70	19.269
717.02	19.784
717.34	14.134
717.66	22.015
717.97	19.124
718.29	14.444
718.61	12.409
718.93	15.809
719.24	16.609
719.56	15.593
719.88	18.644
720.20	20.608
720.51	16.725
720.83	20.074
721.15	16.045
721.46	17.730
721.78	18.638
722.10	17.736
722.42	15.789
722.73	18.727
723.05	14.754
723.37	16.194
723.68	21.236
724.00	19.106
724.32	21.371
724.63	17.886
724.95	15.063
725.27	20.648
725.58	19.922
725.90	25.547
726.22	15.094
726.53	15.625
726.85	15.358
727.16	19.573
727.48	18.085
727.80	15.530
728.11	19.203
728.43	17.308
728.74	14.695
729.06	19.343
729.38	18.382
729.69	19.217
730.01	17.747
730.32	14.236
730.64	17.057
730.96	10.561
731.27	15.232
731.59	15.902
731.90	16.035
732.22	13.665
732.53	14.241
732.85	17.308
733.16	16.077
733.48	14.618
733.80	17.857
734.11	17.197
734.43	17.456
734.74	13.429
735.06	12.894
735.37	17.052
735.69	11.783
736.00	17.647
736.32	17.445
736.63	15.335
736.95	16.933
737.26	13.265
737.58	16.129
737.89	18.395
738.21	14.334
738.52	16.786
738.83	15.094
739.15	14.615
739.46	16.058
739.78	13.542
740.09	17.538
740.41	19.032
740.72	15.331
741.04	18.889
741.35	17.500
741.66	24.000
741.98	22.170
742.29	20.096
742.61	19.828
742.92	15.385
743.23	16.239
743.55	18.800
743.86	19.737
744.18	21.681
744.49	26.794
744.80	23.944
745.12	21.818
745.43	18.062
745.74	25.676
746.06	20.183
746.37	21.525
746.68	19.457
747.00	21.296
747.31	19.524
747.62	16.814
747.94	20.705
748.25	14.894
748.56	24.670
748.88	20.792
749.19	29.500
749.50	20.465
749.82	18.293
750.13	17.143
750.44	17.518
750.75	16.140
751.07	18.328
751.38	14.286
751.69	17.329
752.01	19.173
752.32	15.523
752.63	17.021
752.94	17.623
753.26	20.000
753.57	18.293
753.88	21.484
754.19	16.786
754.51	19.444
754.82	14.079
755.13	19.623
755.44	18.045
755.75	13.869
756.07	16.312
756.38	12.774
756.69	16.107
757.00	14.072
757.31	14.243
757.63	13.450
757.94	15.550
758.25	12.990
758.56	11.358
758.87	11.290
759.18	12.727
759.50	14.734
759.81	14.330
760.12	8.125
760.43	15.759
760.74	11.957
761.05	13.842
761.36	12.299
761.67	14.773
761.99	9.627
762.30	18.750
762.61	16.794
762.92	17.187
763.23	17.227
763.54	17.200
763.85	14.844
764.16	21.538
764.47	17.490
764.78	14.841
765.10	10.443
765.41	16.519
765.72	15.269
766.03	14.734
766.34	16.667
766.65	22.128
766.96	17.521
767.27	26.904
767.58	25.521
767.89	25.789
768.20	21.839
768.51	22.335
768.82	19.725
769.13	19.512
769.44	16.194
769.75	19.313
770.06	16.514
770.37	25.339
770.68	24.074
770.99	22.222
771.30	15.984
771.61	18.386
771.92	20.082
772.23	27.731
772.54	22.564
772.85	25.654
773.16	25.000
773.47	30.435
773.78	27.411
774.09	23.214
774.39	27.485
774.70	24.074
775.01	36.232
775.32	33.987
775.63	29.605
775.94	30.935
776.25	32.283
776.56	36.567
776.87	31.967
777.18	31.250
777.48	34.351
777.79	34.091
778.10	40.741
778.41	30.357
778.72	21.168
779.03	34.899
779.34	24.832
779.65	22.973
779.95	25.767
780.26	33.333
780.57	38.621
780.88	42.969
781.19	30.075
781.50	35.135
781.80	28.931
782.11	22.034
782.42	25.316
782.73	25.153
783.04	27.027
783.34	34.507
783.65	34.932
783.96	25.373
784.27	27.972
784.57	28.777
784.88	30.556
785.19	42.063
785.50	37.736
785.81	35.821
786.11	37.705
786.42	33.333
786.73	34.513
787.04	32.075
787.34	50.000
787.65	39.000
787.96	34.234
788.26	40.496
788.57	41.525
788.88	33.884
789.19	38.194
789.49	44.697
789.80	41.985
790.11	56.190
790.41	53.465
790.72	34.940
791.03	47.826
791.33	44.186
791.64	55.670
791.95	53.465
792.25	47.778
792.56	55.844
792.87	55.128
793.17	69.620
793.48	63.218
793.79	52.874
794.09	43.182
794.40	40.336
794.70	39.706
795.01	34.815
795.32	30.216
795.62	40.157
795.93	36.207
796.23	49.558
796.54	42.353
796.85	48.649
797.15	76.056
797.46	43.939
797.76	57.831
798.07	48.101
798.37	58.462
798.68	56.061
798.99	53.521
799.29	67.532
799.60	44.318
799.90	68.493
800.21	56.716
800.51	65.517
800.82	75.439
801.12	73.770
801.43	56.061
801.73	45.946
802.04	69.841
802.34	54.321
802.65	59.375
802.95	81.356
803.26	68.750
803.56	74.286
803.87	67.692
804.17	67.647
804.48	75.926
804.78	55.172
805.09	58.824
805.39	51.923
805.70	69.643
806.00	75.410
806.30	60.606
806.61	59.756
806.91	36.709
807.22	67.105
807.52	53.731
807.83	70.423
808.13	70.312
808.43	75.000
808.74	52.632
809.04	79.710
809.35	76.119
809.65	57.895
809.95	82.258
810.26	64.407
810.56	69.841
810.86	97.727
811.17	102.381
811.47	86.667
811.77	88.889
812.08	58.182
812.38	86.000
812.69	86.111
812.99	136.364
813.29	79.592
813.59	80.952
813.90	97.959
814.20	67.273
814.50	67.692
814.81	82.353
815.11	83.673
815.41	72.131
815.72	107.143
816.02	85.455
816.32	104.762
816.62	80.000
816.93	102.439
817.23	107.143
817.53	102.273
817.84	121.212
818.14	97.826
818.44	71.111
818.74	120.588
819.04	80.000
819.35	134.286
819.65	129.412
819.95	150.000
820.25	135.000
820.56	117.949
820.86	122.727
821.16	106.977
821.46	69.231
821.76	108.000
822.07	142.857
822.37	110.000
822.67	127.273
822.97	72.549
823.27	182.143
823.57	121.622
823.88	132.500
824.18	173.333
824.48	121.429
824.78	164.000
825.08	125.000
825.38	129.730
825.69	92.683
825.99	208.333
826.29	155.172
826.59	123.684
826.89	123.684
827.19	117.647
827.49	138.710
827.79	97.727
828.09	86.364
828.39	93.617
828.70	97.959
829.00	159.259
829.30	112.903
829.60	112.500
829.90	213.333
830.20	150.000
830.50	139.130
830.80	152.174
831.10	180.000
831.40	156.667
831.70	165.217
832.00	169.231
832.30	159.259
832.60	250.000
832.90	183.333
833.20	378.571
833.50	187.097
833.80	155.172
834.10	178.125
834.40	196.154
834.70	250.000
835.00	223.810
835.30	134.286
835.60	276.923
835.90	175.862
836.20	242.857
836.50	144.828
836.80	144.000
837.10	150.000
837.40	219.048
837.70	235.294
838.00	200.000
838.30	214.286
838.60	252.381
838.90	180.769
839.19	160.000
839.49	257.143
839.79	275.000
840.09	210.000
840.39	195.238
840.69	191.304
840.99	200.000
841.29	410.000
841.59	291.667
841.88	300.000
842.18	175.862
842.48	209.524
842.78	166.667
843.08	178.261
843.38	150.000
843.68	666.667
843.97	196.154
844.27	137.931
844.57	247.619
844.87	262.500
845.17	177.778
845.47	1400.000
845.76	400.000
846.06	211.765
846.36	312.500
846.66	350.000
846.96	218.750
847.25	372.727
847.55	318.182
847.85	260.870
848.15	430.000
848.44	278.571
848.74	272.222
849.04	235.294
849.34	420.000
849.63	131.579
849.93	363.636
850.23	860.000
850.53	321.429
850.82	1700.000
851.12	-3500.000
851.42	3600.000
851.71	235.000
852.01	-1166.667
852.31	208.333
852.61	1366.667
852.90	228.571
853.20	196.000
853.50	258.824
853.79	223.810
854.09	162.500
854.39	268.750
854.68	127.027
854.98	154.839
855.28	153.333
855.57	168.966
855.87	181.481
856.17	247.368
856.46	173.333
856.76	223.529
857.05	193.103
857.35	187.500
857.65	233.333
857.94	200.000
858.24	169.231
858.53	230.000
858.83	231.818
859.13	286.667
859.42	0.000
859.72	466.667
860.01	336.364
860.31	195.455
860.60	252.632
860.90	186.957
861.20	411.111
861.49	416.667
861.79	-3600.000
862.08	412.500
862.38	228.571
862.67	269.231
862.97	264.706
863.26	466.667
863.56	200.000
863.85	350.000
864.15	575.000
864.44	333.333
864.74	850.000
865.03	475.000
865.33	257.895
865.62	300.000
865.92	369.231
866.21	325.000
866.51	0.000
866.80	363.636
867.10	1020.000
867.39	415.385
867.69	354.545
867.98	273.684
868.27	409.091
868.57	284.211
868.86	-3200.000
869.16	275.000
869.45	1600.000
869.75	-3800.000
870.04	333.333
870.33	571.429
870.63	775.000
870.92	1750.000
871.22	614.286
871.51	270.588
871.80	157.143
872.10	285.714
>>>>>End Processed Spectral Data<<<<<
