SpectraSuite Data File
++++++++++++++++++++++++++++++++++++
Date: Wed May 13 16:22:08 PDT 2015
User: schluterlab
Dark Spectrum Present: Yes
Reference Spectrum Present: Yes
Number of Sampled Component Spectra: 1
Spectrometers: USB2E3373
Integration Time (usec): 3000 (USB2E3373)
Spectra Averaged: 3 (USB2E3373)
Boxcar Smoothing: 0 (USB2E3373)
Correct for Electrical Dark: No (USB2E3373)
Strobe/Lamp Enabled: No (USB2E3373)
Correct for Detector Non-linearity: No (USB2E3373)
Correct for Stray Light: No (USB2E3373)
Number of Pixels in Processed Spectrum: 2048
>>>>>Begin Processed Spectral Data<<<<<
178.53	0.000
178.91	-1275.000
179.29	-1300.000
179.67	-188.889
180.04	-900.000
180.42	2500.000
180.80	1080.000
181.18	-1025.000
181.56	500.000
181.94	0.000
182.31	-657.143
182.69	1366.667
183.07	-425.000
183.45	-522.222
183.83	500.000
184.20	-420.000
184.58	2250.000
184.96	5300.000
185.34	-1080.000
185.72	-525.000
186.09	-2500.000
186.47	2150.000
186.85	2350.000
187.23	5200.000
187.61	-1366.667
187.98	1125.000
188.36	454.545
188.74	472.727
189.12	-660.000
189.49	470.000
189.87	-4600.000
190.25	-1200.000
190.63	392.857
191.00	338.462
191.38	750.000
191.76	-1075.000
192.14	1275.000
192.51	575.000
192.89	1033.333
193.27	512.500
193.65	-1075.000
194.02	470.000
194.40	840.000
194.78	480.000
195.15	433.333
195.53	560.000
195.91	-1800.000
196.29	268.750
196.66	310.526
197.04	-480.000
197.42	0.000
197.79	650.000
198.17	-4500.000
198.55	700.000
198.92	712.500
199.30	1020.000
199.68	0.000
200.05	355.556
200.43	714.286
200.81	4500.000
201.18	1500.000
201.56	-1566.667
201.94	444.444
202.31	522.222
202.69	408.333
203.07	530.000
203.44	0.000
203.82	1050.000
204.19	857.143
204.57	342.857
204.95	700.000
205.32	1500.000
205.70	445.455
206.08	392.857
206.45	2200.000
206.83	300.000
207.20	766.667
207.58	600.000
207.96	322.222
208.33	700.000
208.71	-750.000
209.08	700.000
209.46	655.556
209.84	418.182
210.21	-1300.000
210.59	1100.000
210.96	-425.000
211.34	1900.000
211.71	540.000
212.09	850.000
212.46	0.000
212.84	1500.000
213.22	1400.000
213.59	-3900.000
213.97	800.000
214.34	628.571
214.72	581.818
215.09	1020.000
215.47	-2200.000
215.84	-2300.000
216.22	1400.000
216.59	385.714
216.97	1400.000
217.34	463.636
217.72	-733.333
218.09	0.000
218.47	-3600.000
218.84	611.111
219.22	742.857
219.59	1500.000
219.97	-557.143
220.34	880.000
220.72	-1766.667
221.09	350.000
221.47	1350.000
221.84	-1016.667
222.22	0.000
222.59	1100.000
222.97	-1700.000
223.34	960.000
223.72	492.308
224.09	880.000
224.46	1800.000
224.84	-4700.000
225.21	-940.000
225.59	-5200.000
225.96	490.000
226.34	265.000
226.71	2500.000
227.08	612.500
227.46	450.000
227.83	-875.000
228.21	-1400.000
228.58	600.000
228.95	-2500.000
229.33	-2000.000
229.70	1300.000
230.08	742.857
230.45	-760.000
230.82	325.000
231.20	783.333
231.57	414.286
231.95	458.333
232.32	231.818
232.69	372.727
233.07	514.286
233.44	284.615
233.81	-1300.000
234.19	247.368
234.56	483.333
234.93	283.333
235.31	427.273
235.68	284.615
236.05	278.571
236.43	163.636
236.80	257.895
237.17	4100.000
237.55	219.048
237.92	150.000
238.29	209.524
238.67	177.419
239.04	182.759
239.41	122.222
239.79	89.130
240.16	109.524
240.53	120.455
240.91	82.353
241.28	84.000
241.65	62.000
242.02	68.116
242.40	62.903
242.77	63.333
243.14	53.763
243.51	66.292
243.89	56.471
244.26	47.778
244.63	54.839
245.00	52.128
245.38	49.505
245.75	38.318
246.12	47.706
246.49	45.985
246.87	45.600
247.24	41.538
247.61	34.286
247.98	35.294
248.36	31.757
248.73	32.484
249.10	36.306
249.47	27.119
249.84	32.086
250.22	28.342
250.59	27.219
250.96	28.788
251.33	30.806
251.70	27.228
252.08	27.143
252.45	23.767
252.82	21.739
253.19	23.404
253.56	24.706
253.94	27.801
254.31	25.781
254.68	23.846
255.05	22.878
255.42	20.732
255.79	20.956
256.16	22.022
256.54	16.608
256.91	19.929
257.28	18.705
257.65	21.122
258.02	22.360
258.39	18.927
258.76	19.398
259.14	19.345
259.51	16.109
259.88	18.012
260.25	18.429
260.62	16.763
260.99	18.323
261.36	18.018
261.73	20.057
262.10	15.116
262.47	15.493
262.85	16.435
263.22	15.100
263.59	16.524
263.96	17.308
264.33	19.060
264.70	17.105
265.07	15.857
265.44	15.657
265.81	16.545
266.18	15.075
266.55	14.878
266.92	15.233
267.29	15.972
267.66	16.055
268.03	15.682
268.40	17.056
268.77	13.365
269.14	15.315
269.51	16.479
269.88	14.219
270.25	14.898
270.62	15.730
270.99	16.774
271.36	14.378
271.73	15.187
272.10	13.478
272.47	14.409
272.84	14.719
273.21	16.143
273.58	11.790
273.95	13.417
274.32	12.397
274.69	13.919
275.06	12.402
275.43	14.468
275.80	14.028
276.17	12.831
276.54	14.137
276.91	14.032
277.28	12.891
277.65	12.959
278.02	13.665
278.39	15.430
278.76	12.909
279.13	13.208
279.50	14.711
279.87	13.745
280.23	13.373
280.60	12.573
280.97	14.233
281.34	13.451
281.71	13.636
282.08	11.324
282.45	11.818
282.82	13.321
283.19	9.626
283.56	11.404
283.92	13.875
284.29	11.640
284.66	11.978
285.03	10.307
285.40	11.972
285.77	10.438
286.14	12.435
286.51	12.167
286.87	11.966
287.24	13.355
287.61	12.039
287.98	11.364
288.35	11.094
288.72	11.059
289.08	11.737
289.45	10.873
289.82	11.707
290.19	8.634
290.56	11.792
290.93	9.517
291.29	9.969
291.66	11.062
292.03	13.517
292.40	11.160
292.77	10.355
293.13	10.597
293.50	11.808
293.87	10.370
294.24	9.333
294.60	9.025
294.97	10.610
295.34	11.283
295.71	10.795
296.08	9.117
296.44	9.078
296.81	8.719
297.18	10.569
297.55	7.520
297.91	9.499
298.28	10.576
298.65	9.661
299.02	10.408
299.38	9.695
299.75	7.951
300.12	9.834
300.48	9.000
300.85	9.248
301.22	9.554
301.59	7.323
301.95	9.824
302.32	8.216
302.69	9.916
303.05	8.727
303.42	8.642
303.79	8.834
304.15	7.576
304.52	7.764
304.89	8.943
305.25	7.541
305.62	10.193
305.99	8.146
306.35	8.725
306.72	7.848
307.09	9.545
307.45	9.685
307.82	7.924
308.19	7.947
308.55	10.140
308.92	8.700
309.29	8.131
309.65	8.696
310.02	8.351
310.38	8.280
310.75	7.392
311.12	8.905
311.48	9.404
311.85	10.063
312.22	8.429
312.58	8.524
312.95	8.131
313.31	9.126
313.68	8.732
314.05	10.454
314.41	9.950
314.78	9.265
315.14	8.640
315.51	9.578
315.87	9.307
316.24	9.335
316.61	9.747
316.97	8.806
317.34	9.393
317.70	10.421
318.07	9.625
318.43	9.980
318.80	11.340
319.16	10.452
319.53	10.882
319.89	12.095
320.26	11.700
320.62	11.310
320.99	11.515
321.35	11.010
321.72	12.012
322.08	11.945
322.45	12.438
322.81	12.597
323.18	11.561
323.54	13.080
323.91	13.491
324.27	13.098
324.64	11.743
325.00	13.165
325.37	14.013
325.73	15.799
326.10	13.769
326.46	13.441
326.83	13.632
327.19	13.920
327.56	13.328
327.92	13.298
328.29	14.463
328.65	14.825
329.01	13.989
329.38	14.986
329.74	14.681
330.11	14.515
330.47	15.611
330.84	16.544
331.20	16.029
331.56	14.404
331.93	13.889
332.29	16.415
332.66	16.195
333.02	15.905
333.38	14.995
333.75	16.488
334.11	15.302
334.48	15.528
334.84	14.890
335.20	15.364
335.57	15.141
335.93	14.107
336.29	15.659
336.66	13.977
337.02	14.299
337.38	15.648
337.75	15.419
338.11	15.040
338.47	15.193
338.84	15.582
339.20	14.771
339.56	17.062
339.93	14.727
340.29	15.308
340.65	15.152
341.02	15.707
341.38	16.103
341.74	15.175
342.11	15.459
342.47	15.595
342.83	14.640
343.20	15.238
343.56	15.417
343.92	13.772
344.28	16.156
344.65	15.993
345.01	14.646
345.37	14.494
345.73	15.651
346.10	15.601
346.46	15.763
346.82	16.063
347.19	14.453
347.55	15.435
347.91	14.968
348.27	17.338
348.63	15.970
349.00	15.049
349.36	14.860
349.72	15.477
350.08	14.425
350.45	15.216
350.81	15.678
351.17	15.802
351.53	15.971
351.89	14.686
352.26	16.101
352.62	16.119
352.98	15.883
353.34	16.187
353.70	14.812
354.07	15.323
354.43	15.873
354.79	14.722
355.15	15.882
355.51	16.547
355.87	15.184
356.24	15.554
356.60	15.317
356.96	16.010
357.32	15.863
357.68	15.354
358.04	16.073
358.40	15.756
358.77	15.493
359.13	14.759
359.49	15.373
359.85	15.159
360.21	14.195
360.57	15.409
360.93	15.769
361.29	16.478
361.66	15.635
362.02	15.746
362.38	16.122
362.74	15.551
363.10	13.842
363.46	15.040
363.82	15.797
364.18	14.831
364.54	16.196
364.90	15.864
365.26	16.250
365.62	15.997
365.98	15.705
366.35	15.330
366.71	15.618
367.07	15.659
367.43	16.110
367.79	16.417
368.15	15.589
368.51	14.826
368.87	16.131
369.23	15.947
369.59	16.148
369.95	15.735
370.31	16.097
370.67	15.217
371.03	16.629
371.39	16.691
371.75	16.250
372.11	15.861
372.47	17.009
372.83	16.643
373.19	15.824
373.55	16.482
373.91	16.495
374.27	16.289
374.63	16.145
374.99	16.667
375.35	16.260
375.71	16.107
376.07	17.558
376.42	17.194
376.78	16.435
377.14	16.757
377.50	16.755
377.86	16.622
378.22	17.383
378.58	16.416
378.94	16.216
379.30	16.221
379.66	16.942
380.02	17.506
380.38	16.029
380.74	17.467
381.09	17.421
381.45	17.640
381.81	17.322
382.17	17.580
382.53	17.233
382.89	17.284
383.25	17.448
383.61	17.906
383.97	18.011
384.32	17.155
384.68	18.278
385.04	17.455
385.40	17.585
385.76	18.366
386.12	18.005
386.48	17.747
386.83	18.089
387.19	18.491
387.55	18.244
387.91	18.077
388.27	17.229
388.62	18.439
388.98	17.568
389.34	18.273
389.70	18.210
390.06	19.518
390.42	18.677
390.77	18.066
391.13	17.741
391.49	18.084
391.85	18.141
392.20	17.539
392.56	18.119
392.92	18.246
393.28	17.633
393.64	18.585
393.99	18.693
394.35	18.672
394.71	18.632
395.07	18.442
395.42	18.789
395.78	19.148
396.14	17.381
396.50	19.612
396.85	19.008
397.21	18.372
397.57	18.909
397.92	18.870
398.28	18.330
398.64	18.757
399.00	18.355
399.35	17.992
399.71	18.171
400.07	19.633
400.42	18.160
400.78	18.938
401.14	18.780
401.49	18.269
401.85	19.117
402.21	17.904
402.57	18.384
402.92	18.852
403.28	18.801
403.63	18.812
403.99	17.643
404.35	18.545
404.70	18.106
405.06	17.880
405.42	18.653
405.77	18.343
406.13	17.777
406.49	17.978
406.84	18.311
407.20	18.085
407.55	19.719
407.91	18.800
408.27	18.251
408.62	18.663
408.98	17.953
409.34	18.204
409.69	18.323
410.05	18.154
410.40	18.654
410.76	18.459
411.11	18.516
411.47	18.147
411.83	18.509
412.18	18.058
412.54	18.555
412.89	18.072
413.25	18.359
413.60	18.839
413.96	17.001
414.31	17.922
414.67	18.314
415.03	18.543
415.38	18.750
415.74	18.392
416.09	18.027
416.45	17.336
416.80	17.911
417.16	19.102
417.51	18.646
417.87	17.726
418.22	18.612
418.58	18.657
418.93	18.120
419.29	18.332
419.64	18.703
420.00	17.622
420.35	18.377
420.71	18.828
421.06	18.198
421.42	17.719
421.77	18.049
422.12	17.069
422.48	17.215
422.83	17.589
423.19	17.403
423.54	17.411
423.90	18.493
424.25	17.532
424.61	17.679
424.96	17.493
425.31	17.331
425.67	17.528
426.02	17.429
426.38	17.888
426.73	17.262
427.09	17.933
427.44	17.481
427.79	16.964
428.15	18.452
428.50	17.379
428.85	17.998
429.21	18.388
429.56	16.952
429.92	17.162
430.27	16.832
430.62	17.153
430.98	17.436
431.33	17.268
431.68	17.592
432.04	17.146
432.39	17.019
432.74	17.475
433.10	17.261
433.45	17.551
433.80	16.741
434.16	17.468
434.51	16.737
434.86	17.902
435.22	16.732
435.57	17.082
435.92	17.145
436.28	17.497
436.63	17.715
436.98	17.058
437.34	17.412
437.69	17.445
438.04	17.538
438.39	17.731
438.75	17.897
439.10	16.816
439.45	17.296
439.81	17.281
440.16	17.278
440.51	17.458
440.86	17.603
441.22	17.130
441.57	16.985
441.92	16.837
442.27	17.169
442.63	17.009
442.98	17.859
443.33	17.065
443.68	17.295
444.03	17.033
444.39	16.164
444.74	17.045
445.09	17.412
445.44	16.894
445.79	17.219
446.15	17.522
446.50	17.071
446.85	17.112
447.20	16.879
447.55	16.974
447.91	17.154
448.26	17.307
448.61	17.015
448.96	16.501
449.31	17.154
449.66	17.389
450.02	17.159
450.37	16.837
450.72	16.977
451.07	16.758
451.42	16.535
451.77	17.264
452.12	17.090
452.47	17.600
452.83	17.075
453.18	16.565
453.53	17.811
453.88	16.834
454.23	16.677
454.58	17.565
454.93	17.483
455.28	16.459
455.63	17.354
455.98	17.798
456.34	16.897
456.69	17.533
457.04	17.399
457.39	17.475
457.74	16.889
458.09	16.849
458.44	17.104
458.79	16.377
459.14	16.704
459.49	17.046
459.84	17.008
460.19	16.323
460.54	16.782
460.89	16.895
461.24	16.393
461.59	17.432
461.94	16.893
462.29	17.151
462.64	17.167
462.99	16.916
463.34	18.067
463.69	17.198
464.04	18.029
464.39	16.464
464.74	16.280
465.09	16.647
465.44	15.734
465.79	15.101
466.14	16.475
466.49	15.962
466.84	16.696
467.19	17.139
467.54	17.688
467.89	17.287
468.24	16.230
468.59	17.155
468.94	16.310
469.29	16.517
469.64	17.604
469.99	17.321
470.34	15.984
470.68	16.882
471.03	16.599
471.38	16.331
471.73	17.055
472.08	18.026
472.43	16.206
472.78	16.656
473.13	16.303
473.48	17.041
473.83	16.829
474.17	15.744
474.52	16.811
474.87	16.754
475.22	16.309
475.57	15.959
475.92	15.507
476.27	15.727
476.61	15.609
476.96	15.063
477.31	15.803
477.66	15.481
478.01	16.414
478.36	15.865
478.70	15.369
479.05	15.815
479.40	15.660
479.75	15.404
480.10	15.209
480.45	15.802
480.79	15.624
481.14	15.900
481.49	15.804
481.84	15.226
482.19	15.357
482.53	15.642
482.88	15.961
483.23	15.888
483.58	15.378
483.92	15.511
484.27	13.900
484.62	14.483
484.97	14.663
485.31	14.863
485.66	14.208
486.01	13.209
486.36	12.859
486.70	12.592
487.05	12.697
487.40	13.304
487.75	13.582
488.09	13.861
488.44	13.542
488.79	15.262
489.13	14.400
489.48	14.519
489.83	14.199
490.17	14.774
490.52	14.703
490.87	14.790
491.22	14.416
491.56	14.579
491.91	14.518
492.26	14.469
492.60	14.470
492.95	14.312
493.30	14.579
493.64	14.886
493.99	14.113
494.34	14.847
494.68	14.606
495.03	15.273
495.37	14.611
495.72	13.791
496.07	15.081
496.41	14.071
496.76	14.204
497.11	14.408
497.45	14.392
497.80	14.875
498.14	14.541
498.49	15.268
498.84	14.525
499.18	14.571
499.53	14.387
499.87	14.212
500.22	14.508
500.56	14.466
500.91	14.183
501.26	14.699
501.60	14.333
501.95	13.657
502.29	14.433
502.64	14.385
502.98	14.680
503.33	14.214
503.67	14.246
504.02	14.640
504.36	14.506
504.71	13.679
505.06	14.361
505.40	14.779
505.75	13.404
506.09	14.383
506.44	14.307
506.78	14.126
507.13	14.336
507.47	15.000
507.82	14.235
508.16	13.678
508.51	14.206
508.85	14.300
509.19	13.827
509.54	14.592
509.88	14.271
510.23	13.522
510.57	14.654
510.92	14.190
511.26	13.361
511.61	14.938
511.95	13.152
512.30	13.362
512.64	14.078
512.98	14.309
513.33	14.400
513.67	13.927
514.02	14.015
514.36	14.418
514.70	14.555
515.05	14.445
515.39	14.358
515.74	14.414
516.08	15.316
516.42	14.539
516.77	14.771
517.11	13.596
517.46	15.181
517.80	14.344
518.14	14.360
518.49	15.694
518.83	14.830
519.17	14.088
519.52	15.054
519.86	13.805
520.20	15.318
520.55	14.901
520.89	14.720
521.23	14.717
521.58	14.166
521.92	14.819
522.26	14.094
522.61	15.389
522.95	14.119
523.29	14.973
523.64	14.695
523.98	14.356
524.32	14.717
524.66	15.093
525.01	14.032
525.35	14.064
525.69	13.978
526.04	14.891
526.38	14.155
526.72	14.601
527.06	13.999
527.41	13.861
527.75	14.598
528.09	14.194
528.43	14.786
528.78	14.567
529.12	13.879
529.46	14.207
529.80	14.790
530.15	14.704
530.49	14.585
530.83	15.000
531.17	14.817
531.51	16.278
531.86	14.774
532.20	15.319
532.54	14.542
532.88	14.763
533.22	14.179
533.57	14.383
533.91	14.449
534.25	13.548
534.59	14.216
534.93	13.980
535.27	13.881
535.62	14.225
535.96	14.250
536.30	13.795
536.64	14.939
536.98	15.328
537.32	14.549
537.66	14.533
538.01	14.944
538.35	14.544
538.69	14.678
539.03	14.165
539.37	13.610
539.71	13.027
540.05	14.706
540.39	13.887
540.73	13.907
541.07	13.952
541.42	14.220
541.76	14.516
542.10	14.036
542.44	14.437
542.78	14.756
543.12	13.564
543.46	14.623
543.80	14.183
544.14	13.800
544.48	14.159
544.82	13.983
545.16	14.183
545.50	13.175
545.84	14.852
546.18	13.805
546.52	14.246
546.86	13.196
547.20	14.498
547.54	13.961
547.88	14.349
548.22	13.387
548.56	13.459
548.90	13.252
549.24	13.131
549.58	13.984
549.92	15.041
550.26	14.347
550.60	13.485
550.94	14.930
551.28	13.533
551.62	14.091
551.96	12.632
552.30	14.061
552.64	14.807
552.98	13.627
553.32	13.688
553.66	14.451
554.00	13.864
554.34	14.286
554.68	14.521
555.02	13.611
555.36	13.848
555.69	12.923
556.03	13.795
556.37	13.233
556.71	12.960
557.05	13.796
557.39	14.486
557.73	13.691
558.07	13.923
558.41	13.531
558.75	13.887
559.08	13.348
559.42	14.210
559.76	13.897
560.10	13.633
560.44	13.557
560.78	13.906
561.12	12.731
561.45	14.211
561.79	13.448
562.13	12.877
562.47	13.661
562.81	13.808
563.15	12.508
563.48	12.997
563.82	13.699
564.16	13.211
564.50	12.630
564.84	13.211
565.17	13.256
565.51	13.674
565.85	13.261
566.19	11.897
566.52	13.046
566.86	12.236
567.20	13.443
567.54	11.530
567.88	11.461
568.21	13.757
568.55	12.639
568.89	12.305
569.23	11.497
569.56	11.579
569.90	11.887
570.24	11.159
570.57	11.119
570.91	10.537
571.25	10.624
571.59	10.869
571.92	10.858
572.26	11.092
572.60	10.661
572.93	10.675
573.27	11.387
573.61	10.944
573.95	10.698
574.28	10.377
574.62	10.617
574.96	10.705
575.29	10.063
575.63	10.493
575.97	10.544
576.30	11.206
576.64	10.462
576.98	10.501
577.31	10.213
577.65	10.337
577.98	10.092
578.32	9.968
578.66	10.063
578.99	10.386
579.33	10.312
579.67	10.095
580.00	10.405
580.34	10.323
580.67	10.139
581.01	10.434
581.35	9.941
581.68	10.192
582.02	9.848
582.35	9.801
582.69	9.873
583.02	10.190
583.36	10.399
583.70	10.614
584.03	10.789
584.37	10.698
584.70	10.397
585.04	10.641
585.37	10.438
585.71	10.409
586.04	10.220
586.38	10.815
586.72	10.771
587.05	10.704
587.39	10.106
587.72	10.796
588.06	9.872
588.39	10.754
588.73	10.531
589.06	10.938
589.40	11.246
589.73	10.912
590.07	10.925
590.40	10.924
590.73	11.397
591.07	11.762
591.40	11.345
591.74	11.688
592.07	11.518
592.41	11.823
592.74	10.861
593.08	10.726
593.41	10.598
593.75	10.556
594.08	11.063
594.41	10.781
594.75	11.238
595.08	10.916
595.42	10.823
595.75	11.182
596.09	11.603
596.42	11.591
596.75	11.524
597.09	11.602
597.42	11.088
597.75	11.384
598.09	11.478
598.42	11.125
598.76	10.580
599.09	10.832
599.42	11.026
599.76	10.835
600.09	10.273
600.42	11.140
600.76	10.286
601.09	10.893
601.42	10.997
601.76	10.816
602.09	10.791
602.42	11.425
602.76	11.487
603.09	10.936
603.42	11.324
603.76	11.090
604.09	10.624
604.42	10.681
604.76	11.177
605.09	11.271
605.42	11.201
605.75	11.672
606.09	10.370
606.42	10.993
606.75	11.199
607.09	11.720
607.42	10.355
607.75	10.675
608.08	10.421
608.42	11.744
608.75	11.452
609.08	11.471
609.41	10.995
609.75	10.624
610.08	11.593
610.41	11.359
610.74	11.022
611.07	11.067
611.41	11.580
611.74	11.815
612.07	11.801
612.40	11.857
612.73	11.474
613.07	12.338
613.40	11.743
613.73	10.855
614.06	11.129
614.39	11.536
614.72	11.684
615.06	12.080
615.39	11.677
615.72	11.912
616.05	11.430
616.38	11.062
616.71	12.530
617.05	12.367
617.38	12.267
617.71	12.012
618.04	12.200
618.37	11.650
618.70	11.574
619.03	12.500
619.36	12.627
619.69	12.113
620.03	12.500
620.36	12.968
620.69	13.219
621.02	13.127
621.35	12.686
621.68	12.227
622.01	13.158
622.34	12.935
622.67	13.536
623.00	11.592
623.33	12.580
623.66	12.723
623.99	12.224
624.32	11.840
624.65	13.136
624.99	12.323
625.32	12.600
625.65	12.171
625.98	13.221
626.31	13.841
626.64	13.633
626.97	13.134
627.30	12.136
627.63	13.700
627.96	14.130
628.29	12.336
628.62	15.188
628.95	15.660
629.28	13.412
629.61	13.382
629.94	14.190
630.26	14.395
630.59	14.204
630.92	13.123
631.25	12.537
631.58	13.714
631.91	14.706
632.24	13.819
632.57	15.425
632.90	13.925
633.23	14.989
633.56	15.254
633.89	14.043
634.22	14.983
634.55	16.095
634.88	15.449
635.20	15.771
635.53	15.422
635.86	13.738
636.19	14.588
636.52	14.418
636.85	15.349
637.18	14.862
637.51	15.485
637.83	13.687
638.16	14.450
638.49	15.617
638.82	16.561
639.15	15.750
639.48	16.708
639.81	16.220
640.13	17.057
640.46	15.302
640.79	16.380
641.12	15.406
641.45	15.922
641.77	16.348
642.10	16.520
642.43	14.715
642.76	16.409
643.09	15.491
643.41	15.630
643.74	16.512
644.07	17.226
644.40	16.258
644.73	17.008
645.05	17.908
645.38	15.640
645.71	17.874
646.04	16.113
646.36	17.863
646.69	18.395
647.02	18.537
647.35	17.182
647.67	15.929
648.00	18.374
648.33	16.832
648.66	14.848
648.98	17.841
649.31	15.097
649.64	15.695
649.96	16.990
650.29	17.062
650.62	15.858
650.94	17.342
651.27	18.750
651.60	18.136
651.92	17.732
652.25	16.775
652.58	17.290
652.90	18.957
653.23	15.408
653.56	14.646
653.88	16.799
654.21	17.220
654.54	16.172
654.86	14.642
655.19	14.189
655.52	9.863
655.84	7.492
656.17	9.502
656.49	12.974
656.82	13.139
657.15	9.956
657.47	7.519
657.80	5.844
658.13	6.219
658.45	9.612
658.78	9.664
659.10	10.174
659.43	10.483
659.75	11.746
660.08	12.658
660.41	14.804
660.73	17.027
661.06	16.083
661.38	18.182
661.71	18.846
662.03	21.302
662.36	15.109
662.68	20.482
663.01	17.778
663.33	16.773
663.66	18.908
663.98	17.711
664.31	17.227
664.63	17.409
664.96	17.304
665.28	19.672
665.61	17.349
665.93	18.712
666.26	17.850
666.58	15.272
666.91	19.239
667.23	19.101
667.56	16.847
667.88	19.658
668.21	19.403
668.53	18.221
668.86	19.481
669.18	20.896
669.50	19.130
669.83	20.915
670.15	19.111
670.48	18.083
670.80	19.397
671.13	20.382
671.45	16.596
671.77	18.534
672.10	17.560
672.42	16.431
672.75	17.910
673.07	16.725
673.39	15.371
673.72	17.187
674.04	18.431
674.37	18.641
674.69	16.155
675.01	15.900
675.34	21.150
675.66	20.211
675.98	19.348
676.31	19.538
676.63	16.136
676.95	20.335
677.28	16.822
677.60	19.780
677.92	21.097
678.25	17.864
678.57	20.916
678.89	15.631
679.22	18.271
679.54	20.038
679.86	20.550
680.18	15.564
680.51	16.667
680.83	16.726
681.15	20.566
681.48	17.391
681.80	17.021
682.12	18.582
682.44	15.280
682.77	19.756
683.09	20.172
683.41	19.069
683.73	18.543
684.06	19.421
684.38	18.200
684.70	18.411
685.02	15.760
685.34	18.681
685.67	16.259
685.99	16.495
686.31	17.406
686.63	14.664
686.96	17.143
687.28	17.690
687.60	15.036
687.92	18.099
688.24	18.821
688.56	19.880
688.89	18.050
689.21	20.961
689.53	18.998
689.85	21.064
690.17	18.012
690.49	21.231
690.82	19.393
691.14	18.304
691.46	16.667
691.78	18.675
692.10	19.215
692.42	19.361
692.74	17.635
693.06	18.298
693.39	19.302
693.71	19.214
694.03	19.368
694.35	17.749
694.67	18.993
694.99	21.463
695.31	19.608
695.63	17.703
695.95	20.538
696.27	16.497
696.59	19.689
696.91	21.244
697.23	16.432
697.56	18.337
697.88	17.587
698.20	16.458
698.52	20.860
698.84	19.376
699.16	17.972
699.48	18.765
699.80	17.633
700.12	23.636
700.44	20.159
700.76	21.823
701.08	23.276
701.40	21.788
701.72	23.324
702.04	26.136
702.36	20.963
702.68	21.246
703.00	17.729
703.32	20.213
703.64	21.716
703.96	17.827
704.28	19.477
704.60	26.393
704.91	19.585
705.23	22.874
705.55	25.249
705.87	25.249
706.19	22.968
706.51	22.430
706.83	21.515
707.15	24.930
707.47	19.697
707.79	19.902
708.11	18.265
708.43	19.524
708.74	17.602
709.06	22.078
709.38	20.210
709.70	24.709
710.02	25.223
710.34	20.606
710.66	20.597
710.98	23.295
711.29	19.767
711.61	25.369
711.93	18.910
712.25	25.080
712.57	20.956
712.89	24.567
713.20	23.708
713.52	25.000
713.84	20.570
714.16	20.732
714.48	23.851
714.80	22.796
715.11	23.919
715.43	23.145
715.75	22.609
716.07	23.003
716.39	21.944
716.70	21.595
717.02	24.820
717.34	27.208
717.66	29.851
717.97	31.076
718.29	27.407
718.61	29.562
718.93	22.426
719.24	24.567
719.56	22.373
719.88	23.729
720.20	27.365
720.51	26.132
720.83	23.420
721.15	22.388
721.46	24.468
721.78	25.448
722.10	26.415
722.42	26.316
722.73	27.341
723.05	28.279
723.37	27.935
723.68	25.869
724.00	28.049
724.32	27.016
724.63	29.675
724.95	26.360
725.27	27.530
725.58	27.734
725.90	28.102
726.22	28.302
726.53	22.917
726.85	25.256
727.16	24.911
727.48	27.660
727.80	25.000
728.11	26.812
728.43	26.154
728.74	25.806
729.06	29.927
729.38	26.471
729.69	26.690
730.01	21.843
730.32	20.833
730.64	23.077
730.96	21.122
731.27	27.815
731.59	23.547
731.90	22.741
732.22	22.050
732.53	21.672
732.85	22.436
733.16	22.508
733.48	24.585
733.80	23.052
734.11	26.433
734.43	26.331
734.74	21.714
735.06	18.911
735.37	26.301
735.69	22.611
736.00	25.490
736.32	23.053
736.63	23.323
736.95	26.198
737.26	16.667
737.58	21.290
737.89	24.080
738.21	24.915
738.52	26.071
738.83	26.038
739.15	22.308
739.46	29.197
739.78	24.653
740.09	25.538
740.41	26.129
740.72	21.254
741.04	25.185
741.35	27.917
741.66	36.000
741.98	26.887
742.29	29.665
742.61	31.466
742.92	31.674
743.23	26.496
743.55	29.200
743.86	27.632
744.18	34.956
744.49	33.971
744.80	30.516
745.12	34.091
745.43	30.396
745.74	33.333
746.06	30.734
746.37	30.045
746.68	32.127
747.00	32.870
747.31	31.905
747.62	27.434
747.94	30.396
748.25	31.489
748.56	29.956
748.88	30.198
749.19	32.500
749.50	30.233
749.82	24.390
750.13	28.571
750.44	22.993
750.75	26.667
751.07	27.974
751.38	26.829
751.69	25.993
752.01	22.556
752.32	24.549
752.63	26.950
752.94	28.689
753.26	32.400
753.57	22.764
753.88	27.734
754.19	27.857
754.51	27.778
754.82	21.300
755.13	26.415
755.44	25.188
755.75	22.628
756.07	25.177
756.38	23.358
756.69	21.141
757.00	22.156
757.31	21.068
757.63	21.637
757.94	20.107
758.25	20.588
758.56	21.975
758.87	19.355
759.18	26.970
759.50	21.630
759.81	23.053
760.12	20.312
760.43	23.782
760.74	21.196
761.05	21.186
761.36	22.193
761.67	20.739
761.99	24.845
762.30	23.611
762.61	28.244
762.92	29.687
763.23	25.630
763.54	32.000
763.85	25.391
764.16	32.308
764.47	29.658
764.78	20.848
765.10	24.051
765.41	21.829
765.72	22.455
766.03	23.511
766.34	21.667
766.65	27.660
766.96	31.197
767.27	32.487
767.58	35.417
767.89	41.579
768.20	34.483
768.51	34.518
768.82	30.734
769.13	26.016
769.44	31.174
769.75	27.468
770.06	24.312
770.37	25.792
770.68	34.722
770.99	28.889
771.30	24.180
771.61	30.045
771.92	30.328
772.23	32.353
772.54	26.667
772.85	31.937
773.16	31.383
773.47	34.783
773.78	37.056
774.09	31.548
774.39	38.596
774.70	35.185
775.01	44.203
775.32	47.059
775.63	46.711
775.94	36.691
776.25	46.457
776.56	47.015
776.87	45.902
777.18	46.875
777.48	51.908
777.79	43.182
778.10	49.630
778.41	48.214
778.72	47.445
779.03	43.624
779.34	34.228
779.65	35.135
779.95	44.785
780.26	45.752
780.57	46.207
780.88	47.656
781.19	36.090
781.50	51.351
781.80	42.767
782.11	40.113
782.42	31.013
782.73	38.650
783.04	47.973
783.34	36.620
783.65	44.521
783.96	49.254
784.27	37.762
784.57	33.094
784.88	40.741
785.19	50.000
785.50	42.453
785.81	48.507
786.11	50.820
786.42	46.512
786.73	46.018
787.04	51.887
787.34	45.536
787.65	57.000
787.96	47.748
788.26	42.149
788.57	50.000
788.88	62.810
789.19	45.139
789.49	48.485
789.80	42.748
790.11	62.857
790.41	59.406
790.72	65.060
791.03	54.348
791.33	52.326
791.64	61.856
791.95	61.386
792.25	65.556
792.56	57.143
792.87	74.359
793.17	60.759
793.48	68.966
793.79	57.471
794.09	69.318
794.40	52.101
794.70	52.206
795.01	40.000
795.32	49.640
795.62	48.819
795.93	55.172
796.23	51.327
796.54	61.176
796.85	63.514
797.15	77.465
797.46	60.606
797.76	62.651
798.07	67.089
798.37	64.615
798.68	72.727
798.99	71.831
799.29	77.922
799.60	62.500
799.90	76.712
800.21	85.075
800.51	100.000
800.82	91.228
801.12	85.246
801.43	74.242
801.73	67.568
802.04	80.952
802.34	67.901
802.65	75.000
802.95	91.525
803.26	89.063
803.56	77.143
803.87	89.231
804.17	94.118
804.48	105.556
804.78	86.207
805.09	85.294
805.39	92.308
805.70	92.857
806.00	88.525
806.30	68.182
806.61	71.951
806.91	60.759
807.22	64.474
807.52	82.090
807.83	85.915
808.13	93.750
808.43	88.333
808.74	63.158
809.04	85.507
809.35	85.075
809.65	76.316
809.95	90.323
810.26	94.915
810.56	100.000
810.86	104.545
811.17	97.619
811.47	115.000
811.77	92.593
812.08	107.273
812.38	116.000
812.69	147.222
812.99	104.545
813.29	89.796
813.59	100.000
813.90	110.204
814.20	96.364
814.50	80.000
814.81	101.471
815.11	79.592
815.41	90.164
815.72	126.190
816.02	101.818
816.32	104.762
816.62	115.000
816.93	151.220
817.23	83.333
817.53	102.273
817.84	148.485
818.14	119.565
818.44	106.667
818.74	176.471
819.04	115.000
819.35	131.429
819.65	144.118
819.95	146.429
820.25	185.000
820.56	146.154
820.86	102.273
821.16	139.535
821.46	92.308
821.76	100.000
822.07	148.571
822.37	127.500
822.67	130.303
822.97	129.412
823.27	200.000
823.57	137.838
823.88	130.000
824.18	156.667
824.48	135.714
824.78	164.000
825.08	175.000
825.38	148.649
825.69	136.585
825.99	170.833
826.29	155.172
826.59	136.842
826.89	163.158
827.19	144.118
827.49	151.613
827.79	138.636
828.09	122.727
828.39	108.511
828.70	126.531
829.00	166.667
829.30	161.290
829.60	135.000
829.90	306.667
830.20	167.857
830.50	173.913
830.80	134.783
831.10	146.667
831.40	143.333
831.70	208.696
832.00	238.462
832.30	166.667
832.60	293.750
832.90	173.333
833.20	371.429
833.50	196.774
833.80	134.483
834.10	184.375
834.40	238.462
834.70	272.222
835.00	280.952
835.30	145.714
835.60	261.538
835.90	189.655
836.20	285.714
836.50	189.655
836.80	196.000
837.10	150.000
837.40	238.095
837.70	305.882
838.00	192.593
838.30	190.476
838.60	280.952
838.90	223.077
839.19	260.000
839.49	314.286
839.79	370.000
840.09	240.000
840.39	228.571
840.69	234.783
840.99	316.667
841.29	460.000
841.59	266.667
841.88	350.000
842.18	172.414
842.48	252.381
842.78	150.000
843.08	247.826
843.38	159.375
843.68	900.000
843.97	200.000
844.27	179.310
844.57	271.429
844.87	325.000
845.17	166.667
845.47	1333.333
845.76	433.333
846.06	294.118
846.36	562.500
846.66	385.714
846.96	268.750
847.25	363.636
847.55	327.273
847.85	239.130
848.15	470.000
848.44	328.571
848.74	283.333
849.04	241.176
849.34	520.000
849.63	268.421
849.93	445.455
850.23	880.000
850.53	407.143
850.82	2400.000
851.12	-4600.000
851.42	3800.000
851.71	230.000
852.01	-1133.333
852.31	254.167
852.61	1266.667
852.90	238.095
853.20	200.000
853.50	294.118
853.79	242.857
854.09	162.500
854.39	306.250
854.68	148.649
854.98	183.871
855.28	130.000
855.57	213.793
855.87	211.111
856.17	210.526
856.46	226.667
856.76	276.471
857.05	189.655
857.35	195.833
857.65	293.333
857.94	213.043
858.24	203.846
858.53	290.000
858.83	231.818
859.13	306.667
859.42	0.000
859.72	577.778
860.01	454.545
860.31	227.273
860.60	226.316
860.90	178.261
861.20	488.889
861.49	491.667
861.79	-3500.000
862.08	587.500
862.38	257.143
862.67	315.385
862.97	317.647
863.26	433.333
863.56	261.111
863.85	391.667
864.15	550.000
864.44	333.333
864.74	800.000
865.03	737.500
865.33	294.737
865.62	381.818
865.92	461.538
866.21	341.667
866.51	0.000
866.80	400.000
867.10	1120.000
867.39	369.231
867.69	427.273
867.98	263.158
868.27	463.636
868.57	294.737
868.86	-4000.000
869.16	287.500
869.45	2250.000
869.75	-4200.000
870.04	358.333
870.33	614.286
870.63	875.000
870.92	2200.000
871.22	742.857
871.51	352.941
871.80	238.095
872.10	321.429
>>>>>End Processed Spectral Data<<<<<
