SpectraSuite Data File
++++++++++++++++++++++++++++++++++++
Date: Wed May 13 16:07:54 PDT 2015
User: schluterlab
Dark Spectrum Present: Yes
Reference Spectrum Present: Yes
Number of Sampled Component Spectra: 1
Spectrometers: USB2E3373
Integration Time (usec): 3000 (USB2E3373)
Spectra Averaged: 3 (USB2E3373)
Boxcar Smoothing: 0 (USB2E3373)
Correct for Electrical Dark: No (USB2E3373)
Strobe/Lamp Enabled: No (USB2E3373)
Correct for Detector Non-linearity: No (USB2E3373)
Correct for Stray Light: No (USB2E3373)
Number of Pixels in Processed Spectrum: 2048
>>>>>Begin Processed Spectral Data<<<<<
178.53	0.000
178.91	-575.000
179.29	-1075.000
179.67	-111.111
180.04	-900.000
180.42	1650.000
180.80	680.000
181.18	-800.000
181.56	485.714
181.94	0.000
182.31	-314.286
182.69	1266.667
183.07	-387.500
183.45	-355.556
183.83	318.182
184.20	-220.000
184.58	1500.000
184.96	3800.000
185.34	-680.000
185.72	-425.000
186.09	-1700.000
186.47	1600.000
186.85	1200.000
187.23	3900.000
187.61	-1200.000
187.98	725.000
188.36	372.727
188.74	409.091
189.12	-420.000
189.49	380.000
189.87	-2300.000
190.25	-825.000
190.63	357.143
191.00	261.538
191.38	566.667
191.76	-675.000
192.14	1075.000
192.51	487.500
192.89	583.333
193.27	362.500
193.65	-825.000
194.02	280.000
194.40	680.000
194.78	290.000
195.15	383.333
195.53	490.000
195.91	-1500.000
196.29	287.500
196.66	242.105
197.04	-250.000
197.42	0.000
197.79	410.000
198.17	-3500.000
198.55	414.286
198.92	487.500
199.30	680.000
199.68	0.000
200.05	244.444
200.43	528.571
200.81	2300.000
201.18	1066.667
201.56	-900.000
201.94	377.778
202.31	522.222
202.69	283.333
203.07	310.000
203.44	0.000
203.82	850.000
204.19	400.000
204.57	342.857
204.95	375.000
205.32	1300.000
205.70	336.364
206.08	235.714
206.45	1450.000
206.83	262.500
207.20	516.667
207.58	720.000
207.96	261.111
208.33	437.500
208.71	-533.333
209.08	471.429
209.46	322.222
209.84	272.727
210.21	-1066.667
210.59	775.000
210.96	-325.000
211.34	1350.000
211.71	410.000
212.09	500.000
212.46	0.000
212.84	1100.000
213.22	825.000
213.59	-2600.000
213.97	533.333
214.34	500.000
214.72	381.818
215.09	700.000
215.47	-1600.000
215.84	-1700.000
216.22	1300.000
216.59	342.857
216.97	975.000
217.34	336.364
217.72	-466.667
218.09	0.000
218.47	-3200.000
218.84	455.556
219.22	571.429
219.59	1000.000
219.97	-285.714
220.34	600.000
220.72	-1033.333
221.09	264.286
221.47	875.000
221.84	-500.000
222.22	0.000
222.59	925.000
222.97	-1650.000
223.34	980.000
223.72	353.846
224.09	660.000
224.46	1600.000
224.84	-2900.000
225.21	-680.000
225.59	-3900.000
225.96	470.000
226.34	255.000
226.71	2000.000
227.08	500.000
227.46	330.000
227.83	-450.000
228.21	-1850.000
228.58	377.778
228.95	-1350.000
229.33	-1200.000
229.70	1166.667
230.08	514.286
230.45	-680.000
230.82	283.333
231.20	433.333
231.57	471.429
231.95	350.000
232.32	186.364
232.69	309.091
233.07	385.714
233.44	307.692
233.81	-866.667
234.19	178.947
234.56	358.333
234.93	300.000
235.31	345.455
235.68	153.846
236.05	292.857
236.43	148.485
236.80	173.684
237.17	3300.000
237.55	166.667
237.92	139.286
238.29	185.714
238.67	138.710
239.04	151.724
239.41	105.556
239.79	100.000
240.16	97.619
240.53	109.091
240.91	78.431
241.28	96.000
241.65	86.000
242.02	104.348
242.40	79.032
242.77	76.667
243.14	61.290
243.51	65.169
243.89	61.176
244.26	54.444
244.63	59.140
245.00	65.957
245.38	64.356
245.75	63.551
246.12	59.633
246.49	58.394
246.87	61.600
247.24	53.077
247.61	54.286
247.98	47.712
248.36	52.027
248.73	42.675
249.10	49.682
249.47	50.282
249.84	42.781
250.22	44.385
250.59	41.420
250.96	45.455
251.33	37.915
251.70	42.574
252.08	38.095
252.45	42.601
252.82	40.435
253.19	42.128
253.56	38.824
253.94	42.739
254.31	42.187
254.68	42.692
255.05	42.066
255.42	41.463
255.79	39.706
256.16	40.072
256.54	37.102
256.91	38.078
257.28	38.849
257.65	42.244
258.02	38.199
258.39	35.962
258.76	34.114
259.14	37.500
259.51	37.690
259.88	32.919
260.25	40.785
260.62	35.260
260.99	36.646
261.36	34.234
261.73	32.092
262.10	33.140
262.47	40.282
262.85	33.705
263.22	33.618
263.59	39.601
263.96	36.538
264.33	36.292
264.70	36.842
265.07	38.619
265.44	35.101
265.81	34.307
266.18	34.422
266.55	33.902
266.92	36.855
267.29	36.111
267.66	34.633
268.03	35.455
268.40	34.579
268.77	31.742
269.14	34.009
269.51	31.828
269.88	33.800
270.25	33.634
270.62	33.708
270.99	36.559
271.36	36.052
271.73	34.579
272.10	31.957
272.47	35.054
272.84	34.632
273.21	36.059
273.58	32.969
273.95	31.447
274.32	33.471
274.69	35.332
275.06	31.890
275.43	33.404
275.80	33.267
276.17	32.790
276.54	30.977
276.91	34.190
277.28	30.859
277.65	34.816
278.02	32.298
278.39	34.766
278.76	32.000
279.13	33.962
279.50	30.726
279.87	32.470
280.23	32.535
280.60	33.656
280.97	29.760
281.34	29.912
281.71	31.636
282.08	33.205
282.45	28.727
282.82	30.728
283.19	30.838
283.56	32.456
283.92	31.641
284.29	30.159
284.66	30.853
285.03	30.199
285.40	30.634
285.77	32.155
286.14	30.397
286.51	30.833
286.87	29.744
287.24	30.130
287.61	30.979
287.98	30.844
288.35	29.319
288.72	28.660
289.08	26.448
289.45	28.995
289.82	29.431
290.19	26.688
290.56	27.871
290.93	27.946
291.29	30.368
291.66	27.286
292.03	30.378
292.40	28.047
292.77	25.740
293.13	24.776
293.50	28.571
293.87	25.926
294.24	25.481
294.60	24.600
294.97	26.308
295.34	25.952
295.71	25.426
296.08	23.504
296.44	25.722
296.81	24.042
297.18	26.558
297.55	23.879
297.91	25.066
298.28	26.238
298.65	24.935
299.02	24.638
299.38	25.232
299.75	22.102
300.12	23.244
300.48	23.375
300.85	23.305
301.22	24.841
301.59	21.591
301.95	23.174
302.32	23.492
302.69	23.536
303.05	24.242
303.42	22.840
303.79	24.009
304.15	21.212
304.52	23.175
304.89	22.416
305.25	22.854
305.62	22.990
305.99	23.967
306.35	22.148
306.72	25.112
307.09	23.418
307.45	23.423
307.82	21.540
308.19	23.179
308.55	23.948
308.92	21.697
309.29	21.331
309.65	20.891
310.02	22.833
310.38	22.366
310.75	23.126
311.12	23.234
311.48	23.197
311.85	24.843
312.22	22.268
312.58	21.933
312.95	24.287
313.31	22.039
313.68	21.206
314.05	23.077
314.41	24.121
314.78	23.565
315.14	22.344
315.51	23.996
315.87	24.158
316.24	23.039
316.61	23.099
316.97	23.092
317.34	22.016
317.70	24.283
318.07	22.907
318.43	23.875
318.80	24.742
319.16	23.635
319.53	23.921
319.89	24.667
320.26	25.200
320.62	24.802
320.99	25.152
321.35	26.364
321.72	25.462
322.08	25.666
322.45	26.169
322.81	25.678
323.18	26.782
323.54	25.603
323.91	25.472
324.27	25.621
324.64	25.070
325.00	26.420
325.37	26.843
325.73	27.020
326.10	27.096
326.46	26.792
326.83	28.041
327.19	27.754
327.56	27.875
327.92	28.784
328.29	28.571
328.65	29.466
329.01	28.971
329.38	29.972
329.74	27.793
330.11	28.841
330.47	28.191
330.84	30.239
331.20	29.781
331.56	28.532
331.93	28.981
332.29	29.370
332.66	28.938
333.02	28.885
333.38	30.172
333.75	28.699
334.11	29.270
334.48	29.015
334.84	29.320
335.20	30.091
335.57	28.921
335.93	28.214
336.29	28.938
336.66	29.666
337.02	27.783
337.38	29.537
337.75	28.342
338.11	29.275
338.47	29.650
338.84	29.881
339.20	28.440
339.56	28.741
339.93	29.273
340.29	28.804
340.65	28.431
341.02	28.970
341.38	30.338
341.74	29.123
342.11	28.559
342.47	27.753
342.83	29.366
343.20	28.658
343.56	27.801
343.92	27.895
344.28	29.507
344.65	29.407
345.01	27.441
345.37	27.873
345.73	28.596
346.10	27.280
346.46	28.983
346.82	29.242
347.19	27.820
347.55	29.228
347.91	28.317
348.27	28.595
348.63	28.177
349.00	27.913
349.36	27.997
349.72	27.827
350.08	27.147
350.45	28.234
350.81	28.676
351.17	28.282
351.53	27.928
351.89	27.228
352.26	28.571
352.62	29.431
352.98	28.606
353.34	29.417
353.70	28.396
354.07	28.145
354.43	27.222
354.79	28.158
355.15	27.853
355.51	29.496
355.87	29.469
356.24	29.235
356.60	27.907
356.96	29.364
357.32	27.473
357.68	29.528
358.04	26.999
358.40	29.929
358.77	27.543
359.13	27.388
359.49	28.235
359.85	27.778
360.21	27.432
360.57	29.183
360.93	29.154
361.29	28.571
361.66	27.786
362.02	28.731
362.38	28.213
362.74	28.943
363.10	27.535
363.46	27.806
363.82	28.874
364.18	28.708
364.54	29.792
364.90	28.329
365.26	29.632
365.62	29.803
365.98	28.415
366.35	27.579
366.71	29.646
367.07	28.551
367.43	29.536
367.79	29.336
368.15	30.747
368.51	28.924
368.87	29.693
369.23	28.969
369.59	30.051
369.95	28.162
370.31	29.131
370.67	28.913
371.03	29.363
371.39	28.863
371.75	29.559
372.11	27.383
372.47	30.499
372.83	30.476
373.19	29.841
373.55	29.194
373.91	31.222
374.27	29.278
374.63	29.164
374.99	30.085
375.35	29.449
375.71	30.021
376.07	29.904
376.42	29.917
376.78	30.152
377.14	30.190
377.50	30.662
377.86	29.455
378.22	29.962
378.58	29.386
378.94	30.233
379.30	30.662
379.66	30.520
380.02	30.098
380.38	29.812
380.74	30.612
381.09	31.174
381.45	30.977
381.81	30.713
382.17	31.210
382.53	30.314
382.89	31.173
383.25	31.270
383.61	32.714
383.97	31.457
384.32	30.755
384.68	30.793
385.04	31.530
385.40	30.774
385.76	31.265
386.12	32.642
386.48	32.410
386.83	32.457
387.19	33.148
387.55	32.282
387.91	32.225
388.27	32.618
388.62	33.128
388.98	31.634
389.34	32.603
389.70	32.925
390.06	32.383
390.42	32.555
390.77	31.743
391.13	32.738
391.49	32.234
391.85	32.081
392.20	32.177
392.56	32.197
392.92	32.549
393.28	31.775
393.64	32.734
393.99	31.949
394.35	32.878
394.71	32.999
395.07	33.396
395.42	33.807
395.78	33.206
396.14	33.768
396.50	33.772
396.85	33.757
397.21	33.785
397.57	32.858
397.92	33.894
398.28	32.399
398.64	32.676
399.00	32.457
399.35	32.939
399.71	33.738
400.07	33.885
400.42	33.681
400.78	33.776
401.14	32.866
401.49	33.493
401.85	32.668
402.21	32.455
402.57	32.758
402.92	33.670
403.28	33.604
403.63	34.406
403.99	32.994
404.35	33.273
404.70	33.933
405.06	32.499
405.42	32.751
405.77	33.657
406.13	32.957
406.49	32.762
406.84	33.550
407.20	32.861
407.55	33.121
407.91	34.200
408.27	33.759
408.62	32.932
408.98	33.395
409.34	33.395
409.69	33.419
410.05	33.457
410.40	33.700
410.76	33.513
411.11	33.957
411.47	33.035
411.83	34.026
412.18	33.766
412.54	34.682
412.89	33.193
413.25	34.416
413.60	33.786
413.96	32.908
414.31	33.597
414.67	34.284
415.03	33.311
415.38	33.763
415.74	33.891
416.09	34.161
416.45	33.266
416.80	33.245
417.16	34.316
417.51	33.709
417.87	33.076
418.22	34.322
418.58	34.409
418.93	34.398
419.29	33.609
419.64	34.635
420.00	34.634
420.35	33.971
420.71	34.429
421.06	33.950
421.42	34.269
421.77	33.688
422.12	33.071
422.48	32.650
422.83	33.838
423.19	33.536
423.54	34.939
423.90	33.507
424.25	34.338
424.61	33.393
424.96	34.869
425.31	33.666
425.67	33.539
426.02	33.829
426.38	34.005
426.73	34.231
427.09	34.711
427.44	32.950
427.79	34.445
428.15	34.821
428.50	34.757
428.85	34.803
429.21	33.186
429.56	35.303
429.92	33.920
430.27	33.962
430.62	32.975
430.98	34.094
431.33	33.660
431.68	34.660
432.04	33.546
432.39	34.666
432.74	35.787
433.10	35.710
433.45	34.985
433.80	33.703
434.16	34.722
434.51	34.105
434.86	34.094
435.22	35.186
435.57	35.319
435.92	35.108
436.28	35.765
436.63	35.486
436.98	35.318
437.34	34.764
437.69	35.298
438.04	35.188
438.39	35.045
438.75	34.980
439.10	35.196
439.45	34.829
439.81	36.073
440.16	35.460
440.51	35.325
440.86	36.132
441.22	35.095
441.57	35.456
441.92	35.670
442.27	34.661
442.63	34.281
442.98	36.507
443.33	35.109
443.68	35.829
444.03	35.530
444.39	34.761
444.74	35.877
445.09	35.472
445.44	35.101
445.79	35.675
446.15	35.257
446.50	36.026
446.85	35.920
447.20	36.257
447.55	36.460
447.91	35.962
448.26	35.893
448.61	36.687
448.96	35.437
449.31	36.895
449.66	35.678
450.02	35.543
450.37	35.261
450.72	35.195
451.07	35.466
451.42	35.745
451.77	36.230
452.12	36.316
452.47	35.883
452.83	36.480
453.18	36.125
453.53	36.797
453.88	35.794
454.23	36.461
454.58	36.584
454.93	36.491
455.28	35.037
455.63	36.468
455.98	37.976
456.34	36.935
456.69	36.819
457.04	36.718
457.39	35.476
457.74	36.622
458.09	35.940
458.44	35.975
458.79	35.466
459.14	35.779
459.49	36.311
459.84	35.734
460.19	36.358
460.54	36.169
460.89	36.588
461.24	36.855
461.59	37.304
461.94	36.128
462.29	37.151
462.64	36.694
462.99	35.979
463.34	37.267
463.69	37.461
464.04	36.580
464.39	36.870
464.74	36.661
465.09	36.550
465.44	36.343
465.79	35.347
466.14	36.563
466.49	36.040
466.84	36.953
467.19	36.270
467.54	37.938
467.89	36.315
468.24	36.533
468.59	37.851
468.94	36.652
469.29	37.404
469.64	38.153
469.99	37.889
470.34	37.186
470.68	38.290
471.03	37.415
471.38	39.194
471.73	38.308
472.08	37.763
472.43	37.374
472.78	37.656
473.13	38.768
473.48	36.767
473.83	37.927
474.17	37.150
474.52	38.089
474.87	37.128
475.22	37.551
475.57	37.668
475.92	37.228
476.27	37.317
476.61	36.680
476.96	36.559
477.31	36.682
477.66	37.363
478.01	37.794
478.36	38.974
478.70	36.085
479.05	37.327
479.40	38.434
479.75	38.841
480.10	37.276
480.45	37.078
480.79	36.550
481.14	37.476
481.49	37.162
481.84	38.500
482.19	37.665
482.53	37.706
482.88	37.506
483.23	38.271
483.58	36.897
483.92	38.144
484.27	36.950
484.62	37.672
484.97	37.130
485.31	37.979
485.66	36.037
486.01	34.580
486.36	33.210
486.70	32.504
487.05	33.920
487.40	35.061
487.75	35.405
488.09	36.215
488.44	36.524
488.79	38.192
489.13	37.815
489.48	37.765
489.83	37.635
490.17	37.089
490.52	37.157
490.87	36.318
491.22	37.472
491.56	37.677
491.91	38.064
492.26	37.896
492.60	37.650
492.95	37.699
493.30	37.009
493.64	37.517
493.99	37.187
494.34	38.298
494.68	38.233
495.03	37.265
495.37	37.552
495.72	38.402
496.07	38.561
496.41	36.637
496.76	37.247
497.11	37.956
497.45	37.913
497.80	38.052
498.14	37.971
498.49	38.293
498.84	38.639
499.18	37.381
499.53	38.462
499.87	38.211
500.22	37.164
500.56	38.447
500.91	37.356
501.26	37.553
501.60	37.874
501.95	37.168
502.29	38.285
502.64	38.082
502.98	38.616
503.33	38.574
503.67	38.237
504.02	36.763
504.36	37.623
504.71	38.056
505.06	38.506
505.40	38.503
505.75	37.416
506.09	38.338
506.44	39.369
506.78	38.578
507.13	39.778
507.47	39.596
507.82	39.615
508.16	39.159
508.51	39.523
508.85	39.275
509.19	40.204
509.54	39.082
509.88	40.185
510.23	39.640
510.57	40.248
510.92	40.342
511.26	39.157
511.61	40.197
511.95	40.240
512.30	39.555
512.64	39.441
512.98	40.461
513.33	40.739
513.67	40.342
514.02	39.610
514.36	41.289
514.70	41.339
515.05	41.550
515.39	40.942
515.74	41.554
516.08	41.252
516.42	41.398
516.77	41.750
517.11	41.010
517.46	42.664
517.80	42.741
518.14	41.112
518.49	42.474
518.83	41.818
519.17	42.610
519.52	42.784
519.86	42.898
520.20	42.428
520.55	42.011
520.89	42.092
521.23	43.607
521.58	42.137
521.92	42.743
522.26	41.367
522.61	43.676
522.95	43.401
523.29	42.362
523.64	43.537
523.98	43.808
524.32	42.702
524.66	43.416
525.01	43.137
525.35	42.627
525.69	42.488
526.04	43.863
526.38	43.319
526.72	43.742
527.06	44.696
527.41	43.255
527.75	43.730
528.09	44.830
528.43	45.061
528.78	44.561
529.12	43.455
529.46	44.397
529.80	44.678
530.15	45.234
530.49	43.385
530.83	43.734
531.17	46.671
531.51	46.109
531.86	44.194
532.20	45.111
532.54	45.227
532.88	45.058
533.22	43.161
533.57	43.765
533.91	44.371
534.25	44.957
534.59	44.478
534.93	43.724
535.27	43.271
535.62	44.933
535.96	44.193
536.30	44.501
536.64	44.430
536.98	45.056
537.32	45.754
537.66	45.600
538.01	44.964
538.35	44.926
538.69	44.863
539.03	44.379
539.37	44.281
539.71	43.552
540.05	45.621
540.39	44.585
540.73	42.885
541.07	46.074
541.42	45.662
541.76	45.742
542.10	45.602
542.44	45.960
542.78	44.796
543.12	43.570
543.46	44.525
543.80	44.893
544.14	44.416
544.48	44.571
544.82	44.516
545.16	44.437
545.50	43.573
545.84	44.086
546.18	45.051
546.52	45.286
546.86	44.880
547.20	45.920
547.54	45.090
547.88	45.663
548.22	44.645
548.56	43.019
548.90	43.278
549.24	43.906
549.58	44.748
549.92	43.613
550.26	45.170
550.60	45.228
550.94	45.493
551.28	45.135
551.62	45.579
551.96	46.175
552.30	44.915
552.64	45.707
552.98	45.763
553.32	45.179
553.66	44.308
554.00	45.504
554.34	44.099
554.68	46.853
555.02	45.416
555.36	44.885
555.69	44.046
556.03	44.347
556.37	45.157
556.71	45.430
557.05	45.728
557.39	46.116
557.73	44.248
558.07	46.918
558.41	46.093
558.75	44.012
559.08	46.756
559.42	46.183
559.76	45.882
560.10	45.610
560.44	45.073
560.78	44.977
561.12	44.261
561.45	46.023
561.79	44.759
562.13	46.345
562.47	44.945
562.81	46.583
563.15	44.950
563.48	45.225
563.82	45.662
564.16	45.062
564.50	44.466
564.84	44.943
565.17	44.402
565.51	44.345
565.85	44.543
566.19	43.456
566.52	44.839
566.86	43.701
567.20	44.222
567.54	43.664
567.88	43.781
568.21	43.810
568.55	42.821
568.89	43.385
569.23	41.399
569.56	40.810
569.90	40.604
570.24	40.761
570.57	40.224
570.91	38.623
571.25	39.345
571.59	38.940
571.92	38.767
572.26	39.053
572.60	39.159
572.93	39.220
573.27	39.160
573.61	39.922
573.95	39.302
574.28	38.317
574.62	37.366
574.96	38.017
575.29	38.215
575.63	38.821
575.97	38.037
576.30	39.697
576.64	38.716
576.98	39.037
577.31	38.147
577.65	38.436
577.98	37.535
578.32	37.669
578.66	37.589
578.99	38.051
579.33	38.368
579.67	37.947
580.00	39.103
580.34	38.420
580.67	38.029
581.01	39.105
581.35	38.699
581.68	37.642
582.02	37.765
582.35	37.432
582.69	37.275
583.02	37.393
583.36	38.644
583.70	37.937
584.03	38.662
584.37	39.657
584.70	39.159
585.04	38.478
585.37	38.281
585.71	38.816
586.04	38.246
586.38	38.532
586.72	39.133
587.05	38.142
587.39	37.916
587.72	38.882
588.06	38.447
588.39	38.903
588.73	39.161
589.06	39.545
589.40	40.135
589.73	40.549
590.07	39.395
590.40	39.861
590.73	40.749
591.07	40.944
591.40	40.784
591.74	41.645
592.07	41.143
592.41	40.843
592.74	40.225
593.08	39.507
593.41	39.323
593.75	38.351
594.08	38.552
594.41	39.272
594.75	39.593
595.08	39.764
595.42	39.475
595.75	39.209
596.09	39.805
596.42	40.079
596.75	40.988
597.09	41.255
597.42	40.304
597.75	40.103
598.09	40.609
598.42	39.905
598.76	40.049
599.09	39.301
599.42	38.755
599.76	39.092
600.09	38.543
600.42	39.627
600.76	39.500
601.09	38.506
601.42	39.688
601.76	39.203
602.09	40.237
602.42	40.008
602.76	40.185
603.09	40.126
603.42	40.141
603.76	39.405
604.09	39.395
604.42	39.217
604.76	39.772
605.09	40.280
605.42	39.504
605.75	40.522
606.09	39.366
606.42	39.477
606.75	39.320
607.09	39.389
607.42	40.137
607.75	39.156
608.08	39.470
608.42	40.789
608.75	40.307
609.08	39.917
609.41	40.362
609.75	39.828
610.08	40.057
610.41	40.037
610.74	40.208
611.07	40.711
611.41	40.236
611.74	40.372
612.07	40.890
612.40	42.183
612.73	40.421
613.07	41.864
613.40	40.021
613.73	39.906
614.06	40.215
614.39	40.535
614.72	41.211
615.06	40.861
615.39	40.340
615.72	39.775
616.05	39.660
616.38	40.245
616.71	41.211
617.05	41.461
617.38	41.251
617.71	41.622
618.04	41.346
618.37	40.923
618.70	41.755
619.03	41.842
619.36	42.702
619.69	42.958
620.03	42.582
620.36	42.380
620.69	42.397
621.02	42.478
621.35	42.208
621.68	43.458
622.01	42.879
622.34	43.041
622.67	43.878
623.00	41.526
623.33	42.030
623.66	42.244
623.99	42.268
624.32	42.368
624.65	41.455
624.99	42.351
625.32	41.999
625.65	43.125
625.98	43.582
626.31	43.624
626.64	43.429
626.97	43.558
627.30	43.641
627.63	44.135
627.96	44.743
628.29	43.657
628.62	45.380
628.95	44.906
629.28	43.613
629.61	44.730
629.94	45.524
630.26	46.139
630.59	45.186
630.92	44.636
631.25	44.817
631.58	44.344
631.91	44.118
632.24	45.042
632.57	45.540
632.90	47.259
633.23	46.309
633.56	47.458
633.89	45.980
634.22	46.198
634.55	48.757
634.88	46.946
635.20	48.029
635.53	46.627
635.86	48.144
636.19	46.471
636.52	46.251
636.85	46.392
637.18	44.700
637.51	46.572
637.83	43.527
638.16	47.954
638.49	46.851
638.82	47.914
639.15	46.750
639.48	46.633
639.81	48.257
640.13	47.656
640.46	49.396
640.79	49.009
641.12	47.180
641.45	47.626
641.77	50.515
642.10	48.977
642.43	49.249
642.76	49.690
643.09	49.233
643.41	47.951
643.74	51.698
644.07	48.933
644.40	47.086
644.73	48.504
645.05	48.811
645.38	46.288
645.71	48.309
646.04	49.336
646.36	54.090
646.69	50.669
647.02	48.129
647.35	47.766
647.67	52.389
648.00	49.106
648.33	49.670
648.66	47.879
648.98	50.075
649.31	47.534
649.64	46.637
649.96	47.541
650.29	49.447
650.62	48.220
650.94	47.650
651.27	49.831
651.60	50.582
651.92	49.521
652.25	47.720
652.58	48.910
652.90	51.027
653.23	45.609
653.56	47.559
653.88	47.702
654.21	47.709
654.54	49.340
654.86	47.196
655.19	44.189
655.52	33.951
655.84	30.380
656.17	38.227
656.49	50.853
656.82	51.782
657.15	39.391
657.47	29.277
657.80	22.580
658.13	24.089
658.45	36.417
658.78	37.711
659.10	39.165
659.43	41.116
659.75	43.010
660.08	46.392
660.41	51.024
660.73	51.842
661.06	51.911
661.38	53.636
661.71	48.846
662.03	52.465
662.36	47.913
662.68	49.197
663.01	48.889
663.33	49.682
663.66	47.899
663.98	50.108
664.31	50.840
664.63	49.190
664.96	49.095
665.28	51.434
665.61	48.733
665.93	48.089
666.26	49.899
666.58	50.209
666.91	52.643
667.23	52.584
667.56	49.028
667.88	50.214
668.21	49.893
668.53	49.024
668.86	51.732
669.18	52.878
669.50	51.957
669.83	52.505
670.15	50.222
670.48	51.198
670.80	47.629
671.13	50.318
671.45	47.872
671.77	50.509
672.10	48.799
672.42	46.643
672.75	44.776
673.07	43.838
673.39	47.740
673.72	47.461
674.04	47.451
674.37	48.932
674.69	49.080
675.01	47.071
675.34	48.049
675.66	51.158
675.98	48.065
676.31	51.261
676.63	49.894
676.95	47.170
677.28	49.065
677.60	50.989
677.92	49.789
678.25	48.665
678.57	46.215
678.89	44.689
679.22	46.955
679.54	47.328
679.86	45.872
680.18	47.048
680.51	43.972
680.83	46.975
681.15	46.226
681.48	49.905
681.80	46.228
682.12	48.851
682.44	45.261
682.77	46.843
683.09	52.790
683.41	47.894
683.73	46.578
684.06	47.934
684.38	46.184
684.70	49.031
685.02	46.529
685.34	45.971
685.67	43.706
685.99	43.986
686.31	43.345
686.63	40.989
686.96	43.929
687.28	44.765
687.60	44.022
687.92	45.155
688.24	45.817
688.56	46.988
688.89	48.963
689.21	48.472
689.53	48.643
689.85	47.894
690.17	47.205
690.49	47.983
690.82	49.766
691.14	47.098
691.46	44.093
691.78	43.775
692.10	46.281
692.42	46.707
692.74	43.776
693.06	44.894
693.39	47.228
693.71	46.288
694.03	47.789
694.35	44.156
694.67	47.597
694.99	50.488
695.31	45.588
695.63	46.890
695.95	47.433
696.27	45.178
696.59	49.223
696.91	50.259
697.23	42.958
697.56	46.908
697.88	44.172
698.20	46.042
698.52	47.742
698.84	45.434
699.16	47.235
699.48	45.843
699.80	48.551
700.12	52.987
700.44	48.276
700.76	47.514
701.08	50.000
701.40	45.810
701.72	53.644
702.04	52.557
702.36	47.592
702.68	50.992
703.00	49.861
703.32	48.670
703.64	47.453
703.96	47.075
704.28	50.581
704.60	46.628
704.91	51.039
705.23	53.079
705.55	57.475
705.87	55.814
706.19	51.590
706.51	51.713
706.83	51.515
707.15	48.739
707.47	42.172
707.79	46.192
708.11	44.749
708.43	46.190
708.74	43.878
709.06	50.130
709.38	48.031
709.70	48.837
710.02	52.226
710.34	45.758
710.66	50.149
710.98	48.580
711.29	51.453
711.61	50.442
711.93	47.756
712.25	50.482
712.57	53.676
712.89	51.903
713.20	48.328
713.52	44.408
713.84	45.570
714.16	45.732
714.48	49.138
714.80	54.711
715.11	47.839
715.43	48.071
715.75	47.246
716.07	46.965
716.39	45.455
716.70	54.485
717.02	53.957
717.34	51.943
717.66	55.224
717.97	57.371
718.29	45.185
718.61	48.905
718.93	50.735
719.24	49.481
719.56	48.814
719.88	48.814
720.20	53.716
720.51	54.007
720.83	50.558
721.15	50.000
721.46	47.872
721.78	50.179
722.10	56.604
722.42	54.511
722.73	51.685
723.05	52.049
723.37	49.393
723.68	53.282
724.00	51.626
724.32	55.242
724.63	51.626
724.95	51.464
725.27	54.251
725.58	51.563
725.90	52.555
726.22	49.434
726.53	46.875
726.85	51.536
727.16	50.890
727.48	45.390
727.80	47.727
728.11	46.014
728.43	51.154
728.74	44.086
729.06	51.095
729.38	52.941
729.69	48.399
730.01	43.003
730.32	48.611
730.64	45.151
730.96	45.545
731.27	47.682
731.59	44.343
731.90	46.939
732.22	44.099
732.53	45.511
732.85	46.154
733.16	43.730
733.48	41.860
733.80	42.532
734.11	46.178
734.43	45.858
734.74	43.714
735.06	42.407
735.37	46.532
735.69	43.631
736.00	44.771
736.32	45.794
736.63	44.728
736.95	42.492
737.26	40.816
737.58	40.968
737.89	44.482
738.21	47.782
738.52	47.857
738.83	46.415
739.15	48.077
739.46	48.175
739.78	45.833
740.09	43.385
740.41	46.452
740.72	44.251
741.04	47.407
741.35	46.250
741.66	53.333
741.98	50.943
742.29	48.325
742.61	55.172
742.92	46.606
743.23	54.701
743.55	47.200
743.86	49.561
744.18	50.442
744.49	51.675
744.80	52.113
745.12	51.818
745.43	50.220
745.74	49.550
746.06	52.294
746.37	49.327
746.68	49.774
747.00	54.167
747.31	56.190
747.62	54.867
747.94	52.863
748.25	45.957
748.56	53.744
748.88	48.515
749.19	60.500
749.50	50.233
749.82	50.407
750.13	44.898
750.44	47.445
750.75	46.316
751.07	46.302
751.38	46.341
751.69	47.292
752.01	46.617
752.32	49.458
752.63	44.681
752.94	53.689
753.26	55.200
753.57	43.089
753.88	48.438
754.19	43.929
754.51	47.917
754.82	46.931
755.13	48.302
755.44	50.000
755.75	41.971
756.07	42.908
756.38	43.796
756.69	44.966
757.00	41.617
757.31	39.763
757.63	43.567
757.94	41.555
758.25	37.255
758.56	39.259
758.87	38.172
759.18	43.636
759.50	42.947
759.81	43.302
760.12	39.062
760.43	42.407
760.74	43.207
761.05	42.373
761.36	41.444
761.67	42.330
761.99	41.925
762.30	44.444
762.61	45.038
762.92	49.219
763.23	43.277
763.54	49.200
763.85	42.578
764.16	50.000
764.47	50.190
764.78	42.756
765.10	38.608
765.41	42.183
765.72	43.413
766.03	44.828
766.34	43.000
766.65	45.106
766.96	44.872
767.27	52.792
767.58	54.167
767.89	50.526
768.20	55.172
768.51	45.685
768.82	52.294
769.13	41.870
769.44	42.510
769.75	48.927
770.06	41.284
770.37	48.416
770.68	49.537
770.99	46.667
771.30	43.852
771.61	44.843
771.92	52.459
772.23	50.420
772.54	51.282
772.85	51.309
773.16	47.872
773.47	55.978
773.78	53.299
774.09	51.190
774.39	59.649
774.70	53.704
775.01	53.623
775.32	58.824
775.63	53.289
775.94	53.237
776.25	70.079
776.56	64.925
776.87	61.475
777.18	59.375
777.48	64.122
777.79	62.121
778.10	60.741
778.41	54.464
778.72	53.285
779.03	56.376
779.34	57.718
779.65	54.730
779.95	50.920
780.26	56.863
780.57	55.172
780.88	60.156
781.19	57.143
781.50	60.811
781.80	56.604
782.11	47.458
782.42	52.532
782.73	55.215
783.04	62.162
783.34	59.859
783.65	71.918
783.96	60.448
784.27	54.545
784.57	48.921
784.88	55.556
785.19	61.905
785.50	64.151
785.81	68.657
786.11	62.295
786.42	58.140
786.73	53.097
787.04	64.151
787.34	62.500
787.65	70.000
787.96	72.072
788.26	55.372
788.57	67.797
788.88	74.380
789.19	52.778
789.49	61.364
789.80	48.855
790.11	80.952
790.41	70.297
790.72	77.108
791.03	64.130
791.33	66.279
791.64	62.887
791.95	58.416
792.25	66.667
792.56	81.818
792.87	87.179
793.17	96.203
793.48	70.115
793.79	68.966
794.09	71.591
794.40	55.462
794.70	60.294
795.01	54.815
795.32	49.640
795.62	59.055
795.93	63.793
796.23	56.637
796.54	68.235
796.85	67.568
797.15	90.141
797.46	78.788
797.76	87.952
798.07	75.949
798.37	89.231
798.68	86.364
798.99	69.014
799.29	61.039
799.60	72.727
799.90	89.041
800.21	83.582
800.51	91.379
800.82	94.737
801.12	72.131
801.43	75.758
801.73	78.378
802.04	103.175
802.34	66.667
802.65	87.500
802.95	98.305
803.26	89.063
803.56	71.429
803.87	67.692
804.17	85.294
804.48	116.667
804.78	77.586
805.09	66.176
805.39	80.769
805.70	71.429
806.00	86.885
806.30	71.212
806.61	84.146
806.91	67.089
807.22	75.000
807.52	95.522
807.83	70.423
808.13	76.563
808.43	90.000
808.74	61.842
809.04	73.913
809.35	91.045
809.65	72.368
809.95	85.484
810.26	81.356
810.56	80.952
810.86	125.000
811.17	135.714
811.47	91.667
811.77	90.741
812.08	92.727
812.38	104.000
812.69	141.667
812.99	143.182
813.29	110.204
813.59	76.190
813.90	100.000
814.20	89.091
814.50	98.462
814.81	111.765
815.11	95.918
815.41	91.803
815.72	102.381
816.02	83.636
816.32	116.667
816.62	110.000
816.93	121.951
817.23	97.619
817.53	106.818
817.84	157.576
818.14	106.522
818.44	113.333
818.74	129.412
819.04	127.500
819.35	108.571
819.65	129.412
819.95	160.714
820.25	155.000
820.56	153.846
820.86	115.909
821.16	139.535
821.46	105.128
821.76	124.000
822.07	151.429
822.37	122.500
822.67	109.091
822.97	90.196
823.27	139.286
823.57	113.514
823.88	147.500
824.18	176.667
824.48	126.190
824.78	172.000
825.08	166.667
825.38	113.514
825.69	117.073
825.99	183.333
826.29	113.793
826.59	113.158
826.89	110.526
827.19	135.294
827.49	138.710
827.79	125.000
828.09	104.545
828.39	76.596
828.70	108.163
829.00	114.815
829.30	122.581
829.60	102.500
829.90	280.000
830.20	160.714
830.50	130.435
830.80	173.913
831.10	176.667
831.40	153.333
831.70	113.043
832.00	153.846
832.30	170.370
832.60	237.500
832.90	130.000
833.20	314.286
833.50	145.161
833.80	141.379
834.10	146.875
834.40	157.692
834.70	211.111
835.00	242.857
835.30	145.714
835.60	184.615
835.90	155.172
836.20	214.286
836.50	158.621
836.80	144.000
837.10	113.889
837.40	190.476
837.70	235.294
838.00	155.556
838.30	161.905
838.60	176.190
838.90	165.385
839.19	195.000
839.49	278.571
839.79	245.000
840.09	240.000
840.39	180.952
840.69	165.217
840.99	194.444
841.29	320.000
841.59	183.333
841.88	262.500
842.18	141.379
842.48	228.571
842.78	136.667
843.08	191.304
843.38	134.375
843.68	650.000
843.97	207.692
844.27	141.379
844.57	247.619
844.87	200.000
845.17	188.889
845.47	1200.000
845.76	388.889
846.06	205.882
846.36	400.000
846.66	242.857
846.96	206.250
847.25	318.182
847.55	290.909
847.85	221.739
848.15	390.000
848.44	278.571
848.74	172.222
849.04	205.882
849.34	420.000
849.63	168.421
849.93	254.545
850.23	620.000
850.53	385.714
850.82	1550.000
851.12	-3000.000
851.42	4100.000
851.71	185.000
852.01	-900.000
852.31	200.000
852.61	1266.667
852.90	204.762
853.20	184.000
853.50	205.882
853.79	171.429
854.09	179.167
854.39	225.000
854.68	132.432
854.98	164.516
855.28	136.667
855.57	162.069
855.87	151.852
856.17	189.474
856.46	166.667
856.76	200.000
857.05	168.966
857.35	158.333
857.65	213.333
857.94	182.609
858.24	161.538
858.53	200.000
858.83	200.000
859.13	286.667
859.42	0.000
859.72	322.222
860.01	336.364
860.31	136.364
860.60	194.737
860.90	113.043
861.20	455.556
861.49	366.667
861.79	-3600.000
862.08	400.000
862.38	209.524
862.67	215.385
862.97	247.059
863.26	333.333
863.56	205.556
863.85	266.667
864.15	350.000
864.44	253.333
864.74	566.667
865.03	437.500
865.33	247.368
865.62	309.091
865.92	330.769
866.21	250.000
866.51	0.000
866.80	254.545
867.10	800.000
867.39	300.000
867.69	345.455
867.98	210.526
868.27	390.909
868.57	278.947
868.86	-3300.000
869.16	243.750
869.45	1750.000
869.75	-2400.000
870.04	308.333
870.33	428.571
870.63	700.000
870.92	1800.000
871.22	442.857
871.51	229.412
871.80	176.190
872.10	192.857
>>>>>End Processed Spectral Data<<<<<
