SpectraSuite Data File
++++++++++++++++++++++++++++++++++++
Date: Wed May 13 16:06:00 PDT 2015
User: schluterlab
Dark Spectrum Present: Yes
Reference Spectrum Present: Yes
Number of Sampled Component Spectra: 1
Spectrometers: USB2E3373
Integration Time (usec): 3000 (USB2E3373)
Spectra Averaged: 3 (USB2E3373)
Boxcar Smoothing: 0 (USB2E3373)
Correct for Electrical Dark: No (USB2E3373)
Strobe/Lamp Enabled: No (USB2E3373)
Correct for Detector Non-linearity: No (USB2E3373)
Correct for Stray Light: No (USB2E3373)
Number of Pixels in Processed Spectrum: 2048
>>>>>Begin Processed Spectral Data<<<<<
178.53	0.000
178.91	-750.000
179.29	-775.000
179.67	-105.556
180.04	-725.000
180.42	1450.000
180.80	660.000
181.18	-450.000
181.56	314.286
181.94	0.000
182.31	-285.714
182.69	833.333
183.07	-437.500
183.45	-244.444
183.83	345.455
184.20	-280.000
184.58	1150.000
184.96	3500.000
185.34	-440.000
185.72	-312.500
186.09	-1350.000
186.47	1700.000
186.85	1700.000
187.23	2900.000
187.61	-1133.333
187.98	925.000
188.36	363.636
188.74	363.636
189.12	-660.000
189.49	440.000
189.87	-2900.000
190.25	-750.000
190.63	192.857
191.00	276.923
191.38	533.333
191.76	-375.000
192.14	775.000
192.51	350.000
192.89	616.667
193.27	287.500
193.65	-600.000
194.02	300.000
194.40	480.000
194.78	290.000
195.15	316.667
195.53	450.000
195.91	-1050.000
196.29	293.750
196.66	173.684
197.04	-80.000
197.42	0.000
197.79	320.000
198.17	-2800.000
198.55	314.286
198.92	387.500
199.30	320.000
199.68	0.000
200.05	227.778
200.43	485.714
200.81	2300.000
201.18	733.333
201.56	-833.333
201.94	266.667
202.31	255.556
202.69	291.667
203.07	340.000
203.44	0.000
203.82	625.000
204.19	442.857
204.57	335.714
204.95	462.500
205.32	866.667
205.70	318.182
206.08	235.714
206.45	1400.000
206.83	262.500
207.20	416.667
207.58	340.000
207.96	166.667
208.33	450.000
208.71	-466.667
209.08	357.143
209.46	366.667
209.84	154.545
210.21	-433.333
210.59	950.000
210.96	-175.000
211.34	1350.000
211.71	370.000
212.09	316.667
212.46	0.000
212.84	966.667
213.22	825.000
213.59	-1900.000
213.97	466.667
214.34	542.857
214.72	381.818
215.09	620.000
215.47	-1100.000
215.84	-1450.000
216.22	800.000
216.59	207.143
216.97	850.000
217.34	300.000
217.72	-366.667
218.09	0.000
218.47	-2600.000
218.84	466.667
219.22	371.429
219.59	1233.333
219.97	-357.143
220.34	560.000
220.72	-966.667
221.09	235.714
221.47	1100.000
221.84	-583.333
222.22	0.000
222.59	800.000
222.97	-1700.000
223.34	620.000
223.72	246.154
224.09	600.000
224.46	1200.000
224.84	-3100.000
225.21	-640.000
225.59	-3300.000
225.96	280.000
226.34	185.000
226.71	1450.000
227.08	400.000
227.46	290.000
227.83	-500.000
228.21	-1050.000
228.58	377.778
228.95	-1150.000
229.33	-1050.000
229.70	933.333
230.08	428.571
230.45	-380.000
230.82	241.667
231.20	500.000
231.57	328.571
231.95	300.000
232.32	168.182
232.69	209.091
233.07	400.000
233.44	161.538
233.81	-566.667
234.19	178.947
234.56	241.667
234.93	200.000
235.31	190.909
235.68	146.154
236.05	228.571
236.43	103.030
236.80	152.632
237.17	2300.000
237.55	133.333
237.92	96.429
238.29	119.048
238.67	64.516
239.04	96.552
239.41	47.222
239.79	41.304
240.16	76.190
240.53	68.182
240.91	66.667
241.28	50.000
241.65	50.000
242.02	44.928
242.40	46.774
242.77	26.667
243.14	41.935
243.51	39.326
243.89	32.941
244.26	24.444
244.63	27.957
245.00	34.043
245.38	15.842
245.75	24.299
246.12	14.679
246.49	26.277
246.87	32.000
247.24	22.308
247.61	16.429
247.98	17.647
248.36	15.541
248.73	23.567
249.10	19.745
249.47	15.254
249.84	19.251
250.22	12.834
250.59	19.527
250.96	16.162
251.33	18.009
251.70	15.347
252.08	14.286
252.45	12.556
252.82	13.913
253.19	16.596
253.56	16.078
253.94	14.108
254.31	11.719
254.68	13.846
255.05	11.439
255.42	6.911
255.79	9.926
256.16	10.469
256.54	8.481
256.91	8.897
257.28	6.115
257.65	10.561
258.02	10.248
258.39	8.202
258.76	10.702
259.14	11.012
259.51	6.991
259.88	6.522
260.25	13.897
260.62	6.647
260.99	9.006
261.36	10.511
261.73	9.456
262.10	8.430
262.47	7.887
262.85	8.078
263.22	2.279
263.59	9.402
263.96	7.967
264.33	7.833
264.70	9.474
265.07	9.207
265.44	6.061
265.81	7.543
266.18	10.050
266.55	5.610
266.92	5.160
267.29	7.176
267.66	7.798
268.03	7.273
268.40	5.607
268.77	6.205
269.14	6.757
269.51	8.352
269.88	7.692
270.25	9.029
270.62	7.191
270.99	10.108
271.36	7.511
271.73	5.374
272.10	6.957
272.47	5.806
272.84	5.628
273.21	9.644
273.58	5.022
273.95	5.451
274.32	5.579
274.69	4.497
275.06	5.906
275.43	6.596
275.80	6.212
276.17	5.906
276.54	8.108
276.91	4.348
277.28	4.688
277.65	8.511
278.02	4.348
278.39	7.617
278.76	7.455
279.13	6.226
279.50	7.821
279.87	4.582
280.23	7.186
280.60	5.803
280.97	4.436
281.34	5.664
281.71	7.455
282.08	7.486
282.45	4.545
282.82	6.217
283.19	4.813
283.56	5.614
283.92	6.091
284.29	5.996
284.66	5.808
285.03	4.521
285.40	5.986
285.77	6.734
286.14	5.354
286.51	6.500
286.87	6.496
287.24	5.049
287.61	5.618
287.98	6.006
288.35	3.803
288.72	4.829
289.08	5.634
289.45	5.107
289.82	5.203
290.19	3.925
290.56	5.819
290.93	4.834
291.29	6.288
291.66	6.490
292.03	6.831
292.40	5.874
292.77	4.438
293.13	6.269
293.50	5.685
293.87	3.704
294.24	4.593
294.60	3.057
294.97	4.651
295.34	5.783
295.71	5.114
296.08	3.989
296.44	5.089
296.81	4.624
297.18	7.859
297.55	4.090
297.91	5.277
298.28	6.693
298.65	6.266
299.02	5.797
299.38	4.648
299.75	4.582
300.12	4.215
300.48	5.125
300.85	5.179
301.22	4.841
301.59	4.545
301.95	6.297
302.32	5.392
302.69	5.615
303.05	5.091
303.42	4.444
303.79	5.549
304.15	4.545
304.52	4.751
304.89	5.343
305.25	4.640
305.62	6.229
305.99	6.139
306.35	5.705
306.72	5.493
307.09	6.437
307.45	6.532
307.82	4.799
308.19	5.960
308.55	6.796
308.92	5.585
309.29	5.597
309.65	5.620
310.02	6.660
310.38	6.022
310.75	5.702
311.12	6.653
311.48	7.210
311.85	6.604
312.22	6.556
312.58	6.341
312.95	5.808
313.31	7.087
313.68	7.277
314.05	8.383
314.41	8.040
314.78	6.747
315.14	6.554
315.51	7.106
315.87	8.218
316.24	7.845
316.61	7.018
316.97	7.241
317.34	6.947
317.70	9.560
318.07	7.988
318.43	7.045
318.80	10.309
319.16	8.945
319.53	7.598
319.89	10.000
320.26	9.800
320.62	9.821
320.99	9.495
321.35	9.192
321.72	10.164
322.08	10.069
322.45	11.841
322.81	11.531
323.18	11.079
323.54	10.946
323.91	11.132
324.27	12.141
324.64	11.184
325.00	10.730
325.37	12.102
325.73	13.824
326.10	13.327
326.46	13.351
326.83	13.805
327.19	13.578
327.56	13.328
327.92	15.223
328.29	15.528
328.65	14.733
329.01	15.704
329.38	15.264
329.74	14.681
330.11	16.023
330.47	17.355
330.84	17.371
331.20	16.576
331.56	15.963
331.93	16.944
332.29	16.504
332.66	18.142
333.02	16.636
333.38	17.886
333.75	17.112
334.11	17.705
334.48	17.569
334.84	17.739
335.20	17.545
335.57	17.407
335.93	16.964
336.29	16.758
336.66	19.387
337.02	17.919
337.38	18.241
337.75	17.914
338.11	18.890
338.47	17.311
338.84	17.690
339.20	17.248
339.56	18.248
339.93	17.818
340.29	18.116
340.65	18.182
341.02	18.150
341.38	18.683
341.74	17.807
342.11	17.205
342.47	18.414
342.83	18.065
343.20	18.182
343.56	18.197
343.92	17.193
344.28	17.772
344.65	18.487
345.01	17.845
345.37	17.667
345.73	18.359
346.10	18.244
346.46	18.475
346.82	18.287
347.19	17.126
347.55	17.159
347.91	18.285
348.27	19.063
348.63	16.722
349.00	17.476
349.36	17.898
349.72	17.402
350.08	16.613
350.45	17.657
350.81	17.709
351.17	17.666
351.53	16.380
351.89	16.997
352.26	17.285
352.62	17.883
352.98	16.613
353.34	17.749
353.70	17.349
354.07	18.065
354.43	17.222
354.79	18.021
355.15	16.999
355.51	18.385
355.87	17.469
356.24	17.590
356.60	15.958
356.96	17.216
357.32	17.171
357.68	16.850
358.04	17.656
358.40	16.785
358.77	17.293
359.13	15.075
359.49	17.255
359.85	15.794
360.21	16.348
360.57	17.432
360.93	17.308
361.29	16.856
361.66	16.563
362.02	18.209
362.38	17.947
362.74	17.634
363.10	16.802
363.46	17.241
363.82	17.158
364.18	17.621
364.54	17.831
364.90	17.493
365.26	16.618
365.62	17.166
365.98	16.728
366.35	15.473
366.71	17.715
367.07	16.533
367.43	17.707
367.79	16.845
368.15	17.816
368.51	16.497
368.87	17.059
369.23	17.191
369.59	17.524
369.95	17.279
370.31	17.806
370.67	16.739
371.03	17.753
371.39	17.857
371.75	16.838
372.11	17.923
372.47	17.522
372.83	17.435
373.19	17.052
373.55	17.147
373.91	17.673
374.27	17.045
374.63	17.091
374.99	17.585
375.35	15.980
375.71	17.546
376.07	17.627
376.42	16.988
376.78	17.296
377.14	16.554
377.50	18.079
377.86	16.689
378.22	18.078
378.58	17.168
378.94	18.102
379.30	17.494
379.66	17.259
380.02	17.015
380.38	17.243
380.74	18.307
381.09	17.848
381.45	18.193
381.81	17.813
382.17	17.771
382.53	17.358
382.89	18.086
383.25	17.011
383.61	17.658
383.97	17.511
384.32	17.093
384.68	17.472
385.04	17.455
385.40	17.957
385.76	17.076
386.12	16.775
386.48	18.062
386.83	18.473
387.19	18.553
387.55	17.625
387.91	17.533
388.27	17.167
388.62	18.685
388.98	17.445
389.34	17.584
389.70	17.535
390.06	16.984
390.42	17.575
390.77	17.494
391.13	17.932
391.49	17.957
391.85	17.823
392.20	16.215
392.56	17.045
392.92	17.187
393.28	16.391
393.64	16.787
393.99	17.349
394.35	17.742
394.71	17.189
395.07	17.383
395.42	17.553
395.78	16.794
396.14	17.132
396.50	17.669
396.85	16.338
397.21	17.263
397.57	17.049
397.92	17.188
398.28	16.760
398.64	17.204
399.00	17.012
399.35	15.736
399.71	16.609
400.07	17.268
400.42	17.117
400.78	17.793
401.14	15.976
401.49	17.015
401.85	16.152
402.21	16.347
402.57	15.793
402.92	16.709
403.28	16.052
403.63	16.646
403.99	15.860
404.35	16.848
404.70	16.187
405.06	16.482
405.42	16.032
405.77	15.829
406.13	16.422
406.49	16.795
406.84	16.657
407.20	16.312
407.55	16.082
407.91	16.800
408.27	16.720
408.62	16.315
408.98	16.483
409.34	16.359
409.69	16.774
410.05	15.799
410.40	16.391
410.76	15.950
411.11	16.285
411.47	15.591
411.83	15.883
412.18	15.708
412.54	16.127
412.89	16.205
413.25	15.821
413.60	16.121
413.96	14.997
414.31	15.796
414.67	16.160
415.03	15.762
415.38	15.657
415.74	16.592
416.09	16.133
416.45	15.529
416.80	15.995
417.16	15.952
417.51	16.058
417.87	15.671
418.22	16.151
418.58	16.139
418.93	16.216
419.29	15.977
419.64	16.877
420.00	15.732
420.35	16.116
420.71	16.677
421.06	16.050
421.42	15.965
421.77	15.919
422.12	15.104
422.48	14.895
422.83	15.958
423.19	16.409
423.54	16.077
423.90	16.058
424.25	16.136
424.61	15.417
424.96	15.918
425.31	15.725
425.67	14.831
426.02	15.257
426.38	17.216
426.73	15.448
427.09	15.258
427.44	15.814
427.79	15.814
428.15	15.833
428.50	15.682
428.85	16.746
429.21	15.406
429.56	15.708
429.92	16.256
430.27	15.343
430.62	15.719
430.98	15.413
431.33	15.979
431.68	15.445
432.04	15.442
432.39	15.648
432.74	16.278
433.10	15.846
433.45	16.152
433.80	16.186
434.16	15.438
434.51	15.684
434.86	15.964
435.22	15.675
435.57	15.988
435.92	15.740
436.28	16.251
436.63	16.832
436.98	16.027
437.34	15.921
437.69	16.394
438.04	15.908
438.39	15.940
438.75	16.676
439.10	15.978
439.45	16.234
439.81	15.952
440.16	16.093
440.51	16.169
440.86	16.908
441.22	15.462
441.57	16.401
441.92	16.888
442.27	16.039
442.63	16.377
442.98	17.296
443.33	17.120
443.68	16.004
444.03	15.617
444.39	16.164
444.74	16.558
445.09	15.957
445.44	16.348
445.79	16.279
446.15	16.305
446.50	16.532
446.85	16.444
447.20	16.777
447.55	16.304
447.91	16.823
448.26	16.639
448.61	16.507
448.96	15.725
449.31	15.973
449.66	15.757
450.02	15.933
450.37	16.213
450.72	16.977
451.07	16.271
451.42	15.562
451.77	16.735
452.12	16.513
452.47	16.915
452.83	17.308
453.18	16.443
453.53	17.440
453.88	15.771
454.23	16.736
454.58	17.929
454.93	18.373
455.28	15.835
455.63	16.930
455.98	18.095
456.34	16.897
456.69	16.468
457.04	17.399
457.39	16.715
457.74	16.889
458.09	17.826
458.44	16.591
458.79	15.835
459.14	16.986
459.49	16.929
459.84	16.565
460.19	16.441
460.54	16.956
460.89	16.566
461.24	16.940
461.59	17.316
461.94	16.400
462.29	17.329
462.64	16.847
462.99	15.290
463.34	17.333
463.69	17.011
464.04	16.928
464.39	16.870
464.74	16.934
465.09	15.802
465.44	16.233
465.79	16.051
466.14	16.201
466.49	16.518
466.84	16.696
467.19	16.838
467.54	16.938
467.89	16.026
468.24	17.045
468.59	16.789
468.94	16.921
469.29	16.452
469.64	18.340
469.99	17.321
470.34	16.909
470.68	17.457
471.03	16.735
471.38	16.748
471.73	17.455
472.08	16.908
472.43	16.709
472.78	16.919
473.13	17.458
473.48	16.979
473.83	16.098
474.17	16.304
474.52	16.439
474.87	17.688
475.22	16.483
475.57	15.852
475.92	16.994
476.27	16.516
476.61	15.996
476.96	17.152
477.31	16.954
477.66	16.302
478.01	15.525
478.36	16.869
478.70	16.199
479.05	16.560
479.40	16.888
479.75	16.980
480.10	15.855
480.45	16.135
480.79	16.054
481.14	15.802
481.49	16.184
481.84	15.821
482.19	16.265
482.53	15.963
482.88	16.519
483.23	16.589
483.58	16.606
483.92	16.589
484.27	15.686
484.62	15.690
484.97	16.121
485.31	16.473
485.66	15.241
486.01	14.554
486.36	14.567
486.70	14.129
487.05	14.479
487.40	14.862
487.75	14.896
488.09	15.529
488.44	14.777
488.79	15.660
489.13	16.425
489.48	15.987
489.83	15.753
490.17	16.352
490.52	15.722
490.87	15.694
491.22	16.053
491.56	16.173
491.91	16.101
492.26	15.985
492.60	16.452
492.95	15.248
493.30	15.140
493.64	15.866
493.99	15.692
494.34	15.726
494.68	16.438
495.03	16.541
495.37	16.007
495.72	15.546
496.07	16.148
496.41	15.133
496.76	15.743
497.11	15.714
497.45	16.069
497.80	16.219
498.14	15.604
498.49	15.756
498.84	16.826
499.18	16.048
499.53	15.100
499.87	16.123
500.22	15.450
500.56	16.456
500.91	16.538
501.26	16.501
501.60	17.038
501.95	15.949
502.29	16.073
502.64	15.829
502.98	15.428
503.33	15.722
503.67	15.731
504.02	15.996
504.36	16.612
504.71	16.268
505.06	16.241
505.40	16.140
505.75	15.526
506.09	15.209
506.44	16.478
506.78	15.928
507.13	15.699
507.47	15.606
507.82	16.413
508.16	15.907
508.51	15.779
508.85	15.690
509.19	16.020
509.54	16.224
509.88	16.744
510.23	15.578
510.57	16.873
510.92	15.277
511.26	16.290
511.61	16.649
511.95	15.658
512.30	16.331
512.64	16.013
512.98	16.077
513.33	17.291
513.67	15.635
514.02	16.288
514.36	16.658
514.70	17.100
515.05	16.453
515.39	16.826
515.74	16.779
516.08	17.049
516.42	17.869
516.77	17.057
517.11	15.816
517.46	16.874
517.80	16.260
518.14	16.561
518.49	16.861
518.83	16.761
519.17	17.032
519.52	16.242
519.86	16.828
520.20	17.168
520.55	17.654
520.89	17.092
521.23	17.551
521.58	17.947
521.92	16.289
522.26	16.168
522.61	17.819
522.95	17.127
523.29	17.407
523.64	16.829
523.98	16.882
524.32	16.285
524.66	17.438
525.01	16.360
525.35	16.853
525.69	17.303
526.04	16.449
526.38	16.534
526.72	16.564
527.06	16.886
527.41	15.842
527.75	17.556
528.09	17.020
528.43	17.081
528.78	16.964
529.12	16.485
529.46	17.514
529.80	17.327
530.15	16.511
530.49	16.000
530.83	17.152
531.17	17.232
531.51	17.250
531.86	17.097
532.20	17.731
532.54	17.425
532.88	17.330
533.22	16.115
533.57	16.543
533.91	16.075
534.25	17.558
534.59	17.511
534.93	16.538
535.27	16.174
535.62	17.033
535.96	16.886
536.30	16.465
536.64	17.193
536.98	16.722
537.32	16.656
537.66	16.467
538.01	17.512
538.35	16.742
538.69	17.805
539.03	16.179
539.37	16.486
539.71	14.776
540.05	16.928
540.39	16.279
540.73	16.882
541.07	17.456
541.42	16.960
541.76	16.516
542.10	17.400
542.44	16.623
542.78	16.996
543.12	15.995
543.46	17.377
543.80	17.241
544.14	16.431
544.48	17.905
544.82	16.613
545.16	16.916
545.50	16.645
545.84	16.868
546.18	17.576
546.52	16.999
546.86	16.564
547.20	18.004
547.54	16.700
547.88	18.367
548.22	16.252
548.56	16.352
548.90	16.261
549.24	15.421
549.58	17.190
549.92	17.033
550.26	17.685
550.60	16.667
550.94	16.690
551.28	17.630
551.62	16.104
551.96	16.211
552.30	17.065
552.64	16.903
552.98	16.000
553.32	16.925
553.66	17.655
554.00	16.884
554.34	15.666
554.68	17.597
555.02	17.137
555.36	17.049
555.69	15.697
556.03	15.814
556.37	16.780
556.71	16.098
557.05	16.106
557.39	17.285
557.73	15.737
558.07	16.824
558.41	15.991
558.75	16.532
559.08	16.928
559.42	16.175
559.76	17.279
560.10	16.131
560.44	16.352
560.78	15.768
561.12	16.095
561.45	17.014
561.79	16.150
562.13	16.164
562.47	16.735
562.81	17.225
563.15	16.187
563.48	17.042
563.82	15.460
564.16	15.697
564.50	15.755
564.84	15.424
565.17	16.345
565.51	16.166
565.85	16.053
566.19	15.592
566.52	17.289
566.86	15.793
567.20	16.274
567.54	16.895
567.88	15.752
568.21	16.402
568.55	15.167
568.89	14.883
569.23	15.374
569.56	15.101
569.90	15.057
570.24	14.496
570.57	14.519
570.91	14.383
571.25	14.392
571.59	14.433
571.92	13.969
572.26	14.385
572.60	14.354
572.93	14.063
573.27	14.256
573.61	14.405
573.95	14.522
574.28	13.593
574.62	14.018
574.96	13.644
575.29	13.603
575.63	13.847
575.97	13.798
576.30	14.180
576.64	14.076
576.98	13.782
577.31	13.748
577.65	13.789
577.98	13.571
578.32	13.384
578.66	13.354
578.99	13.992
579.33	13.653
579.67	13.719
580.00	13.642
580.34	14.072
580.67	13.637
581.01	14.324
581.35	13.663
581.68	13.837
582.02	13.224
582.35	13.273
582.69	13.663
583.02	13.455
583.36	13.788
583.70	13.836
584.03	13.898
584.37	14.387
584.70	14.237
585.04	14.066
585.37	13.886
585.71	14.380
586.04	13.892
586.38	14.420
586.72	14.223
587.05	13.855
587.39	14.063
587.72	14.429
588.06	13.901
588.39	14.321
588.73	14.403
589.06	14.677
589.40	14.276
589.73	14.396
590.07	14.377
590.40	14.066
590.73	14.637
591.07	15.222
591.40	15.352
591.74	16.190
592.07	15.401
592.41	15.337
592.74	14.757
593.08	14.524
593.41	14.268
593.75	13.991
594.08	14.348
594.41	14.316
594.75	14.455
595.08	14.209
595.42	14.571
595.75	14.387
596.09	14.758
596.42	15.128
596.75	14.394
597.09	15.411
597.42	14.207
597.75	14.963
598.09	15.217
598.42	14.433
598.76	14.674
599.09	13.797
599.42	14.374
599.76	14.531
600.09	13.807
600.42	14.317
600.76	13.786
601.09	14.390
601.42	14.536
601.76	14.915
602.09	14.387
602.42	15.088
602.76	14.954
603.09	14.910
603.42	14.838
603.76	14.024
604.09	14.036
604.42	14.350
604.76	14.973
605.09	14.679
605.42	14.322
605.75	14.528
606.09	14.274
606.42	14.548
606.75	14.434
607.09	15.069
607.42	14.420
607.75	14.262
608.08	14.503
608.42	15.150
608.75	14.563
609.08	14.986
609.41	14.898
609.75	14.578
610.08	15.410
610.41	14.804
610.74	14.664
611.07	14.427
611.41	14.769
611.74	15.535
612.07	15.787
612.40	15.268
612.73	15.105
613.07	15.733
613.40	15.324
613.73	14.945
614.06	15.430
614.39	15.312
614.72	15.684
615.06	15.021
615.39	15.393
615.72	14.468
616.05	14.939
616.38	14.953
616.71	15.974
617.05	15.724
617.38	15.334
617.71	15.075
618.04	15.986
618.37	15.021
618.70	15.121
619.03	15.658
619.36	15.682
619.69	15.493
620.03	16.140
620.36	15.642
620.69	16.507
621.02	17.035
621.35	15.583
621.68	16.433
622.01	16.718
622.34	17.020
622.67	15.589
623.00	16.214
623.33	15.797
623.66	15.654
623.99	15.390
624.32	15.335
624.65	15.960
624.99	15.014
625.32	14.555
625.65	16.153
625.98	16.449
626.31	16.252
626.64	16.490
626.97	16.209
627.30	16.791
627.63	18.212
627.96	16.148
628.29	15.748
628.62	16.651
628.95	17.170
629.28	15.876
629.61	17.049
629.94	16.095
630.26	15.634
630.59	16.206
630.92	15.421
631.25	15.992
631.58	16.016
631.91	16.024
632.24	16.667
632.57	17.733
632.90	16.996
633.23	17.785
633.56	16.610
633.89	18.800
634.22	18.502
634.55	18.343
634.88	16.647
635.20	18.757
635.53	17.470
635.86	16.955
636.19	17.529
636.52	18.800
636.85	17.526
637.18	16.359
637.51	19.504
637.83	16.400
638.16	18.031
638.49	18.388
638.82	18.837
639.15	19.250
639.48	18.204
639.81	18.097
640.13	16.797
640.46	17.987
640.79	18.758
641.12	17.744
641.45	17.598
641.77	18.557
642.10	18.713
642.43	16.517
642.76	17.957
643.09	19.172
643.41	17.906
643.74	19.907
644.07	18.902
644.40	18.252
644.73	19.685
645.05	22.662
645.38	19.115
645.71	18.680
646.04	17.774
646.36	19.199
646.69	19.398
647.02	17.857
647.35	19.416
647.67	18.053
648.00	20.325
648.33	18.152
648.66	15.758
648.98	19.190
649.31	17.489
649.64	18.685
649.96	18.182
650.29	20.537
650.62	16.505
650.94	17.666
651.27	22.128
651.60	19.468
651.92	18.530
652.25	17.427
652.58	19.626
652.90	18.641
653.23	15.716
653.56	18.425
653.88	20.919
654.21	18.799
654.54	17.492
654.86	18.536
655.19	16.892
655.52	11.775
655.84	11.180
656.17	13.900
656.49	18.829
656.82	19.080
657.15	14.383
657.47	10.837
657.80	8.449
658.13	8.860
658.45	13.374
658.78	13.508
659.10	13.953
659.43	14.976
659.75	16.391
660.08	16.709
660.41	17.784
660.73	18.806
661.06	18.153
661.38	20.909
661.71	20.962
662.03	22.485
662.36	16.501
662.68	20.482
663.01	21.616
663.33	18.684
663.66	20.168
663.98	18.575
664.31	18.277
664.63	19.028
664.96	17.304
665.28	19.672
665.61	16.959
665.93	18.109
666.26	17.850
666.58	19.456
666.91	21.353
667.23	20.899
667.56	19.006
667.88	22.009
668.21	22.175
668.53	19.740
668.86	20.779
669.18	21.109
669.50	18.478
669.83	21.786
670.15	17.556
670.48	18.736
670.80	20.259
671.13	20.594
671.45	16.596
671.77	19.552
672.10	18.669
672.42	18.375
672.75	17.081
673.07	16.549
673.39	17.179
673.72	18.359
674.04	18.039
674.37	18.835
674.69	16.769
675.01	18.410
675.34	23.203
675.66	21.684
675.98	22.200
676.31	19.748
676.63	21.444
676.95	19.706
677.28	18.224
677.60	18.022
677.92	16.878
678.25	19.713
678.57	17.331
678.89	19.639
679.22	17.092
679.54	17.939
679.86	19.633
680.18	20.036
680.51	19.326
680.83	18.505
681.15	19.434
681.48	21.928
681.80	16.441
682.12	16.858
682.44	17.795
682.77	20.978
683.09	22.747
683.41	19.069
683.73	17.881
684.06	21.281
684.38	18.200
684.70	19.961
685.02	18.574
685.34	16.484
685.67	15.559
685.99	15.292
686.31	16.041
686.63	16.078
686.96	19.643
687.28	16.968
687.60	18.841
687.92	17.185
688.24	18.061
688.56	18.675
688.89	18.672
689.21	18.122
689.53	18.580
689.85	19.512
690.17	17.391
690.49	19.745
690.82	21.729
691.14	18.080
691.46	18.776
691.78	20.281
692.10	18.388
692.42	20.559
692.74	16.390
693.06	15.957
693.39	20.329
693.71	18.341
694.03	19.789
694.35	20.779
694.67	18.993
694.99	20.976
695.31	19.118
695.63	18.182
695.95	18.337
696.27	16.497
696.59	20.466
696.91	21.244
697.23	15.728
697.56	19.616
697.88	15.951
698.20	17.292
698.52	20.000
698.84	18.040
699.16	17.972
699.48	17.102
699.80	21.739
700.12	20.260
700.44	18.302
700.76	17.956
701.08	20.977
701.40	21.229
701.72	20.408
702.04	22.159
702.36	19.263
702.68	21.530
703.00	19.391
703.32	22.872
703.64	19.303
703.96	19.220
704.28	20.349
704.60	21.114
704.91	21.365
705.23	21.701
705.55	21.595
705.87	21.927
706.19	22.261
706.51	21.807
706.83	19.091
707.15	19.048
707.47	20.455
707.79	21.622
708.11	18.265
708.43	19.524
708.74	20.663
709.06	22.338
709.38	21.785
709.70	22.093
710.02	20.178
710.34	19.697
710.66	19.104
710.98	23.295
711.29	18.895
711.61	24.189
711.93	16.987
712.25	22.830
712.57	21.691
712.89	23.875
713.20	19.453
713.52	23.684
713.84	22.468
714.16	17.683
714.48	21.552
714.80	22.492
715.11	18.732
715.43	18.101
715.75	19.420
716.07	19.169
716.39	18.182
716.70	21.595
717.02	20.863
717.34	21.555
717.66	23.134
717.97	25.100
718.29	17.037
718.61	20.803
718.93	22.794
719.24	23.183
719.56	18.983
719.88	25.763
720.20	22.635
720.51	19.512
720.83	25.651
721.15	18.284
721.46	19.858
721.78	21.505
722.10	21.509
722.42	23.308
722.73	22.846
723.05	20.492
723.37	23.077
723.68	15.058
724.00	26.016
724.32	25.000
724.63	25.203
724.95	22.176
725.27	23.077
725.58	24.609
725.90	26.642
726.22	21.132
726.53	20.486
726.85	22.184
727.16	25.267
727.48	20.922
727.80	18.561
728.11	20.652
728.43	17.692
728.74	22.939
729.06	24.088
729.38	24.265
729.69	21.708
730.01	19.454
730.32	18.056
730.64	21.405
730.96	14.851
731.27	20.199
731.59	18.960
731.90	19.534
732.22	20.186
732.53	21.362
732.85	20.192
733.16	17.685
733.48	20.930
733.80	22.078
734.11	17.834
734.43	20.710
734.74	19.143
735.06	18.052
735.37	19.653
735.69	16.561
736.00	20.588
736.32	22.118
736.63	19.169
736.95	21.725
737.26	17.007
737.58	17.419
737.89	18.395
738.21	20.137
738.52	22.857
738.83	18.868
739.15	20.385
739.46	22.993
739.78	19.097
740.09	20.308
740.41	22.258
740.72	15.679
741.04	18.519
741.35	21.667
741.66	28.444
741.98	23.585
742.29	25.359
742.61	25.862
742.92	24.887
743.23	23.932
743.55	24.000
743.86	21.930
744.18	24.779
744.49	22.010
744.80	29.108
745.12	29.545
745.43	24.670
745.74	24.775
746.06	26.147
746.37	26.906
746.68	24.887
747.00	25.926
747.31	26.667
747.62	16.814
747.94	21.586
748.25	20.000
748.56	24.229
748.88	25.248
749.19	26.000
749.50	25.116
749.82	23.984
750.13	21.224
750.44	19.343
750.75	21.754
751.07	23.794
751.38	22.648
751.69	19.134
752.01	20.301
752.32	18.412
752.63	24.113
752.94	21.311
753.26	21.600
753.57	21.951
753.88	26.562
754.19	22.500
754.51	20.833
754.82	20.939
755.13	21.887
755.44	22.180
755.75	18.248
756.07	20.567
756.38	20.803
756.69	21.812
757.00	18.862
757.31	18.101
757.63	19.591
757.94	18.767
758.25	17.892
758.56	16.543
758.87	14.516
759.18	17.879
759.50	17.241
759.81	20.249
760.12	18.125
760.43	16.046
760.74	17.935
761.05	19.492
761.36	18.182
761.67	19.318
761.99	14.907
762.30	21.181
762.61	23.664
762.92	19.922
763.23	19.748
763.54	24.800
763.85	21.094
764.16	24.231
764.47	20.152
764.78	20.848
765.10	14.873
765.41	19.764
765.72	20.359
766.03	21.003
766.34	18.667
766.65	24.255
766.96	21.795
767.27	24.873
767.58	29.688
767.89	32.105
768.20	25.287
768.51	21.320
768.82	22.936
769.13	20.325
769.44	23.077
769.75	21.459
770.06	17.890
770.37	25.339
770.68	24.074
770.99	21.333
771.30	18.443
771.61	28.251
771.92	24.180
772.23	30.672
772.54	22.051
772.85	27.225
773.16	28.723
773.47	25.000
773.78	28.934
774.09	20.238
774.39	29.240
774.70	30.864
775.01	28.986
775.32	23.529
775.63	28.947
775.94	22.302
776.25	29.134
776.56	33.582
776.87	31.148
777.18	33.594
777.48	32.824
777.79	35.606
778.10	31.852
778.41	33.036
778.72	26.277
779.03	33.557
779.34	28.859
779.65	18.919
779.95	29.448
780.26	30.065
780.57	29.655
780.88	36.719
781.19	33.083
781.50	33.784
781.80	32.704
782.11	27.684
782.42	28.481
782.73	26.994
783.04	36.486
783.34	28.169
783.65	34.247
783.96	34.328
784.27	27.273
784.57	25.180
784.88	25.000
785.19	34.127
785.50	40.566
785.81	32.836
786.11	36.066
786.42	35.659
786.73	32.743
787.04	34.906
787.34	39.286
787.65	40.000
787.96	36.036
788.26	37.190
788.57	31.356
788.88	43.802
789.19	28.472
789.49	34.848
789.80	29.008
790.11	37.143
790.41	36.634
790.72	34.940
791.03	48.913
791.33	39.535
791.64	38.144
791.95	34.653
792.25	32.222
792.56	46.753
792.87	61.538
793.17	48.101
793.48	50.575
793.79	43.678
794.09	39.773
794.40	29.412
794.70	38.971
795.01	37.778
795.32	35.252
795.62	34.646
795.93	28.448
796.23	40.708
796.54	42.353
796.85	47.297
797.15	61.972
797.46	50.000
797.76	49.398
798.07	44.304
798.37	43.077
798.68	46.970
798.99	38.028
799.29	48.052
799.60	37.500
799.90	53.425
800.21	67.164
800.51	48.276
800.82	64.912
801.12	52.459
801.43	59.091
801.73	39.189
802.04	61.905
802.34	54.321
802.65	43.750
802.95	62.712
803.26	65.625
803.56	38.571
803.87	58.462
804.17	55.882
804.48	53.704
804.78	55.172
805.09	45.588
805.39	75.000
805.70	50.000
806.00	59.016
806.30	46.970
806.61	52.439
806.91	41.772
807.22	38.158
807.52	34.328
807.83	56.338
808.13	57.813
808.43	51.667
808.74	39.474
809.04	50.725
809.35	56.716
809.65	46.053
809.95	75.806
810.26	54.237
810.56	61.905
810.86	75.000
811.17	71.429
811.47	70.000
811.77	70.370
812.08	69.091
812.38	76.000
812.69	66.667
812.99	97.727
813.29	73.469
813.59	47.619
813.90	63.265
814.20	41.818
814.50	44.615
814.81	61.765
815.11	75.510
815.41	68.852
815.72	92.857
816.02	81.818
816.32	78.571
816.62	55.000
816.93	78.049
817.23	85.714
817.53	65.909
817.84	112.121
818.14	78.261
818.44	68.889
818.74	64.706
819.04	72.500
819.35	88.571
819.65	85.294
819.95	92.857
820.25	125.000
820.56	87.179
820.86	61.364
821.16	76.744
821.46	97.436
821.76	56.000
822.07	82.857
822.37	92.500
822.67	106.061
822.97	72.549
823.27	117.857
823.57	83.784
823.88	100.000
824.18	106.667
824.48	80.952
824.78	104.000
825.08	66.667
825.38	70.270
825.69	97.561
825.99	150.000
826.29	89.655
826.59	94.737
826.89	73.684
827.19	114.706
827.49	129.032
827.79	56.818
828.09	79.545
828.39	87.234
828.70	71.429
829.00	96.296
829.30	96.774
829.60	102.500
829.90	133.333
830.20	92.857
830.50	121.739
830.80	95.652
831.10	93.333
831.40	100.000
831.70	86.957
832.00	146.154
832.30	107.407
832.60	156.250
832.90	130.000
833.20	314.286
833.50	90.323
833.80	79.310
834.10	115.625
834.40	165.385
834.70	150.000
835.00	166.667
835.30	77.143
835.60	53.846
835.90	137.931
836.20	192.857
836.50	113.793
836.80	96.000
837.10	122.222
837.40	171.429
837.70	170.588
838.00	103.704
838.30	152.381
838.60	209.524
838.90	184.615
839.19	125.000
839.49	321.429
839.79	250.000
840.09	170.000
840.39	180.952
840.69	139.130
840.99	150.000
841.29	270.000
841.59	125.000
841.88	256.250
842.18	93.103
842.48	142.857
842.78	110.000
843.08	108.696
843.38	93.750
843.68	350.000
843.97	134.615
844.27	113.793
844.57	204.762
844.87	187.500
845.17	155.556
845.47	900.000
845.76	200.000
846.06	182.353
846.36	262.500
846.66	178.571
846.96	162.500
847.25	218.182
847.55	163.636
847.85	191.304
848.15	240.000
848.44	192.857
848.74	161.111
849.04	223.529
849.34	290.000
849.63	105.263
849.93	254.545
850.23	500.000
850.53	278.571
850.82	1300.000
851.12	-2500.000
851.42	2300.000
851.71	200.000
852.01	-533.333
852.31	125.000
852.61	1033.333
852.90	166.667
853.20	160.000
853.50	188.235
853.79	152.381
854.09	145.833
854.39	187.500
854.68	102.703
854.98	90.323
855.28	113.333
855.57	148.276
855.87	129.630
856.17	163.158
856.46	46.667
856.76	117.647
857.05	127.586
857.35	120.833
857.65	166.667
857.94	78.261
858.24	138.462
858.53	150.000
858.83	163.636
859.13	200.000
859.42	0.000
859.72	322.222
860.01	254.545
860.31	140.909
860.60	136.842
860.90	130.435
861.20	388.889
861.49	275.000
861.79	-1700.000
862.08	425.000
862.38	195.238
862.67	192.308
862.97	241.176
863.26	166.667
863.56	127.778
863.85	191.667
864.15	312.500
864.44	240.000
864.74	450.000
865.03	400.000
865.33	163.158
865.62	236.364
865.92	300.000
866.21	200.000
866.51	0.000
866.80	290.909
867.10	660.000
867.39	207.692
867.69	263.636
867.98	142.105
868.27	236.364
868.57	163.158
868.86	-1500.000
869.16	187.500
869.45	650.000
869.75	-1300.000
870.04	216.667
870.33	471.429
870.63	425.000
870.92	1600.000
871.22	471.429
871.51	223.529
871.80	128.571
872.10	342.857
>>>>>End Processed Spectral Data<<<<<
