SpectraSuite Data File
++++++++++++++++++++++++++++++++++++
Date: Wed May 13 16:28:51 PDT 2015
User: schluterlab
Dark Spectrum Present: Yes
Reference Spectrum Present: Yes
Number of Sampled Component Spectra: 1
Spectrometers: USB2E3373
Integration Time (usec): 3000 (USB2E3373)
Spectra Averaged: 3 (USB2E3373)
Boxcar Smoothing: 0 (USB2E3373)
Correct for Electrical Dark: No (USB2E3373)
Strobe/Lamp Enabled: No (USB2E3373)
Correct for Detector Non-linearity: No (USB2E3373)
Correct for Stray Light: No (USB2E3373)
Number of Pixels in Processed Spectrum: 2048
>>>>>Begin Processed Spectral Data<<<<<
178.53	0.000
178.91	-1250.000
179.29	-1200.000
179.67	-200.000
180.04	-1375.000
180.42	2400.000
180.80	1040.000
181.18	-1100.000
181.56	528.571
181.94	0.000
182.31	-585.714
182.69	1500.000
183.07	-650.000
183.45	-488.889
183.83	609.091
184.20	-370.000
184.58	2500.000
184.96	5900.000
185.34	-840.000
185.72	-675.000
186.09	-2100.000
186.47	2500.000
186.85	2350.000
187.23	5100.000
187.61	-1433.333
187.98	1225.000
188.36	472.727
188.74	500.000
189.12	-560.000
189.49	520.000
189.87	-4300.000
190.25	-1050.000
190.63	392.857
191.00	361.538
191.38	816.667
191.76	-925.000
192.14	1450.000
192.51	575.000
192.89	850.000
193.27	537.500
193.65	-950.000
194.02	590.000
194.40	940.000
194.78	490.000
195.15	408.333
195.53	580.000
195.91	-1900.000
196.29	293.750
196.66	242.105
197.04	-370.000
197.42	0.000
197.79	510.000
198.17	-4600.000
198.55	771.429
198.92	575.000
199.30	780.000
199.68	0.000
200.05	300.000
200.43	642.857
200.81	4200.000
201.18	1333.333
201.56	-1566.667
201.94	622.222
202.31	544.444
202.69	350.000
203.07	510.000
203.44	0.000
203.82	1025.000
204.19	657.143
204.57	421.429
204.95	537.500
205.32	1466.667
205.70	372.727
206.08	350.000
206.45	2300.000
206.83	275.000
207.20	783.333
207.58	860.000
207.96	311.111
208.33	625.000
208.71	-850.000
209.08	700.000
209.46	588.889
209.84	436.364
210.21	-1166.667
210.59	1400.000
210.96	-412.500
211.34	2250.000
211.71	490.000
212.09	516.667
212.46	0.000
212.84	1533.333
213.22	1300.000
213.59	-5100.000
213.97	850.000
214.34	728.571
214.72	536.364
215.09	900.000
215.47	-2000.000
215.84	-2600.000
216.22	1400.000
216.59	378.571
216.97	1250.000
217.34	390.909
217.72	-716.667
218.09	0.000
218.47	-4400.000
218.84	622.222
219.22	728.571
219.59	1766.667
219.97	-528.571
220.34	860.000
220.72	-1633.333
221.09	400.000
221.47	1450.000
221.84	-766.667
222.22	0.000
222.59	1150.000
222.97	-2150.000
223.34	1080.000
223.72	430.769
224.09	880.000
224.46	2100.000
224.84	-3900.000
225.21	-960.000
225.59	-3200.000
225.96	470.000
226.34	275.000
226.71	2600.000
227.08	512.500
227.46	490.000
227.83	-925.000
228.21	-1650.000
228.58	644.444
228.95	-2000.000
229.33	-2000.000
229.70	1600.000
230.08	785.714
230.45	-940.000
230.82	400.000
231.20	766.667
231.57	614.286
231.95	458.333
232.32	227.273
232.69	272.727
233.07	671.429
233.44	276.923
233.81	-1566.667
234.19	263.158
234.56	350.000
234.93	283.333
235.31	463.636
235.68	300.000
236.05	200.000
236.43	154.545
236.80	247.368
237.17	3000.000
237.55	190.476
237.92	167.857
238.29	200.000
238.67	135.484
239.04	134.483
239.41	122.222
239.79	84.783
240.16	123.810
240.53	122.727
240.91	72.549
241.28	84.000
241.65	102.000
242.02	73.913
242.40	66.129
242.77	73.333
243.14	61.290
243.51	53.933
243.89	56.471
244.26	51.111
244.63	43.011
245.00	40.426
245.38	38.614
245.75	41.121
246.12	38.532
246.49	48.905
246.87	54.400
247.24	43.077
247.61	34.286
247.98	38.562
248.36	28.378
248.73	34.395
249.10	34.395
249.47	31.073
249.84	34.225
250.22	24.064
250.59	23.077
250.96	29.293
251.33	25.592
251.70	28.713
252.08	25.714
252.45	24.215
252.82	23.478
253.19	25.106
253.56	24.314
253.94	26.971
254.31	26.953
254.68	24.231
255.05	23.247
255.42	24.390
255.79	21.324
256.16	21.661
256.54	21.555
256.91	22.064
257.28	19.065
257.65	15.512
258.02	20.497
258.39	15.773
258.76	19.064
259.14	18.155
259.51	15.502
259.88	16.149
260.25	18.731
260.62	16.763
260.99	14.907
261.36	19.520
261.73	18.052
262.10	16.570
262.47	18.592
262.85	18.663
263.22	15.670
263.59	18.519
263.96	16.484
264.33	16.971
264.70	16.842
265.07	17.903
265.44	16.414
265.81	15.085
266.18	16.332
266.55	14.634
266.92	14.988
267.29	16.435
267.66	13.991
268.03	14.318
268.40	13.785
268.77	15.752
269.14	14.865
269.51	16.930
269.88	14.452
270.25	16.253
270.62	15.056
270.99	17.419
271.36	15.236
271.73	13.785
272.10	15.652
272.47	14.624
272.84	16.017
273.21	15.514
273.58	13.537
273.95	13.836
274.32	12.603
274.69	14.561
275.06	12.205
275.43	16.383
275.80	14.629
276.17	13.442
276.54	14.137
276.91	12.846
277.28	13.672
277.65	15.087
278.02	11.387
278.39	13.086
278.76	13.636
279.13	14.906
279.50	13.594
279.87	13.147
280.23	12.974
280.60	12.766
280.97	14.233
281.34	13.451
281.71	14.909
282.08	13.820
282.45	10.727
282.82	11.012
283.19	12.121
283.56	13.509
283.92	14.213
284.29	11.993
284.66	11.615
285.03	11.392
285.40	11.972
285.77	10.774
286.14	10.535
286.51	10.833
286.87	12.821
287.24	12.866
287.61	11.396
287.98	13.312
288.35	11.569
288.72	13.084
289.08	10.329
289.45	11.697
289.82	12.358
290.19	7.535
290.56	11.792
290.93	9.668
291.29	11.810
291.66	9.882
292.03	13.081
292.40	12.335
292.77	9.172
293.13	13.284
293.50	11.224
293.87	8.889
294.24	8.296
294.60	10.189
294.97	10.465
295.34	10.578
295.71	10.227
296.08	9.829
296.44	10.179
296.81	8.587
297.18	10.976
297.55	8.179
297.91	10.554
298.28	11.111
298.65	10.705
299.02	10.540
299.38	8.367
299.75	8.491
300.12	9.068
300.48	8.500
300.85	9.248
301.22	9.172
301.59	8.965
301.95	9.824
302.32	9.628
302.69	9.677
303.05	8.848
303.42	7.778
303.79	9.513
304.15	8.625
304.52	7.764
304.89	7.317
305.25	7.425
305.62	7.588
305.99	9.563
306.35	9.060
306.72	9.865
307.09	9.101
307.45	9.347
307.82	7.254
308.19	8.940
308.55	8.522
308.92	8.485
309.29	7.814
309.65	7.635
310.02	8.562
310.38	8.602
310.75	8.342
311.12	8.495
311.48	7.419
311.85	8.910
312.22	9.053
312.58	8.108
312.95	9.081
313.31	6.699
313.68	7.796
314.05	10.059
314.41	8.844
314.78	8.560
315.14	8.640
315.51	8.754
315.87	9.109
316.24	7.944
316.61	7.895
316.97	7.730
317.34	7.828
317.70	7.935
318.07	8.181
318.43	8.415
318.80	9.185
319.16	8.380
319.53	8.443
319.89	9.810
320.26	8.700
320.62	8.135
320.99	8.485
321.35	8.485
321.72	8.522
322.08	7.897
322.45	9.154
322.81	8.721
323.18	8.671
323.54	8.813
323.91	9.245
324.27	8.700
324.64	7.922
325.00	7.214
325.37	8.826
325.73	10.233
326.10	8.650
326.46	7.079
326.83	9.318
327.19	7.857
327.56	7.666
327.92	9.011
328.29	8.696
328.65	8.840
329.01	9.386
329.38	8.048
329.74	8.495
330.11	7.729
330.47	8.907
330.84	9.467
331.20	8.652
331.56	8.624
331.93	8.426
332.29	9.051
332.66	9.027
333.02	8.775
333.38	9.575
333.75	8.734
334.11	9.520
334.48	8.341
334.84	8.548
335.20	8.909
335.57	7.978
335.93	8.036
336.29	7.875
336.66	7.665
337.02	7.602
337.38	8.796
337.75	7.843
338.11	8.863
338.47	7.274
338.84	7.974
339.20	6.147
339.56	9.215
339.93	7.727
340.29	8.786
340.65	8.645
341.02	8.290
341.38	8.452
341.74	7.982
342.11	7.686
342.47	8.194
342.83	8.048
343.20	8.398
343.56	8.172
343.92	7.807
344.28	8.844
344.65	7.653
345.01	7.828
345.37	7.290
345.73	8.206
346.10	8.525
346.46	8.220
346.82	8.072
347.19	6.349
347.55	7.307
347.91	7.686
348.27	9.614
348.63	7.943
349.00	8.333
349.36	7.800
349.72	7.298
350.08	8.347
350.45	7.893
350.81	7.717
351.17	7.861
351.53	7.453
351.89	7.591
352.26	8.761
352.62	9.302
352.98	8.185
353.34	8.135
353.70	6.956
354.07	7.097
354.43	7.460
354.79	7.080
355.15	7.023
355.51	8.633
355.87	7.020
356.24	7.818
356.60	6.736
356.96	7.321
357.32	7.359
357.68	8.110
358.04	7.522
358.40	7.680
358.77	7.512
359.13	6.946
359.49	6.980
359.85	6.270
360.21	6.220
360.57	8.093
360.93	8.615
361.29	7.181
361.66	6.579
362.02	8.134
362.38	7.681
362.74	7.515
363.10	7.032
363.46	6.970
363.82	8.012
364.18	7.489
364.54	7.652
364.90	8.003
365.26	6.618
365.62	7.743
365.98	6.866
366.35	6.662
366.71	7.592
367.07	6.992
367.43	7.112
367.79	7.852
368.15	7.759
368.51	6.395
368.87	7.138
369.23	6.291
369.59	7.241
369.95	6.912
370.31	6.339
370.67	7.246
371.03	7.640
371.39	7.070
371.75	7.059
372.11	7.468
372.47	8.065
372.83	7.493
373.19	6.792
373.55	6.948
373.91	7.658
374.27	7.285
374.63	6.182
374.99	7.839
375.35	6.350
375.71	7.471
376.07	7.202
376.42	6.396
376.78	7.753
377.14	6.988
377.50	6.623
377.86	6.383
378.22	6.827
378.58	6.830
378.94	6.851
379.30	6.870
379.66	6.726
380.02	7.740
380.38	6.800
380.74	7.503
381.09	7.335
381.45	7.621
381.81	7.432
382.17	7.389
382.53	6.478
382.89	8.148
383.25	6.567
383.61	8.364
383.97	7.067
384.32	7.424
384.68	6.815
385.04	7.007
385.40	6.873
385.76	7.002
386.12	6.930
386.48	7.867
386.83	7.056
387.19	7.669
387.55	7.297
387.91	6.953
388.27	6.683
388.62	7.437
388.98	6.572
389.34	8.448
389.70	7.480
390.06	7.731
390.42	7.328
390.77	7.506
391.13	8.041
391.49	7.614
391.85	6.747
392.20	6.435
392.56	7.008
392.92	6.886
393.28	6.331
393.64	7.014
393.99	7.392
394.35	7.134
394.71	7.152
395.07	7.539
395.42	7.478
395.78	6.807
396.14	7.449
396.50	8.333
396.85	7.502
397.21	6.905
397.57	7.936
397.92	7.392
398.28	6.502
398.64	7.766
399.00	6.939
399.35	6.937
399.71	7.465
400.07	7.865
400.42	6.933
400.78	7.057
401.14	7.012
401.49	7.881
401.85	6.957
402.21	7.066
402.57	6.848
402.92	6.999
403.28	7.558
403.63	6.621
403.99	6.943
404.35	7.273
404.70	6.415
405.06	6.872
405.42	7.424
405.77	6.800
406.13	7.111
406.49	7.096
406.84	7.620
407.20	6.856
407.55	7.211
407.91	7.533
408.27	6.445
408.62	6.382
408.98	6.801
409.34	6.888
409.69	7.290
410.05	7.125
410.40	6.483
410.76	7.168
411.11	7.298
411.47	7.093
411.83	7.392
412.18	6.370
412.54	6.849
412.89	7.169
413.25	6.907
413.60	6.856
413.96	7.165
414.31	7.351
414.67	8.302
415.03	6.689
415.38	7.668
415.74	7.074
416.09	7.969
416.45	7.095
416.80	7.667
417.16	7.373
417.51	7.299
417.87	7.836
418.22	7.445
418.58	7.424
418.93	7.432
419.29	7.257
419.64	7.935
420.00	7.561
420.35	7.362
420.71	7.113
421.06	7.279
421.42	7.135
421.77	7.175
422.12	6.850
422.48	7.016
422.83	6.989
423.19	7.348
423.54	7.023
423.90	7.710
424.25	6.924
424.61	7.679
424.96	7.172
425.31	6.534
425.67	7.135
426.02	6.457
426.38	7.326
426.73	6.612
427.09	7.599
427.44	7.418
427.79	7.418
428.15	7.321
428.50	7.431
428.85	7.688
429.21	6.792
429.56	6.584
429.92	6.794
430.27	7.051
430.62	6.349
430.98	6.591
431.33	7.165
431.68	7.330
432.04	7.827
432.39	7.025
432.74	7.301
433.10	6.565
433.45	6.764
433.80	6.818
434.16	6.891
434.51	6.947
434.86	7.355
435.22	7.115
435.57	7.477
435.92	6.729
436.28	7.473
436.63	8.057
436.98	6.525
437.34	7.156
437.69	7.293
438.04	7.083
438.39	6.746
438.75	7.147
439.10	7.207
439.45	7.261
439.81	6.707
440.16	7.453
440.51	7.733
440.86	7.528
441.22	7.675
441.57	7.537
441.92	7.062
442.27	7.427
442.63	6.793
442.98	7.606
443.33	7.337
443.68	7.176
444.03	7.077
444.39	6.573
444.74	7.305
445.09	7.709
445.44	6.397
445.79	7.125
446.15	7.835
446.50	7.054
446.85	6.732
447.20	7.088
447.55	6.979
447.91	6.564
448.26	7.234
448.61	7.631
448.96	7.641
449.31	8.718
449.66	7.372
450.02	7.242
450.37	6.746
450.72	6.881
451.07	7.313
451.42	6.383
451.77	8.338
452.12	7.679
452.47	7.276
452.83	7.284
453.18	7.579
453.53	8.225
453.88	7.383
454.23	7.591
454.58	8.056
454.93	8.010
455.28	7.357
455.63	7.524
455.98	8.631
456.34	7.098
456.69	7.577
457.04	7.554
457.39	6.897
457.74	7.139
458.09	8.108
458.44	7.754
458.79	7.321
459.14	7.223
459.49	8.056
459.84	7.147
460.19	7.837
460.54	7.581
460.89	7.076
461.24	7.286
461.59	8.716
461.94	7.953
462.29	7.834
462.64	7.786
462.99	6.766
463.34	8.667
463.69	7.692
464.04	7.942
464.39	8.638
464.74	7.427
465.09	6.815
465.44	6.925
465.79	7.047
466.14	7.991
466.49	7.786
466.84	7.647
467.19	7.483
467.54	8.250
467.89	8.283
468.24	8.726
468.59	7.937
468.94	6.842
469.29	7.712
469.64	8.501
469.99	7.916
470.34	7.332
470.68	8.046
471.03	7.211
471.38	8.061
471.73	8.594
472.08	9.276
472.43	7.915
472.78	8.097
473.13	7.317
473.48	7.928
473.83	8.049
474.17	7.778
474.52	8.747
474.87	8.173
475.22	8.067
475.57	7.308
475.92	7.010
476.27	7.723
476.61	7.501
476.96	7.312
477.31	7.483
477.66	7.385
478.01	7.527
478.36	7.932
478.70	6.957
479.05	7.721
479.40	7.216
479.75	7.524
480.10	6.958
480.45	6.806
480.79	6.832
481.14	7.387
481.49	7.404
481.84	7.225
482.19	7.224
482.53	7.294
482.88	7.585
483.23	7.056
483.58	7.325
483.92	7.123
484.27	6.885
484.62	6.681
484.97	6.425
485.31	6.267
485.66	5.433
486.01	5.324
486.36	4.979
486.70	4.941
487.05	5.503
487.40	5.618
487.75	5.997
488.09	6.309
488.44	6.538
488.79	6.980
489.13	6.952
489.48	6.974
489.83	7.121
490.17	6.576
490.52	6.820
490.87	6.739
491.22	7.049
491.56	6.469
491.91	6.608
492.26	6.798
492.60	6.820
492.95	6.688
493.30	7.430
493.64	6.860
493.99	7.428
494.34	6.614
494.68	7.830
495.03	6.861
495.37	7.352
495.72	7.456
496.07	7.425
496.41	7.434
496.76	7.036
497.11	7.294
497.45	7.685
497.80	7.198
498.14	6.860
498.49	7.073
498.84	7.478
499.18	6.905
499.53	7.550
499.87	7.502
500.22	6.689
500.56	7.476
500.91	6.827
501.26	7.018
501.60	7.451
501.95	6.783
502.29	7.826
502.64	7.123
502.98	6.872
503.33	6.810
503.67	7.332
504.02	7.297
504.36	7.347
504.71	6.986
505.06	7.133
505.40	7.438
505.75	7.184
506.09	7.191
506.44	6.463
506.78	7.258
507.13	6.663
507.47	7.222
507.82	7.801
508.16	7.295
508.51	7.661
508.85	7.001
509.19	6.786
509.54	7.653
509.88	7.883
510.23	6.838
510.57	7.946
510.92	7.457
511.26	7.708
511.61	7.573
511.95	7.046
512.30	7.741
512.64	7.308
512.98	8.039
513.33	8.030
513.67	8.324
514.02	7.197
514.36	7.482
514.70	7.582
515.05	7.585
515.39	8.076
515.74	8.108
516.08	8.385
516.42	8.158
516.77	7.358
517.11	7.825
517.46	7.901
517.80	7.956
518.14	7.585
518.49	8.285
518.83	8.636
519.17	8.025
519.52	8.036
519.86	9.013
520.20	8.324
520.55	8.498
520.89	7.968
521.23	7.841
521.58	8.223
521.92	8.083
522.26	8.481
522.61	8.037
522.95	8.287
523.29	7.486
523.64	8.354
523.98	8.256
524.32	8.625
524.66	8.419
525.01	9.252
525.35	8.178
525.69	8.313
526.04	7.975
526.38	8.786
526.72	8.528
527.06	8.035
527.41	7.921
527.75	8.875
528.09	8.221
528.43	8.477
528.78	9.404
529.12	8.606
529.46	8.206
529.80	9.282
530.15	8.474
530.49	8.554
530.83	8.861
531.17	8.877
531.51	9.144
531.86	9.032
532.20	9.061
532.54	9.481
532.88	8.793
533.22	7.995
533.57	8.951
533.91	8.730
534.25	8.445
534.59	7.993
534.93	8.685
535.27	8.690
535.62	8.486
535.96	8.475
536.30	8.201
536.64	9.337
536.98	8.427
537.32	7.966
537.66	8.200
538.01	8.492
538.35	8.662
538.69	9.572
539.03	8.577
539.37	7.923
539.71	7.583
540.05	8.758
540.39	9.037
540.73	8.538
541.07	8.696
541.42	8.676
541.76	8.903
542.10	9.314
542.44	8.079
542.78	9.025
543.12	8.317
543.46	8.656
543.80	9.369
544.14	8.408
544.48	8.444
544.82	8.403
545.16	8.653
545.50	9.062
545.84	8.468
546.18	9.360
546.52	9.429
546.86	9.072
547.20	9.575
547.54	8.684
547.88	9.885
548.22	8.531
548.56	8.616
548.90	8.707
549.24	7.879
549.58	8.731
549.92	9.409
550.26	8.736
550.60	9.751
550.94	9.225
551.28	8.193
551.62	9.705
551.96	9.053
552.30	9.283
552.64	9.128
552.98	8.814
553.32	8.496
553.66	9.134
554.00	8.991
554.34	9.248
554.68	9.943
555.02	9.238
555.36	8.838
555.69	8.593
556.03	8.883
556.37	9.618
556.71	8.731
557.05	9.384
557.39	8.887
557.73	8.892
558.07	9.572
558.41	8.394
558.75	9.184
559.08	10.589
559.42	9.221
559.76	9.338
560.10	9.993
560.44	9.294
560.78	8.782
561.12	8.971
561.45	9.518
561.79	9.097
562.13	8.786
562.47	8.607
562.81	9.554
563.15	8.696
563.48	9.085
563.82	8.871
564.16	8.960
564.50	8.464
564.84	8.470
565.17	8.687
565.51	8.243
565.85	9.454
566.19	8.015
566.52	8.550
566.86	8.318
567.20	8.962
567.54	8.447
567.88	7.279
568.21	8.677
568.55	7.735
568.89	7.588
569.23	7.709
569.56	7.328
569.90	7.585
570.24	6.710
570.57	6.494
570.91	6.561
571.25	6.547
571.59	6.892
571.92	6.279
572.26	6.470
572.60	6.156
572.93	6.177
573.27	6.477
573.61	6.309
573.95	6.382
574.28	6.131
574.62	6.220
574.96	6.022
575.29	5.698
575.63	5.869
575.97	6.222
576.30	6.532
576.64	6.065
576.98	6.028
577.31	6.007
577.65	5.885
577.98	5.790
578.32	5.580
578.66	5.933
578.99	5.638
579.33	6.003
579.67	5.692
580.00	6.066
580.34	6.312
580.67	6.074
581.01	6.027
581.35	5.707
581.68	5.840
582.02	5.685
582.35	5.515
582.69	5.780
583.02	5.817
583.36	5.972
583.70	6.244
584.03	6.322
584.37	6.772
584.70	5.904
585.04	6.262
585.37	6.244
585.71	6.015
586.04	6.233
586.38	6.217
586.72	6.435
587.05	6.221
587.39	5.884
587.72	6.132
588.06	5.736
588.39	6.145
588.73	6.219
589.06	6.825
589.40	6.296
589.73	7.005
590.07	7.260
590.40	6.503
590.73	7.065
591.07	7.448
591.40	7.465
591.74	8.095
592.07	7.155
592.41	7.152
592.74	6.742
593.08	6.895
593.41	6.897
593.75	6.527
594.08	6.336
594.41	6.822
594.75	6.543
595.08	6.943
595.42	7.075
595.75	7.087
596.09	7.210
596.42	7.662
596.75	7.429
597.09	8.571
597.42	6.872
597.75	7.503
598.09	7.652
598.42	6.658
598.76	6.931
599.09	6.842
599.42	6.623
599.76	6.772
600.09	6.667
600.42	6.684
600.76	6.607
601.09	7.067
601.42	6.469
601.76	7.249
602.09	6.640
602.42	6.608
602.76	7.739
603.09	6.884
603.42	7.536
603.76	6.784
604.09	6.398
604.42	7.012
604.76	7.971
605.09	6.684
605.42	7.140
605.75	7.326
606.09	6.588
606.42	6.539
606.75	7.217
607.09	7.242
607.42	6.975
607.75	7.131
608.08	7.165
608.42	7.530
608.75	7.078
609.08	7.354
609.41	7.568
609.75	7.575
610.08	7.729
610.41	6.983
610.74	6.670
611.07	7.708
611.41	7.605
611.74	8.446
612.07	7.816
612.40	8.027
612.73	7.421
613.07	8.082
613.40	7.846
613.73	6.869
614.06	7.849
614.39	7.184
614.72	8.000
615.06	8.088
615.39	7.325
615.72	7.260
616.05	7.230
616.38	8.394
616.71	7.542
617.05	9.011
617.38	8.539
617.71	8.108
618.04	8.293
618.37	8.161
618.70	8.650
619.03	8.224
619.36	8.758
619.69	9.296
620.03	9.684
620.36	9.826
620.69	9.384
621.02	10.029
621.35	8.457
621.68	8.956
622.01	9.907
622.34	9.077
622.67	8.593
623.00	8.657
623.33	7.934
623.66	9.149
623.99	8.689
624.32	9.201
624.65	9.251
624.99	8.286
625.32	8.979
625.65	9.241
625.98	9.377
626.31	10.031
626.64	9.388
626.97	9.892
627.30	8.562
627.63	9.352
627.96	10.345
628.29	10.411
628.62	11.162
628.95	12.075
629.28	10.310
629.61	10.999
629.94	9.714
630.26	10.963
630.59	11.344
630.92	9.962
631.25	10.069
631.58	10.911
631.91	9.736
632.24	9.283
632.57	10.598
632.90	11.184
633.23	11.521
633.56	11.977
633.89	11.665
634.22	12.826
634.55	10.769
634.88	11.138
635.20	12.664
635.53	11.084
635.86	10.891
636.19	12.235
636.52	10.957
636.85	12.142
637.18	11.406
637.51	11.466
637.83	10.234
638.16	11.509
638.49	12.720
638.82	12.516
639.15	12.875
639.48	12.469
639.81	12.064
640.13	11.979
640.46	12.617
640.79	13.606
641.12	10.867
641.45	11.732
641.77	12.224
642.10	13.450
642.43	12.763
642.76	12.074
643.09	14.264
643.41	12.898
643.74	15.123
644.07	14.024
644.40	15.644
644.73	14.961
645.05	15.531
645.38	12.638
645.71	14.171
646.04	14.120
646.36	14.691
646.69	15.385
647.02	15.646
647.35	14.777
647.67	13.274
648.00	14.146
648.33	13.861
648.66	12.727
648.98	13.343
649.31	12.556
649.64	13.901
649.96	14.456
650.29	14.218
650.62	12.945
650.94	14.911
651.27	14.020
651.60	15.807
651.92	14.217
652.25	12.866
652.58	13.863
652.90	12.796
653.23	12.173
653.56	12.283
653.88	12.837
654.21	15.956
654.54	14.686
654.86	13.084
655.19	11.892
655.52	5.918
655.84	4.204
656.17	4.797
656.49	6.669
656.82	7.019
657.15	5.309
657.47	4.099
657.80	3.342
658.13	3.665
658.45	5.832
658.78	6.018
659.10	6.554
659.43	7.318
659.75	8.039
660.08	9.177
660.41	10.894
660.73	13.088
661.06	13.217
661.38	14.909
661.71	16.538
662.03	16.765
662.36	14.115
662.68	16.466
663.01	15.960
663.33	16.136
663.66	17.227
663.98	14.039
664.31	16.807
664.63	14.372
664.96	13.883
665.28	15.369
665.61	14.230
665.93	16.700
666.26	15.416
666.58	14.644
666.91	18.393
667.23	16.180
667.56	16.847
667.88	16.667
668.21	16.418
668.53	16.486
668.86	12.987
669.18	18.337
669.50	18.261
669.83	19.172
670.15	16.889
670.48	15.033
670.80	17.672
671.13	17.410
671.45	14.681
671.77	16.497
672.10	16.266
672.42	14.664
672.75	15.091
673.07	11.796
673.39	13.201
673.72	10.937
674.04	13.529
674.37	16.699
674.69	14.724
675.01	15.272
675.34	16.632
675.66	17.053
675.98	16.090
676.31	17.857
676.63	16.773
676.95	15.304
677.28	13.318
677.60	15.385
677.92	16.034
678.25	16.427
678.57	16.534
678.89	14.629
679.22	16.699
679.54	15.458
679.86	17.798
680.18	13.417
680.51	16.135
680.83	15.302
681.15	16.038
681.48	16.824
681.80	14.507
682.12	13.410
682.44	14.507
682.77	14.460
683.09	17.382
683.41	17.073
683.73	16.777
684.06	14.876
684.38	14.677
684.70	14.729
685.02	15.760
685.34	13.004
685.67	12.413
685.99	13.918
686.31	13.311
686.63	12.014
686.96	13.929
687.28	14.079
687.60	14.493
687.92	16.453
688.24	15.019
688.56	17.470
688.89	16.598
689.21	17.904
689.53	16.910
689.85	15.965
690.17	14.286
690.49	17.622
690.82	17.523
691.14	13.170
691.46	15.612
691.78	16.064
692.10	15.289
692.42	14.371
692.74	15.353
693.06	15.106
693.39	18.275
693.71	13.755
694.03	17.053
694.35	15.368
694.67	15.789
694.99	19.268
695.31	14.706
695.63	20.335
695.95	16.381
696.27	15.228
696.59	18.394
696.91	17.358
697.23	14.085
697.56	14.925
697.88	12.883
698.20	14.583
698.52	15.269
698.84	15.367
699.16	15.207
699.48	16.865
699.80	16.425
700.12	18.961
700.44	17.772
700.76	15.470
701.08	17.816
701.40	17.039
701.72	18.367
702.04	23.864
702.36	15.581
702.68	17.564
703.00	17.729
703.32	17.553
703.64	18.499
703.96	17.270
704.28	18.895
704.60	20.821
704.91	19.585
705.23	18.768
705.55	23.256
705.87	21.595
706.19	17.314
706.51	21.184
706.83	22.121
707.15	19.048
707.47	18.182
707.79	18.428
708.11	16.895
708.43	15.476
708.74	15.051
709.06	20.000
709.38	16.010
709.70	20.058
710.02	21.365
710.34	19.091
710.66	20.000
710.98	21.875
711.29	21.221
711.61	23.009
711.93	20.192
712.25	24.116
712.57	20.221
712.89	22.837
713.20	21.277
713.52	22.039
713.84	21.835
714.16	19.207
714.48	18.391
714.80	22.492
715.11	18.156
715.43	17.804
715.75	20.000
716.07	18.211
716.39	19.749
716.70	22.259
717.02	23.381
717.34	23.322
717.66	24.627
717.97	23.904
718.29	22.222
718.61	22.628
718.93	22.794
719.24	20.415
719.56	20.339
719.88	25.085
720.20	24.324
720.51	24.042
720.83	25.279
721.15	23.507
721.46	25.177
721.78	19.355
722.10	25.283
722.42	24.060
722.73	22.097
723.05	20.492
723.37	24.696
723.68	26.255
724.00	22.358
724.32	22.581
724.63	23.171
724.95	20.084
725.27	23.077
725.58	21.484
725.90	25.182
726.22	20.000
726.53	20.139
726.85	18.430
727.16	19.217
727.48	19.858
727.80	22.348
728.11	21.377
728.43	18.846
728.74	18.638
729.06	25.912
729.38	23.529
729.69	24.199
730.01	18.430
730.32	20.139
730.64	23.411
730.96	18.152
731.27	21.192
731.59	19.878
731.90	21.574
732.22	18.634
732.53	17.337
732.85	19.872
733.16	18.328
733.48	23.256
733.80	21.753
734.11	21.656
734.43	21.598
734.74	16.571
735.06	16.332
735.37	20.520
735.69	18.153
736.00	21.895
736.32	23.053
736.63	19.489
736.95	21.725
737.26	14.966
737.58	16.452
737.89	18.729
738.21	22.184
738.52	19.643
738.83	20.755
739.15	16.538
739.46	21.898
739.78	23.264
740.09	23.692
740.41	22.903
740.72	18.118
741.04	23.333
741.35	23.333
741.66	28.444
741.98	23.113
742.29	31.579
742.61	28.017
742.92	26.244
743.23	27.350
743.55	23.200
743.86	28.070
744.18	26.549
744.49	29.187
744.80	25.822
745.12	30.000
745.43	26.432
745.74	28.829
746.06	26.606
746.37	26.457
746.68	26.697
747.00	25.926
747.31	25.714
747.62	23.451
747.94	26.432
748.25	23.404
748.56	31.278
748.88	27.228
749.19	31.000
749.50	29.767
749.82	21.951
750.13	17.959
750.44	22.628
750.75	20.351
751.07	27.974
751.38	20.557
751.69	20.578
752.01	21.429
752.32	23.827
752.63	22.695
752.94	25.000
753.26	25.600
753.57	20.732
753.88	27.344
754.19	22.500
754.51	23.958
754.82	18.773
755.13	22.264
755.44	18.797
755.75	19.343
756.07	17.730
756.38	18.978
756.69	22.483
757.00	18.563
757.31	17.804
757.63	18.421
757.94	16.354
758.25	15.686
758.56	15.309
758.87	16.129
759.18	18.182
759.50	20.063
759.81	20.872
760.12	15.000
760.43	20.917
760.74	15.217
761.05	22.034
761.36	16.845
761.67	18.466
761.99	20.497
762.30	22.917
762.61	20.611
762.92	23.438
763.23	20.168
763.54	22.000
763.85	19.922
764.16	23.846
764.47	25.095
764.78	20.141
765.10	15.823
765.41	19.764
765.72	17.964
766.03	20.376
766.34	20.667
766.65	22.979
766.96	25.641
767.27	31.472
767.58	32.812
767.89	29.474
768.20	29.310
768.51	30.457
768.82	22.936
769.13	23.171
769.44	21.053
769.75	22.747
770.06	22.936
770.37	23.529
770.68	24.537
770.99	23.556
771.30	22.131
771.61	26.457
771.92	25.000
772.23	25.210
772.54	26.154
772.85	30.366
773.16	36.702
773.47	33.152
773.78	34.010
774.09	33.333
774.39	28.655
774.70	34.568
775.01	37.681
775.32	40.523
775.63	36.184
775.94	30.216
776.25	37.795
776.56	38.806
776.87	51.639
777.18	39.062
777.48	38.168
777.79	42.424
778.10	40.741
778.41	39.286
778.72	37.956
779.03	38.255
779.34	42.282
779.65	29.730
779.95	29.448
780.26	40.523
780.57	40.690
780.88	49.219
781.19	34.586
781.50	36.486
781.80	30.818
782.11	34.463
782.42	31.646
782.73	33.742
783.04	35.135
783.34	35.915
783.65	40.411
783.96	38.060
784.27	37.063
784.57	34.532
784.88	41.667
785.19	45.238
785.50	39.623
785.81	41.045
786.11	44.262
786.42	39.535
786.73	41.593
787.04	45.283
787.34	42.857
787.65	52.000
787.96	45.946
788.26	39.669
788.57	48.305
788.88	45.455
789.19	43.056
789.49	47.727
789.80	45.802
790.11	54.286
790.41	55.446
790.72	50.602
791.03	54.348
791.33	53.488
791.64	59.794
791.95	58.416
792.25	54.444
792.56	71.429
792.87	70.513
793.17	79.747
793.48	57.471
793.79	66.667
794.09	60.227
794.40	42.857
794.70	38.971
795.01	40.000
795.32	33.094
795.62	42.520
795.93	44.828
796.23	46.018
796.54	51.765
796.85	66.216
797.15	70.423
797.46	63.636
797.76	71.084
798.07	49.367
798.37	67.692
798.68	65.152
798.99	64.789
799.29	64.935
799.60	62.500
799.90	82.192
800.21	71.642
800.51	89.655
800.82	87.719
801.12	72.131
801.43	78.788
801.73	79.730
802.04	77.778
802.34	69.136
802.65	71.875
802.95	83.051
803.26	73.438
803.56	77.143
803.87	80.000
804.17	75.000
804.48	83.333
804.78	68.966
805.09	83.824
805.39	80.769
805.70	69.643
806.00	85.246
806.30	83.333
806.61	71.951
806.91	55.696
807.22	55.263
807.52	58.209
807.83	77.465
808.13	75.000
808.43	68.333
808.74	57.895
809.04	79.710
809.35	77.612
809.65	64.474
809.95	88.710
810.26	79.661
810.56	76.190
810.86	140.909
811.17	107.143
811.47	93.333
811.77	79.630
812.08	98.182
812.38	100.000
812.69	102.778
812.99	122.727
813.29	104.082
813.59	73.810
813.90	110.204
814.20	90.909
814.50	52.308
814.81	86.765
815.11	93.878
815.41	81.967
815.72	133.333
816.02	105.455
816.32	133.333
816.62	120.000
816.93	107.317
817.23	133.333
817.53	115.909
817.84	151.515
818.14	80.435
818.44	108.889
818.74	126.471
819.04	127.500
819.35	162.857
819.65	138.235
819.95	146.429
820.25	190.000
820.56	156.410
820.86	118.182
821.16	123.256
821.46	102.564
821.76	114.000
822.07	148.571
822.37	150.000
822.67	154.545
822.97	113.725
823.27	189.286
823.57	154.054
823.88	127.500
824.18	166.667
824.48	138.095
824.78	180.000
825.08	137.500
825.38	129.730
825.69	129.268
825.99	187.500
826.29	155.172
826.59	144.737
826.89	110.526
827.19	170.588
827.49	129.032
827.79	127.273
828.09	111.364
828.39	76.596
828.70	93.878
829.00	118.519
829.30	148.387
829.60	132.500
829.90	266.667
830.20	185.714
830.50	165.217
830.80	221.739
831.10	173.333
831.40	156.667
831.70	130.435
832.00	207.692
832.30	170.370
832.60	281.250
832.90	206.667
833.20	371.429
833.50	190.323
833.80	155.172
834.10	171.875
834.40	165.385
834.70	277.778
835.00	266.667
835.30	160.000
835.60	261.538
835.90	193.103
836.20	271.429
836.50	189.655
836.80	192.000
837.10	166.667
837.40	190.476
837.70	211.765
838.00	185.185
838.30	223.810
838.60	233.333
838.90	234.615
839.19	215.000
839.49	357.143
839.79	250.000
840.09	230.000
840.39	247.619
840.69	269.565
840.99	272.222
841.29	450.000
841.59	325.000
841.88	306.250
842.18	179.310
842.48	200.000
842.78	156.667
843.08	200.000
843.38	140.625
843.68	850.000
843.97	203.846
844.27	158.621
844.57	271.429
844.87	318.750
845.17	170.370
845.47	1366.667
845.76	400.000
846.06	247.059
846.36	400.000
846.66	307.143
846.96	312.500
847.25	336.364
847.55	245.455
847.85	265.217
848.15	470.000
848.44	350.000
848.74	233.333
849.04	282.353
849.34	550.000
849.63	221.053
849.93	427.273
850.23	840.000
850.53	357.143
850.82	1800.000
851.12	-3400.000
851.42	4400.000
851.71	240.000
852.01	-1266.667
852.31	245.833
852.61	1733.333
852.90	238.095
853.20	220.000
853.50	276.471
853.79	242.857
854.09	170.833
854.39	262.500
854.68	170.270
854.98	154.839
855.28	186.667
855.57	158.621
855.87	166.667
856.17	215.789
856.46	220.000
856.76	264.706
857.05	179.310
857.35	229.167
857.65	320.000
857.94	217.391
858.24	234.615
858.53	280.000
858.83	213.636
859.13	346.667
859.42	0.000
859.72	544.444
860.01	390.909
860.31	213.636
860.60	305.263
860.90	213.043
861.20	588.889
861.49	466.667
861.79	-3800.000
862.08	550.000
862.38	238.095
862.67	261.538
862.97	305.882
863.26	411.111
863.56	266.667
863.85	375.000
864.15	537.500
864.44	353.333
864.74	900.000
865.03	512.500
865.33	310.526
865.62	463.636
865.92	392.308
866.21	366.667
866.51	0.000
866.80	454.545
867.10	840.000
867.39	376.923
867.69	427.273
867.98	284.211
868.27	436.364
868.57	242.105
868.86	-4200.000
869.16	312.500
869.45	2250.000
869.75	-4100.000
870.04	400.000
870.33	657.143
870.63	1125.000
870.92	1950.000
871.22	742.857
871.51	300.000
871.80	214.286
872.10	328.571
>>>>>End Processed Spectral Data<<<<<
