SpectraSuite Data File
++++++++++++++++++++++++++++++++++++
Date: Wed May 13 16:40:11 PDT 2015
User: schluterlab
Dark Spectrum Present: Yes
Reference Spectrum Present: Yes
Number of Sampled Component Spectra: 1
Spectrometers: USB2E3373
Integration Time (usec): 3000 (USB2E3373)
Spectra Averaged: 3 (USB2E3373)
Boxcar Smoothing: 0 (USB2E3373)
Correct for Electrical Dark: No (USB2E3373)
Strobe/Lamp Enabled: No (USB2E3373)
Correct for Detector Non-linearity: No (USB2E3373)
Correct for Stray Light: No (USB2E3373)
Number of Pixels in Processed Spectrum: 2048
>>>>>Begin Processed Spectral Data<<<<<
178.53	0.000
178.91	-1425.000
179.29	-1350.000
179.67	-238.889
180.04	-1475.000
180.42	2250.000
180.80	840.000
181.18	-1225.000
181.56	628.571
181.94	0.000
182.31	-571.429
182.69	2000.000
183.07	-537.500
183.45	-488.889
183.83	554.545
184.20	-440.000
184.58	2450.000
184.96	5100.000
185.34	-920.000
185.72	-612.500
186.09	-3000.000
186.47	2550.000
186.85	2100.000
187.23	4900.000
187.61	-1533.333
187.98	1200.000
188.36	581.818
188.74	545.455
189.12	-960.000
189.49	620.000
189.87	-4800.000
190.25	-1150.000
190.63	464.286
191.00	453.846
191.38	950.000
191.76	-1200.000
192.14	1300.000
192.51	575.000
192.89	916.667
193.27	575.000
193.65	-1250.000
194.02	520.000
194.40	900.000
194.78	490.000
195.15	500.000
195.53	590.000
195.91	-2200.000
196.29	400.000
196.66	331.579
197.04	-360.000
197.42	0.000
197.79	590.000
198.17	-5100.000
198.55	614.286
198.92	712.500
199.30	880.000
199.68	0.000
200.05	333.333
200.43	757.143
200.81	5200.000
201.18	1600.000
201.56	-1900.000
201.94	544.444
202.31	555.556
202.69	441.667
203.07	640.000
203.44	0.000
203.82	1125.000
204.19	685.714
204.57	464.286
204.95	700.000
205.32	1833.333
205.70	536.364
206.08	342.857
206.45	2100.000
206.83	350.000
207.20	900.000
207.58	820.000
207.96	322.222
208.33	750.000
208.71	-800.000
209.08	814.286
209.46	611.111
209.84	481.818
210.21	-1766.667
210.59	1550.000
210.96	-525.000
211.34	2650.000
211.71	590.000
212.09	716.667
212.46	0.000
212.84	1833.333
213.22	1250.000
213.59	-4800.000
213.97	900.000
214.34	728.571
214.72	618.182
215.09	1360.000
215.47	-2050.000
215.84	-2500.000
216.22	1700.000
216.59	385.714
216.97	1000.000
217.34	436.364
217.72	-816.667
218.09	0.000
218.47	-4600.000
218.84	666.667
219.22	585.714
219.59	1533.333
219.97	-714.286
220.34	920.000
220.72	-2000.000
221.09	400.000
221.47	1375.000
221.84	-1066.667
222.22	0.000
222.59	1525.000
222.97	-2350.000
223.34	1060.000
223.72	400.000
224.09	1300.000
224.46	2400.000
224.84	-5300.000
225.21	-1120.000
225.59	-5300.000
225.96	530.000
226.34	300.000
226.71	2850.000
227.08	575.000
227.46	540.000
227.83	-900.000
228.21	-2150.000
228.58	533.333
228.95	-2050.000
229.33	-2250.000
229.70	1500.000
230.08	628.571
230.45	-680.000
230.82	491.667
231.20	900.000
231.57	685.714
231.95	533.333
232.32	236.364
232.69	390.909
233.07	685.714
233.44	392.308
233.81	-1633.333
234.19	315.789
234.56	458.333
234.93	450.000
235.31	409.091
235.68	446.154
236.05	385.714
236.43	157.576
236.80	278.947
237.17	4400.000
237.55	247.619
237.92	171.429
238.29	261.905
238.67	190.323
239.04	244.828
239.41	158.333
239.79	134.783
240.16	145.238
240.53	150.000
240.91	98.039
241.28	130.000
241.65	124.000
242.02	100.000
242.40	106.452
242.77	110.000
243.14	76.344
243.51	87.640
243.89	87.059
244.26	74.444
244.63	72.043
245.00	69.149
245.38	74.257
245.75	74.766
246.12	64.220
246.49	72.993
246.87	67.200
247.24	70.769
247.61	57.857
247.98	58.170
248.36	51.351
248.73	54.140
249.10	52.229
249.47	55.367
249.84	50.802
250.22	52.941
250.59	55.621
250.96	49.495
251.33	51.185
251.70	50.495
252.08	45.714
252.45	46.188
252.82	42.609
253.19	47.660
253.56	45.490
253.94	47.718
254.31	39.844
254.68	47.308
255.05	46.494
255.42	41.870
255.79	45.221
256.16	42.599
256.54	40.636
256.91	39.858
257.28	36.331
257.65	40.594
258.02	37.888
258.39	36.278
258.76	35.786
259.14	39.286
259.51	37.082
259.88	38.199
260.25	38.066
260.62	37.572
260.99	37.267
261.36	41.141
261.73	35.530
262.10	38.372
262.47	39.718
262.85	37.326
263.22	36.752
263.59	37.037
263.96	34.615
264.33	38.642
264.70	37.105
265.07	37.340
265.44	35.101
265.81	35.280
266.18	36.683
266.55	33.659
266.92	35.627
267.29	34.722
267.66	33.257
268.03	35.000
268.40	34.579
268.77	32.697
269.14	34.234
269.51	32.731
269.88	34.033
270.25	34.989
270.62	33.483
270.99	33.763
271.36	34.549
271.73	33.178
272.10	31.739
272.47	33.548
272.84	31.818
273.21	35.010
273.58	32.533
273.95	31.656
274.32	30.372
274.69	29.122
275.06	31.299
275.43	34.894
275.80	31.864
276.17	31.976
276.54	33.264
276.91	31.225
277.28	29.688
277.65	30.561
278.02	31.263
278.39	32.422
278.76	30.727
279.13	32.642
279.50	32.216
279.87	30.080
280.23	32.335
280.60	29.981
280.97	28.096
281.34	30.265
281.71	31.818
282.08	30.326
282.45	30.182
282.82	31.616
283.19	28.699
283.56	31.228
283.92	29.272
284.29	28.219
284.66	28.312
285.03	28.752
285.40	30.810
285.77	28.620
286.14	28.152
286.51	28.500
286.87	29.060
287.24	29.642
287.61	29.695
287.98	28.409
288.35	28.209
288.72	27.103
289.08	28.951
289.45	27.842
289.82	27.480
290.19	26.217
290.56	23.890
290.93	25.831
291.29	26.380
291.66	24.926
292.03	26.744
292.40	26.285
292.77	24.112
293.13	24.328
293.50	24.198
293.87	26.667
294.24	22.370
294.60	22.853
294.97	26.017
295.34	26.093
295.71	24.148
296.08	23.504
296.44	23.521
296.81	23.910
297.18	26.016
297.55	21.504
297.91	23.615
298.28	22.758
298.65	25.587
299.02	22.793
299.38	21.647
299.75	21.159
300.12	21.711
300.48	21.375
300.85	22.072
301.22	23.185
301.59	21.338
301.95	22.166
302.32	21.181
302.69	22.103
303.05	21.333
303.42	20.247
303.79	20.159
304.15	19.580
304.52	20.046
304.89	20.790
305.25	19.606
305.62	20.045
305.99	21.133
306.35	19.239
306.72	20.179
307.09	19.867
307.45	21.734
307.82	18.415
308.19	20.640
308.55	20.065
308.92	19.334
309.29	19.641
309.65	18.664
310.02	19.133
310.38	19.032
310.75	19.430
311.12	21.085
311.48	20.376
311.85	19.602
312.22	20.395
312.58	19.127
312.95	20.169
313.31	18.058
313.68	19.543
314.05	21.400
314.41	18.693
314.78	18.933
315.14	19.861
315.51	19.670
315.87	20.000
316.24	19.464
316.61	19.591
316.97	18.493
317.34	17.808
317.70	19.790
318.07	19.153
318.43	19.374
318.80	18.463
319.16	18.832
319.53	18.011
319.89	19.905
320.26	19.800
320.62	20.635
320.99	20.606
321.35	18.384
321.72	18.686
322.08	19.348
322.45	20.199
322.81	20.252
323.18	20.424
323.54	19.109
323.91	19.151
324.27	18.547
324.64	18.826
325.00	19.116
325.37	17.743
325.73	19.569
326.10	19.506
326.46	18.190
326.83	19.413
327.19	18.275
327.56	19.164
327.92	17.848
328.29	18.811
328.65	19.337
329.01	18.863
329.38	17.576
329.74	18.006
330.11	18.662
330.47	19.100
330.84	18.750
331.20	18.215
331.56	18.991
331.93	19.352
332.29	19.343
332.66	19.292
333.02	18.099
333.38	18.880
333.75	19.162
334.11	18.594
334.48	18.545
334.84	19.761
335.20	18.818
335.57	18.132
335.93	16.786
336.29	18.223
336.66	18.485
337.02	18.100
337.38	18.426
337.75	16.845
338.11	18.263
338.47	17.311
338.84	18.057
339.20	16.606
339.56	18.796
339.93	16.545
340.29	18.931
340.65	18.271
341.02	17.714
341.38	18.238
341.74	17.719
342.11	18.603
342.47	18.590
342.83	18.322
343.20	18.355
343.56	16.596
343.92	18.158
344.28	17.857
344.65	18.143
345.01	16.582
345.37	17.153
345.73	17.090
346.10	17.477
346.46	17.627
346.82	17.133
347.19	17.377
347.55	16.338
347.91	17.718
348.27	17.420
348.63	17.391
349.00	17.071
349.36	16.995
349.72	17.963
350.08	17.180
350.45	17.575
350.81	17.059
351.17	17.342
351.53	16.462
351.89	16.007
352.26	17.601
352.62	17.883
352.98	16.532
353.34	15.776
353.70	15.876
354.07	16.935
354.43	17.143
354.79	16.171
355.15	15.962
355.51	16.627
355.87	16.653
356.24	17.182
356.60	16.359
356.96	17.056
357.32	16.517
357.68	17.008
358.04	16.073
358.40	17.736
358.77	16.197
359.13	15.470
359.49	17.020
359.85	15.397
360.21	15.550
360.57	17.432
360.93	15.923
361.29	15.268
361.66	15.248
362.02	17.015
362.38	16.578
362.74	15.848
363.10	15.248
363.46	15.847
363.82	15.344
364.18	17.034
364.54	16.939
364.90	16.360
365.26	15.588
365.62	16.654
365.98	15.924
366.35	15.688
366.71	16.631
367.07	16.606
367.43	15.675
367.79	16.916
368.15	16.954
368.51	14.898
368.87	16.560
369.23	15.655
369.59	16.944
369.95	15.441
370.31	16.809
370.67	16.304
371.03	16.779
371.39	15.598
371.75	16.397
372.11	16.287
372.47	16.349
372.83	16.571
373.19	16.040
373.55	15.817
373.91	17.158
374.27	15.464
374.63	16.218
374.99	16.314
375.35	15.003
375.71	16.107
376.07	15.775
376.42	16.162
376.78	15.772
377.14	16.350
377.50	16.291
377.86	16.090
378.22	15.740
378.58	15.100
378.94	15.211
379.30	15.649
379.66	15.165
380.02	16.278
380.38	15.422
380.74	16.387
381.09	16.626
381.45	16.411
381.81	16.462
382.17	16.178
382.53	15.912
382.89	16.173
383.25	15.885
383.61	16.419
383.97	15.447
384.32	16.906
384.68	15.180
385.04	16.349
385.40	15.975
385.76	16.093
386.12	16.192
386.48	16.551
386.83	16.742
387.19	17.007
387.55	16.079
387.91	16.385
388.27	15.205
388.62	17.025
388.98	16.278
389.34	16.521
389.70	16.002
390.06	16.920
390.42	16.926
390.77	16.794
391.13	16.592
391.49	17.195
391.85	17.187
392.20	15.394
392.56	16.225
392.92	17.187
393.28	15.207
393.64	17.146
393.99	16.921
394.35	17.370
394.71	16.499
395.07	16.636
395.42	16.934
395.78	17.557
396.14	16.760
396.50	17.043
396.85	17.355
397.21	16.584
397.57	16.057
397.92	16.887
398.28	15.527
398.64	17.025
399.00	16.060
399.35	16.638
399.71	16.840
400.07	17.209
400.42	17.423
400.78	16.948
401.14	17.256
401.49	16.836
401.85	16.213
402.21	15.928
402.57	16.348
402.92	16.646
403.28	17.614
403.63	16.275
403.99	16.051
404.35	16.970
404.70	16.667
405.06	15.783
405.42	17.405
405.77	16.629
406.13	16.366
406.49	16.736
406.84	17.247
407.20	16.489
407.55	16.401
407.91	17.400
408.27	16.911
408.62	16.556
408.98	16.422
409.34	16.544
409.69	17.355
410.05	16.357
410.40	16.330
410.76	16.786
411.11	16.405
411.47	16.997
411.83	17.043
412.18	16.079
412.54	16.314
412.89	16.325
413.25	16.470
413.60	17.295
413.96	16.029
414.31	16.707
414.67	17.807
415.03	17.086
415.38	17.139
415.74	17.235
416.09	17.309
416.45	16.867
416.80	17.250
417.16	17.493
417.51	17.054
417.87	16.249
418.22	17.729
418.58	17.753
418.93	17.015
419.29	16.868
419.64	16.688
420.00	16.585
420.35	16.464
420.71	16.796
421.06	16.408
421.42	16.257
421.77	17.265
422.12	16.171
422.48	16.190
422.83	16.191
423.19	16.022
423.54	16.831
423.90	16.870
424.25	17.420
424.61	16.369
424.96	16.210
425.31	16.667
425.67	15.955
426.02	16.457
426.38	17.155
426.73	15.857
427.09	16.170
427.44	17.021
427.79	15.929
428.15	17.024
428.50	16.384
428.85	17.104
429.21	16.731
429.56	16.019
429.92	16.306
430.27	16.435
430.62	15.719
430.98	16.191
431.33	16.289
431.68	16.806
432.04	17.465
432.39	16.276
432.74	17.115
433.10	16.355
433.45	16.910
433.80	15.687
434.16	16.186
434.51	15.316
434.86	16.591
435.22	15.342
435.57	16.717
435.92	16.208
436.28	17.319
436.63	17.494
436.98	16.657
437.34	16.398
437.69	16.919
438.04	16.301
438.39	16.000
438.75	17.083
439.10	16.201
439.45	16.529
439.81	16.435
440.16	15.810
440.51	16.755
440.86	17.255
441.22	16.518
441.57	16.454
441.92	16.274
442.27	16.738
442.63	15.534
442.98	17.183
443.33	16.522
443.68	15.798
444.03	15.861
444.39	15.287
444.74	16.721
445.09	16.388
445.44	16.129
445.79	16.477
446.15	16.781
446.50	16.047
446.85	16.598
447.20	16.063
447.55	16.527
447.91	15.996
448.26	15.971
448.61	16.676
448.96	16.611
449.31	16.648
449.66	16.882
450.02	15.655
450.37	16.553
450.72	15.792
451.07	15.722
451.42	16.474
451.77	16.442
452.12	16.166
452.47	16.667
452.83	16.142
453.18	16.015
453.53	16.883
453.88	15.889
454.23	17.155
454.58	16.475
454.93	16.592
455.28	16.209
455.63	15.898
455.98	17.083
456.34	15.955
456.69	16.594
457.04	16.966
457.39	16.540
457.74	16.599
458.09	16.504
458.44	16.420
458.79	15.727
459.14	16.253
459.49	15.995
459.84	16.731
460.19	16.028
460.54	15.567
460.89	16.072
461.24	15.604
461.59	16.851
461.94	15.660
462.29	16.736
462.64	15.890
462.99	16.461
463.34	16.867
463.69	16.385
464.04	16.812
464.39	16.174
464.74	16.815
465.09	16.043
465.44	15.845
465.79	15.940
466.14	16.475
466.49	16.073
466.84	16.112
467.19	16.355
467.54	16.688
467.89	15.966
468.24	16.696
468.59	16.789
468.94	15.944
469.29	16.581
469.64	17.135
469.99	16.644
470.34	16.182
470.68	16.523
471.03	16.054
471.38	17.443
471.73	16.656
472.08	16.645
472.43	15.704
472.78	16.327
473.13	16.688
473.48	16.042
473.83	15.854
474.17	15.993
474.52	16.501
474.87	16.754
475.22	15.554
475.57	16.067
475.92	16.357
476.27	15.671
476.61	16.327
476.96	14.788
477.31	16.117
477.66	15.864
478.01	15.473
478.36	15.970
478.70	15.265
479.05	15.708
479.40	15.763
479.75	15.760
480.10	15.557
480.45	14.993
480.79	15.289
481.14	15.313
481.49	16.327
481.84	15.364
482.19	15.856
482.53	15.505
482.88	15.682
483.23	15.888
483.58	15.924
483.92	15.698
484.27	14.597
484.62	15.259
484.97	14.860
485.31	15.137
485.66	14.184
486.01	13.467
486.36	12.891
486.70	12.866
487.05	13.532
487.40	13.866
487.75	14.239
488.09	15.256
488.44	15.010
488.79	15.298
489.13	15.661
489.48	15.701
489.83	15.106
490.17	15.037
490.52	15.500
490.87	14.925
491.22	15.598
491.56	14.123
491.91	14.611
492.26	14.332
492.60	15.300
492.95	15.061
493.30	15.093
493.64	15.026
493.99	14.903
494.34	15.264
494.68	15.705
495.03	15.414
495.37	15.356
495.72	15.497
496.07	15.592
496.41	14.248
496.76	15.303
497.11	14.588
497.45	15.417
497.80	15.211
498.14	15.314
498.49	14.732
498.84	15.724
499.18	15.286
499.53	15.195
499.87	15.051
500.22	14.885
500.56	15.485
500.91	15.048
501.26	15.315
501.60	15.093
501.95	14.665
502.29	15.089
502.64	15.223
502.98	14.960
503.33	14.397
503.67	15.081
504.02	15.014
504.36	15.021
504.71	14.704
505.06	14.940
505.40	15.022
505.75	15.043
506.09	14.772
506.44	14.998
506.78	14.954
507.13	15.295
507.47	15.303
507.82	14.894
508.16	15.198
508.51	15.677
508.85	15.094
509.19	15.357
509.54	14.898
509.88	15.404
510.23	15.116
510.57	15.996
510.92	15.432
511.26	15.211
511.61	15.249
511.95	15.084
512.30	14.581
512.64	15.207
512.98	15.756
513.33	15.364
513.67	15.582
514.02	14.719
514.36	15.674
514.70	15.495
515.05	14.891
515.39	15.255
515.74	15.822
516.08	15.595
516.42	15.538
516.77	15.831
517.11	15.261
517.46	15.801
517.80	16.260
518.14	15.692
518.49	16.278
518.83	15.682
519.17	15.473
519.52	15.337
519.86	16.087
520.20	16.243
520.55	16.038
520.89	15.937
521.23	16.224
521.58	16.086
521.92	16.595
522.26	15.497
522.61	16.760
522.95	16.452
523.29	15.764
523.64	16.341
523.98	16.636
524.32	15.199
524.66	16.115
525.01	16.360
525.35	15.985
525.69	15.025
526.04	16.822
526.38	15.802
526.72	15.951
527.06	16.259
527.41	15.161
527.75	16.463
528.09	15.478
528.43	15.997
528.78	16.226
529.12	15.152
529.46	15.799
529.80	15.532
530.15	15.950
530.49	15.569
530.83	15.886
531.17	16.057
531.51	16.991
531.86	16.000
532.20	16.362
532.54	17.168
532.88	15.789
533.22	17.177
533.57	15.988
533.91	15.352
534.25	15.796
534.59	15.863
534.93	14.991
535.27	16.295
535.62	16.484
535.96	16.070
536.30	16.020
536.64	16.227
536.98	16.257
537.32	16.458
537.66	16.267
538.01	16.129
538.35	16.742
538.69	17.486
539.03	15.530
539.37	15.783
539.71	14.647
540.05	16.144
540.39	16.412
540.73	15.783
541.07	16.418
541.42	15.721
541.76	16.774
542.10	16.559
542.44	16.490
542.78	17.260
543.12	16.123
543.46	15.672
543.80	17.176
544.14	15.597
544.48	15.746
544.82	16.613
545.16	15.745
545.50	15.553
545.84	16.062
546.18	16.768
546.52	16.724
546.86	15.601
547.20	16.858
547.54	15.564
547.88	16.773
548.22	16.189
548.56	15.849
548.90	16.261
549.24	15.623
549.58	16.030
549.92	16.209
550.26	16.264
550.60	16.252
550.94	15.986
551.28	15.655
551.62	16.463
551.96	15.930
552.30	15.973
552.64	15.619
552.98	16.339
553.32	16.993
553.66	16.973
554.00	16.335
554.34	16.701
554.68	15.951
555.02	16.643
555.36	15.936
555.69	15.832
556.03	16.622
556.37	15.484
556.71	16.644
557.05	15.826
557.39	15.955
557.73	16.161
558.07	16.389
558.41	16.136
558.75	16.312
559.08	17.524
559.42	17.385
559.76	16.618
560.10	16.702
560.44	15.863
560.78	15.702
561.12	15.765
561.45	16.623
561.79	15.689
562.13	15.761
562.47	16.735
562.81	15.900
563.15	16.990
563.48	17.374
563.82	15.460
564.16	15.173
564.50	15.885
564.84	15.803
565.17	16.088
565.51	16.102
565.85	15.546
566.19	15.466
566.52	15.706
566.86	15.672
567.20	15.507
567.54	16.153
567.88	15.644
568.21	16.190
568.55	15.521
568.89	14.202
569.23	15.107
569.56	14.291
569.90	14.113
570.24	13.994
570.57	14.519
570.91	14.124
571.25	14.021
571.59	14.227
571.92	13.998
572.26	14.067
572.60	14.144
572.93	14.183
573.27	14.286
573.61	13.791
573.95	14.419
574.28	13.920
574.62	13.290
574.96	13.333
575.29	13.846
575.63	13.796
575.97	13.512
576.30	14.339
576.64	13.748
576.98	13.782
577.31	13.632
577.65	13.681
577.98	13.269
578.32	12.947
578.66	13.774
578.99	13.559
579.33	13.387
579.67	13.817
580.00	13.786
580.34	13.645
580.67	13.827
581.01	13.515
581.35	13.541
581.68	13.558
582.02	12.874
582.35	13.128
582.69	13.587
583.02	13.517
583.36	13.742
583.70	14.036
584.03	14.394
584.37	14.071
584.70	13.819
585.04	14.237
585.37	13.979
585.71	13.980
586.04	13.844
586.38	13.819
586.72	14.305
587.05	13.366
587.39	13.456
587.72	13.450
588.06	13.821
588.39	13.772
588.73	13.992
589.06	14.397
589.40	14.983
589.73	14.502
590.07	14.591
590.40	14.688
590.73	14.832
591.07	15.466
591.40	15.057
591.74	16.277
592.07	14.442
592.41	15.089
592.74	14.232
593.08	14.424
593.41	13.508
593.75	13.679
594.08	13.879
594.41	14.175
594.75	14.011
595.08	13.780
595.42	14.081
595.75	14.566
596.09	15.284
596.42	15.285
596.75	15.112
597.09	15.455
597.42	14.334
597.75	14.489
598.09	15.000
598.42	14.476
598.76	14.471
599.09	14.139
599.42	13.901
599.76	14.275
600.09	14.426
600.42	13.769
600.76	13.929
601.09	14.208
601.42	14.003
601.76	14.345
602.09	14.664
602.42	15.008
602.76	14.752
603.09	14.437
603.42	14.955
603.76	14.329
604.09	14.579
604.42	14.921
604.76	15.057
605.09	14.679
605.42	14.451
605.75	14.238
606.09	14.233
606.42	14.671
606.75	14.600
607.09	14.650
607.42	13.992
607.75	14.051
608.08	14.199
608.42	14.881
608.75	14.563
609.08	14.431
609.41	14.850
609.75	14.817
610.08	15.646
610.41	14.199
610.74	14.238
611.07	15.366
611.41	15.064
611.74	16.038
612.07	15.373
612.40	15.373
612.73	14.158
613.07	15.787
613.40	15.850
613.73	14.421
614.06	14.785
614.39	15.155
614.72	15.000
615.06	15.336
615.39	15.180
615.72	14.008
616.05	14.460
616.38	15.231
616.71	15.855
617.05	15.607
617.38	16.176
617.71	15.015
618.04	15.685
618.37	15.198
618.70	15.370
619.03	16.382
619.36	16.158
619.69	16.479
620.03	16.209
620.36	16.176
620.69	16.301
621.02	16.814
621.35	16.601
621.68	15.265
622.01	15.557
622.34	16.490
622.67	16.426
623.00	15.701
623.33	15.225
623.66	15.511
623.99	17.084
624.32	15.335
624.65	15.607
624.99	16.147
625.32	14.772
625.65	15.101
625.98	17.218
626.31	17.263
626.64	17.633
626.97	16.376
627.30	15.711
627.63	16.817
627.96	16.316
628.29	17.060
628.62	15.919
628.95	18.302
629.28	18.157
629.61	18.057
629.94	16.952
630.26	17.064
630.59	18.780
630.92	17.241
631.25	16.190
631.58	18.118
631.91	16.836
632.24	18.776
632.57	17.733
632.90	18.092
633.23	19.016
633.56	18.531
633.89	18.120
634.22	17.480
634.55	18.935
634.88	17.485
635.20	19.355
635.53	19.639
635.86	18.812
636.19	18.235
636.52	18.108
636.85	19.129
637.18	16.359
637.51	18.913
637.83	15.906
638.16	18.670
638.49	19.144
638.82	19.216
639.15	18.625
639.48	19.077
639.81	18.767
640.13	19.141
640.46	20.134
640.79	20.476
641.12	17.744
641.45	18.575
641.77	17.968
642.10	17.398
642.43	19.520
642.76	17.647
643.09	21.319
643.41	18.816
643.74	21.759
644.07	18.750
644.40	21.319
644.73	22.677
645.05	22.029
645.38	20.537
645.71	20.773
646.04	22.425
646.36	22.204
646.69	23.746
647.02	20.408
647.35	20.962
647.67	22.655
648.00	20.813
648.33	17.162
648.66	19.545
648.98	21.439
649.31	17.937
649.64	19.880
649.96	20.566
650.29	21.643
650.62	22.168
650.94	21.880
651.27	22.804
651.60	21.131
651.92	22.684
652.25	19.870
652.58	20.872
652.90	19.905
653.23	20.647
653.56	18.268
653.88	20.919
654.21	22.907
654.54	20.462
654.86	19.626
655.19	18.649
655.52	12.612
655.84	10.355
656.17	12.915
656.49	18.023
656.82	19.012
657.15	15.197
657.47	11.499
657.80	9.076
658.13	10.013
658.45	15.464
658.78	16.011
659.10	17.019
659.43	18.482
659.75	19.071
660.08	20.633
660.41	22.719
660.73	23.761
661.06	20.223
661.38	23.818
661.71	25.000
662.03	22.485
662.36	19.881
662.68	23.494
663.01	23.030
663.33	21.231
663.66	21.849
663.98	23.974
664.31	21.429
664.63	22.672
664.96	20.322
665.28	21.926
665.61	22.612
665.93	21.730
666.26	22.921
666.58	22.803
666.91	25.581
667.23	26.067
667.56	21.598
667.88	23.932
668.21	25.586
668.53	21.909
668.86	21.645
669.18	24.947
669.50	23.043
669.83	22.658
670.15	24.222
670.48	22.658
670.80	22.414
671.13	22.930
671.45	22.340
671.77	22.607
672.10	19.409
672.42	20.318
672.75	20.232
673.07	20.951
673.39	19.711
673.72	20.703
674.04	21.961
674.37	21.165
674.69	21.268
675.01	20.502
675.34	24.025
675.66	27.368
675.98	25.051
676.31	23.319
676.63	23.355
676.95	23.690
677.28	21.495
677.60	23.077
677.92	23.418
678.25	22.587
678.57	22.709
678.89	21.643
679.22	20.825
679.54	21.756
679.86	21.101
680.18	21.646
680.51	20.922
680.83	22.598
681.15	22.642
681.48	23.440
681.80	20.890
682.12	20.881
682.44	18.762
682.77	21.996
683.09	24.034
683.41	22.395
683.73	24.945
684.06	25.207
684.38	22.309
684.70	21.318
685.02	22.889
685.34	20.879
685.67	20.979
685.99	19.759
686.31	20.819
686.63	19.611
686.96	19.643
687.28	21.119
687.60	22.101
687.92	22.121
688.24	23.004
688.56	23.293
688.89	22.614
689.21	22.926
689.53	23.591
689.85	25.499
690.17	20.704
690.49	25.265
690.82	23.832
691.14	21.205
691.46	20.464
691.78	24.096
692.10	23.554
692.42	24.750
692.74	21.162
693.06	22.766
693.39	21.766
693.71	22.489
694.03	22.526
694.35	21.429
694.67	22.883
694.99	25.366
695.31	24.265
695.63	22.488
695.95	24.205
696.27	22.335
696.59	23.575
696.91	26.166
697.23	23.239
697.56	24.307
697.88	20.859
698.20	22.708
698.52	23.441
698.84	21.826
699.16	22.581
699.48	22.328
699.80	24.396
700.12	27.532
700.44	24.668
700.76	22.376
701.08	25.287
701.40	25.978
701.72	25.948
702.04	30.398
702.36	22.946
702.68	27.762
703.00	22.438
703.32	26.064
703.64	24.397
703.96	27.019
704.28	29.070
704.60	27.273
704.91	29.377
705.23	29.032
705.55	27.575
705.87	31.561
706.19	29.682
706.51	28.660
706.83	30.303
707.15	24.370
707.47	23.990
707.79	25.553
708.11	25.571
708.43	24.524
708.74	23.980
709.06	27.273
709.38	27.822
709.70	26.163
710.02	24.629
710.34	26.667
710.66	26.269
710.98	27.273
711.29	29.070
711.61	32.448
711.93	29.808
712.25	31.190
712.57	29.044
712.89	27.336
713.20	29.179
713.52	30.263
713.84	26.899
714.16	27.439
714.48	25.287
714.80	29.787
715.11	29.683
715.43	26.706
715.75	27.826
716.07	28.115
716.39	28.527
716.70	29.568
717.02	27.698
717.34	26.148
717.66	33.955
717.97	36.653
718.29	29.630
718.61	30.292
718.93	33.088
719.24	30.796
719.56	26.780
719.88	31.186
720.20	32.770
720.51	34.146
720.83	28.625
721.15	31.716
721.46	26.596
721.78	30.108
722.10	28.302
722.42	30.827
722.73	32.210
723.05	29.098
723.37	30.769
723.68	32.432
724.00	29.675
724.32	33.065
724.63	32.927
724.95	33.891
725.27	33.603
725.58	33.984
725.90	34.307
726.22	30.566
726.53	30.208
726.85	33.106
727.16	24.555
727.48	31.206
727.80	29.924
728.11	32.971
728.43	30.000
728.74	29.749
729.06	34.672
729.38	33.088
729.69	31.317
730.01	27.304
730.32	24.653
730.64	29.766
730.96	24.092
731.27	31.457
731.59	30.581
731.90	27.697
732.22	28.882
732.53	27.245
732.85	28.205
733.16	30.547
733.48	29.568
733.80	28.571
734.11	30.255
734.43	27.219
734.74	23.143
735.06	24.928
735.37	30.347
735.69	26.752
736.00	30.719
736.32	28.660
736.63	30.032
736.95	28.754
737.26	22.789
737.58	26.452
737.89	27.090
738.21	26.962
738.52	33.929
738.83	27.547
739.15	30.769
739.46	31.387
739.78	30.903
740.09	30.154
740.41	27.419
740.72	28.920
741.04	32.963
741.35	32.917
741.66	39.556
741.98	34.906
742.29	35.885
742.61	33.621
742.92	29.864
743.23	33.761
743.55	39.200
743.86	35.088
744.18	34.956
744.49	41.627
744.80	35.681
745.12	36.818
745.43	33.040
745.74	37.387
746.06	35.321
746.37	34.081
746.68	34.842
747.00	38.889
747.31	39.524
747.62	31.858
747.94	36.564
748.25	33.191
748.56	36.123
748.88	32.673
749.19	45.500
749.50	40.000
749.82	32.927
750.13	33.061
750.44	32.482
750.75	30.526
751.07	31.190
751.38	27.875
751.69	29.603
752.01	31.955
752.32	29.603
752.63	29.787
752.94	31.967
753.26	34.800
753.57	32.114
753.88	35.547
754.19	30.357
754.51	32.292
754.82	25.632
755.13	33.585
755.44	31.955
755.75	30.657
756.07	29.433
756.38	28.467
756.69	28.523
757.00	24.251
757.31	26.409
757.63	27.193
757.94	26.005
758.25	25.735
758.56	25.926
758.87	25.269
759.18	26.970
759.50	22.884
759.81	24.611
760.12	24.062
760.43	27.507
760.74	25.000
761.05	26.271
761.36	25.134
761.67	26.136
761.99	25.466
762.30	30.556
762.61	33.588
762.92	29.297
763.23	34.454
763.54	36.000
763.85	28.125
764.16	29.615
764.47	29.658
764.78	28.269
765.10	27.532
765.41	23.599
765.72	29.641
766.03	27.273
766.34	28.000
766.65	32.766
766.96	30.769
767.27	39.086
767.58	42.708
767.89	38.421
768.20	43.678
768.51	40.609
768.82	35.780
769.13	31.301
769.44	32.794
769.75	30.472
770.06	27.982
770.37	35.294
770.68	37.037
770.99	34.667
771.30	31.557
771.61	36.771
771.92	33.197
772.23	36.975
772.54	36.410
772.85	47.120
773.16	37.234
773.47	45.652
773.78	43.655
774.09	40.476
774.39	41.520
774.70	38.889
775.01	52.899
775.32	48.366
775.63	46.711
775.94	48.201
776.25	54.331
776.56	50.000
776.87	53.279
777.18	50.781
777.48	58.015
777.79	46.212
778.10	53.333
778.41	56.250
778.72	43.796
779.03	48.322
779.34	45.638
779.65	45.270
779.95	46.626
780.26	53.595
780.57	45.517
780.88	55.469
781.19	42.857
781.50	51.351
781.80	38.365
782.11	45.198
782.42	39.241
782.73	43.558
783.04	43.243
783.34	53.521
783.65	52.055
783.96	50.746
784.27	44.755
784.57	43.165
784.88	46.296
785.19	62.698
785.50	53.774
785.81	58.209
786.11	56.557
786.42	53.488
786.73	45.133
787.04	57.547
787.34	58.929
787.65	63.000
787.96	60.360
788.26	42.149
788.57	54.237
788.88	57.025
789.19	54.861
789.49	54.545
789.80	48.855
790.11	70.476
790.41	65.347
790.72	89.157
791.03	69.565
791.33	63.953
791.64	74.227
791.95	71.287
792.25	71.111
792.56	71.429
792.87	80.769
793.17	84.810
793.48	79.310
793.79	71.264
794.09	65.909
794.40	57.983
794.70	55.147
795.01	45.185
795.32	46.763
795.62	54.331
795.93	55.172
796.23	55.752
796.54	70.588
796.85	72.973
797.15	90.141
797.46	78.788
797.76	75.904
798.07	74.684
798.37	73.846
798.68	77.273
798.99	87.324
799.29	75.325
799.60	71.591
799.90	90.411
800.21	94.030
800.51	87.931
800.82	114.035
801.12	103.279
801.43	90.909
801.73	68.919
802.04	88.889
802.34	83.951
802.65	96.875
802.95	101.695
803.26	107.813
803.56	80.000
803.87	89.231
804.17	82.353
804.48	100.000
804.78	91.379
805.09	88.235
805.39	109.615
805.70	83.929
806.00	106.557
806.30	77.273
806.61	79.268
806.91	63.291
807.22	77.632
807.52	73.134
807.83	80.282
808.13	96.875
808.43	91.667
808.74	65.789
809.04	84.058
809.35	82.090
809.65	81.579
809.95	96.774
810.26	94.915
810.56	107.937
810.86	143.182
811.17	104.762
811.47	110.000
811.77	111.111
812.08	110.909
812.38	108.000
812.69	136.111
812.99	140.909
813.29	122.449
813.59	107.143
813.90	136.735
814.20	94.545
814.50	84.615
814.81	97.059
815.11	116.327
815.41	100.000
815.72	119.048
816.02	130.909
816.32	135.714
816.62	135.000
816.93	163.415
817.23	130.952
817.53	122.727
817.84	157.576
818.14	130.435
818.44	133.333
818.74	167.647
819.04	152.500
819.35	154.286
819.65	155.882
819.95	192.857
820.25	175.000
820.56	148.718
820.86	120.455
821.16	130.233
821.46	117.949
821.76	136.000
822.07	171.429
822.37	150.000
822.67	139.394
822.97	96.078
823.27	200.000
823.57	189.189
823.88	177.500
824.18	196.667
824.48	147.619
824.78	236.000
825.08	191.667
825.38	172.973
825.69	163.415
825.99	237.500
826.29	137.931
826.59	144.737
826.89	160.526
827.19	185.294
827.49	183.871
827.79	122.727
828.09	118.182
828.39	117.021
828.70	114.286
829.00	181.481
829.30	145.161
829.60	152.500
829.90	346.667
830.20	200.000
830.50	191.304
830.80	286.957
831.10	206.667
831.40	160.000
831.70	186.957
832.00	203.846
832.30	240.741
832.60	362.500
832.90	203.333
833.20	414.286
833.50	190.323
833.80	193.103
834.10	218.750
834.40	226.923
834.70	294.444
835.00	242.857
835.30	157.143
835.60	300.000
835.90	182.759
836.20	328.571
836.50	193.103
836.80	156.000
837.10	188.889
837.40	219.048
837.70	317.647
838.00	177.778
838.30	214.286
838.60	319.048
838.90	261.538
839.19	245.000
839.49	364.286
839.79	330.000
840.09	265.000
840.39	252.381
840.69	252.174
840.99	288.889
841.29	490.000
841.59	366.667
841.88	325.000
842.18	203.448
842.48	276.190
842.78	186.667
843.08	213.043
843.38	146.875
843.68	750.000
843.97	207.692
844.27	206.897
844.57	304.762
844.87	400.000
845.17	181.481
845.47	1400.000
845.76	511.111
846.06	347.059
846.36	575.000
846.66	450.000
846.96	337.500
847.25	400.000
847.55	445.455
847.85	265.217
848.15	520.000
848.44	435.714
848.74	255.556
849.04	311.765
849.34	540.000
849.63	247.368
849.93	518.182
850.23	980.000
850.53	442.857
850.82	2700.000
851.12	-3800.000
851.42	4800.000
851.71	245.000
852.01	-1100.000
852.31	254.167
852.61	1833.333
852.90	257.143
853.20	248.000
853.50	335.294
853.79	280.952
854.09	220.833
854.39	375.000
854.68	154.054
854.98	161.290
855.28	163.333
855.57	224.138
855.87	248.148
856.17	300.000
856.46	233.333
856.76	300.000
857.05	206.897
857.35	220.833
857.65	380.000
857.94	239.130
858.24	230.769
858.53	275.000
858.83	236.364
859.13	293.333
859.42	0.000
859.72	544.444
860.01	372.727
860.31	254.545
860.60	226.316
860.90	208.696
861.20	566.667
861.49	483.333
861.79	-4800.000
862.08	575.000
862.38	285.714
862.67	415.385
862.97	347.059
863.26	544.444
863.56	244.444
863.85	400.000
864.15	775.000
864.44	333.333
864.74	833.333
865.03	700.000
865.33	300.000
865.62	354.545
865.92	484.615
866.21	408.333
866.51	0.000
866.80	418.182
867.10	1060.000
867.39	453.846
867.69	427.273
867.98	305.263
868.27	500.000
868.57	273.684
868.86	-5900.000
869.16	331.250
869.45	2500.000
869.75	-4200.000
870.04	433.333
870.33	642.857
870.63	1150.000
870.92	2500.000
871.22	700.000
871.51	370.588
871.80	214.286
872.10	435.714
>>>>>End Processed Spectral Data<<<<<
