SpectraSuite Data File
++++++++++++++++++++++++++++++++++++
Date: Wed May 13 16:13:38 PDT 2015
User: schluterlab
Dark Spectrum Present: Yes
Reference Spectrum Present: Yes
Number of Sampled Component Spectra: 1
Spectrometers: USB2E3373
Integration Time (usec): 3000 (USB2E3373)
Spectra Averaged: 3 (USB2E3373)
Boxcar Smoothing: 0 (USB2E3373)
Correct for Electrical Dark: No (USB2E3373)
Strobe/Lamp Enabled: No (USB2E3373)
Correct for Detector Non-linearity: No (USB2E3373)
Correct for Stray Light: No (USB2E3373)
Number of Pixels in Processed Spectrum: 2048
>>>>>Begin Processed Spectral Data<<<<<
178.53	0.000
178.91	-1175.000
179.29	-1250.000
179.67	-161.111
180.04	-1175.000
180.42	1800.000
180.80	820.000
181.18	-675.000
181.56	428.571
181.94	0.000
182.31	-471.429
182.69	1233.333
183.07	-362.500
183.45	-277.778
183.83	381.818
184.20	-340.000
184.58	1450.000
184.96	4200.000
185.34	-540.000
185.72	-375.000
186.09	-1550.000
186.47	2200.000
186.85	1700.000
187.23	5000.000
187.61	-1333.333
187.98	775.000
188.36	472.727
188.74	354.545
189.12	-660.000
189.49	520.000
189.87	-3400.000
190.25	-800.000
190.63	335.714
191.00	330.769
191.38	733.333
191.76	-625.000
192.14	1100.000
192.51	612.500
192.89	566.667
193.27	350.000
193.65	-850.000
194.02	460.000
194.40	820.000
194.78	430.000
195.15	475.000
195.53	580.000
195.91	-1700.000
196.29	243.750
196.66	226.316
197.04	-310.000
197.42	0.000
197.79	500.000
198.17	-4100.000
198.55	585.714
198.92	675.000
199.30	780.000
199.68	0.000
200.05	266.667
200.43	600.000
200.81	4100.000
201.18	1333.333
201.56	-1133.333
201.94	455.556
202.31	522.222
202.69	408.333
203.07	410.000
203.44	0.000
203.82	850.000
204.19	757.143
204.57	364.286
204.95	587.500
205.32	1100.000
205.70	427.273
206.08	300.000
206.45	1950.000
206.83	337.500
207.20	650.000
207.58	500.000
207.96	255.556
208.33	650.000
208.71	-650.000
209.08	742.857
209.46	544.444
209.84	427.273
210.21	-1000.000
210.59	1125.000
210.96	-300.000
211.34	1900.000
211.71	420.000
212.09	583.333
212.46	0.000
212.84	1433.333
213.22	950.000
213.59	-4300.000
213.97	733.333
214.34	471.429
214.72	472.727
215.09	860.000
215.47	-1700.000
215.84	-2200.000
216.22	1266.667
216.59	335.714
216.97	1300.000
217.34	400.000
217.72	-450.000
218.09	0.000
218.47	-4300.000
218.84	544.444
219.22	585.714
219.59	1266.667
219.97	-428.571
220.34	800.000
220.72	-1233.333
221.09	307.143
221.47	1150.000
221.84	-633.333
222.22	0.000
222.59	925.000
222.97	-2000.000
223.34	820.000
223.72	323.077
224.09	980.000
224.46	1650.000
224.84	-4100.000
225.21	-840.000
225.59	-4000.000
225.96	560.000
226.34	270.000
226.71	2200.000
227.08	500.000
227.46	470.000
227.83	-1000.000
228.21	-2200.000
228.58	477.778
228.95	-1900.000
229.33	-2650.000
229.70	1266.667
230.08	685.714
230.45	-700.000
230.82	366.667
231.20	633.333
231.57	542.857
231.95	450.000
232.32	154.545
232.69	372.727
233.07	500.000
233.44	300.000
233.81	-1533.333
234.19	278.947
234.56	383.333
234.93	333.333
235.31	427.273
235.68	284.615
236.05	428.571
236.43	190.909
236.80	305.263
237.17	4500.000
237.55	280.952
237.92	207.143
238.29	276.190
238.67	193.548
239.04	220.690
239.41	163.889
239.79	156.522
240.16	183.333
240.53	156.818
240.91	154.902
241.28	166.000
241.65	164.000
242.02	146.377
242.40	138.710
242.77	158.333
243.14	101.075
243.51	128.090
243.89	129.412
244.26	123.333
244.63	108.602
245.00	115.957
245.38	121.782
245.75	119.626
246.12	120.183
246.49	117.518
246.87	115.200
247.24	120.769
247.61	105.000
247.98	101.961
248.36	92.568
248.73	105.732
249.10	106.369
249.47	105.085
249.84	100.000
250.22	91.444
250.59	107.692
250.96	100.505
251.33	94.787
251.70	98.515
252.08	96.190
252.45	88.789
252.82	90.435
253.19	92.766
253.56	92.941
253.94	92.116
254.31	90.234
254.68	96.538
255.05	87.085
255.42	96.748
255.79	98.897
256.16	93.502
256.54	86.219
256.91	90.036
257.28	90.288
257.65	86.799
258.02	88.509
258.39	87.697
258.76	89.298
259.14	84.524
259.51	84.802
259.88	87.888
260.25	87.009
260.62	89.884
260.99	87.888
261.36	87.087
261.73	89.398
262.10	89.826
262.47	87.887
262.85	84.680
263.22	88.319
263.59	94.017
263.96	84.615
264.33	83.812
264.70	88.947
265.07	87.724
265.44	86.111
265.81	81.509
266.18	84.673
266.55	86.098
266.92	86.486
267.29	86.574
267.66	83.486
268.03	80.227
268.40	83.411
268.77	83.294
269.14	82.432
269.51	85.327
269.88	86.247
270.25	79.684
270.62	82.247
270.99	83.226
271.36	81.760
271.73	83.645
272.10	82.174
272.47	85.376
272.84	81.169
273.21	79.245
273.58	83.406
273.95	81.761
274.32	78.719
274.69	81.370
275.06	79.331
275.43	78.085
275.80	80.361
276.17	80.855
276.54	80.249
276.91	77.075
277.28	78.906
277.65	78.917
278.02	81.159
278.39	79.492
278.76	77.091
279.13	77.736
279.50	78.585
279.87	79.681
280.23	80.439
280.60	78.337
280.97	76.525
281.34	76.283
281.71	74.364
282.08	78.503
282.45	77.091
282.82	74.423
283.19	74.332
283.56	76.842
283.92	75.127
284.29	72.663
284.66	77.495
285.03	74.684
285.40	73.768
285.77	74.916
286.14	73.230
286.51	73.500
286.87	75.214
287.24	76.221
287.61	72.071
287.98	71.916
288.35	70.048
288.72	68.847
289.08	70.110
289.45	71.005
289.82	68.455
290.19	68.132
290.56	67.534
290.93	66.767
291.29	68.098
291.66	65.192
292.03	69.041
292.40	67.988
292.77	64.793
293.13	65.672
293.50	65.598
293.87	63.704
294.24	63.852
294.60	62.737
294.97	60.320
295.34	62.341
295.71	61.222
296.08	59.687
296.44	61.073
296.81	59.445
297.18	61.653
297.55	58.047
297.91	58.707
298.28	61.446
298.65	58.747
299.02	59.420
299.38	58.167
299.75	58.625
300.12	57.982
300.48	58.000
300.85	56.720
301.22	56.815
301.59	55.682
301.95	56.045
302.32	57.766
302.69	56.033
303.05	55.758
303.42	56.173
303.79	54.134
304.15	54.545
304.52	55.968
304.89	54.123
305.25	54.176
305.62	52.322
305.99	55.844
306.35	52.349
306.72	54.148
307.09	55.827
307.45	55.968
307.82	52.902
308.19	54.084
308.55	53.830
308.92	54.243
309.29	52.798
309.65	53.022
310.02	51.903
310.38	53.118
310.75	54.171
311.12	53.122
311.48	54.232
311.85	55.346
312.22	54.839
312.58	54.262
312.95	55.016
313.31	50.485
313.68	55.405
314.05	56.410
314.41	54.372
314.78	54.783
315.14	52.830
315.51	56.540
315.87	55.842
316.24	54.022
316.61	53.996
316.97	54.697
317.34	53.523
317.70	56.310
318.07	55.919
318.43	57.143
318.80	57.451
319.16	56.591
319.53	55.722
319.89	57.333
320.26	58.900
320.62	57.341
320.99	56.566
321.35	59.697
321.72	60.986
322.08	61.204
322.45	61.692
322.81	59.496
323.18	60.308
323.54	59.926
323.91	61.981
324.27	65.010
324.64	63.653
325.00	63.481
325.37	66.697
325.73	65.978
326.10	65.313
326.46	66.935
326.83	66.609
327.19	67.464
327.56	69.425
327.92	68.329
328.29	69.743
328.65	70.350
329.01	69.856
329.38	70.860
329.74	70.914
330.11	72.385
330.47	71.901
330.84	71.783
331.20	71.949
331.56	71.743
331.93	74.630
332.29	70.098
332.66	73.097
333.02	72.943
333.38	72.358
333.75	72.549
334.11	73.665
334.48	73.203
334.84	76.195
335.20	75.182
335.57	73.889
335.93	72.679
336.29	73.077
336.66	73.039
337.02	71.946
337.38	74.907
337.75	72.371
338.11	74.664
338.47	75.783
338.84	73.511
339.20	74.128
339.56	74.361
339.93	74.818
340.29	74.547
340.65	74.866
341.02	73.647
341.38	74.199
341.74	72.807
342.11	74.585
342.47	73.921
342.83	74.401
343.20	73.680
343.56	72.283
343.92	75.000
344.28	73.554
344.65	75.666
345.01	72.811
345.37	73.242
345.73	73.266
346.10	76.044
346.46	74.068
346.82	73.641
347.19	73.517
347.55	72.496
347.91	74.029
348.27	75.021
348.63	72.742
349.00	72.006
349.36	72.906
349.72	73.216
350.08	72.123
350.45	74.207
350.81	72.868
351.17	74.392
351.53	73.792
351.89	72.277
352.26	72.534
352.62	72.654
352.98	73.906
353.34	74.610
353.70	74.223
354.07	74.677
354.43	72.063
354.79	73.130
355.15	73.025
355.51	74.500
355.87	75.510
356.24	74.023
356.60	72.735
356.96	74.899
357.32	76.778
357.68	74.409
358.04	73.634
358.40	74.505
358.77	73.787
359.13	73.875
359.49	73.804
359.85	74.206
360.21	75.439
360.57	75.253
360.93	75.846
361.29	74.150
361.66	74.690
362.02	74.701
362.38	75.437
362.74	74.777
363.10	74.389
363.46	74.541
363.82	74.528
364.18	74.596
364.54	76.820
364.90	76.133
365.26	76.397
365.62	75.749
365.98	74.726
366.35	76.218
366.71	74.982
367.07	75.018
367.43	77.213
367.79	75.874
368.15	76.796
368.51	75.799
368.87	77.231
369.23	76.737
369.59	77.263
369.95	76.691
370.31	76.923
370.67	75.652
371.03	77.678
371.39	78.280
371.75	77.721
372.11	78.094
372.47	78.592
372.83	80.620
373.19	78.540
373.55	79.749
373.91	80.781
374.27	78.076
374.63	78.764
374.99	79.308
375.35	78.297
375.71	77.724
376.07	79.561
376.42	80.468
376.78	79.125
377.14	79.579
377.50	81.457
377.86	79.654
378.22	79.456
378.58	79.323
378.94	80.453
379.30	81.489
379.66	82.614
380.02	82.555
380.38	81.117
380.74	82.293
381.09	82.518
381.45	82.237
381.81	81.941
382.17	82.930
382.53	83.270
382.89	83.457
383.25	83.677
383.61	85.378
383.97	82.802
384.32	82.158
384.68	83.209
385.04	84.696
385.40	82.353
385.76	83.047
386.12	84.391
386.48	84.519
386.83	85.311
387.19	85.158
387.55	86.209
387.91	86.276
388.27	84.120
388.62	84.942
388.98	85.074
389.34	84.105
389.70	85.101
390.06	86.248
390.42	85.603
390.77	85.433
391.13	86.535
391.49	86.041
391.85	84.596
392.20	85.868
392.56	85.606
392.92	86.580
393.28	85.503
393.64	84.892
393.99	85.950
394.35	87.035
394.71	85.822
395.07	84.611
395.42	87.268
395.78	85.242
396.14	84.854
396.50	86.090
396.85	86.332
397.21	85.820
397.57	85.927
397.92	87.981
398.28	84.417
398.64	85.962
399.00	85.115
399.35	85.843
399.71	85.012
400.07	85.334
400.42	86.933
400.78	85.163
401.14	87.134
401.49	86.567
401.85	84.815
402.21	85.269
402.57	84.577
402.92	86.822
403.28	86.071
403.63	85.644
403.99	86.115
404.35	85.030
404.70	84.832
405.06	85.731
405.42	85.839
405.77	85.029
406.13	84.368
406.49	84.920
406.84	84.879
407.20	84.102
407.55	85.897
407.91	87.267
408.27	87.492
408.62	83.865
408.98	84.743
409.34	85.363
409.69	86.194
410.05	85.750
410.40	85.505
410.76	84.468
411.11	82.811
411.47	84.153
411.83	84.056
412.18	84.725
412.54	84.371
412.89	84.398
413.25	84.652
413.60	83.755
413.96	83.546
414.31	84.872
414.67	85.171
415.03	84.834
415.38	83.312
415.74	85.466
416.09	84.781
416.45	85.141
416.80	86.517
417.16	85.188
417.51	85.401
417.87	83.815
418.22	85.426
418.58	85.345
418.93	86.241
419.29	83.896
419.64	86.398
420.00	83.720
420.35	84.348
420.71	86.312
421.06	85.561
421.42	85.614
421.77	85.034
422.12	84.896
422.48	84.889
422.83	85.964
423.19	85.470
423.54	86.013
423.90	86.319
424.25	84.925
424.61	84.940
424.96	86.297
425.31	84.441
425.67	84.101
426.02	84.171
426.38	88.278
426.73	85.313
427.09	86.930
427.44	87.752
427.79	87.292
428.15	85.238
428.50	85.606
428.85	86.293
429.21	87.410
429.56	86.988
429.92	86.160
430.27	85.204
430.62	85.253
430.98	84.328
431.33	85.412
431.68	86.963
432.04	83.440
432.39	85.608
432.74	86.894
433.10	88.059
433.45	88.688
433.80	89.745
434.16	87.340
434.51	86.684
434.86	86.602
435.22	86.882
435.57	88.024
435.92	87.303
436.28	88.553
436.63	87.141
436.98	86.663
437.34	88.432
437.69	88.215
438.04	88.420
438.39	88.716
438.75	87.333
439.10	88.380
439.45	87.839
439.81	88.882
440.16	86.731
440.51	89.221
440.86	87.145
441.22	87.931
441.57	88.694
441.92	87.973
442.27	88.536
442.63	87.151
442.98	88.620
443.33	87.337
443.68	88.436
444.03	88.238
444.39	87.439
444.74	89.123
445.09	87.709
445.44	87.315
445.79	87.481
446.15	86.977
446.50	87.938
446.85	88.027
447.20	88.679
447.55	90.285
447.91	88.582
448.26	88.703
448.61	89.373
448.96	88.427
449.31	89.089
449.66	88.126
450.02	88.802
450.37	87.982
450.72	89.397
451.07	87.812
451.42	86.626
451.77	89.841
452.12	88.222
452.47	87.189
452.83	90.385
453.18	86.430
453.53	89.610
453.88	88.600
454.23	88.524
454.58	88.795
454.93	90.337
455.28	87.656
455.63	89.442
455.98	88.512
456.34	88.254
456.69	90.858
457.04	90.836
457.39	88.311
457.74	87.754
458.09	88.614
458.44	88.483
458.79	87.256
459.14	88.375
459.49	88.500
459.84	87.147
460.19	88.509
460.54	87.153
460.89	88.481
461.24	88.221
461.59	89.367
461.94	87.238
462.29	89.258
462.64	87.428
462.99	87.508
463.34	88.600
463.69	87.367
464.04	90.087
464.39	87.768
464.74	87.879
465.09	88.601
465.44	87.867
465.79	88.031
466.14	86.426
466.49	86.652
466.84	88.441
467.19	86.904
467.54	87.375
467.89	86.735
468.24	85.864
468.59	86.813
468.94	84.789
469.29	86.697
469.64	88.420
469.99	88.227
470.34	88.970
470.68	88.793
471.03	87.007
471.38	89.715
471.73	87.475
472.08	88.882
472.43	88.254
472.78	89.269
473.13	86.650
473.48	88.202
473.83	88.354
474.17	87.803
474.52	88.027
474.87	88.149
475.22	87.464
475.57	86.083
475.92	86.511
476.27	85.175
476.61	87.590
476.96	86.531
477.31	86.656
477.66	87.144
478.01	86.147
478.36	87.520
478.70	87.435
479.05	86.848
479.40	87.769
479.75	87.443
480.10	87.674
480.45	85.864
480.79	86.335
481.14	87.084
481.49	86.141
481.84	87.426
482.19	87.506
482.53	86.055
482.88	87.157
483.23	87.196
483.58	85.623
483.92	85.380
484.27	85.054
484.62	85.733
484.97	86.047
485.31	88.425
485.66	87.955
486.01	85.925
486.36	82.420
486.70	79.173
487.05	79.793
487.40	82.048
487.75	82.585
488.09	83.076
488.44	82.789
488.79	85.533
489.13	84.836
489.48	84.951
489.83	84.290
490.17	86.278
490.52	84.101
490.87	84.668
491.22	84.766
491.56	84.510
491.91	85.342
492.26	85.393
492.60	84.009
492.95	84.331
493.30	84.907
493.64	85.114
493.99	83.937
494.34	85.060
494.68	85.943
495.03	86.466
495.37	83.853
495.72	87.329
496.07	85.754
496.41	83.938
496.76	84.828
497.11	84.196
497.45	84.304
497.80	84.405
498.14	84.734
498.49	83.902
498.84	84.995
499.18	84.857
499.53	84.948
499.87	85.461
500.22	84.503
500.56	85.437
500.91	83.846
501.26	83.167
501.60	84.955
501.95	83.043
502.29	84.489
502.64	84.497
502.98	84.479
503.33	81.718
503.67	83.063
504.02	85.080
504.36	82.546
504.71	83.244
505.06	83.614
505.40	83.617
505.75	82.112
506.09	83.528
506.44	85.298
506.78	84.267
507.13	83.443
507.47	83.182
507.82	82.675
508.16	83.891
508.51	83.612
508.85	82.771
509.19	83.776
509.54	83.469
509.88	82.174
510.23	83.033
510.57	85.449
510.92	83.532
511.26	82.837
511.61	82.313
511.95	82.985
512.30	83.086
512.64	82.160
512.98	84.298
513.33	83.887
513.67	80.950
514.02	81.818
514.36	83.779
514.70	82.900
515.05	82.989
515.39	83.118
515.74	83.108
516.08	83.175
516.42	83.685
516.77	82.720
517.11	81.798
517.46	82.280
517.80	84.669
518.14	81.876
518.49	83.722
518.83	81.932
519.17	82.390
519.52	83.362
519.86	82.088
520.20	83.468
520.55	85.039
520.89	84.002
521.23	83.233
521.58	81.393
521.92	83.895
522.26	82.611
522.61	82.617
522.95	82.075
523.29	83.384
523.64	82.988
523.98	83.919
524.32	82.509
524.66	81.179
525.01	81.618
525.35	82.032
525.69	81.281
526.04	81.558
526.38	81.940
526.72	80.245
527.06	82.863
527.41	81.312
527.75	82.765
528.09	83.879
528.43	82.091
528.78	81.315
529.12	80.970
529.46	82.547
529.80	83.911
530.15	81.433
530.49	78.892
530.83	81.139
531.17	83.225
531.51	83.333
531.86	80.968
532.20	81.943
532.54	82.703
532.88	81.386
533.22	81.387
533.57	80.926
533.91	80.494
534.25	80.923
534.59	81.452
534.93	79.774
535.27	79.360
535.62	81.013
535.96	80.979
536.30	80.292
536.64	78.944
536.98	80.823
537.32	80.250
537.66	79.600
538.01	81.303
538.35	80.284
538.69	81.047
539.03	81.092
539.37	79.361
539.71	78.159
540.05	80.065
540.39	79.402
540.73	78.331
541.07	79.689
541.42	80.561
541.76	80.258
542.10	78.719
542.44	79.404
542.78	80.567
543.12	78.119
543.46	77.246
543.80	78.465
544.14	77.664
544.48	77.905
544.82	77.678
545.16	78.790
545.50	78.213
545.84	77.083
546.18	78.316
546.52	78.183
546.86	79.313
547.20	79.231
547.54	78.557
547.88	79.401
548.22	76.712
548.56	77.484
548.90	76.184
549.24	77.912
549.58	77.967
549.92	77.747
550.26	78.196
550.60	78.492
550.94	78.310
551.28	78.200
551.62	79.511
551.96	76.491
552.30	77.816
552.64	78.634
552.98	78.644
553.32	77.073
553.66	78.596
554.00	76.596
554.34	76.190
554.68	78.326
555.02	77.715
555.36	76.827
555.69	74.966
556.03	76.716
556.37	78.035
556.71	75.171
557.05	76.331
557.39	76.067
557.73	76.994
558.07	77.810
558.41	77.062
558.75	76.414
559.08	77.479
559.42	79.214
559.76	76.176
560.10	75.660
560.44	76.730
560.78	76.048
561.12	75.132
561.45	76.206
561.79	74.687
562.13	75.252
562.47	76.708
562.81	76.639
563.15	74.247
563.48	75.928
563.82	75.799
564.16	75.997
564.50	74.805
564.84	74.968
565.17	75.161
565.51	75.911
565.85	74.810
566.19	74.014
566.52	76.757
566.86	74.864
567.20	75.177
567.54	75.171
567.88	73.819
568.21	73.439
568.55	73.559
568.89	74.611
569.23	73.663
569.56	72.996
569.90	73.585
570.24	73.628
570.57	72.152
570.91	70.879
571.25	71.433
571.59	71.841
571.92	70.536
572.26	71.346
572.60	71.772
572.93	70.375
573.27	71.754
573.61	70.994
573.95	70.879
574.28	69.749
574.62	71.016
574.96	70.012
575.29	69.447
575.63	70.300
575.97	69.201
576.30	69.782
576.64	70.508
576.98	70.345
577.31	70.702
577.65	71.488
577.98	70.547
578.32	68.844
578.66	69.057
578.99	68.911
579.33	68.821
579.67	68.669
580.00	69.600
580.34	69.744
580.67	69.298
581.01	69.597
581.35	70.628
581.68	70.485
582.02	69.162
582.35	68.535
582.69	68.164
583.02	68.780
583.36	68.896
583.70	68.656
584.03	69.462
584.37	69.460
584.70	70.010
585.04	69.056
585.37	69.921
585.71	69.431
586.04	67.577
586.38	68.783
586.72	70.036
587.05	68.514
587.39	68.918
587.72	69.029
588.06	69.157
588.39	68.587
588.73	69.111
589.06	69.554
589.40	69.394
589.73	69.835
590.07	69.146
590.40	68.140
590.73	69.828
591.07	70.208
591.40	69.549
591.74	71.255
592.07	69.154
592.41	70.608
592.74	69.476
593.08	69.420
593.41	68.902
593.75	67.021
594.08	68.086
594.41	68.611
594.75	69.427
595.08	67.824
595.42	68.722
595.75	67.699
596.09	68.682
596.42	68.094
596.75	67.666
597.09	68.442
597.42	67.327
597.75	69.297
598.09	68.391
598.42	67.698
598.76	68.221
599.09	67.579
599.42	67.140
599.76	67.716
600.09	67.978
600.42	67.421
600.76	66.750
601.09	67.104
601.42	67.275
601.76	66.565
602.09	68.024
602.42	66.879
602.76	67.674
603.09	67.781
603.42	68.255
603.76	66.502
604.09	67.003
604.42	67.428
604.76	67.946
605.09	68.021
605.42	65.541
605.75	67.757
606.09	67.100
606.42	66.857
606.75	65.574
607.09	66.388
607.42	67.009
607.75	66.118
608.08	66.218
608.42	66.965
608.75	64.653
609.08	65.449
609.41	66.016
609.75	67.318
610.08	67.389
610.41	66.108
610.74	67.739
611.07	66.403
611.41	66.192
611.74	66.466
612.07	67.133
612.40	67.471
612.73	66.368
613.07	67.834
613.40	66.509
613.73	65.496
614.06	67.097
614.39	65.967
614.72	66.211
615.06	66.492
615.39	66.083
615.72	65.082
616.05	65.178
616.38	65.036
616.71	67.280
617.05	66.726
617.38	66.085
617.71	67.748
618.04	68.329
618.37	65.109
618.70	66.584
619.03	66.645
619.36	66.395
619.69	67.887
620.03	66.621
620.36	66.979
620.69	67.192
621.02	66.224
621.35	66.014
621.68	65.421
622.01	67.957
622.34	67.852
622.67	67.529
623.00	66.178
623.33	65.690
623.66	67.906
623.99	66.053
624.32	66.548
624.65	66.384
624.99	65.297
625.32	66.329
625.65	66.642
625.98	68.486
626.31	65.474
626.64	67.020
626.97	67.415
627.30	67.415
627.63	65.628
627.96	65.854
628.29	65.092
628.62	66.697
628.95	66.415
629.28	64.872
629.61	66.636
629.94	68.000
630.26	69.113
630.59	66.635
630.92	66.858
631.25	65.054
631.58	66.667
631.91	67.546
632.24	67.722
632.57	67.366
632.90	65.132
633.23	64.989
633.56	66.667
633.89	66.818
634.22	67.764
634.55	68.402
634.88	64.790
635.20	67.742
635.53	67.711
635.86	69.431
636.19	67.765
636.52	66.782
636.85	65.979
637.18	63.710
637.51	66.430
637.83	65.721
638.16	67.391
638.49	64.861
638.82	69.406
639.15	66.250
639.48	66.209
639.81	67.694
640.13	66.406
640.46	66.980
640.79	64.201
641.12	64.787
641.45	67.039
641.77	69.661
642.10	67.544
642.43	66.817
642.76	68.421
643.09	67.638
643.41	67.223
643.74	68.210
644.07	67.226
644.40	67.638
644.73	68.031
645.05	67.353
645.38	66.667
645.71	67.311
646.04	70.432
646.36	69.282
646.69	69.565
647.02	68.537
647.35	68.385
647.67	71.150
648.00	64.228
648.33	65.182
648.66	65.758
648.98	66.717
649.31	67.564
649.64	68.311
649.96	66.468
650.29	67.457
650.62	65.534
650.94	64.830
651.27	67.736
651.60	67.887
651.92	65.016
652.25	65.147
652.58	65.421
652.90	68.246
653.23	65.177
653.56	65.827
653.88	63.867
654.21	64.297
654.54	68.152
654.86	67.134
655.19	62.838
655.52	56.007
655.84	57.331
656.17	71.784
656.49	93.712
656.82	92.845
657.15	68.131
657.47	50.348
657.80	38.443
658.13	40.084
658.45	58.606
658.78	57.830
659.10	59.276
659.43	60.585
659.75	62.305
660.08	66.076
660.41	68.250
660.73	68.107
661.06	66.401
661.38	67.091
661.71	67.115
662.03	66.469
662.36	62.227
662.68	64.257
663.01	65.455
663.33	67.516
663.66	66.807
663.98	67.819
664.31	69.538
664.63	65.182
664.96	62.173
665.28	69.057
665.61	64.912
665.93	64.588
666.26	67.951
666.58	65.900
666.91	68.922
667.23	66.292
667.56	63.067
667.88	64.103
668.21	65.885
668.53	67.028
668.86	65.801
669.18	64.392
669.50	65.435
669.83	68.845
670.15	68.000
670.48	65.795
670.80	65.302
671.13	65.605
671.45	64.468
671.77	67.821
672.10	63.956
672.42	65.548
672.75	62.852
673.07	63.380
673.39	63.834
673.72	64.648
674.04	64.706
674.37	63.107
674.69	61.145
675.01	66.946
675.34	64.682
675.66	66.737
675.98	61.711
676.31	63.655
676.63	67.304
676.95	63.732
677.28	67.056
677.60	65.275
677.92	64.346
678.25	64.066
678.57	66.932
678.89	65.531
679.22	61.690
679.54	61.832
679.86	65.321
680.18	63.327
680.51	61.879
680.83	62.278
681.15	64.151
681.48	61.815
681.80	63.636
682.12	62.835
682.44	61.896
682.77	64.358
683.09	66.094
683.41	65.410
683.73	68.874
684.06	63.223
684.38	61.644
684.70	61.047
685.02	62.477
685.34	64.286
685.67	59.965
685.99	62.715
686.31	59.556
686.63	60.777
686.96	60.357
687.28	61.733
687.60	59.601
687.92	63.254
688.24	61.787
688.56	65.060
688.89	63.485
689.21	63.537
689.53	61.587
689.85	65.188
690.17	60.663
690.49	64.756
690.82	64.953
691.14	64.062
691.46	62.869
691.78	61.647
692.10	63.430
692.42	61.277
692.74	60.166
693.06	60.638
693.39	62.218
693.71	63.755
694.03	62.526
694.35	62.338
694.67	59.954
694.99	62.683
695.31	62.745
695.63	64.354
695.95	63.325
696.27	63.198
696.59	59.326
696.91	61.917
697.23	60.094
697.56	62.687
697.88	62.168
698.20	60.417
698.52	61.075
698.84	58.797
699.16	62.903
699.48	63.895
699.80	64.734
700.12	69.870
700.44	63.660
700.76	66.022
701.08	66.092
701.40	62.570
701.72	65.598
702.04	66.761
702.36	61.473
702.68	66.572
703.00	66.205
703.32	60.372
703.64	64.879
703.96	62.953
704.28	64.826
704.60	64.809
704.91	63.798
705.23	63.636
705.55	65.116
705.87	68.106
706.19	62.191
706.51	65.421
706.83	64.242
707.15	61.345
707.47	60.101
707.79	64.128
708.11	61.872
708.43	62.381
708.74	60.204
709.06	62.857
709.38	66.929
709.70	64.535
710.02	62.315
710.34	62.121
710.66	64.776
710.98	60.511
711.29	63.953
711.61	62.537
711.93	66.026
712.25	69.775
712.57	66.912
712.89	64.706
713.20	58.967
713.52	66.118
713.84	63.608
714.16	60.976
714.48	60.920
714.80	68.389
715.11	61.095
715.43	61.721
715.75	63.188
716.07	65.815
716.39	62.696
716.70	63.455
717.02	67.266
717.34	63.958
717.66	68.657
717.97	69.721
718.29	70.000
718.61	64.964
718.93	64.338
719.24	64.014
719.56	59.661
719.88	69.492
720.20	64.189
720.51	67.944
720.83	62.825
721.15	58.582
721.46	62.411
721.78	63.799
722.10	68.679
722.42	66.541
722.73	62.547
723.05	66.803
723.37	70.850
723.68	66.795
724.00	69.106
724.32	68.952
724.63	66.667
724.95	66.109
725.27	63.158
725.58	69.141
725.90	66.058
726.22	66.038
726.53	61.111
726.85	64.505
727.16	62.989
727.48	66.312
727.80	63.258
728.11	63.768
728.43	63.846
728.74	62.007
729.06	64.234
729.38	67.647
729.69	67.260
730.01	64.164
730.32	62.847
730.64	64.214
730.96	63.366
731.27	64.901
731.59	62.997
731.90	61.224
732.22	62.733
732.53	60.991
732.85	67.949
733.16	61.736
733.48	61.130
733.80	62.013
734.11	62.420
734.43	67.751
734.74	63.429
735.06	63.610
735.37	61.272
735.69	62.102
736.00	64.052
736.32	58.255
736.63	61.661
736.95	59.425
737.26	58.163
737.58	58.065
737.89	58.863
738.21	64.846
738.52	59.643
738.83	62.642
739.15	59.615
739.46	69.708
739.78	66.319
740.09	59.692
740.41	64.839
740.72	58.885
741.04	62.963
741.35	62.917
741.66	70.667
741.98	65.566
742.29	69.378
742.61	67.672
742.92	66.063
743.23	65.385
743.55	67.200
743.86	66.228
744.18	66.372
744.49	66.986
744.80	70.423
745.12	65.455
745.43	62.555
745.74	63.964
746.06	66.055
746.37	62.332
746.68	64.706
747.00	64.352
747.31	69.524
747.62	58.850
747.94	61.233
748.25	65.532
748.56	66.960
748.88	67.327
749.19	71.500
749.50	68.837
749.82	60.976
750.13	60.816
750.44	64.599
750.75	58.246
751.07	63.344
751.38	64.111
751.69	62.455
752.01	66.165
752.32	59.206
752.63	62.411
752.94	68.443
753.26	67.200
753.57	62.195
753.88	64.453
754.19	58.214
754.51	58.333
754.82	62.816
755.13	63.019
755.44	61.654
755.75	66.423
756.07	60.638
756.38	64.599
756.69	60.067
757.00	53.892
757.31	55.490
757.63	57.895
757.94	56.032
758.25	55.882
758.56	56.296
758.87	58.871
759.18	62.424
759.50	56.740
759.81	61.059
760.12	55.625
760.43	59.312
760.74	58.152
761.05	63.277
761.36	56.417
761.67	61.364
761.99	56.832
762.30	62.500
762.61	58.779
762.92	66.016
763.23	64.286
763.54	61.600
763.85	65.234
764.16	66.923
764.47	63.498
764.78	61.484
765.10	56.329
765.41	59.587
765.72	61.078
766.03	62.696
766.34	58.000
766.65	69.787
766.96	65.385
767.27	71.066
767.58	64.583
767.89	71.053
768.20	75.862
768.51	63.452
768.82	62.385
769.13	64.228
769.44	62.348
769.75	66.953
770.06	58.716
770.37	60.633
770.68	68.519
770.99	58.222
771.30	60.246
771.61	63.229
771.92	63.115
772.23	65.966
772.54	72.308
772.85	65.445
773.16	65.957
773.47	69.022
773.78	67.513
774.09	70.238
774.39	70.175
774.70	74.074
775.01	82.609
775.32	78.431
775.63	69.737
775.94	74.820
776.25	85.827
776.56	71.642
776.87	81.148
777.18	74.219
777.48	79.389
777.79	71.970
778.10	74.074
778.41	79.464
778.72	72.263
779.03	72.483
779.34	65.101
779.65	70.946
779.95	76.074
780.26	70.588
780.57	75.172
780.88	76.563
781.19	70.677
781.50	81.757
781.80	76.730
782.11	66.102
782.42	69.620
782.73	68.712
783.04	79.054
783.34	79.577
783.65	71.233
783.96	87.313
784.27	77.622
784.57	81.295
784.88	74.074
785.19	74.603
785.50	91.509
785.81	76.119
786.11	76.230
786.42	74.419
786.73	76.991
787.04	87.736
787.34	83.036
787.65	80.000
787.96	87.387
788.26	72.727
788.57	81.356
788.88	76.033
789.19	79.167
789.49	81.818
789.80	73.282
790.11	95.238
790.41	91.089
790.72	95.181
791.03	83.696
791.33	82.558
791.64	82.474
791.95	77.228
792.25	88.889
792.56	90.909
792.87	101.282
793.17	101.266
793.48	94.253
793.79	78.161
794.09	98.864
794.40	74.790
794.70	83.824
795.01	77.778
795.32	76.259
795.62	78.740
795.93	84.483
796.23	77.876
796.54	89.412
796.85	89.189
797.15	109.859
797.46	98.485
797.76	98.795
798.07	101.266
798.37	95.385
798.68	96.970
798.99	88.732
799.29	96.104
799.60	87.500
799.90	97.260
800.21	92.537
800.51	94.828
800.82	110.526
801.12	93.443
801.43	101.515
801.73	95.946
802.04	109.524
802.34	76.543
802.65	100.000
802.95	120.339
803.26	103.125
803.56	72.857
803.87	112.308
804.17	102.941
804.48	111.111
804.78	113.793
805.09	88.235
805.39	123.077
805.70	96.429
806.00	113.115
806.30	106.061
806.61	92.683
806.91	79.747
807.22	76.316
807.52	86.567
807.83	100.000
808.13	92.188
808.43	90.000
808.74	90.789
809.04	97.101
809.35	111.940
809.65	89.474
809.95	111.290
810.26	103.390
810.56	100.000
810.86	154.545
811.17	142.857
811.47	121.667
811.77	88.889
812.08	116.364
812.38	120.000
812.69	127.778
812.99	156.818
813.29	122.449
813.59	97.619
813.90	142.857
814.20	121.818
814.50	93.846
814.81	119.118
815.11	108.163
815.41	109.836
815.72	161.905
816.02	130.909
816.32	130.952
816.62	122.500
816.93	124.390
817.23	140.476
817.53	125.000
817.84	178.788
818.14	145.652
818.44	128.889
818.74	135.294
819.04	122.500
819.35	162.857
819.65	161.765
819.95	189.286
820.25	225.000
820.56	146.154
820.86	129.545
821.16	151.163
821.46	130.769
821.76	146.000
822.07	154.286
822.37	172.500
822.67	130.303
822.97	117.647
823.27	178.571
823.57	145.946
823.88	165.000
824.18	186.667
824.48	130.952
824.78	188.000
825.08	200.000
825.38	145.946
825.69	131.707
825.99	212.500
826.29	137.931
826.59	136.842
826.89	126.316
827.19	164.706
827.49	180.645
827.79	143.182
828.09	120.455
828.39	97.872
828.70	142.857
829.00	159.259
829.30	164.516
829.60	135.000
829.90	280.000
830.20	157.143
830.50	182.609
830.80	200.000
831.10	170.000
831.40	166.667
831.70	200.000
832.00	211.538
832.30	185.185
832.60	281.250
832.90	180.000
833.20	328.571
833.50	167.742
833.80	172.414
834.10	187.500
834.40	200.000
834.70	261.111
835.00	242.857
835.30	114.286
835.60	300.000
835.90	200.000
836.20	300.000
836.50	168.966
836.80	156.000
837.10	138.889
837.40	257.143
837.70	270.588
838.00	192.593
838.30	209.524
838.60	261.905
838.90	196.154
839.19	160.000
839.49	378.571
839.79	285.000
840.09	235.000
840.39	223.810
840.69	213.043
840.99	233.333
841.29	340.000
841.59	308.333
841.88	287.500
842.18	148.276
842.48	261.905
842.78	150.000
843.08	178.261
843.38	131.250
843.68	750.000
843.97	219.231
844.27	182.759
844.57	185.714
844.87	262.500
845.17	200.000
845.47	1166.667
845.76	444.444
846.06	235.294
846.36	337.500
846.66	350.000
846.96	268.750
847.25	409.091
847.55	254.545
847.85	195.652
848.15	400.000
848.44	378.571
848.74	250.000
849.04	258.824
849.34	510.000
849.63	205.263
849.93	336.364
850.23	780.000
850.53	300.000
850.82	1950.000
851.12	-3200.000
851.42	3700.000
851.71	225.000
852.01	-1100.000
852.31	220.833
852.61	1166.667
852.90	233.333
853.20	188.000
853.50	270.588
853.79	209.524
854.09	175.000
854.39	293.750
854.68	156.757
854.98	170.968
855.28	120.000
855.57	189.655
855.87	177.778
856.17	194.737
856.46	246.667
856.76	205.882
857.05	162.069
857.35	212.500
857.65	266.667
857.94	208.696
858.24	176.923
858.53	255.000
858.83	190.909
859.13	300.000
859.42	0.000
859.72	522.222
860.01	409.091
860.31	168.182
860.60	173.684
860.90	230.435
861.20	444.444
861.49	408.333
861.79	-4400.000
862.08	487.500
862.38	266.667
862.67	323.077
862.97	335.294
863.26	466.667
863.56	272.222
863.85	400.000
864.15	512.500
864.44	240.000
864.74	700.000
865.03	650.000
865.33	236.842
865.62	363.636
865.92	392.308
866.21	325.000
866.51	0.000
866.80	381.818
867.10	1000.000
867.39	353.846
867.69	390.909
867.98	189.474
868.27	363.636
868.57	247.368
868.86	-3000.000
869.16	306.250
869.45	1900.000
869.75	-3900.000
870.04	375.000
870.33	528.571
870.63	1000.000
870.92	1900.000
871.22	600.000
871.51	323.529
871.80	195.238
872.10	350.000
>>>>>End Processed Spectral Data<<<<<
