SpectraSuite Data File
++++++++++++++++++++++++++++++++++++
Date: Wed May 13 16:11:42 PDT 2015
User: schluterlab
Dark Spectrum Present: Yes
Reference Spectrum Present: Yes
Number of Sampled Component Spectra: 1
Spectrometers: USB2E3373
Integration Time (usec): 3000 (USB2E3373)
Spectra Averaged: 3 (USB2E3373)
Boxcar Smoothing: 0 (USB2E3373)
Correct for Electrical Dark: No (USB2E3373)
Strobe/Lamp Enabled: No (USB2E3373)
Correct for Detector Non-linearity: No (USB2E3373)
Correct for Stray Light: No (USB2E3373)
Number of Pixels in Processed Spectrum: 2048
>>>>>Begin Processed Spectral Data<<<<<
178.53	0.000
178.91	-1025.000
179.29	-1000.000
179.67	-155.556
180.04	-1000.000
180.42	2050.000
180.80	1000.000
181.18	-850.000
181.56	528.571
181.94	0.000
182.31	-557.143
182.69	1200.000
183.07	-437.500
183.45	-366.667
183.83	427.273
184.20	-220.000
184.58	1700.000
184.96	4200.000
185.34	-700.000
185.72	-500.000
186.09	-1850.000
186.47	1900.000
186.85	1750.000
187.23	3700.000
187.61	-1133.333
187.98	1075.000
188.36	418.182
188.74	427.273
189.12	-560.000
189.49	440.000
189.87	-4500.000
190.25	-1025.000
190.63	307.143
191.00	276.923
191.38	633.333
191.76	-750.000
192.14	1375.000
192.51	437.500
192.89	700.000
193.27	475.000
193.65	-750.000
194.02	350.000
194.40	800.000
194.78	360.000
195.15	358.333
195.53	470.000
195.91	-1350.000
196.29	300.000
196.66	215.789
197.04	-330.000
197.42	0.000
197.79	530.000
198.17	-3500.000
198.55	471.429
198.92	462.500
199.30	620.000
199.68	0.000
200.05	300.000
200.43	642.857
200.81	3000.000
201.18	1166.667
201.56	-1100.000
201.94	400.000
202.31	577.778
202.69	391.667
203.07	440.000
203.44	0.000
203.82	950.000
204.19	385.714
204.57	321.429
204.95	475.000
205.32	1266.667
205.70	345.455
206.08	350.000
206.45	1800.000
206.83	343.750
207.20	750.000
207.58	460.000
207.96	233.333
208.33	550.000
208.71	-483.333
209.08	614.286
209.46	477.778
209.84	336.364
210.21	-1166.667
210.59	1075.000
210.96	-350.000
211.34	1600.000
211.71	460.000
212.09	666.667
212.46	0.000
212.84	1366.667
213.22	925.000
213.59	-3300.000
213.97	666.667
214.34	614.286
214.72	454.545
215.09	680.000
215.47	-1150.000
215.84	-1600.000
216.22	1566.667
216.59	335.714
216.97	1200.000
217.34	400.000
217.72	-500.000
218.09	0.000
218.47	-3200.000
218.84	422.222
219.22	500.000
219.59	1400.000
219.97	-528.571
220.34	820.000
220.72	-1200.000
221.09	350.000
221.47	1075.000
221.84	-583.333
222.22	0.000
222.59	1075.000
222.97	-1800.000
223.34	940.000
223.72	361.538
224.09	900.000
224.46	1350.000
224.84	-3600.000
225.21	-740.000
225.59	-3600.000
225.96	420.000
226.34	215.000
226.71	2150.000
227.08	525.000
227.46	410.000
227.83	-750.000
228.21	-1800.000
228.58	422.222
228.95	-1950.000
229.33	-1350.000
229.70	1466.667
230.08	600.000
230.45	-360.000
230.82	358.333
231.20	550.000
231.57	414.286
231.95	350.000
232.32	150.000
232.69	272.727
233.07	457.143
233.44	269.231
233.81	-1000.000
234.19	257.895
234.56	383.333
234.93	291.667
235.31	381.818
235.68	253.846
236.05	321.429
236.43	124.242
236.80	210.526
237.17	3300.000
237.55	180.952
237.92	164.286
238.29	209.524
238.67	125.806
239.04	155.172
239.41	111.111
239.79	97.826
240.16	111.905
240.53	115.909
240.91	78.431
241.28	96.000
241.65	92.000
242.02	78.261
242.40	83.871
242.77	75.000
243.14	74.194
243.51	58.427
243.89	68.235
244.26	65.556
244.63	52.688
245.00	52.128
245.38	58.416
245.75	54.206
246.12	35.780
246.49	62.774
246.87	57.600
247.24	47.692
247.61	47.143
247.98	42.484
248.36	41.216
248.73	35.669
249.10	45.223
249.47	38.983
249.84	45.989
250.22	37.968
250.59	37.870
250.96	40.404
251.33	35.545
251.70	41.089
252.08	36.667
252.45	30.045
252.82	34.783
253.19	42.553
253.56	33.725
253.94	34.855
254.31	33.984
254.68	34.615
255.05	33.210
255.42	32.520
255.79	32.353
256.16	33.574
256.54	29.682
256.91	30.249
257.28	28.058
257.65	31.023
258.02	30.745
258.39	27.445
258.76	27.425
259.14	30.655
259.51	31.003
259.88	28.571
260.25	30.816
260.62	30.058
260.99	26.708
261.36	30.030
261.73	29.513
262.10	29.070
262.47	33.803
262.85	29.805
263.22	26.781
263.59	29.915
263.96	26.923
264.33	28.721
264.70	26.842
265.07	31.202
265.44	29.798
265.81	24.818
266.18	26.884
266.55	30.488
266.92	27.518
267.29	27.778
267.66	25.459
268.03	25.455
268.40	26.402
268.77	23.389
269.14	25.450
269.51	24.605
269.88	29.138
270.25	28.217
270.62	24.719
270.99	27.527
271.36	29.614
271.73	26.402
272.10	25.217
272.47	28.172
272.84	25.108
273.21	25.367
273.58	24.454
273.95	23.899
274.32	25.000
274.69	24.411
275.06	22.835
275.43	24.894
275.80	26.653
276.17	26.477
276.54	27.443
276.91	25.099
277.28	24.414
277.65	26.112
278.02	26.708
278.39	25.391
278.76	24.182
279.13	23.208
279.50	24.953
279.87	25.896
280.23	24.750
280.60	24.371
280.97	24.030
281.34	25.664
281.71	26.727
282.08	25.528
282.45	25.091
282.82	25.400
283.19	22.282
283.56	24.211
283.92	24.027
284.29	23.457
284.66	24.319
285.03	21.881
285.40	23.063
285.77	22.222
286.14	23.661
286.51	25.167
286.87	24.103
287.24	23.941
287.61	21.669
287.98	22.403
288.35	22.821
288.72	22.118
289.08	22.692
289.45	23.229
289.82	21.463
290.19	21.507
290.56	20.521
290.93	21.299
291.29	22.239
291.66	21.239
292.03	24.419
292.40	21.733
292.77	22.929
293.13	20.597
293.50	21.866
293.87	19.111
294.24	20.889
294.60	20.524
294.97	21.657
295.34	22.285
295.71	19.886
296.08	19.658
296.44	20.083
296.81	20.211
297.18	21.680
297.55	19.129
297.91	22.032
298.28	22.222
298.65	20.496
299.02	20.290
299.38	20.584
299.75	19.542
300.12	19.157
300.48	19.750
300.85	20.099
301.22	20.510
301.59	21.212
301.95	20.403
302.32	19.512
302.69	20.789
303.05	18.303
303.42	20.617
303.79	19.932
304.15	18.998
304.52	18.656
304.89	18.931
305.25	19.258
305.62	20.725
305.99	19.717
306.35	19.351
306.72	19.955
307.09	19.423
307.45	19.820
307.82	18.973
308.19	20.309
308.55	18.986
308.92	18.582
309.29	17.740
309.65	19.406
310.02	19.556
310.38	19.677
310.75	18.268
311.12	19.243
311.48	20.063
311.85	20.755
312.22	20.083
312.58	19.335
312.95	20.591
313.31	19.515
313.68	20.478
314.05	21.400
314.41	20.704
314.78	21.047
315.14	19.166
315.51	20.597
315.87	21.287
316.24	19.960
316.61	20.565
316.97	18.885
317.34	19.276
317.70	20.554
318.07	20.597
318.43	20.548
318.80	20.337
319.16	20.339
319.53	19.700
319.89	20.571
320.26	20.400
320.62	21.032
320.99	20.404
321.35	20.000
321.72	20.637
322.08	21.323
322.45	23.383
322.81	22.093
323.18	22.447
323.54	21.521
323.91	21.226
324.27	21.128
324.64	20.410
325.00	20.289
325.37	22.293
325.73	21.454
326.10	21.271
326.46	21.505
326.83	22.519
327.19	21.776
327.56	22.648
327.92	21.785
328.29	23.070
328.65	21.731
329.01	22.563
329.38	22.109
329.74	21.791
330.11	21.583
330.47	22.773
330.84	24.081
331.20	21.494
331.56	23.119
331.93	21.296
332.29	22.449
332.66	22.743
333.02	22.395
333.38	21.500
333.75	23.529
334.11	20.907
334.48	22.094
334.84	20.772
335.20	23.182
335.57	21.487
335.93	20.804
336.29	21.245
336.66	22.272
337.02	21.357
337.38	20.556
337.75	21.747
338.11	21.934
338.47	21.639
338.84	21.998
339.20	21.009
339.56	22.993
339.93	20.636
340.29	21.014
340.65	21.034
341.02	22.077
341.38	22.776
341.74	20.789
342.11	22.183
342.47	20.793
342.83	21.147
343.20	20.866
343.56	20.303
343.92	20.789
344.28	21.769
344.65	20.292
345.01	20.623
345.37	19.811
345.73	21.235
346.10	20.375
346.46	21.441
346.82	21.005
347.19	20.551
347.55	20.690
347.91	21.764
348.27	22.350
348.63	20.903
349.00	21.197
349.36	21.593
349.72	21.331
350.08	20.340
350.45	21.562
350.81	21.933
351.17	21.313
351.53	20.721
351.89	20.462
352.26	22.415
352.62	21.091
352.98	21.394
353.34	21.364
353.70	20.295
354.07	21.935
354.43	21.349
354.79	19.952
355.15	20.591
355.51	21.982
355.87	22.204
356.24	21.254
356.60	20.449
356.96	20.837
357.32	21.750
357.68	20.630
358.04	22.011
358.40	23.040
358.77	21.127
359.13	20.600
359.49	21.804
359.85	20.635
360.21	20.255
360.57	22.412
360.93	21.615
361.29	21.693
361.66	21.517
362.02	22.164
362.38	21.521
362.74	22.098
363.10	21.614
363.46	21.790
363.82	21.920
364.18	22.614
364.54	23.031
364.90	22.309
365.26	20.956
365.62	21.914
365.98	22.060
366.35	21.777
366.71	22.270
367.07	21.996
367.43	22.061
367.79	24.126
368.15	22.055
368.51	22.384
368.87	23.126
369.23	22.897
369.59	23.244
369.95	21.471
370.31	22.863
370.67	22.391
371.03	23.596
371.39	22.085
371.75	22.794
372.11	21.906
372.47	23.680
372.83	23.271
373.19	22.254
373.55	23.060
373.91	24.816
374.27	22.199
374.63	22.836
374.99	23.870
375.35	21.982
375.71	23.304
376.07	24.623
376.42	24.278
376.78	23.857
377.14	23.338
377.50	24.305
377.86	23.471
378.22	24.652
378.58	22.682
378.94	23.633
379.30	23.791
379.66	24.556
380.02	24.877
380.38	22.951
380.74	24.430
381.09	24.144
381.45	25.261
381.81	24.201
382.17	24.522
382.53	24.654
382.89	24.568
383.25	24.328
383.61	26.456
383.97	25.391
384.32	24.704
384.68	25.403
385.04	25.569
385.40	25.573
385.76	25.799
386.12	26.360
386.48	26.306
386.83	25.914
387.19	27.149
387.55	26.345
387.91	25.695
388.27	25.690
388.62	27.167
388.98	26.413
389.34	26.783
389.70	26.180
390.06	27.503
390.42	27.108
390.77	26.336
391.13	27.441
391.49	27.538
391.85	27.053
392.20	26.435
392.56	26.894
392.92	27.075
393.28	25.680
393.64	27.278
393.99	27.123
394.35	27.667
394.71	27.039
395.07	26.355
395.42	27.503
395.78	27.290
396.14	26.505
396.50	28.008
396.85	27.463
397.21	26.819
397.57	27.340
397.92	27.704
398.28	26.513
398.64	27.778
399.00	26.581
399.35	27.524
399.71	28.067
400.07	27.558
400.42	27.669
400.78	27.322
401.14	27.256
401.49	28.060
401.85	27.586
402.21	27.665
402.57	27.946
402.92	27.554
403.28	28.107
403.63	28.094
403.99	27.580
404.35	27.515
404.70	27.818
405.06	27.257
405.42	28.634
405.77	26.686
406.13	27.483
406.49	27.676
406.84	27.466
407.20	26.773
407.55	28.462
407.91	28.467
408.27	28.015
408.62	26.911
408.98	26.838
409.34	26.999
409.69	27.097
410.05	27.261
410.40	28.930
410.76	28.017
411.11	27.865
411.47	27.412
411.83	27.673
412.18	27.520
412.54	27.148
412.89	27.470
413.25	27.568
413.60	27.671
413.96	25.804
414.31	26.792
414.67	27.250
415.03	27.748
415.38	27.448
415.74	27.846
416.09	27.956
416.45	28.380
416.80	27.958
417.16	28.552
417.51	27.870
417.87	27.617
418.22	27.823
418.58	28.728
418.93	28.256
419.29	28.390
419.64	28.589
420.00	28.415
420.35	27.768
420.71	28.392
421.06	27.566
421.42	28.070
421.77	28.139
422.12	27.176
422.48	26.767
422.83	27.606
423.19	27.459
423.54	27.452
423.90	27.942
424.25	27.862
424.61	27.440
424.96	28.571
425.31	27.741
425.67	27.697
426.02	27.257
426.38	28.755
426.73	27.853
427.09	28.511
427.44	28.695
427.79	27.602
428.15	28.631
428.50	28.028
428.85	28.546
429.21	27.333
429.56	28.512
429.92	28.334
430.27	27.706
430.62	27.035
430.98	28.490
431.33	27.371
431.68	28.482
432.04	28.168
432.39	28.327
432.74	29.324
433.10	29.202
433.45	29.446
433.80	28.215
434.16	29.006
434.51	28.105
434.86	29.418
435.22	28.293
435.57	29.119
435.92	28.906
436.28	29.122
436.63	29.746
436.98	29.536
437.34	29.934
437.69	29.872
438.04	29.117
438.39	29.731
438.75	28.820
439.10	28.715
439.45	29.280
439.81	29.305
440.16	29.136
440.51	28.588
440.86	29.010
441.22	29.366
441.57	29.193
441.92	30.246
442.27	29.440
442.63	28.436
442.98	29.972
443.33	28.478
443.68	29.427
444.03	29.331
444.39	28.968
444.74	29.113
445.09	29.704
445.44	28.759
445.79	28.798
446.15	30.228
446.50	28.379
446.85	29.188
447.20	29.985
447.55	30.486
447.91	28.847
448.26	29.215
448.61	29.565
448.96	30.509
449.31	30.540
449.66	29.263
450.02	29.526
450.37	29.478
450.72	29.160
451.07	29.433
451.42	29.666
451.77	29.888
452.12	30.196
452.47	29.540
452.83	30.303
453.18	29.645
453.53	29.190
453.88	29.711
454.23	30.484
454.58	29.740
454.93	30.515
455.28	29.613
455.63	29.976
455.98	30.655
456.34	29.962
456.69	31.309
457.04	30.093
457.39	29.340
457.74	28.845
458.09	30.707
458.44	29.647
458.79	29.230
459.14	30.248
459.49	29.772
459.84	30.526
460.19	29.523
460.54	29.572
460.89	30.060
461.24	29.751
461.59	29.924
461.94	29.346
462.29	29.496
462.64	29.866
462.99	29.863
463.34	29.867
463.69	29.518
464.04	29.971
464.39	29.333
464.74	28.818
465.09	29.433
465.44	28.698
465.79	28.356
466.14	29.557
466.49	28.587
466.84	29.831
467.19	29.632
467.54	31.437
467.89	29.712
468.24	29.959
468.59	30.830
468.94	30.177
469.29	30.398
469.64	30.857
469.99	30.650
470.34	29.524
470.68	30.532
471.03	31.361
471.38	32.314
471.73	30.913
472.08	31.513
472.43	31.030
472.78	30.876
473.13	29.782
473.48	30.212
473.83	30.976
474.17	29.745
474.52	30.707
474.87	31.173
475.22	30.644
475.57	30.575
475.92	29.580
476.27	30.440
476.61	30.336
476.96	30.731
477.31	29.775
477.66	31.619
478.01	30.058
478.36	30.936
478.70	29.751
479.05	30.831
479.40	30.962
479.75	29.944
480.10	29.573
480.45	30.795
480.79	29.623
481.14	29.990
481.49	29.805
481.84	30.361
482.19	29.986
482.53	30.000
482.88	30.386
483.23	30.047
483.58	30.346
483.92	30.553
484.27	29.150
484.62	29.698
484.97	29.208
485.31	30.205
485.66	27.950
486.01	26.640
486.36	26.023
486.70	25.531
487.05	26.703
487.40	27.247
487.75	27.903
488.09	29.269
488.44	28.919
488.79	30.669
489.13	29.641
489.48	29.649
489.83	29.348
490.17	30.294
490.52	29.318
490.87	30.393
491.22	28.877
491.56	29.977
491.91	29.874
492.26	29.490
492.60	29.631
492.95	29.935
493.30	29.393
493.64	29.351
493.99	29.387
494.34	30.342
494.68	29.991
495.03	30.169
495.37	29.642
495.72	30.263
496.07	30.487
496.41	29.513
496.76	29.551
497.11	29.266
497.45	30.368
497.80	30.758
498.14	29.517
498.49	30.585
498.84	30.201
499.18	29.667
499.53	30.057
499.87	30.568
500.22	30.805
500.56	30.388
500.91	30.048
501.26	31.247
501.60	30.612
501.95	29.927
502.29	30.553
502.64	31.006
502.98	30.482
503.33	29.616
503.67	30.673
504.02	31.431
504.36	30.229
504.71	30.435
505.06	30.361
505.40	30.919
505.75	31.099
506.09	30.515
506.44	31.672
506.78	31.564
507.13	31.095
507.47	31.970
507.82	31.814
508.16	32.168
508.51	32.217
508.85	31.976
509.19	32.551
509.54	32.500
509.88	32.509
510.23	32.699
510.57	33.591
510.92	32.626
511.26	33.145
511.61	32.521
511.95	32.620
512.30	32.609
512.64	32.294
512.98	33.065
513.33	33.351
513.67	32.978
514.02	33.117
514.36	33.861
514.70	33.536
515.05	33.185
515.39	33.034
515.74	34.403
516.08	33.985
516.42	34.295
516.77	34.225
517.11	32.908
517.46	34.707
517.80	33.914
518.14	32.889
518.49	34.539
518.83	33.523
519.17	33.603
519.52	34.522
519.86	34.969
520.20	34.682
520.55	35.189
520.89	36.192
521.23	36.309
521.58	35.174
521.92	35.579
522.26	35.265
522.61	35.763
522.95	34.377
523.29	36.032
523.64	36.341
523.98	37.092
524.32	36.912
524.66	35.358
525.01	36.765
525.35	35.688
525.69	34.544
526.04	36.012
526.38	35.815
526.72	35.828
527.06	36.409
527.41	34.530
527.75	36.399
528.09	36.673
528.43	36.711
528.78	36.263
529.12	35.879
529.46	36.314
529.80	36.572
530.15	35.202
530.49	35.508
530.83	35.253
531.17	38.316
531.51	36.446
531.86	37.097
532.20	35.854
532.54	37.796
532.88	35.109
533.22	35.353
533.57	36.173
533.91	35.822
534.25	34.994
534.59	35.692
534.93	35.336
535.27	36.089
535.62	35.226
535.96	36.347
536.30	35.982
536.64	37.283
536.98	37.226
537.32	36.537
537.66	36.467
538.01	36.274
538.35	35.423
538.69	36.886
539.03	35.737
539.37	35.335
539.71	34.867
540.05	36.013
540.39	35.415
540.73	35.964
541.07	36.275
541.42	36.791
541.76	36.839
542.10	35.899
542.44	35.563
542.78	36.166
543.12	33.205
543.46	36.984
543.80	35.914
544.14	34.724
544.48	35.873
544.82	35.792
545.16	35.589
545.50	35.733
545.84	36.223
546.18	36.162
546.52	36.270
546.86	36.357
547.20	36.548
547.54	35.204
547.88	36.161
548.22	35.928
548.56	35.660
548.90	34.571
549.24	35.152
549.58	35.334
549.92	36.332
550.26	36.790
550.60	34.786
550.94	37.042
551.28	36.064
551.62	36.664
551.96	35.789
552.30	36.041
552.64	36.038
552.98	35.119
553.32	36.210
553.66	36.401
554.00	36.307
554.34	36.025
554.68	37.983
555.02	35.472
555.36	36.674
555.69	35.859
556.03	35.868
556.37	36.426
556.71	35.812
557.05	36.204
557.39	35.899
557.73	36.415
558.07	36.403
558.41	36.541
558.75	37.399
559.08	37.062
559.42	36.961
559.76	36.250
560.10	35.832
560.44	35.919
560.78	35.130
561.12	34.960
561.45	35.398
561.79	35.399
562.13	36.016
562.47	35.861
562.81	36.402
563.15	35.452
563.48	34.416
563.82	35.551
564.16	35.513
564.50	35.221
564.84	34.324
565.17	34.492
565.51	35.847
565.85	35.216
566.19	34.753
566.52	35.275
566.86	33.996
567.20	34.965
567.54	34.817
567.88	33.134
568.21	34.286
568.55	33.013
568.89	33.025
569.23	33.155
569.56	31.134
569.90	31.736
570.24	31.001
570.57	30.670
570.91	30.381
571.25	29.771
571.59	30.044
571.92	29.925
572.26	29.752
572.60	29.910
572.93	29.835
573.27	29.755
573.61	29.983
573.95	29.457
574.28	28.869
574.62	29.349
574.96	28.530
575.29	28.492
575.63	28.786
575.97	28.925
576.30	29.235
576.64	28.582
576.98	28.950
577.31	28.905
577.65	28.838
577.98	28.669
578.32	28.078
578.66	28.616
578.99	28.441
579.33	28.540
579.67	28.971
580.00	28.530
580.34	28.856
580.67	29.213
581.01	29.436
581.35	28.554
581.68	28.473
582.02	27.637
582.35	28.264
582.69	27.933
583.02	28.730
583.36	28.822
583.70	29.471
584.03	29.336
584.37	29.486
584.70	29.545
585.04	29.281
585.37	29.334
585.71	28.736
586.04	29.137
586.38	29.702
586.72	29.467
587.05	28.824
587.39	29.288
587.72	29.400
588.06	28.869
588.39	29.108
588.73	29.598
589.06	30.664
589.40	30.269
589.73	30.377
590.07	30.641
590.40	30.398
590.73	30.679
591.07	32.031
591.40	31.379
591.74	32.251
592.07	30.846
592.41	32.038
592.74	30.187
593.08	30.313
593.41	30.212
593.75	29.482
594.08	29.702
594.41	30.081
594.75	29.871
595.08	29.814
595.42	30.158
595.75	30.983
596.09	30.830
596.42	31.434
596.75	30.857
597.09	31.255
597.42	31.113
597.75	31.005
598.09	31.043
598.42	31.314
598.76	30.726
599.09	30.179
599.42	30.167
599.76	30.198
600.09	30.200
600.42	29.401
600.76	29.643
601.09	30.055
601.42	30.365
601.76	29.867
602.09	30.514
602.42	30.653
602.76	30.996
603.09	30.724
603.42	31.082
603.76	29.764
604.09	30.516
604.42	30.697
604.76	30.873
605.09	30.887
605.42	31.039
605.75	30.795
606.09	30.338
606.42	30.445
606.75	30.568
607.09	31.352
607.42	30.852
607.75	30.084
608.08	30.352
608.42	31.600
608.75	30.884
609.08	30.296
609.41	31.080
609.75	31.015
610.08	31.762
610.41	31.099
610.74	31.362
611.07	31.077
611.41	30.765
611.74	33.032
612.07	31.988
612.40	33.001
612.73	30.789
613.07	31.250
613.40	31.859
613.73	31.568
614.06	32.043
614.39	31.358
614.72	31.263
615.06	31.513
615.39	31.423
615.72	31.237
616.05	31.313
616.38	32.240
616.71	32.542
617.05	31.920
617.38	33.133
617.71	32.733
618.04	32.993
618.37	32.229
618.70	33.230
619.03	34.605
619.36	32.926
619.69	34.437
620.03	34.615
620.36	34.158
620.69	33.904
621.02	34.145
621.35	34.847
621.68	33.956
622.01	35.294
622.34	34.115
622.67	33.612
623.00	32.942
623.33	32.666
623.66	33.452
623.99	34.168
624.32	33.524
624.65	33.263
624.99	33.357
625.32	33.454
625.65	34.636
625.98	34.896
626.31	35.303
626.64	35.429
626.97	34.414
627.30	34.663
627.63	35.521
627.96	34.735
628.29	35.783
628.62	36.048
628.95	37.830
629.28	35.675
629.61	36.939
629.94	35.048
630.26	35.939
630.59	35.939
630.92	36.590
631.25	36.130
631.58	35.836
631.91	37.120
632.24	36.709
632.57	37.461
632.90	38.706
633.23	38.143
633.56	38.983
633.89	38.279
634.22	37.344
634.55	38.817
634.88	37.725
635.20	38.351
635.53	39.277
635.86	38.614
636.19	38.118
636.52	39.100
636.85	38.488
637.18	37.558
637.51	38.298
637.83	36.128
638.16	39.258
638.49	38.413
638.82	39.823
639.15	38.500
639.48	39.526
639.81	40.214
640.13	41.276
640.46	38.658
640.79	40.555
641.12	39.615
641.45	40.922
641.77	41.532
642.10	38.450
642.43	39.640
642.76	41.176
643.09	41.258
643.41	39.454
643.74	41.821
644.07	39.787
644.40	42.791
644.73	41.890
645.05	41.680
645.38	39.336
645.71	39.775
646.04	42.359
646.36	44.240
646.69	40.468
647.02	43.537
647.35	41.065
647.67	41.593
648.00	39.675
648.33	39.109
648.66	40.000
648.98	38.531
649.31	38.266
649.64	40.658
649.96	38.748
650.29	39.652
650.62	39.320
650.94	40.032
651.27	40.878
651.60	39.933
651.92	40.735
652.25	38.599
652.58	40.187
652.90	40.126
653.23	36.364
653.56	38.583
653.88	40.571
654.21	39.494
654.54	39.109
654.86	40.810
655.19	38.514
655.52	26.718
655.84	22.888
656.17	28.556
656.49	38.133
656.82	39.043
657.15	29.766
657.47	22.310
657.80	17.482
658.13	18.194
658.45	27.793
658.78	28.728
659.10	30.100
659.43	32.029
659.75	33.274
660.08	36.076
660.41	39.944
660.73	43.710
661.06	41.720
661.38	43.091
661.71	41.923
662.03	41.420
662.36	39.761
662.68	41.767
663.01	43.434
663.33	45.223
663.66	42.857
663.98	43.844
664.31	43.487
664.63	42.713
664.96	40.845
665.28	42.418
665.61	41.520
665.93	42.857
666.26	39.554
666.58	43.515
666.91	45.243
667.23	44.944
667.56	44.060
667.88	44.017
668.21	42.857
668.53	43.601
668.86	41.126
669.18	44.136
669.50	42.391
669.83	45.316
670.15	44.667
670.48	43.573
670.80	42.241
671.13	41.401
671.45	43.617
671.77	42.566
672.10	40.665
672.42	38.693
672.75	40.299
673.07	39.613
673.39	39.602
673.72	40.625
674.04	40.196
674.37	41.359
674.69	40.491
675.01	43.724
675.34	42.710
675.66	42.947
675.98	41.752
676.31	42.437
676.63	42.887
676.95	40.881
677.28	42.757
677.60	42.418
677.92	42.194
678.25	39.220
678.57	41.036
678.89	42.685
679.22	38.310
679.54	40.267
679.86	40.550
680.18	38.462
680.51	39.362
680.83	37.900
681.15	38.679
681.48	41.399
681.80	40.039
682.12	38.506
682.44	39.652
682.77	38.289
683.09	42.918
683.41	42.794
683.73	41.280
684.06	41.529
684.38	40.900
684.70	40.310
685.02	42.589
685.34	36.996
685.67	37.413
685.99	36.426
686.31	36.348
686.63	35.866
686.96	36.250
687.28	38.628
687.60	38.225
687.92	37.294
688.24	38.783
688.56	38.353
688.89	41.079
689.21	41.703
689.53	41.545
689.85	43.459
690.17	38.302
690.49	38.854
690.82	42.523
691.14	39.062
691.46	41.139
691.78	38.554
692.10	39.669
692.42	40.120
692.74	39.419
693.06	38.723
693.39	41.478
693.71	39.301
694.03	39.368
694.35	38.961
694.67	39.588
694.99	41.707
695.31	40.441
695.63	40.909
695.95	41.320
696.27	38.071
696.59	44.560
696.91	43.264
697.23	37.089
697.56	40.938
697.88	36.605
698.20	39.583
698.52	38.065
698.84	37.862
699.16	40.323
699.48	41.330
699.80	43.961
700.12	45.195
700.44	45.889
700.76	42.818
701.08	42.529
701.40	41.341
701.72	46.356
702.04	46.307
702.36	40.227
702.68	45.326
703.00	44.044
703.32	38.298
703.64	43.432
703.96	44.568
704.28	48.256
704.60	46.041
704.91	43.323
705.23	44.868
705.55	48.505
705.87	47.508
706.19	47.703
706.51	42.056
706.83	46.667
707.15	45.938
707.47	41.919
707.79	42.015
708.11	39.726
708.43	39.286
708.74	39.541
709.06	43.117
709.38	41.207
709.70	47.384
710.02	46.884
710.34	41.212
710.66	44.776
710.98	43.466
711.29	40.698
711.61	45.723
711.93	41.026
712.25	45.338
712.57	47.059
712.89	45.329
713.20	43.769
713.52	46.711
713.84	42.089
714.16	40.549
714.48	40.517
714.80	44.681
715.11	41.787
715.43	41.543
715.75	44.348
716.07	45.687
716.39	43.887
716.70	45.515
717.02	46.403
717.34	43.110
717.66	51.493
717.97	50.996
718.29	44.074
718.61	44.891
718.93	49.265
719.24	45.329
719.56	43.051
719.88	48.136
720.20	46.622
720.51	47.735
720.83	44.981
721.15	44.776
721.46	45.390
721.78	47.670
722.10	48.679
722.42	47.368
722.73	50.936
723.05	45.902
723.37	45.344
723.68	46.332
724.00	45.528
724.32	42.742
724.63	47.967
724.95	47.699
725.27	44.534
725.58	46.484
725.90	47.445
726.22	46.792
726.53	40.278
726.85	41.980
727.16	44.128
727.48	43.972
727.80	44.318
728.11	46.014
728.43	46.154
728.74	40.502
729.06	45.255
729.38	47.059
729.69	43.416
730.01	39.249
730.32	43.403
730.64	41.806
730.96	38.614
731.27	41.722
731.59	40.061
731.90	41.983
732.22	38.509
732.53	39.009
732.85	40.705
733.16	43.408
733.48	42.857
733.80	39.610
734.11	47.452
734.43	39.941
734.74	39.143
735.06	39.255
735.37	41.908
735.69	35.350
736.00	46.078
736.32	38.941
736.63	40.256
736.95	39.297
737.26	37.075
737.58	33.871
737.89	43.144
738.21	48.123
738.52	42.143
738.83	39.245
739.15	43.077
739.46	45.985
739.78	43.750
740.09	40.000
740.41	43.871
740.72	36.934
741.04	42.593
741.35	42.500
741.66	49.778
741.98	47.642
742.29	51.196
742.61	46.983
742.92	43.439
743.23	47.009
743.55	48.000
743.86	47.807
744.18	48.230
744.49	55.024
744.80	47.887
745.12	48.636
745.43	43.612
745.74	48.198
746.06	47.706
746.37	45.740
746.68	47.964
747.00	50.000
747.31	48.571
747.62	40.708
747.94	44.493
748.25	43.404
748.56	51.101
748.88	49.505
749.19	56.500
749.50	52.558
749.82	43.496
750.13	41.224
750.44	43.796
750.75	43.860
751.07	44.051
751.38	43.902
751.69	42.599
752.01	43.985
752.32	40.433
752.63	44.326
752.94	47.131
753.26	49.600
753.57	38.211
753.88	45.312
754.19	41.429
754.51	40.625
754.82	39.711
755.13	48.302
755.44	45.865
755.75	38.686
756.07	41.844
756.38	40.876
756.69	42.282
757.00	33.533
757.31	38.279
757.63	37.135
757.94	35.389
758.25	34.069
758.56	35.556
758.87	37.366
759.18	39.394
759.50	34.483
759.81	36.449
760.12	39.375
760.43	39.542
760.74	38.587
761.05	40.113
761.36	34.492
761.67	40.057
761.99	37.267
762.30	42.014
762.61	44.656
762.92	40.625
763.23	44.118
763.54	47.200
763.85	42.969
764.16	48.077
764.47	42.205
764.78	38.516
765.10	35.759
765.41	38.053
765.72	39.521
766.03	39.498
766.34	40.667
766.65	47.660
766.96	44.444
767.27	49.239
767.58	52.604
767.89	47.368
768.20	49.425
768.51	50.761
768.82	47.706
769.13	41.463
769.44	38.057
769.75	42.489
770.06	42.661
770.37	47.059
770.68	45.833
770.99	45.778
771.30	40.164
771.61	46.637
771.92	43.852
772.23	47.059
772.54	41.538
772.85	50.785
773.16	50.000
773.47	48.913
773.78	50.254
774.09	52.976
774.39	50.877
774.70	50.617
775.01	60.870
775.32	60.131
775.63	55.921
775.94	52.518
776.25	62.992
776.56	61.194
776.87	55.738
777.18	52.344
777.48	64.885
777.79	47.727
778.10	65.926
778.41	67.857
778.72	51.095
779.03	53.020
779.34	59.732
779.65	51.351
779.95	50.920
780.26	52.941
780.57	51.034
780.88	64.844
781.19	54.887
781.50	58.108
781.80	55.975
782.11	42.373
782.42	51.266
782.73	49.693
783.04	52.703
783.34	52.817
783.65	63.014
783.96	59.701
784.27	51.049
784.57	52.518
784.88	58.333
785.19	61.905
785.50	65.094
785.81	58.955
786.11	68.033
786.42	63.566
786.73	48.673
787.04	65.094
787.34	72.321
787.65	71.000
787.96	54.054
788.26	61.157
788.57	52.542
788.88	73.554
789.19	61.111
789.49	67.424
789.80	64.122
790.11	71.429
790.41	59.406
790.72	75.904
791.03	64.130
791.33	61.628
791.64	74.227
791.95	69.307
792.25	81.111
792.56	84.416
792.87	84.615
793.17	77.215
793.48	75.862
793.79	78.161
794.09	73.864
794.40	63.866
794.70	61.029
795.01	51.852
795.32	54.676
795.62	47.244
795.93	60.345
796.23	63.717
796.54	70.588
796.85	75.676
797.15	92.958
797.46	83.333
797.76	83.133
798.07	81.013
798.37	76.923
798.68	77.273
798.99	60.563
799.29	68.831
799.60	62.500
799.90	93.151
800.21	82.090
800.51	96.552
800.82	110.526
801.12	77.049
801.43	90.909
801.73	71.622
802.04	96.825
802.34	76.543
802.65	101.563
802.95	101.695
803.26	101.563
803.56	71.429
803.87	87.692
804.17	80.882
804.48	111.111
804.78	82.759
805.09	92.647
805.39	82.692
805.70	101.786
806.00	95.082
806.30	93.939
806.61	71.951
806.91	68.354
807.22	78.947
807.52	74.627
807.83	90.141
808.13	90.625
808.43	71.667
808.74	80.263
809.04	84.058
809.35	104.478
809.65	84.211
809.95	117.742
810.26	88.136
810.56	77.778
810.86	129.545
811.17	121.429
811.47	101.667
811.77	83.333
812.08	109.091
812.38	102.000
812.69	125.000
812.99	145.455
813.29	102.041
813.59	97.619
813.90	132.653
814.20	76.364
814.50	80.000
814.81	102.941
815.11	114.286
815.41	83.607
815.72	142.857
816.02	98.182
816.32	126.190
816.62	115.000
816.93	141.463
817.23	126.190
817.53	115.909
817.84	151.515
818.14	123.913
818.44	100.000
818.74	120.588
819.04	120.000
819.35	137.143
819.65	161.765
819.95	160.714
820.25	185.000
820.56	135.897
820.86	109.091
821.16	111.628
821.46	105.128
821.76	118.000
822.07	148.571
822.37	147.500
822.67	136.364
822.97	107.843
823.27	142.857
823.57	124.324
823.88	122.500
824.18	180.000
824.48	130.952
824.78	164.000
825.08	187.500
825.38	116.216
825.69	102.439
825.99	137.500
826.29	127.586
826.59	136.842
826.89	139.474
827.19	126.471
827.49	174.194
827.79	125.000
828.09	120.455
828.39	106.383
828.70	100.000
829.00	125.926
829.30	145.161
829.60	107.500
829.90	253.333
830.20	175.000
830.50	134.783
830.80	186.957
831.10	183.333
831.40	163.333
831.70	152.174
832.00	211.538
832.30	174.074
832.60	268.750
832.90	170.000
833.20	328.571
833.50	135.484
833.80	165.517
834.10	181.250
834.40	173.077
834.70	238.889
835.00	276.190
835.30	120.000
835.60	276.923
835.90	144.828
836.20	292.857
836.50	162.069
836.80	148.000
837.10	161.111
837.40	233.333
837.70	211.765
838.00	162.963
838.30	200.000
838.60	233.333
838.90	192.308
839.19	210.000
839.49	307.143
839.79	285.000
840.09	215.000
840.39	247.619
840.69	252.174
840.99	255.556
841.29	340.000
841.59	275.000
841.88	268.750
842.18	158.621
842.48	223.810
842.78	183.333
843.08	221.739
843.38	140.625
843.68	733.333
843.97	223.077
844.27	172.414
844.57	228.571
844.87	306.250
845.17	174.074
845.47	1433.333
845.76	355.556
846.06	223.529
846.36	450.000
846.66	350.000
846.96	250.000
847.25	354.545
847.55	345.455
847.85	195.652
848.15	390.000
848.44	314.286
848.74	172.222
849.04	276.471
849.34	420.000
849.63	163.158
849.93	418.182
850.23	980.000
850.53	328.571
850.82	1550.000
851.12	-3400.000
851.42	4100.000
851.71	225.000
852.01	-866.667
852.31	175.000
852.61	1400.000
852.90	214.286
853.20	172.000
853.50	258.824
853.79	223.810
854.09	154.167
854.39	256.250
854.68	135.135
854.98	154.839
855.28	110.000
855.57	175.862
855.87	177.778
856.17	200.000
856.46	133.333
856.76	229.412
857.05	179.310
857.35	162.500
857.65	300.000
857.94	165.217
858.24	188.462
858.53	210.000
858.83	168.182
859.13	246.667
859.42	0.000
859.72	433.333
860.01	309.091
860.31	218.182
860.60	278.947
860.90	147.826
861.20	300.000
861.49	450.000
861.79	-3200.000
862.08	587.500
862.38	242.857
862.67	253.846
862.97	276.471
863.26	400.000
863.56	216.667
863.85	291.667
864.15	512.500
864.44	280.000
864.74	666.667
865.03	487.500
865.33	226.316
865.62	318.182
865.92	323.077
866.21	283.333
866.51	0.000
866.80	281.818
867.10	720.000
867.39	369.231
867.69	327.273
867.98	205.263
868.27	390.909
868.57	242.105
868.86	-2900.000
869.16	300.000
869.45	1600.000
869.75	-3100.000
870.04	358.333
870.33	585.714
870.63	800.000
870.92	1650.000
871.22	557.143
871.51	211.765
871.80	219.048
872.10	364.286
>>>>>End Processed Spectral Data<<<<<
