SpectraSuite Data File
++++++++++++++++++++++++++++++++++++
Date: Wed May 13 16:44:49 PDT 2015
User: schluterlab
Dark Spectrum Present: Yes
Reference Spectrum Present: Yes
Number of Sampled Component Spectra: 1
Spectrometers: USB2E3373
Integration Time (usec): 3000 (USB2E3373)
Spectra Averaged: 3 (USB2E3373)
Boxcar Smoothing: 0 (USB2E3373)
Correct for Electrical Dark: No (USB2E3373)
Strobe/Lamp Enabled: No (USB2E3373)
Correct for Detector Non-linearity: No (USB2E3373)
Correct for Stray Light: No (USB2E3373)
Number of Pixels in Processed Spectrum: 2048
>>>>>Begin Processed Spectral Data<<<<<
178.53	0.000
178.91	-1175.000
179.29	-1425.000
179.67	-227.778
180.04	-1350.000
180.42	2700.000
180.80	1100.000
181.18	-1000.000
181.56	700.000
181.94	0.000
182.31	-471.429
182.69	1733.333
183.07	-487.500
183.45	-488.889
183.83	500.000
184.20	-410.000
184.58	1800.000
184.96	5400.000
185.34	-720.000
185.72	-500.000
186.09	-2300.000
186.47	2500.000
186.85	2500.000
187.23	4600.000
187.61	-1700.000
187.98	1375.000
188.36	500.000
188.74	481.818
189.12	-920.000
189.49	440.000
189.87	-5100.000
190.25	-1250.000
190.63	414.286
191.00	415.385
191.38	866.667
191.76	-1225.000
192.14	1350.000
192.51	562.500
192.89	1066.667
193.27	675.000
193.65	-1225.000
194.02	550.000
194.40	840.000
194.78	570.000
195.15	525.000
195.53	550.000
195.91	-2400.000
196.29	362.500
196.66	289.474
197.04	-340.000
197.42	0.000
197.79	570.000
198.17	-5000.000
198.55	557.143
198.92	537.500
199.30	880.000
199.68	0.000
200.05	377.778
200.43	771.429
200.81	4300.000
201.18	1500.000
201.56	-1566.667
201.94	611.111
202.31	600.000
202.69	400.000
203.07	670.000
203.44	0.000
203.82	1275.000
204.19	771.429
204.57	407.143
204.95	687.500
205.32	1633.333
205.70	563.636
206.08	378.571
206.45	2350.000
206.83	381.250
207.20	900.000
207.58	800.000
207.96	338.889
208.33	687.500
208.71	-883.333
209.08	871.429
209.46	577.778
209.84	445.455
210.21	-2033.333
210.59	1450.000
210.96	-412.500
211.34	2500.000
211.71	590.000
212.09	816.667
212.46	0.000
212.84	1866.667
213.22	1375.000
213.59	-3900.000
213.97	1000.000
214.34	714.286
214.72	581.818
215.09	980.000
215.47	-2500.000
215.84	-2400.000
216.22	1733.333
216.59	421.429
216.97	1475.000
217.34	436.364
217.72	-716.667
218.09	0.000
218.47	-4900.000
218.84	611.111
219.22	728.571
219.59	1766.667
219.97	-585.714
220.34	960.000
220.72	-1433.333
221.09	400.000
221.47	1500.000
221.84	-916.667
222.22	0.000
222.59	1475.000
222.97	-2650.000
223.34	1140.000
223.72	500.000
224.09	980.000
224.46	2400.000
224.84	-5500.000
225.21	-980.000
225.59	-4100.000
225.96	540.000
226.34	280.000
226.71	2700.000
227.08	575.000
227.46	540.000
227.83	-1025.000
228.21	-2450.000
228.58	711.111
228.95	-1900.000
229.33	-2500.000
229.70	1900.000
230.08	828.571
230.45	-940.000
230.82	391.667
231.20	850.000
231.57	657.143
231.95	500.000
232.32	250.000
232.69	427.273
233.07	671.429
233.44	330.769
233.81	-1500.000
234.19	278.947
234.56	400.000
234.93	391.667
235.31	418.182
235.68	323.077
236.05	392.857
236.43	178.788
236.80	321.053
237.17	4100.000
237.55	219.048
237.92	207.143
238.29	285.714
238.67	190.323
239.04	220.690
239.41	177.778
239.79	97.826
240.16	138.095
240.53	122.727
240.91	119.608
241.28	98.000
241.65	122.000
242.02	98.551
242.40	85.484
242.77	103.333
243.14	80.645
243.51	82.022
243.89	76.471
244.26	78.889
244.63	66.667
245.00	63.830
245.38	66.337
245.75	64.486
246.12	66.055
246.49	75.912
246.87	70.400
247.24	63.846
247.61	58.571
247.98	59.477
248.36	58.108
248.73	55.414
249.10	57.325
249.47	53.672
249.84	51.872
250.22	49.198
250.59	51.479
250.96	52.525
251.33	51.185
251.70	48.515
252.08	47.143
252.45	43.946
252.82	40.435
253.19	45.957
253.56	41.961
253.94	43.983
254.31	34.766
254.68	45.385
255.05	38.745
255.42	42.683
255.79	38.603
256.16	37.545
256.54	36.396
256.91	38.790
257.28	36.331
257.65	39.604
258.02	37.267
258.39	35.331
258.76	38.462
259.14	37.202
259.51	36.474
259.88	33.851
260.25	37.160
260.62	35.838
260.99	34.472
261.36	34.234
261.73	36.103
262.10	31.977
262.47	38.310
262.85	33.148
263.22	29.915
263.59	34.758
263.96	32.692
264.33	31.854
264.70	35.263
265.07	36.573
265.44	34.848
265.81	32.360
266.18	32.412
266.55	32.683
266.92	33.907
267.29	33.102
267.66	30.505
268.03	30.000
268.40	29.439
268.77	29.833
269.14	31.306
269.51	32.054
269.88	30.769
270.25	30.474
270.62	30.562
270.99	31.398
271.36	32.618
271.73	27.804
272.10	32.826
272.47	30.538
272.84	32.035
273.21	31.027
273.58	28.384
273.95	28.931
274.32	28.719
274.69	29.979
275.06	28.740
275.43	27.660
275.80	27.856
276.17	31.365
276.54	29.730
276.91	28.261
277.28	26.367
277.65	31.141
278.02	27.329
278.39	30.078
278.76	28.545
279.13	28.302
279.50	27.747
279.87	28.287
280.23	29.541
280.60	28.240
280.97	28.651
281.34	29.204
281.71	30.000
282.08	29.367
282.45	26.364
282.82	28.064
283.19	22.995
283.56	28.772
283.92	26.565
284.29	26.455
284.66	26.679
285.03	26.944
285.40	28.345
285.77	28.114
286.14	25.561
286.51	28.500
286.87	26.154
287.24	26.547
287.61	27.287
287.98	26.461
288.35	24.564
288.72	24.299
289.08	25.822
289.45	25.206
289.82	25.528
290.19	25.118
290.56	25.881
290.93	24.471
291.29	25.307
291.66	24.779
292.03	26.017
292.40	25.551
292.77	23.669
293.13	23.881
293.50	26.239
293.87	23.704
294.24	25.185
294.60	22.707
294.97	22.674
295.34	25.106
295.71	22.301
296.08	23.219
296.44	22.558
296.81	21.929
297.18	23.171
297.55	20.185
297.91	23.483
298.28	23.963
298.65	21.932
299.02	23.320
299.38	23.240
299.75	22.372
300.12	23.116
300.48	23.375
300.85	22.441
301.22	22.548
301.59	21.086
301.95	22.418
302.32	21.053
302.69	21.505
303.05	22.182
303.42	22.099
303.79	22.197
304.15	22.611
304.52	22.016
304.89	21.254
305.25	22.042
305.62	22.424
305.99	22.904
306.35	20.694
306.72	22.309
307.09	21.754
307.45	23.086
307.82	20.982
308.19	23.289
308.55	23.301
308.92	23.631
309.29	21.542
309.65	23.330
310.02	22.304
310.38	21.935
310.75	22.281
311.12	23.030
311.48	22.675
311.85	24.109
312.22	22.477
312.58	22.869
312.95	24.182
313.31	21.068
313.68	22.869
314.05	25.148
314.41	22.714
314.78	23.162
315.14	22.741
315.51	23.378
315.87	23.861
316.24	23.039
316.61	23.684
316.97	22.211
317.34	22.994
317.70	23.901
318.07	23.099
318.43	23.679
318.80	24.367
319.16	23.352
319.53	22.420
319.89	24.190
320.26	24.500
320.62	24.504
320.99	23.838
321.35	24.141
321.72	23.306
322.08	25.370
322.45	26.667
322.81	26.357
323.18	26.686
323.54	25.510
323.91	27.453
324.27	25.335
324.64	25.629
325.00	24.707
325.37	26.843
325.73	27.199
326.10	27.096
326.46	26.344
326.83	27.869
327.19	27.583
327.56	27.003
327.92	27.997
328.29	27.862
328.65	28.729
329.01	27.798
329.38	28.862
329.74	28.809
330.11	28.746
330.47	27.824
330.84	29.228
331.20	28.324
331.56	28.624
331.93	28.981
332.29	27.950
332.66	29.027
333.02	28.336
333.38	28.455
333.75	29.768
334.11	28.470
334.48	28.660
334.84	28.493
335.20	29.091
335.57	27.743
335.93	27.589
336.29	28.480
336.66	28.314
337.02	27.602
337.38	29.907
337.75	27.986
338.11	28.917
338.47	28.361
338.84	28.873
339.20	27.890
339.56	28.832
339.93	28.727
340.29	28.261
340.65	27.451
341.02	29.581
341.38	29.537
341.74	27.632
342.11	29.694
342.47	28.546
342.83	27.568
343.20	28.052
343.56	28.222
343.92	27.895
344.28	28.316
344.65	28.805
345.01	28.199
345.37	27.187
345.73	28.426
346.10	28.730
346.46	29.661
346.82	28.336
347.19	27.736
347.55	27.504
347.91	28.964
348.27	28.102
348.63	28.930
349.00	27.184
349.36	27.750
349.72	27.666
350.08	27.229
350.45	28.316
350.81	28.026
351.17	28.363
351.53	28.256
351.89	27.310
352.26	28.256
352.62	29.591
352.98	27.958
353.34	28.595
353.70	27.823
354.07	28.306
354.43	27.460
354.79	27.836
355.15	28.970
355.51	28.857
355.87	27.837
356.24	28.420
356.60	29.591
356.96	28.721
357.32	29.109
357.68	28.740
358.04	28.583
358.40	29.137
358.77	28.482
359.13	28.098
359.49	27.843
359.85	27.460
360.21	28.070
360.57	28.482
360.93	28.769
361.29	27.513
361.66	28.096
362.02	28.881
362.38	29.430
362.74	27.902
363.10	27.831
363.46	27.513
363.82	28.118
364.18	29.148
364.54	28.455
364.90	28.470
365.26	28.088
365.62	28.926
365.98	28.926
366.35	27.937
366.71	30.152
367.07	28.405
367.43	29.898
367.79	28.694
368.15	29.813
368.51	29.142
368.87	30.121
369.23	29.407
369.59	29.689
369.95	29.485
370.31	29.416
370.67	29.348
371.03	29.588
371.39	29.956
371.75	29.853
372.11	29.374
372.47	29.839
372.83	30.403
373.19	29.697
373.55	31.042
373.91	31.149
374.27	30.103
374.63	30.909
374.99	31.921
375.35	30.077
375.71	30.706
376.07	31.207
376.42	30.949
376.78	31.412
377.14	30.936
377.50	31.854
377.86	29.721
378.22	31.416
378.58	31.015
378.94	30.798
379.30	30.280
379.66	32.297
380.02	32.371
380.38	31.269
380.74	31.393
381.09	32.029
381.45	32.329
381.81	31.572
382.17	32.420
382.53	32.201
382.89	32.963
383.25	32.708
383.61	33.643
383.97	32.395
384.32	33.375
384.68	31.846
385.04	33.682
385.40	33.808
385.76	32.862
386.12	33.290
386.48	33.480
386.83	34.253
387.19	34.508
387.55	34.694
387.91	34.522
388.27	32.925
388.62	33.620
388.98	34.275
389.34	34.856
389.70	34.519
390.06	34.664
390.42	34.565
390.77	34.733
391.13	35.290
391.49	35.533
391.85	37.174
392.20	34.890
392.56	34.785
392.92	34.903
393.28	34.379
393.64	35.432
393.99	36.225
394.35	35.484
394.71	35.006
395.07	35.202
395.42	35.290
395.78	35.814
396.14	35.258
396.50	36.466
396.85	36.109
397.21	35.697
397.57	35.896
397.92	35.998
398.28	34.697
398.64	35.962
399.00	36.150
399.35	35.815
399.71	36.169
400.07	36.842
400.42	36.933
400.78	36.610
401.14	36.890
401.49	36.955
401.85	37.205
402.21	36.407
402.57	38.001
402.92	36.696
403.28	37.726
403.63	37.438
403.99	36.688
404.35	37.030
404.70	36.151
405.06	36.867
405.42	36.993
405.77	37.200
406.13	36.569
406.49	36.960
406.84	37.507
407.20	37.707
407.55	36.758
407.91	38.533
408.27	37.971
408.62	37.508
408.98	37.561
409.34	37.146
409.69	37.613
410.05	37.918
410.40	39.083
410.76	37.993
411.11	37.214
411.47	36.294
411.83	38.241
412.18	36.611
412.54	37.733
412.89	37.651
413.25	37.603
413.60	37.554
413.96	36.612
414.31	36.877
414.67	38.213
415.03	37.947
415.38	38.209
415.74	38.778
416.09	39.386
416.45	38.153
416.80	38.995
417.16	38.137
417.51	38.155
417.87	38.150
418.22	38.738
418.58	38.993
418.93	37.961
419.29	38.892
419.64	38.539
420.00	38.354
420.35	37.739
420.71	38.434
421.06	39.320
421.42	37.368
421.77	38.341
422.12	37.788
422.48	37.021
422.83	39.022
423.19	36.851
423.54	39.176
423.90	37.739
424.25	38.582
424.61	38.333
424.96	39.592
425.31	38.261
425.67	37.528
426.02	38.000
426.38	38.950
426.73	37.390
427.09	38.541
427.44	38.758
427.79	38.528
428.15	39.762
428.50	38.034
428.85	38.975
429.21	37.824
429.56	38.362
429.92	37.896
430.27	37.587
430.62	36.764
430.98	37.675
431.33	37.629
431.68	38.639
432.04	37.380
432.39	38.492
432.74	38.001
433.10	39.219
433.45	38.776
433.80	37.916
434.16	38.034
434.51	37.526
434.86	38.312
435.22	37.410
435.57	38.906
435.92	38.561
436.28	38.553
436.63	38.024
436.98	38.924
437.34	38.939
437.69	38.506
438.04	38.168
438.39	38.866
438.75	38.815
439.10	38.715
439.45	37.603
439.81	38.308
440.16	37.606
440.51	38.020
440.86	38.448
441.22	37.152
441.57	38.588
441.92	38.127
442.27	38.052
442.63	38.125
442.98	39.155
443.33	37.935
443.68	38.152
444.03	38.409
444.39	37.634
444.74	39.015
445.09	38.491
445.44	36.960
445.79	37.605
446.15	38.380
446.50	38.611
446.85	37.564
447.20	37.787
447.55	39.084
447.91	37.783
448.26	38.397
448.61	39.005
448.96	38.261
449.31	38.751
449.66	39.280
450.02	38.162
450.37	37.925
450.72	38.973
451.07	38.513
451.42	37.994
451.77	37.992
452.12	38.337
452.47	37.749
452.83	38.578
453.18	39.303
453.53	39.208
453.88	38.157
454.23	38.613
454.58	39.733
454.93	40.432
455.28	38.903
455.63	39.320
455.98	39.524
456.34	38.065
456.69	38.259
457.04	38.328
457.39	38.223
457.74	38.363
458.09	38.068
458.44	37.913
458.79	37.093
459.14	37.867
459.49	38.354
459.84	38.227
460.19	36.830
460.54	38.252
460.89	38.727
461.24	38.251
461.59	38.582
461.94	38.656
462.29	38.991
462.64	39.375
462.99	37.671
463.34	39.333
463.69	38.712
464.04	38.609
464.39	38.087
464.74	38.384
465.09	38.540
465.44	37.895
465.79	37.360
466.14	37.603
466.49	38.265
466.84	38.237
467.19	37.477
467.54	38.625
467.89	37.455
468.24	37.580
468.59	39.316
468.94	38.546
469.29	38.625
469.64	39.424
469.99	38.836
470.34	37.847
470.68	39.009
471.03	39.048
471.38	39.750
471.73	38.508
472.08	38.553
472.43	38.819
472.78	38.381
473.13	38.190
473.48	37.953
473.83	37.683
474.17	38.332
474.52	39.082
474.87	39.813
475.22	37.667
475.57	37.775
475.92	37.228
476.27	37.993
476.61	37.617
476.96	37.493
477.31	37.467
477.66	38.348
478.01	36.905
478.36	38.234
478.70	38.266
479.05	37.487
479.40	37.666
479.75	37.417
480.10	37.127
480.45	36.030
480.79	36.742
481.14	37.329
481.49	36.925
481.84	37.083
482.19	37.029
482.53	36.330
482.88	37.040
483.23	38.224
483.58	37.352
483.92	36.645
484.27	35.773
484.62	36.638
484.97	36.106
485.31	37.568
485.66	36.431
486.01	33.659
486.36	33.049
486.70	32.742
487.05	33.469
487.40	34.806
487.75	35.378
488.09	35.881
488.44	36.658
488.79	36.962
489.13	37.166
489.48	37.724
489.83	36.729
490.17	36.475
490.52	37.157
490.87	37.178
491.22	37.699
491.56	36.219
491.91	36.529
492.26	36.334
492.60	36.498
492.95	36.997
493.30	36.168
493.64	36.678
493.99	36.397
494.34	36.957
494.68	36.859
495.03	37.735
495.37	36.389
495.72	37.524
496.07	37.773
496.41	35.442
496.76	36.763
497.11	36.110
497.45	36.935
497.80	36.420
498.14	36.087
498.49	37.024
498.84	37.632
499.18	36.762
499.53	37.607
499.87	36.207
500.22	36.929
500.56	36.990
500.91	36.683
501.26	36.036
501.60	38.159
501.95	35.930
502.29	36.739
502.64	36.592
502.98	36.653
503.33	36.380
503.67	37.401
504.02	36.904
504.36	35.517
504.71	36.981
505.06	36.482
505.40	37.287
505.75	36.885
506.09	36.054
506.44	36.951
506.78	36.240
507.13	37.557
507.47	37.424
507.82	37.386
508.16	36.981
508.51	37.900
508.85	37.041
509.19	37.194
509.54	37.449
509.88	37.146
510.23	37.481
510.57	37.564
510.92	36.820
511.26	37.924
511.61	37.967
511.95	36.952
512.30	36.426
512.64	37.399
512.98	38.103
513.33	37.473
513.67	37.033
514.02	36.634
514.36	38.613
514.70	38.129
515.05	37.256
515.39	37.858
515.74	37.387
516.08	37.563
516.42	39.012
516.77	38.350
517.11	37.736
517.46	39.108
517.80	38.328
518.14	36.885
518.49	39.323
518.83	37.159
519.17	37.356
519.52	37.691
519.86	38.562
520.20	39.711
520.55	38.300
520.89	40.085
521.23	39.144
521.58	37.875
521.92	38.457
522.26	37.828
522.61	38.629
522.95	39.349
523.29	38.953
523.64	38.780
523.98	38.262
524.32	37.817
524.66	38.605
525.01	38.419
525.35	38.971
525.69	38.362
526.04	38.006
526.38	38.743
526.72	38.650
527.06	39.925
527.41	37.624
527.75	38.392
528.09	39.435
528.43	39.197
528.78	39.336
529.12	38.121
529.46	39.437
529.80	38.923
530.15	39.439
530.49	37.477
530.83	39.304
531.17	40.078
531.51	39.624
531.86	40.258
532.20	39.048
532.54	40.038
532.88	38.768
533.22	37.851
533.57	39.136
533.91	38.290
534.25	38.275
534.59	38.682
534.93	37.359
535.27	38.745
535.62	38.034
535.96	39.360
536.30	38.589
536.64	39.343
536.98	38.752
537.32	38.446
537.66	39.067
538.01	39.434
538.35	38.849
538.69	40.396
539.03	37.947
539.37	38.211
539.71	37.330
540.05	38.758
540.39	38.206
540.73	37.646
541.07	39.455
541.42	39.335
541.76	39.806
542.10	38.292
542.44	38.675
542.78	38.735
543.12	37.940
543.46	37.836
543.80	39.493
544.14	37.869
544.48	39.048
544.82	38.294
545.16	38.061
545.50	37.918
545.84	38.239
546.18	38.451
546.52	39.849
546.86	39.519
547.20	39.110
547.54	38.744
547.88	39.286
548.22	37.733
548.56	38.176
548.90	37.516
549.24	38.653
549.58	38.813
549.92	40.247
550.26	39.631
550.60	39.972
550.94	40.282
551.28	39.210
551.62	38.749
551.96	39.298
552.30	39.522
552.64	38.269
552.98	38.712
553.32	38.301
553.66	38.991
554.00	39.259
554.34	38.647
554.68	40.129
555.02	38.787
555.36	38.205
555.69	38.701
556.03	38.560
556.37	38.199
556.71	39.700
557.05	38.796
557.39	38.768
557.73	38.814
558.07	39.884
558.41	38.784
558.75	39.162
559.08	38.926
559.42	39.758
559.76	39.559
560.10	38.829
560.44	38.435
560.78	37.924
561.12	37.929
561.45	39.309
561.79	38.233
562.13	38.766
562.47	38.934
562.81	39.819
563.15	39.465
563.48	38.992
563.82	39.008
564.16	37.606
564.50	38.477
564.84	38.180
565.17	38.288
565.51	38.530
565.85	38.388
566.19	37.946
566.52	38.695
566.86	37.734
567.20	38.561
567.54	37.957
567.88	38.077
568.21	38.042
568.55	36.805
568.89	36.041
569.23	36.141
569.56	35.951
569.90	35.698
570.24	35.486
570.57	34.920
570.91	34.486
571.25	35.022
571.59	34.021
571.92	33.756
572.26	34.604
572.60	34.955
572.93	34.273
573.27	34.694
573.61	34.534
573.95	34.238
574.28	34.196
574.62	33.601
574.96	33.548
575.29	33.438
575.63	33.587
575.97	33.793
576.30	33.882
576.64	34.294
576.98	33.690
577.31	33.849
577.65	33.377
577.98	33.554
578.32	32.546
578.66	33.103
578.99	33.531
579.33	34.060
579.67	33.641
580.00	33.781
580.34	33.982
580.67	34.200
581.01	33.798
581.35	33.770
581.68	33.383
582.02	32.849
582.35	32.911
582.69	33.314
583.02	33.417
583.36	34.171
583.70	34.466
584.03	34.639
584.37	35.072
584.70	35.031
585.04	34.002
585.37	33.691
585.71	34.211
586.04	34.163
586.38	34.535
586.72	33.941
587.05	34.094
587.39	33.931
587.72	34.373
588.06	34.685
588.39	34.156
588.73	34.204
589.06	35.432
589.40	35.758
589.73	35.234
590.07	35.623
590.40	34.965
590.73	35.753
591.07	36.589
591.40	36.272
591.74	36.017
592.07	36.038
592.41	36.585
592.74	34.944
593.08	34.111
593.41	34.103
593.75	33.604
594.08	34.194
594.41	34.924
594.75	34.935
595.08	35.290
595.42	34.956
595.75	35.328
596.09	35.073
596.42	36.464
596.75	36.344
597.09	36.537
597.42	35.793
597.75	35.791
598.09	35.522
598.42	35.438
598.76	35.022
599.09	33.903
599.42	34.134
599.76	34.883
600.09	34.900
600.42	33.893
600.76	34.393
601.09	34.426
601.42	35.198
601.76	35.028
602.09	35.534
602.42	35.311
602.76	36.074
603.09	35.602
603.42	36.119
603.76	34.261
604.09	34.432
604.42	35.181
604.76	35.892
605.09	35.081
605.42	35.271
605.75	35.762
606.09	35.543
606.42	34.859
606.75	35.131
607.09	35.454
607.42	35.601
607.75	35.190
608.08	34.737
608.42	35.410
608.75	34.761
609.08	35.985
609.41	35.745
609.75	36.160
610.08	36.475
610.41	35.661
610.74	36.518
611.07	37.006
611.41	36.654
611.74	36.450
612.07	36.801
612.40	38.090
612.73	36.737
613.07	37.392
613.40	36.914
613.73	35.553
614.06	36.667
614.39	36.497
614.72	35.842
615.06	36.397
615.39	36.783
615.72	36.196
616.05	35.673
616.38	36.965
616.71	37.708
617.05	37.220
617.38	36.560
617.71	37.538
618.04	37.921
618.37	36.665
618.70	38.332
619.03	38.355
619.36	39.511
619.69	38.803
620.03	39.698
620.36	38.904
620.69	38.836
621.02	38.717
621.35	38.371
621.68	38.785
622.01	38.545
622.34	37.670
622.67	38.783
623.00	37.564
623.33	38.099
623.66	38.027
623.99	38.586
624.32	36.448
624.65	37.994
624.99	37.252
625.32	38.523
625.65	38.843
625.98	39.201
626.31	39.269
626.64	39.510
626.97	40.316
627.30	38.570
627.63	40.279
627.96	40.286
628.29	40.945
628.62	39.707
628.95	42.547
629.28	40.602
629.61	41.063
629.94	40.190
630.26	40.610
630.59	40.896
630.92	38.793
631.25	40.770
631.58	40.841
631.91	40.771
632.24	40.295
632.57	41.868
632.90	42.325
633.23	40.604
633.56	43.503
633.89	42.695
634.22	42.565
634.55	43.787
634.88	42.275
635.20	43.608
635.53	42.289
635.86	42.822
636.19	41.765
636.52	42.330
636.85	41.695
637.18	41.820
637.51	44.090
637.83	40.444
638.16	44.757
638.49	42.821
638.82	43.363
639.15	42.375
639.48	43.142
639.81	43.834
640.13	42.839
640.46	44.564
640.79	43.197
641.12	41.128
641.45	44.134
641.77	45.066
642.10	44.737
642.43	45.646
642.76	46.440
643.09	42.791
643.41	44.765
643.74	46.605
644.07	43.445
644.40	47.546
644.73	43.622
645.05	45.642
645.38	45.814
645.71	44.605
646.04	45.349
646.36	47.913
646.69	44.649
647.02	45.918
647.35	46.220
647.67	45.664
648.00	44.715
648.33	45.050
648.66	43.788
648.98	45.427
649.31	44.694
649.64	42.302
649.96	44.113
650.29	45.340
650.62	44.337
650.94	45.867
651.27	46.115
651.60	46.090
651.92	45.367
652.25	44.625
652.58	44.393
652.90	45.972
653.23	43.914
653.56	43.937
653.88	45.166
654.21	45.972
654.54	43.399
654.86	44.081
655.19	42.568
655.52	31.381
655.84	27.427
656.17	35.017
656.49	47.857
656.82	49.635
657.15	38.195
657.47	28.768
657.80	22.411
658.13	23.863
658.45	36.037
658.78	37.009
659.10	38.372
659.43	40.742
659.75	42.698
660.08	44.873
660.41	48.790
660.73	49.174
661.06	48.726
661.38	49.273
661.71	47.500
662.03	48.915
662.36	44.732
662.68	49.197
663.01	48.283
663.33	46.709
663.66	48.529
663.98	49.244
664.31	46.849
664.63	45.749
664.96	47.686
665.28	47.336
665.61	46.199
665.93	48.089
666.26	48.682
666.58	50.000
666.91	50.529
667.23	48.989
667.56	45.572
667.88	48.718
668.21	51.173
668.53	47.289
668.86	46.104
669.18	49.680
669.50	47.174
669.83	47.059
670.15	49.111
670.48	48.148
670.80	47.198
671.13	48.408
671.45	47.234
671.77	48.676
672.10	45.471
672.42	46.643
672.75	42.289
673.07	44.894
673.39	46.474
673.72	45.508
674.04	48.039
674.37	47.184
674.69	46.217
675.01	48.745
675.34	48.255
675.66	50.105
675.98	49.695
676.31	46.218
676.63	50.955
676.95	46.751
677.28	49.065
677.60	46.593
677.92	51.055
678.25	46.612
678.57	46.414
678.89	45.892
679.22	43.811
679.54	46.756
679.86	45.321
680.18	42.934
680.51	46.809
680.83	45.196
681.15	45.094
681.48	46.881
681.80	44.874
682.12	44.636
682.44	44.681
682.77	48.676
683.09	48.927
683.41	50.111
683.73	47.020
684.06	44.835
684.38	45.401
684.70	44.574
685.02	45.028
685.34	46.154
685.67	44.930
685.99	42.612
686.31	44.198
686.63	41.519
686.96	43.036
687.28	44.043
687.60	41.848
687.92	45.521
688.24	46.768
688.56	45.382
688.89	48.340
689.21	49.563
689.53	46.138
689.85	47.450
690.17	47.205
690.49	48.620
690.82	46.028
691.14	45.536
691.46	41.139
691.78	46.386
692.10	47.314
692.42	43.713
692.74	44.191
693.06	45.745
693.39	46.817
693.71	47.162
694.03	45.684
694.35	44.156
694.67	45.080
694.99	53.171
695.31	44.853
695.63	45.215
695.95	47.922
696.27	44.416
696.59	46.632
696.91	46.891
697.23	42.958
697.56	44.350
697.88	42.945
698.20	45.625
698.52	43.656
698.84	45.434
699.16	44.470
699.48	46.793
699.80	47.101
700.12	51.169
700.44	50.133
700.76	49.448
701.08	51.149
701.40	50.000
701.72	50.146
702.04	51.136
702.36	49.008
702.68	52.975
703.00	48.199
703.32	48.936
703.64	48.525
703.96	51.532
704.28	50.872
704.60	51.026
704.91	49.852
705.23	49.560
705.55	55.814
705.87	54.817
706.19	54.770
706.51	49.221
706.83	53.939
707.15	47.619
707.47	46.465
707.79	49.140
708.11	49.087
708.43	44.048
708.74	44.643
709.06	50.649
709.38	49.344
709.70	49.709
710.02	49.555
710.34	48.485
710.66	52.537
710.98	51.705
711.29	48.256
711.61	51.917
711.93	50.962
712.25	56.270
712.57	58.088
712.89	51.211
713.20	48.024
713.52	51.316
713.84	51.899
714.16	45.122
714.48	46.839
714.80	53.495
715.11	44.957
715.43	51.632
715.75	48.116
716.07	49.840
716.39	51.097
716.70	47.841
717.02	51.079
717.34	48.763
717.66	56.343
717.97	56.175
718.29	50.000
718.61	54.015
718.93	52.206
719.24	51.903
719.56	49.492
719.88	49.831
720.20	54.392
720.51	51.568
720.83	57.621
721.15	53.731
721.46	48.582
721.78	53.405
722.10	55.849
722.42	51.504
722.73	56.180
723.05	56.557
723.37	54.251
723.68	52.896
724.00	53.659
724.32	56.855
724.63	55.285
724.95	51.464
725.27	55.870
725.58	53.516
725.90	54.745
726.22	48.679
726.53	48.264
726.85	54.949
727.16	51.957
727.48	49.645
727.80	54.924
728.11	48.913
728.43	52.692
728.74	48.387
729.06	55.109
729.38	52.574
729.69	53.025
730.01	44.369
730.32	52.083
730.64	47.826
730.96	47.195
731.27	52.980
731.59	48.624
731.90	49.563
732.22	46.584
732.53	43.034
732.85	45.833
733.16	51.768
733.48	50.166
733.80	45.779
734.11	50.637
734.43	45.562
734.74	44.857
735.06	42.980
735.37	49.711
735.69	48.408
736.00	52.288
736.32	49.221
736.63	47.923
736.95	48.882
737.26	44.898
737.58	44.194
737.89	48.495
738.21	54.949
738.52	49.643
738.83	48.679
739.15	51.538
739.46	50.365
739.78	52.431
740.09	44.923
740.41	51.613
740.72	50.871
741.04	51.481
741.35	56.667
741.66	60.000
741.98	55.660
742.29	60.287
742.61	53.879
742.92	54.751
743.23	50.855
743.55	53.600
743.86	53.509
744.18	58.850
744.49	60.287
744.80	53.521
745.12	64.545
745.43	50.220
745.74	61.712
746.06	54.128
746.37	53.812
746.68	54.299
747.00	60.648
747.31	57.143
747.62	51.770
747.94	55.066
748.25	54.468
748.56	52.423
748.88	53.960
749.19	56.000
749.50	55.814
749.82	52.846
750.13	48.163
750.44	46.350
750.75	54.737
751.07	49.839
751.38	48.780
751.69	46.570
752.01	52.256
752.32	49.819
752.63	53.901
752.94	51.639
753.26	57.200
753.57	47.561
753.88	52.734
754.19	46.071
754.51	52.083
754.82	45.487
755.13	48.302
755.44	46.992
755.75	52.555
756.07	46.809
756.38	45.620
756.69	44.631
757.00	42.814
757.31	44.807
757.63	42.690
757.94	39.678
758.25	41.912
758.56	41.975
758.87	40.591
759.18	43.939
759.50	45.455
759.81	43.614
760.12	41.250
760.43	43.266
760.74	41.033
761.05	45.763
761.36	40.107
761.67	44.318
761.99	43.168
762.30	53.819
762.61	51.145
762.92	49.219
763.23	53.361
763.54	50.800
763.85	49.609
764.16	50.385
764.47	51.331
764.78	40.989
765.10	38.924
765.41	42.183
765.72	44.611
766.03	46.395
766.34	45.667
766.65	55.745
766.96	47.009
767.27	60.406
767.58	59.375
767.89	56.842
768.20	59.770
768.51	53.299
768.82	53.211
769.13	49.593
769.44	48.988
769.75	49.785
770.06	51.376
770.37	50.679
770.68	49.074
770.99	47.111
771.30	47.951
771.61	54.709
771.92	52.459
772.23	56.303
772.54	52.821
772.85	56.021
773.16	63.830
773.47	58.152
773.78	51.269
774.09	54.762
774.39	57.310
774.70	56.790
775.01	66.667
775.32	63.399
775.63	60.526
775.94	65.468
776.25	74.016
776.56	70.149
776.87	64.754
777.18	65.625
777.48	73.282
777.79	64.394
778.10	67.407
778.41	69.643
778.72	64.234
779.03	63.087
779.34	64.430
779.65	58.108
779.95	60.123
780.26	63.399
780.57	67.586
780.88	74.219
781.19	67.669
781.50	58.784
781.80	60.377
782.11	55.932
782.42	56.329
782.73	51.534
783.04	60.811
783.34	65.493
783.65	72.603
783.96	70.896
784.27	59.441
784.57	56.115
784.88	71.296
785.19	68.254
785.50	71.698
785.81	66.418
786.11	75.410
786.42	72.868
786.73	65.487
787.04	80.189
787.34	75.000
787.65	72.000
787.96	78.378
788.26	69.421
788.57	67.797
788.88	66.116
789.19	66.667
789.49	68.182
789.80	69.466
790.11	87.619
790.41	81.188
790.72	73.494
791.03	85.870
791.33	93.023
791.64	80.412
791.95	77.228
792.25	81.111
792.56	96.104
792.87	102.564
793.17	101.266
793.48	82.759
793.79	85.057
794.09	85.227
794.40	66.387
794.70	69.853
795.01	56.296
795.32	65.468
795.62	63.780
795.93	66.379
796.23	73.451
796.54	80.000
796.85	82.432
797.15	112.676
797.46	95.455
797.76	91.566
798.07	91.139
798.37	95.385
798.68	93.939
798.99	76.056
799.29	89.610
799.60	82.955
799.90	100.000
800.21	101.493
800.51	110.345
800.82	124.561
801.12	111.475
801.43	113.636
801.73	79.730
802.04	98.413
802.34	93.827
802.65	103.125
802.95	118.644
803.26	107.813
803.56	78.571
803.87	90.769
804.17	100.000
804.48	100.000
804.78	91.379
805.09	108.824
805.39	111.538
805.70	121.429
806.00	113.115
806.30	98.485
806.61	96.341
806.91	82.278
807.22	77.632
807.52	80.597
807.83	102.817
808.13	118.750
808.43	118.333
808.74	92.105
809.04	97.101
809.35	91.045
809.65	94.737
809.95	116.129
810.26	122.034
810.56	111.111
810.86	129.545
811.17	157.143
811.47	126.667
811.77	105.556
812.08	112.727
812.38	134.000
812.69	169.444
812.99	161.364
813.29	128.571
813.59	95.238
813.90	134.694
814.20	107.273
814.50	92.308
814.81	101.471
815.11	130.612
815.41	114.754
815.72	152.381
816.02	130.909
816.32	142.857
816.62	150.000
816.93	109.756
817.23	161.905
817.53	143.182
817.84	172.727
818.14	152.174
818.44	133.333
818.74	205.882
819.04	130.000
819.35	154.286
819.65	202.941
819.95	192.857
820.25	250.000
820.56	153.846
820.86	131.818
821.16	153.488
821.46	153.846
821.76	150.000
822.07	168.571
822.37	150.000
822.67	166.667
822.97	113.725
823.27	217.857
823.57	167.568
823.88	192.500
824.18	180.000
824.48	145.238
824.78	216.000
825.08	208.333
825.38	162.162
825.69	134.146
825.99	245.833
826.29	165.517
826.59	152.632
826.89	150.000
827.19	170.588
827.49	212.903
827.79	147.727
828.09	152.273
828.39	114.894
828.70	134.694
829.00	144.444
829.30	164.516
829.60	127.500
829.90	340.000
830.20	210.714
830.50	247.826
830.80	239.130
831.10	226.667
831.40	223.333
831.70	243.478
832.00	230.769
832.30	200.000
832.60	325.000
832.90	200.000
833.20	335.714
833.50	193.548
833.80	186.207
834.10	209.375
834.40	234.615
834.70	338.889
835.00	323.810
835.30	154.286
835.60	361.538
835.90	179.310
836.20	342.857
836.50	162.069
836.80	208.000
837.10	180.556
837.40	266.667
837.70	317.647
838.00	203.704
838.30	257.143
838.60	290.476
838.90	211.538
839.19	260.000
839.49	378.571
839.79	350.000
840.09	265.000
840.39	261.905
840.69	273.913
840.99	322.222
841.29	520.000
841.59	416.667
841.88	312.500
842.18	182.759
842.48	280.952
842.78	176.667
843.08	252.174
843.38	193.750
843.68	966.667
843.97	223.077
844.27	193.103
844.57	304.762
844.87	318.750
845.17	200.000
845.47	1633.333
845.76	511.111
846.06	317.647
846.36	575.000
846.66	414.286
846.96	318.750
847.25	445.455
847.55	481.818
847.85	208.696
848.15	470.000
848.44	357.143
848.74	238.889
849.04	282.353
849.34	580.000
849.63	236.842
849.93	427.273
850.23	1020.000
850.53	357.143
850.82	2400.000
851.12	-4600.000
851.42	4300.000
851.71	235.000
852.01	-1166.667
852.31	225.000
852.61	1600.000
852.90	300.000
853.20	236.000
853.50	376.471
853.79	242.857
854.09	216.667
854.39	300.000
854.68	164.865
854.98	187.097
855.28	180.000
855.57	248.276
855.87	240.741
856.17	263.158
856.46	300.000
856.76	264.706
857.05	213.793
857.35	233.333
857.65	366.667
857.94	273.913
858.24	223.077
858.53	290.000
858.83	254.545
859.13	366.667
859.42	0.000
859.72	588.889
860.01	472.727
860.31	250.000
860.60	289.474
860.90	217.391
861.20	477.778
861.49	533.333
861.79	-4500.000
862.08	650.000
862.38	295.238
862.67	407.692
862.97	347.059
863.26	588.889
863.56	338.889
863.85	350.000
864.15	512.500
864.44	320.000
864.74	883.333
865.03	625.000
865.33	284.211
865.62	500.000
865.92	476.923
866.21	391.667
866.51	0.000
866.80	490.909
867.10	1020.000
867.39	407.692
867.69	463.636
867.98	305.263
868.27	518.182
868.57	289.474
868.86	-3900.000
869.16	331.250
869.45	2000.000
869.75	-4300.000
870.04	408.333
870.33	614.286
870.63	1050.000
870.92	2050.000
871.22	757.143
871.51	335.294
871.80	257.143
872.10	350.000
>>>>>End Processed Spectral Data<<<<<
