SpectraSuite Data File
++++++++++++++++++++++++++++++++++++
Date: Wed May 13 16:16:01 PDT 2015
User: schluterlab
Dark Spectrum Present: Yes
Reference Spectrum Present: Yes
Number of Sampled Component Spectra: 1
Spectrometers: USB2E3373
Integration Time (usec): 3000 (USB2E3373)
Spectra Averaged: 3 (USB2E3373)
Boxcar Smoothing: 0 (USB2E3373)
Correct for Electrical Dark: No (USB2E3373)
Strobe/Lamp Enabled: No (USB2E3373)
Correct for Detector Non-linearity: No (USB2E3373)
Correct for Stray Light: No (USB2E3373)
Number of Pixels in Processed Spectrum: 2048
>>>>>Begin Processed Spectral Data<<<<<
178.53	0.000
178.91	-1025.000
179.29	-1125.000
179.67	-172.222
180.04	-875.000
180.42	2250.000
180.80	900.000
181.18	-850.000
181.56	585.714
181.94	0.000
182.31	-457.143
182.69	1300.000
183.07	-525.000
183.45	-322.222
183.83	472.727
184.20	-290.000
184.58	1500.000
184.96	3800.000
185.34	-700.000
185.72	-500.000
186.09	-1500.000
186.47	1750.000
186.85	2100.000
187.23	3300.000
187.61	-1066.667
187.98	1125.000
188.36	490.909
188.74	372.727
189.12	-740.000
189.49	440.000
189.87	-2900.000
190.25	-1025.000
190.63	300.000
191.00	384.615
191.38	666.667
191.76	-850.000
192.14	1025.000
192.51	575.000
192.89	750.000
193.27	500.000
193.65	-900.000
194.02	430.000
194.40	860.000
194.78	450.000
195.15	375.000
195.53	610.000
195.91	-1750.000
196.29	268.750
196.66	236.842
197.04	-140.000
197.42	0.000
197.79	500.000
198.17	-4100.000
198.55	642.857
198.92	500.000
199.30	540.000
199.68	0.000
200.05	311.111
200.43	642.857
200.81	4200.000
201.18	1233.333
201.56	-900.000
201.94	322.222
202.31	522.222
202.69	341.667
203.07	380.000
203.44	0.000
203.82	1275.000
204.19	614.286
204.57	428.571
204.95	437.500
205.32	1200.000
205.70	454.545
206.08	307.143
206.45	2050.000
206.83	318.750
207.20	700.000
207.58	620.000
207.96	255.556
208.33	650.000
208.71	-550.000
209.08	714.286
209.46	522.222
209.84	445.455
210.21	-1233.333
210.59	1075.000
210.96	-462.500
211.34	2200.000
211.71	500.000
212.09	716.667
212.46	0.000
212.84	1566.667
213.22	975.000
213.59	-3200.000
213.97	916.667
214.34	685.714
214.72	490.909
215.09	980.000
215.47	-2100.000
215.84	-2000.000
216.22	1400.000
216.59	335.714
216.97	1200.000
217.34	445.455
217.72	-583.333
218.09	0.000
218.47	-3800.000
218.84	455.556
219.22	685.714
219.59	1500.000
219.97	-400.000
220.34	740.000
220.72	-1000.000
221.09	350.000
221.47	1175.000
221.84	-866.667
222.22	0.000
222.59	1050.000
222.97	-1850.000
223.34	840.000
223.72	346.154
224.09	860.000
224.46	2100.000
224.84	-4300.000
225.21	-800.000
225.59	-4500.000
225.96	530.000
226.34	265.000
226.71	1900.000
227.08	550.000
227.46	430.000
227.83	-825.000
228.21	-1700.000
228.58	555.556
228.95	-1800.000
229.33	-1900.000
229.70	1133.333
230.08	728.571
230.45	-740.000
230.82	391.667
231.20	683.333
231.57	542.857
231.95	341.667
232.32	195.455
232.69	390.909
233.07	485.714
233.44	230.769
233.81	-1400.000
234.19	226.316
234.56	416.667
234.93	283.333
235.31	390.909
235.68	261.538
236.05	300.000
236.43	154.545
236.80	268.421
237.17	3900.000
237.55	238.095
237.92	225.000
238.29	200.000
238.67	154.839
239.04	206.897
239.41	144.444
239.79	130.435
240.16	159.524
240.53	138.636
240.91	107.843
241.28	122.000
241.65	126.000
242.02	113.043
242.40	90.323
242.77	90.000
243.14	86.022
243.51	92.135
243.89	88.235
244.26	85.556
244.63	83.871
245.00	72.340
245.38	74.257
245.75	74.766
246.12	78.899
246.49	79.562
246.87	83.200
247.24	72.308
247.61	73.571
247.98	73.203
248.36	66.892
248.73	64.968
249.10	66.879
249.47	65.537
249.84	63.102
250.22	62.567
250.59	69.231
250.96	67.172
251.33	65.877
251.70	64.851
252.08	61.429
252.45	63.677
252.82	60.870
253.19	62.553
253.56	56.078
253.94	60.166
254.31	54.687
254.68	63.077
255.05	57.934
255.42	55.691
255.79	61.397
256.16	61.733
256.54	56.890
256.91	53.737
257.28	49.640
257.65	57.756
258.02	55.280
258.39	52.997
258.76	52.174
259.14	52.381
259.51	51.976
259.88	59.627
260.25	54.079
260.62	52.890
260.99	58.385
261.36	55.856
261.73	53.009
262.10	51.163
262.47	53.239
262.85	50.418
263.22	50.427
263.59	51.567
263.96	51.099
264.33	48.825
264.70	52.105
265.07	53.197
265.44	49.242
265.81	49.392
266.18	52.513
266.55	48.537
266.92	49.386
267.29	50.926
267.66	50.000
268.03	51.818
268.40	48.832
268.77	48.210
269.14	49.324
269.51	49.661
269.88	50.117
270.25	45.824
270.62	50.112
270.99	50.323
271.36	48.927
271.73	50.467
272.10	49.130
272.47	51.828
272.84	48.268
273.21	44.654
273.58	49.782
273.95	46.331
274.32	48.967
274.69	49.465
275.06	44.882
275.43	49.149
275.80	46.493
276.17	45.825
276.54	45.738
276.91	45.652
277.28	45.313
277.65	46.809
278.02	48.447
278.39	46.094
278.76	46.727
279.13	44.717
279.50	47.486
279.87	44.821
280.23	45.509
280.60	45.455
280.97	46.211
281.34	44.602
281.71	45.636
282.08	46.833
282.45	42.909
282.82	45.471
283.19	45.811
283.56	45.614
283.92	45.685
284.29	43.563
284.66	44.828
285.03	43.219
285.40	45.246
285.77	42.929
286.14	44.041
286.51	42.667
286.87	44.103
287.24	45.114
287.61	42.536
287.98	43.182
288.35	41.521
288.72	41.900
289.08	40.845
289.45	42.504
289.82	42.439
290.19	41.130
290.56	39.816
290.93	40.785
291.29	39.571
291.66	40.708
292.03	42.151
292.40	38.767
292.77	39.053
293.13	36.716
293.50	37.464
293.87	38.667
294.24	38.370
294.60	38.282
294.97	38.372
295.34	38.646
295.71	36.790
296.08	37.037
296.44	36.864
296.81	36.856
297.18	36.721
297.55	34.960
297.91	36.807
298.28	36.412
298.65	37.337
299.02	35.705
299.38	35.591
299.75	33.962
300.12	33.078
300.48	35.500
300.85	34.895
301.22	34.650
301.59	35.101
301.95	32.997
302.32	34.403
302.69	33.572
303.05	34.061
303.42	34.444
303.79	34.202
304.15	32.401
304.52	32.793
304.89	33.333
305.25	32.251
305.62	32.729
305.99	34.002
306.35	32.103
306.72	33.857
307.09	32.963
307.45	34.685
307.82	31.696
308.19	34.879
308.55	33.010
308.92	33.190
309.29	30.306
309.65	32.131
310.02	32.981
310.38	32.366
310.75	33.791
311.12	33.777
311.48	33.020
311.85	33.019
312.22	33.195
312.58	32.744
312.95	34.213
313.31	32.524
313.68	33.056
314.05	35.108
314.41	33.266
314.78	33.736
315.14	33.168
315.51	34.604
315.87	34.554
316.24	34.062
316.61	33.723
316.97	33.659
317.34	34.736
317.70	34.990
318.07	35.034
318.43	36.106
318.80	34.864
319.16	35.687
319.53	34.240
319.89	34.857
320.26	36.200
320.62	34.921
320.99	35.657
321.35	35.960
321.72	37.474
322.08	37.512
322.45	38.806
322.81	38.663
323.18	39.210
323.54	39.425
323.91	38.679
324.27	38.528
324.64	38.304
325.00	37.601
325.37	38.672
325.73	39.138
326.10	38.041
326.46	38.889
326.83	40.293
327.19	39.966
327.56	39.547
327.92	40.507
328.29	41.437
328.65	39.779
329.01	41.787
329.38	41.166
329.74	41.182
330.11	39.962
330.47	42.424
330.84	42.096
331.20	42.350
331.56	41.101
331.93	42.593
332.29	41.349
332.66	43.717
333.02	41.773
333.38	42.186
333.75	42.870
334.11	41.192
334.48	41.704
334.84	41.820
335.20	41.636
335.57	42.067
335.93	39.732
336.29	41.941
336.66	42.020
337.02	41.810
337.38	41.852
337.75	41.176
338.11	41.540
338.47	42.449
338.84	42.621
339.20	41.376
339.56	44.343
339.93	42.091
340.29	42.120
340.65	41.979
341.02	41.885
341.38	42.972
341.74	41.404
342.11	42.969
342.47	41.674
342.83	41.866
343.20	42.857
343.56	40.522
343.92	40.614
344.28	41.667
344.65	43.250
345.01	41.246
345.37	40.480
345.73	41.963
346.10	41.944
346.46	42.966
346.82	40.939
347.19	41.520
347.55	41.051
347.91	40.534
348.27	42.564
348.63	42.475
349.00	41.909
349.36	41.461
349.72	42.342
350.08	41.815
350.45	42.636
350.81	42.729
351.17	41.653
351.53	42.260
351.89	41.089
352.26	41.910
352.62	42.823
352.98	41.572
353.34	41.167
353.70	41.817
354.07	42.500
354.43	40.317
354.79	41.834
355.15	41.500
355.51	42.206
355.87	43.510
356.24	41.775
356.60	41.540
356.96	43.041
357.32	42.110
357.68	42.913
358.04	42.359
358.40	42.914
358.77	42.175
359.13	42.620
359.49	41.020
359.85	43.175
360.21	43.381
360.57	43.969
360.93	42.846
361.29	42.857
361.66	41.563
362.02	43.209
362.38	43.422
362.74	42.857
363.10	41.673
363.46	42.627
363.82	43.613
364.18	42.438
364.54	43.314
364.90	43.839
365.26	43.382
365.62	44.777
365.98	43.097
366.35	42.335
366.71	44.179
367.07	43.409
367.43	45.138
367.79	44.540
368.15	44.756
368.51	43.241
368.87	45.824
369.23	44.550
369.59	44.750
369.95	44.559
370.31	45.157
370.67	44.130
371.03	45.543
371.39	45.554
371.75	45.662
372.11	44.950
372.47	46.921
372.83	47.190
373.19	45.014
373.55	46.859
373.91	47.938
374.27	44.948
374.63	45.964
374.99	47.246
375.35	46.615
375.71	45.990
376.07	47.188
376.42	47.387
376.78	48.310
377.14	47.286
377.50	48.609
377.86	47.872
378.22	47.977
378.58	46.805
378.94	48.083
379.30	48.537
379.66	49.239
380.02	49.877
380.38	48.695
380.74	49.940
381.09	50.244
381.45	49.785
381.81	50.123
382.17	50.828
382.53	50.440
382.89	50.926
383.25	49.906
383.61	52.788
383.97	50.657
384.32	50.905
384.68	50.682
385.04	51.506
385.40	52.384
385.76	51.290
386.12	52.785
386.48	53.178
386.83	54.330
387.19	53.741
387.55	52.876
387.91	53.204
388.27	52.790
388.62	53.964
388.98	52.764
389.34	53.191
389.70	53.280
390.06	52.915
390.42	54.929
390.77	54.453
391.13	56.031
391.49	53.553
391.85	54.360
392.20	54.763
392.56	55.177
392.92	54.679
393.28	55.030
393.64	54.556
393.99	54.001
394.35	55.955
394.71	55.395
395.07	55.576
395.42	56.119
395.78	56.043
396.14	55.680
396.50	57.331
396.85	57.025
397.21	55.672
397.57	56.293
397.92	55.108
398.28	54.989
398.64	56.153
399.00	55.960
399.35	54.992
399.71	56.308
400.07	56.180
400.42	56.687
400.78	57.660
401.14	57.012
401.49	56.657
401.85	56.866
402.21	54.970
402.57	56.385
402.92	57.566
403.28	57.402
403.63	57.302
403.99	57.771
404.35	56.667
404.70	56.655
405.06	55.620
405.42	57.829
405.77	56.800
406.13	57.280
406.49	57.481
406.84	57.472
407.20	56.797
407.55	57.371
407.91	58.267
408.27	58.009
408.62	56.833
408.98	57.108
409.34	57.872
409.69	58.452
410.05	57.435
410.40	58.165
410.76	57.109
411.11	56.152
411.47	57.508
411.83	57.239
412.18	56.463
412.54	58.406
412.89	57.892
413.25	58.205
413.60	58.184
413.96	56.466
414.31	57.837
414.67	57.985
415.03	58.079
415.38	58.312
415.74	59.421
416.09	58.263
416.45	57.296
416.80	58.559
417.16	59.048
417.51	58.925
417.87	57.225
418.22	58.423
418.58	57.521
418.93	58.661
419.29	59.198
419.64	58.438
420.00	58.415
420.35	57.275
420.71	58.219
421.06	57.637
421.42	57.953
421.77	57.063
422.12	57.440
422.48	57.420
422.83	57.600
423.19	57.072
423.54	58.328
423.90	58.145
424.25	57.342
424.61	57.560
424.96	58.950
425.31	57.143
425.67	55.899
426.02	56.971
426.38	59.646
426.73	58.397
427.09	58.419
427.44	57.504
427.79	58.654
428.15	57.976
428.50	57.870
428.85	58.462
429.21	58.145
429.56	57.491
429.92	57.725
430.27	57.597
430.62	56.221
430.98	57.239
431.33	56.289
431.68	58.377
432.04	56.177
432.39	59.223
432.74	57.929
433.10	58.178
433.45	58.834
433.80	57.373
434.16	58.120
434.51	57.053
434.86	57.640
435.22	57.810
435.57	58.116
435.92	58.280
436.28	58.066
436.63	57.340
436.98	56.898
437.34	57.722
437.69	59.160
438.04	58.066
438.39	57.970
438.75	58.454
439.10	58.436
439.45	57.910
439.81	57.462
440.16	57.708
440.51	57.001
440.86	58.367
441.22	57.063
441.57	58.386
441.92	57.728
442.27	56.997
442.63	56.556
442.98	57.465
443.33	56.902
443.68	57.770
444.03	58.175
444.39	57.254
444.74	58.117
445.09	57.520
445.44	56.862
445.79	57.496
446.15	56.485
446.50	56.974
446.85	57.451
447.20	57.369
447.55	58.236
447.91	56.315
448.26	57.206
448.61	57.603
448.96	57.641
449.31	58.043
449.66	56.669
450.02	57.326
450.37	56.916
450.72	56.232
451.07	56.307
451.42	56.960
451.77	58.837
452.12	56.351
452.47	55.784
452.83	57.284
453.18	56.540
453.53	58.380
453.88	56.881
454.23	56.724
454.58	57.965
454.93	57.851
455.28	57.606
455.63	58.556
455.98	57.500
456.34	58.982
456.69	58.485
457.04	57.152
457.39	56.809
457.74	57.632
458.09	55.319
458.44	55.701
458.79	54.338
459.14	56.659
459.49	56.918
459.84	56.011
460.19	57.101
460.54	55.208
460.89	56.281
461.24	56.648
461.59	57.408
461.94	56.535
462.29	56.677
462.64	56.477
462.99	55.628
463.34	57.133
463.69	57.473
464.04	55.478
464.39	54.783
464.74	56.328
465.09	55.549
465.44	54.349
465.79	54.978
466.14	55.172
466.49	54.894
466.84	57.210
467.19	55.039
467.54	55.938
467.89	55.582
468.24	55.148
468.59	55.983
468.94	55.345
469.29	54.627
469.64	56.627
469.99	58.254
470.34	56.935
470.68	56.250
471.03	55.986
471.38	56.776
471.73	55.963
472.08	56.053
472.43	55.465
472.78	55.431
473.13	55.263
473.48	54.744
473.83	54.756
474.17	54.823
474.52	56.141
474.87	56.276
475.22	55.485
475.57	54.326
475.92	55.072
476.27	53.833
476.61	54.550
476.96	53.876
477.31	54.893
477.66	55.580
478.01	53.685
478.36	54.627
478.70	53.946
479.05	54.899
479.40	55.885
479.75	54.703
480.10	54.473
480.45	53.165
480.79	53.416
481.14	54.501
481.49	53.156
481.84	53.864
482.19	52.749
482.53	53.899
482.88	53.886
483.23	53.271
483.58	53.458
483.92	53.796
484.27	51.329
484.62	53.621
484.97	53.134
485.31	53.390
485.66	51.647
486.01	50.129
486.36	48.566
486.70	48.206
487.05	49.752
487.40	52.017
487.75	53.204
488.09	54.777
488.44	55.103
488.79	56.022
489.13	55.806
489.48	53.670
489.83	53.388
490.17	53.880
490.52	51.639
490.87	53.415
491.22	52.342
491.56	52.164
491.91	52.350
492.26	52.090
492.60	52.535
492.95	52.339
493.30	52.103
493.64	52.263
493.99	52.228
494.34	52.035
494.68	52.381
495.03	52.209
495.37	52.257
495.72	53.704
496.07	53.503
496.41	51.283
496.76	52.463
497.11	52.094
497.45	51.886
497.80	52.495
498.14	52.512
498.49	52.780
498.84	52.109
499.18	51.905
499.53	51.899
499.87	51.864
500.22	50.730
500.56	52.282
500.91	51.250
501.26	51.257
501.60	52.302
501.95	51.054
502.29	51.687
502.64	52.188
502.98	51.940
503.33	51.188
503.67	50.905
504.02	51.356
504.36	51.568
504.71	51.197
505.06	50.988
505.40	51.386
505.75	50.723
506.09	51.312
506.44	51.603
506.78	51.583
507.13	52.095
507.47	51.616
507.82	52.077
508.16	51.925
508.51	53.120
508.85	51.142
509.19	51.837
509.54	51.837
509.88	51.520
510.23	51.620
510.57	52.322
510.92	51.424
511.26	51.028
511.61	51.452
511.95	50.000
512.30	51.485
512.64	51.961
512.98	51.715
513.33	51.338
513.67	50.480
514.02	51.677
514.36	52.485
514.70	51.245
515.05	51.199
515.39	51.262
515.74	52.252
516.08	52.040
516.42	51.554
516.77	52.954
517.11	51.554
517.46	51.580
517.80	53.194
518.14	50.840
518.49	53.676
518.83	51.761
519.17	52.771
519.52	51.217
519.86	51.854
520.20	51.734
520.55	52.304
520.89	52.798
521.23	52.111
521.58	52.701
521.92	52.725
522.26	50.641
522.61	53.209
522.95	53.346
523.29	52.526
523.64	52.317
523.98	53.358
524.32	52.171
524.66	51.473
525.01	52.206
525.35	52.912
525.69	50.554
526.04	51.215
526.38	50.824
526.72	51.288
527.06	53.798
527.41	50.557
527.75	52.797
528.09	52.987
528.43	52.326
528.78	51.137
529.12	50.545
529.46	52.235
529.80	51.609
530.15	52.212
530.49	50.400
530.83	52.025
531.17	53.525
531.51	52.789
531.86	51.484
532.20	52.347
532.54	52.018
532.88	50.642
533.22	50.593
533.57	50.802
533.91	51.535
534.25	50.608
534.59	50.824
534.93	50.208
535.27	49.909
535.62	50.244
535.96	51.726
536.30	52.003
536.64	51.191
536.98	52.555
537.32	53.127
537.66	52.533
538.01	52.403
538.35	51.454
538.69	51.627
539.03	49.968
539.37	49.968
539.71	51.458
540.05	51.176
540.39	51.296
540.73	50.453
541.07	52.109
541.42	51.598
541.76	51.677
542.10	50.388
542.44	50.993
542.78	51.252
543.12	49.776
543.46	51.541
543.80	51.399
544.14	50.642
544.48	50.857
544.82	50.930
545.16	51.269
545.50	48.715
545.84	51.747
546.18	50.505
546.52	51.961
546.86	50.997
547.20	51.719
547.54	50.434
547.88	51.084
548.22	49.938
548.56	51.887
548.90	49.872
549.24	49.630
549.58	50.819
549.92	51.099
550.26	52.628
550.60	50.346
550.94	50.845
551.28	51.353
551.62	50.899
551.96	50.175
552.30	51.126
552.64	50.304
552.98	51.322
553.32	50.101
553.66	49.693
554.00	49.417
554.34	49.689
554.68	52.146
555.02	50.353
555.36	50.592
555.69	48.579
556.03	48.654
556.37	50.068
556.71	49.864
557.05	50.210
557.39	49.125
557.73	49.047
558.07	50.616
558.41	49.132
558.75	51.359
559.08	50.708
559.42	52.079
559.76	50.441
560.10	49.465
560.44	48.917
560.78	48.503
561.12	48.681
561.45	49.153
561.79	48.715
562.13	48.960
562.47	50.751
562.81	49.721
563.15	49.164
563.48	49.469
563.82	48.924
564.16	48.463
564.50	48.828
564.84	48.040
565.17	48.584
565.51	49.776
565.85	49.048
566.19	48.779
566.52	49.272
566.86	47.981
567.20	49.292
567.54	49.144
567.88	48.343
568.21	48.519
568.55	47.270
568.89	46.984
569.23	46.791
569.56	46.316
569.90	46.755
570.24	45.892
570.57	46.277
570.91	45.475
571.25	45.182
571.59	45.508
571.92	44.614
572.26	45.436
572.60	46.637
572.93	45.967
573.27	46.377
573.61	45.729
573.95	45.685
574.28	44.623
574.62	44.534
574.96	44.659
575.29	45.344
575.63	45.097
575.97	45.717
576.30	45.725
576.64	45.034
576.98	45.406
577.31	45.194
577.65	45.255
577.98	44.773
578.32	44.380
578.66	44.717
578.99	45.264
579.33	45.316
579.67	44.904
580.00	45.936
580.34	45.586
580.67	45.285
581.01	45.469
581.35	44.897
581.68	44.542
582.02	43.222
582.35	43.924
582.69	44.249
583.02	44.361
583.36	46.276
583.70	46.853
584.03	46.369
584.37	47.352
584.70	47.257
585.04	45.377
585.37	45.294
585.71	45.089
586.04	44.938
586.38	45.794
586.72	45.788
587.05	45.232
587.39	44.591
587.72	45.426
588.06	45.544
588.39	45.679
588.73	45.879
589.06	46.463
589.40	47.205
589.73	46.779
590.07	45.979
590.40	45.670
590.73	47.619
591.07	47.171
591.40	47.195
591.74	47.403
592.07	46.422
592.41	45.432
592.74	44.345
593.08	44.370
593.41	44.132
593.75	43.442
594.08	44.854
594.41	45.069
594.75	45.360
595.08	45.025
595.42	45.184
595.75	45.406
596.09	46.113
596.42	46.326
596.75	46.560
597.09	46.926
597.42	44.857
597.75	46.227
598.09	46.130
598.42	44.974
598.76	44.264
599.09	43.748
599.42	44.723
599.76	44.766
600.09	44.007
600.42	43.462
600.76	44.107
601.09	45.647
601.42	45.358
601.76	44.782
602.09	45.257
602.42	45.183
602.76	45.627
603.09	45.437
603.42	45.763
603.76	44.436
604.09	44.358
604.42	45.577
604.76	45.593
605.09	44.867
605.42	44.463
605.75	44.785
606.09	44.693
606.42	45.280
606.75	44.670
607.09	44.286
607.42	45.315
607.75	44.304
608.08	44.594
608.42	45.226
608.75	44.094
609.08	45.143
609.41	45.407
609.75	45.307
610.08	44.863
610.41	44.181
610.74	44.891
611.07	45.899
611.41	45.240
611.74	45.752
612.07	45.600
612.40	46.327
612.73	44.316
613.07	46.175
613.40	46.130
613.73	44.887
614.06	45.860
614.39	44.887
614.72	45.158
615.06	44.643
615.39	44.268
615.72	43.200
616.05	44.604
616.38	45.359
616.71	46.556
617.05	47.703
617.38	46.001
617.71	45.345
618.04	46.695
618.37	44.944
618.70	46.297
619.03	46.974
619.36	46.300
619.69	46.831
620.03	46.497
620.36	45.989
620.69	47.603
621.02	46.755
621.35	46.985
621.68	46.729
622.01	46.440
622.34	46.218
622.67	46.844
623.00	46.075
623.33	45.533
623.66	45.104
623.99	46.834
624.32	45.792
624.65	45.621
624.99	44.405
625.32	46.343
625.65	45.830
625.98	46.580
626.31	46.112
626.64	47.510
626.97	46.717
627.30	47.382
627.63	47.334
627.96	47.351
628.29	47.332
628.62	46.935
628.95	49.151
629.28	47.172
629.61	47.113
629.94	47.619
630.26	46.997
630.59	47.378
630.92	47.797
631.25	46.792
631.58	45.445
631.91	46.450
632.24	45.886
632.57	47.114
632.90	49.561
633.23	48.434
633.56	49.040
633.89	48.358
634.22	48.014
634.55	49.586
634.88	46.347
635.20	47.670
635.53	48.072
635.86	48.886
636.19	46.824
636.52	47.290
636.85	47.766
637.18	44.931
637.51	48.818
637.83	44.513
638.16	51.023
638.49	47.607
638.82	50.190
639.15	47.750
639.48	48.878
639.81	46.381
640.13	49.740
640.46	48.054
640.79	47.424
641.12	46.630
641.45	50.698
641.77	51.546
642.10	47.953
642.43	49.700
642.76	47.523
643.09	49.540
643.41	49.621
643.74	49.537
644.07	49.085
644.40	48.926
644.73	50.551
645.05	48.019
645.38	48.341
645.71	48.148
646.04	49.834
646.36	52.254
646.69	50.502
647.02	50.340
647.35	52.234
647.67	50.973
648.00	49.268
648.33	48.845
648.66	46.061
648.98	48.576
649.31	47.982
649.64	49.477
649.96	45.455
650.29	47.551
650.62	46.926
650.94	47.650
651.27	51.520
651.60	49.085
651.92	47.923
652.25	48.860
652.58	47.196
652.90	50.079
653.23	48.844
653.56	46.457
653.88	49.604
654.21	48.341
654.54	50.825
654.86	47.196
655.19	43.919
655.52	35.386
655.84	31.605
656.17	40.104
656.49	55.936
656.82	59.472
657.15	47.388
657.47	36.668
657.80	28.934
658.13	31.494
658.45	48.955
658.78	50.911
659.10	54.625
659.43	57.250
659.75	58.374
660.08	61.266
660.41	61.546
660.73	59.975
661.06	54.459
661.38	54.182
661.71	53.654
662.03	51.085
662.36	49.702
662.68	49.398
663.01	52.323
663.33	53.291
663.66	50.000
663.98	51.836
664.31	48.739
664.63	47.571
664.96	50.704
665.28	48.361
665.61	49.318
665.93	47.082
666.26	50.507
666.58	49.791
666.91	49.471
667.23	55.056
667.56	50.108
667.88	51.923
668.21	54.371
668.53	50.976
668.86	49.784
669.18	52.239
669.50	51.522
669.83	53.159
670.15	48.889
670.48	47.059
670.80	52.155
671.13	50.531
671.45	48.085
671.77	50.305
672.10	46.950
672.42	45.406
672.75	46.434
673.07	45.775
673.39	48.463
673.72	49.609
674.04	47.451
674.37	46.214
674.69	49.080
675.01	50.418
675.34	52.772
675.66	53.474
675.98	49.695
676.31	48.739
676.63	50.531
676.95	47.379
677.28	49.065
677.60	50.549
677.92	50.844
678.25	48.460
678.57	47.410
678.89	49.499
679.22	48.134
679.54	47.519
679.86	45.872
680.18	47.764
680.51	49.645
680.83	46.797
681.15	47.358
681.48	49.149
681.80	49.130
682.12	47.510
682.44	48.162
682.77	50.102
683.09	53.863
683.41	48.337
683.73	52.539
684.06	46.901
684.38	48.924
684.70	49.225
685.02	48.030
685.34	46.703
685.67	46.154
685.99	45.189
686.31	46.416
686.63	45.053
686.96	46.071
687.28	46.390
687.60	46.196
687.92	47.715
688.24	48.289
688.56	49.799
688.89	49.170
689.21	53.275
689.53	48.643
689.85	49.889
690.17	46.584
690.49	49.682
690.82	49.766
691.14	49.107
691.46	45.148
691.78	46.988
692.10	48.554
692.42	48.104
692.74	46.266
693.06	48.723
693.39	49.281
693.71	48.035
694.03	47.789
694.35	47.835
694.67	48.513
694.99	53.415
695.31	48.529
695.63	48.565
695.95	49.878
696.27	52.030
696.59	50.259
696.91	50.518
697.23	44.131
697.56	47.548
697.88	45.194
698.20	46.250
698.52	48.387
698.84	48.775
699.16	46.313
699.48	48.219
699.80	48.551
700.12	52.987
700.44	53.581
700.76	53.039
701.08	50.287
701.40	49.441
701.72	48.980
702.04	52.273
702.36	47.875
702.68	46.459
703.00	52.078
703.32	48.138
703.64	48.257
703.96	47.354
704.28	51.163
704.60	51.026
704.91	52.226
705.23	48.094
705.55	55.814
705.87	57.475
706.19	55.477
706.51	51.402
706.83	52.424
707.15	51.541
707.47	47.475
707.79	48.157
708.11	49.315
708.43	50.000
708.74	47.194
709.06	49.351
709.38	50.919
709.70	53.198
710.02	50.148
710.34	48.788
710.66	55.821
710.98	50.852
711.29	50.000
711.61	50.737
711.93	47.436
712.25	50.482
712.57	55.147
712.89	51.557
713.20	48.328
713.52	50.000
713.84	49.367
714.16	48.780
714.48	47.989
714.80	55.623
715.11	46.398
715.43	50.148
715.75	48.116
716.07	52.716
716.39	47.962
716.70	49.834
717.02	52.878
717.34	49.823
717.66	55.597
717.97	54.980
718.29	53.333
718.61	48.905
718.93	54.779
719.24	49.827
719.56	48.475
719.88	51.186
720.20	50.000
720.51	54.704
720.83	52.788
721.15	52.239
721.46	51.064
721.78	50.896
722.10	52.830
722.42	53.759
722.73	54.307
723.05	55.738
723.37	52.632
723.68	53.668
724.00	53.252
724.32	54.839
724.63	53.252
724.95	49.791
725.27	56.680
725.58	54.297
725.90	54.745
726.22	50.189
726.53	48.611
726.85	49.829
727.16	51.957
727.48	47.163
727.80	50.379
728.11	47.464
728.43	54.615
728.74	49.462
729.06	51.095
729.38	55.882
729.69	53.025
730.01	49.829
730.32	51.042
730.64	49.164
730.96	50.165
731.27	49.669
731.59	47.706
731.90	49.271
732.22	48.758
732.53	46.440
732.85	49.038
733.16	51.768
733.48	46.844
733.80	46.753
734.11	49.045
734.43	47.633
734.74	44.857
735.06	44.986
735.37	48.844
735.69	50.000
736.00	50.000
736.32	51.090
736.63	46.326
736.95	54.313
737.26	41.497
737.58	46.452
737.89	50.502
738.21	52.560
738.52	51.071
738.83	49.057
739.15	46.538
739.46	52.190
739.78	48.958
740.09	47.692
740.41	55.484
740.72	46.690
741.04	53.333
741.35	52.083
741.66	57.778
741.98	52.358
742.29	56.459
742.61	51.293
742.92	52.941
743.23	55.556
743.55	51.200
743.86	53.509
744.18	58.407
744.49	56.459
744.80	57.746
745.12	59.091
745.43	54.626
745.74	55.856
746.06	57.798
746.37	54.260
746.68	54.299
747.00	61.111
747.31	54.762
747.62	48.673
747.94	53.744
748.25	48.511
748.56	58.150
748.88	56.436
749.19	61.000
749.50	54.884
749.82	48.780
750.13	51.837
750.44	48.905
750.75	50.526
751.07	48.875
751.38	54.007
751.69	48.736
752.01	53.008
752.32	48.014
752.63	49.645
752.94	53.689
753.26	52.400
753.57	47.154
753.88	53.906
754.19	47.857
754.51	49.653
754.82	46.931
755.13	53.585
755.44	49.248
755.75	50.365
756.07	48.582
756.38	50.000
756.69	50.336
757.00	43.114
757.31	46.588
757.63	45.029
757.94	39.678
758.25	41.422
758.56	42.716
758.87	43.011
759.18	46.061
759.50	47.962
759.81	46.106
760.12	48.125
760.43	48.138
760.74	45.109
761.05	45.763
761.36	41.444
761.67	48.295
761.99	48.137
762.30	51.042
762.61	49.618
762.92	51.953
763.23	51.261
763.54	54.800
763.85	47.266
764.16	48.077
764.47	52.471
764.78	43.816
765.10	40.506
765.41	44.838
765.72	45.210
766.03	45.141
766.34	43.000
766.65	53.617
766.96	50.000
767.27	56.853
767.58	61.458
767.89	61.579
768.20	52.874
768.51	56.345
768.82	50.917
769.13	46.341
769.44	50.202
769.75	50.644
770.06	47.706
770.37	54.751
770.68	53.704
770.99	51.111
771.30	42.213
771.61	49.327
771.92	51.230
772.23	56.303
772.54	52.308
772.85	60.733
773.16	55.851
773.47	57.065
773.78	58.883
774.09	54.762
774.39	54.971
774.70	61.111
775.01	65.217
775.32	65.359
775.63	62.500
775.94	50.360
776.25	69.291
776.56	66.418
776.87	68.852
777.18	60.938
777.48	62.595
777.79	61.364
778.10	62.963
778.41	71.429
778.72	55.474
779.03	63.758
779.34	59.060
779.65	58.108
779.95	56.442
780.26	56.209
780.57	62.759
780.88	75.000
781.19	60.902
781.50	61.486
781.80	57.233
782.11	53.107
782.42	52.532
782.73	56.442
783.04	56.757
783.34	59.155
783.65	63.014
783.96	69.403
784.27	58.042
784.57	53.237
784.88	56.481
785.19	69.048
785.50	66.981
785.81	65.672
786.11	68.852
786.42	56.589
786.73	76.106
787.04	65.094
787.34	73.214
787.65	71.000
787.96	65.766
788.26	59.504
788.57	70.339
788.88	72.727
789.19	56.250
789.49	66.667
789.80	59.542
790.11	81.905
790.41	79.208
790.72	75.904
791.03	72.826
791.33	80.233
791.64	79.381
791.95	71.287
792.25	81.111
792.56	79.221
792.87	89.744
793.17	83.544
793.48	82.759
793.79	86.207
794.09	67.045
794.40	59.664
794.70	66.176
795.01	62.222
795.32	58.273
795.62	62.992
795.93	58.621
796.23	68.142
796.54	62.353
796.85	78.378
797.15	92.958
797.46	98.485
797.76	87.952
798.07	78.481
798.37	96.923
798.68	84.848
798.99	73.239
799.29	84.416
799.60	79.545
799.90	83.562
800.21	95.522
800.51	108.621
800.82	110.526
801.12	93.443
801.43	89.394
801.73	77.027
802.04	92.063
802.34	81.481
802.65	89.062
802.95	108.475
803.26	109.375
803.56	72.857
803.87	89.231
804.17	86.765
804.48	109.259
804.78	87.931
805.09	80.882
805.39	113.462
805.70	103.571
806.00	104.918
806.30	89.394
806.61	82.927
806.91	77.215
807.22	82.895
807.52	80.597
807.83	97.183
808.13	101.563
808.43	98.333
808.74	75.000
809.04	81.159
809.35	101.493
809.65	88.158
809.95	112.903
810.26	83.051
810.56	93.651
810.86	145.455
811.17	140.476
811.47	86.667
811.77	107.407
812.08	107.273
812.38	108.000
812.69	136.111
812.99	138.636
813.29	114.286
813.59	90.476
813.90	132.653
814.20	118.182
814.50	90.769
814.81	100.000
815.11	122.449
815.41	81.967
815.72	154.762
816.02	118.182
816.32	107.143
816.62	135.000
816.93	104.878
817.23	130.952
817.53	127.273
817.84	154.545
818.14	115.217
818.44	120.000
818.74	158.824
819.04	115.000
819.35	137.143
819.65	150.000
819.95	171.429
820.25	200.000
820.56	143.590
820.86	106.818
821.16	139.535
821.46	125.641
821.76	138.000
822.07	151.429
822.37	150.000
822.67	81.818
822.97	107.843
823.27	232.143
823.57	148.649
823.88	172.500
824.18	196.667
824.48	138.095
824.78	188.000
825.08	170.833
825.38	151.351
825.69	117.073
825.99	150.000
826.29	144.828
826.59	155.263
826.89	121.053
827.19	144.118
827.49	183.871
827.79	143.182
828.09	122.727
828.39	125.532
828.70	102.041
829.00	159.259
829.30	135.484
829.60	130.000
829.90	333.333
830.20	175.000
830.50	165.217
830.80	195.652
831.10	166.667
831.40	130.000
831.70	160.870
832.00	211.538
832.30	151.852
832.60	287.500
832.90	210.000
833.20	321.429
833.50	177.419
833.80	165.517
834.10	156.250
834.40	207.692
834.70	255.556
835.00	247.619
835.30	174.286
835.60	284.615
835.90	206.897
836.20	242.857
836.50	162.069
836.80	176.000
837.10	166.667
837.40	233.333
837.70	264.706
838.00	181.481
838.30	200.000
838.60	228.571
838.90	207.692
839.19	255.000
839.49	292.857
839.79	260.000
840.09	255.000
840.39	214.286
840.69	195.652
840.99	238.889
841.29	440.000
841.59	241.667
841.88	325.000
842.18	141.379
842.48	252.381
842.78	160.000
843.08	221.739
843.38	159.375
843.68	650.000
843.97	207.692
844.27	175.862
844.57	252.381
844.87	293.750
845.17	192.593
845.47	1400.000
845.76	466.667
846.06	258.824
846.36	375.000
846.66	307.143
846.96	206.250
847.25	409.091
847.55	318.182
847.85	204.348
848.15	400.000
848.44	292.857
848.74	183.333
849.04	241.176
849.34	400.000
849.63	215.789
849.93	400.000
850.23	1020.000
850.53	342.857
850.82	2250.000
851.12	-3600.000
851.42	4200.000
851.71	255.000
852.01	-1400.000
852.31	204.167
852.61	1100.000
852.90	271.429
853.20	180.000
853.50	276.471
853.79	223.810
854.09	175.000
854.39	325.000
854.68	145.946
854.98	151.613
855.28	146.667
855.57	210.345
855.87	222.222
856.17	252.632
856.46	206.667
856.76	200.000
857.05	165.517
857.35	204.167
857.65	306.667
857.94	147.826
858.24	200.000
858.53	280.000
858.83	204.545
859.13	226.667
859.42	0.000
859.72	444.444
860.01	381.818
860.31	209.091
860.60	215.789
860.90	208.696
861.20	377.778
861.49	450.000
861.79	-4000.000
862.08	512.500
862.38	280.952
862.67	284.615
862.97	358.824
863.26	444.444
863.56	244.444
863.85	350.000
864.15	587.500
864.44	286.667
864.74	666.667
865.03	537.500
865.33	289.474
865.62	354.545
865.92	353.846
866.21	266.667
866.51	0.000
866.80	372.727
867.10	840.000
867.39	369.231
867.69	336.364
867.98	236.842
868.27	381.818
868.57	252.632
868.86	-3600.000
869.16	287.500
869.45	1950.000
869.75	-4100.000
870.04	341.667
870.33	485.714
870.63	900.000
870.92	2000.000
871.22	571.429
871.51	335.294
871.80	195.238
872.10	292.857
>>>>>End Processed Spectral Data<<<<<
