SpectraSuite Data File
++++++++++++++++++++++++++++++++++++
Date: Wed May 13 16:51:26 PDT 2015
User: schluterlab
Dark Spectrum Present: Yes
Reference Spectrum Present: Yes
Number of Sampled Component Spectra: 1
Spectrometers: USB2E3373
Integration Time (usec): 3000 (USB2E3373)
Spectra Averaged: 3 (USB2E3373)
Boxcar Smoothing: 0 (USB2E3373)
Correct for Electrical Dark: No (USB2E3373)
Strobe/Lamp Enabled: No (USB2E3373)
Correct for Detector Non-linearity: No (USB2E3373)
Correct for Stray Light: No (USB2E3373)
Number of Pixels in Processed Spectrum: 2048
>>>>>Begin Processed Spectral Data<<<<<
178.53	0.000
178.91	-1375.000
179.29	-1400.000
179.67	-205.556
180.04	-1225.000
180.42	2550.000
180.80	1000.000
181.18	-1050.000
181.56	600.000
181.94	0.000
182.31	-771.429
182.69	1500.000
183.07	-600.000
183.45	-577.778
183.83	572.727
184.20	-360.000
184.58	2100.000
184.96	5400.000
185.34	-740.000
185.72	-462.500
186.09	-2100.000
186.47	2650.000
186.85	2200.000
187.23	4400.000
187.61	-1900.000
187.98	1075.000
188.36	509.091
188.74	481.818
189.12	-1160.000
189.49	580.000
189.87	-3900.000
190.25	-1350.000
190.63	400.000
191.00	453.846
191.38	833.333
191.76	-1075.000
192.14	1200.000
192.51	637.500
192.89	916.667
193.27	500.000
193.65	-1225.000
194.02	520.000
194.40	1000.000
194.78	500.000
195.15	483.333
195.53	580.000
195.91	-2100.000
196.29	300.000
196.66	273.684
197.04	-400.000
197.42	0.000
197.79	550.000
198.17	-5300.000
198.55	728.571
198.92	775.000
199.30	1000.000
199.68	0.000
200.05	322.222
200.43	842.857
200.81	5100.000
201.18	1633.333
201.56	-1666.667
201.94	555.556
202.31	666.667
202.69	358.333
203.07	460.000
203.44	0.000
203.82	1200.000
204.19	757.143
204.57	400.000
204.95	562.500
205.32	1500.000
205.70	490.909
206.08	392.857
206.45	2650.000
206.83	362.500
207.20	950.000
207.58	660.000
207.96	261.111
208.33	725.000
208.71	-716.667
209.08	814.286
209.46	555.556
209.84	427.273
210.21	-1333.333
210.59	1375.000
210.96	-475.000
211.34	2550.000
211.71	580.000
212.09	700.000
212.46	0.000
212.84	1633.333
213.22	1325.000
213.59	-3800.000
213.97	883.333
214.34	742.857
214.72	545.455
215.09	1000.000
215.47	-2550.000
215.84	-3000.000
216.22	1600.000
216.59	350.000
216.97	1250.000
217.34	518.182
217.72	-766.667
218.09	0.000
218.47	-4200.000
218.84	555.556
219.22	714.286
219.59	1533.333
219.97	-585.714
220.34	920.000
220.72	-1700.000
221.09	414.286
221.47	1500.000
221.84	-883.333
222.22	0.000
222.59	1100.000
222.97	-2700.000
223.34	1080.000
223.72	438.462
224.09	860.000
224.46	2250.000
224.84	-5600.000
225.21	-960.000
225.59	-3900.000
225.96	630.000
226.34	280.000
226.71	2950.000
227.08	575.000
227.46	540.000
227.83	-1300.000
228.21	-2150.000
228.58	533.333
228.95	-2100.000
229.33	-1850.000
229.70	1666.667
230.08	857.143
230.45	-720.000
230.82	450.000
231.20	733.333
231.57	600.000
231.95	500.000
232.32	240.909
232.69	390.909
233.07	600.000
233.44	315.385
233.81	-1366.667
234.19	284.211
234.56	433.333
234.93	333.333
235.31	436.364
235.68	376.923
236.05	307.143
236.43	184.848
236.80	210.526
237.17	5100.000
237.55	233.333
237.92	171.429
238.29	242.857
238.67	154.839
239.04	175.862
239.41	119.444
239.79	119.565
240.16	109.524
240.53	118.182
240.91	92.157
241.28	68.000
241.65	92.000
242.02	76.812
242.40	74.194
242.77	51.667
243.14	65.591
243.51	55.056
243.89	65.882
244.26	45.556
244.63	41.935
245.00	52.128
245.38	54.455
245.75	45.794
246.12	27.523
246.49	49.635
246.87	44.800
247.24	45.385
247.61	40.714
247.98	35.294
248.36	22.297
248.73	34.395
249.10	35.669
249.47	31.638
249.84	32.086
250.22	23.529
250.59	24.260
250.96	32.323
251.33	24.171
251.70	31.683
252.08	26.667
252.45	23.318
252.82	23.043
253.19	24.681
253.56	25.882
253.94	25.726
254.31	22.266
254.68	25.769
255.05	21.033
255.42	19.106
255.79	20.956
256.16	24.188
256.54	20.848
256.91	18.149
257.28	17.626
257.65	19.472
258.02	19.255
258.39	16.088
258.76	14.716
259.14	18.452
259.51	14.894
259.88	17.391
260.25	14.502
260.62	19.942
260.99	14.596
261.36	17.417
261.73	17.765
262.10	16.279
262.47	17.465
262.85	15.877
263.22	13.675
263.59	19.943
263.96	14.835
264.33	17.232
264.70	13.421
265.07	18.926
265.44	13.636
265.81	14.112
266.18	12.563
266.55	11.220
266.92	14.005
267.29	13.657
267.66	14.450
268.03	12.500
268.40	13.318
268.77	10.263
269.14	12.838
269.51	14.673
269.88	14.452
270.25	13.318
270.62	14.831
270.99	15.699
271.36	13.305
271.73	13.084
272.10	13.261
272.47	13.118
272.84	12.771
273.21	14.046
273.58	11.354
273.95	11.111
274.32	12.810
274.69	11.563
275.06	10.630
275.43	12.979
275.80	11.623
276.17	12.016
276.54	13.306
276.91	11.462
277.28	11.914
277.65	13.153
278.02	10.559
278.39	12.500
278.76	11.091
279.13	11.698
279.50	11.359
279.87	11.753
280.23	12.774
280.60	10.638
280.97	11.091
281.34	11.327
281.71	13.091
282.08	12.284
282.45	10.182
282.82	10.302
283.19	8.021
283.56	8.772
283.92	12.860
284.29	9.524
284.66	10.163
285.03	8.499
285.40	10.563
285.77	11.111
286.14	9.845
286.51	10.333
286.87	9.402
287.24	11.401
287.61	9.791
287.98	11.039
288.35	8.716
288.72	10.592
289.08	10.485
289.45	8.896
289.82	10.081
290.19	6.593
290.56	9.188
290.93	9.668
291.29	8.742
291.66	9.587
292.03	12.064
292.40	10.866
292.77	8.728
293.13	9.552
293.50	9.621
293.87	8.444
294.24	9.333
294.60	8.151
294.97	8.866
295.34	10.578
295.71	8.381
296.08	9.829
296.44	10.179
296.81	9.379
297.18	9.214
297.55	7.388
297.91	9.367
298.28	10.040
298.65	9.138
299.02	10.408
299.38	9.827
299.75	7.682
300.12	7.024
300.48	6.875
300.85	8.755
301.22	8.662
301.59	7.702
301.95	8.690
302.32	7.702
302.69	9.080
303.05	7.758
303.42	7.778
303.79	8.267
304.15	8.275
304.52	6.605
304.89	8.479
305.25	8.469
305.62	8.834
305.99	9.445
306.35	9.508
306.72	9.641
307.09	8.768
307.45	10.135
307.82	8.259
308.19	9.161
308.55	10.140
308.92	8.271
309.29	8.976
309.65	8.908
310.02	9.197
310.38	9.140
310.75	9.609
311.12	10.133
311.48	9.091
311.85	9.434
312.22	9.261
312.58	8.004
312.95	10.665
313.31	9.126
313.68	10.707
314.05	11.933
314.41	10.955
314.78	11.480
315.14	11.321
315.51	11.637
315.87	10.990
316.24	11.321
316.61	11.111
316.97	9.687
317.34	10.665
317.70	12.620
318.07	12.512
318.43	12.231
318.80	13.496
319.16	13.465
319.53	12.664
319.89	14.190
320.26	14.600
320.62	15.873
320.99	14.343
321.35	14.242
321.72	15.606
322.08	16.584
322.45	16.716
322.81	16.570
323.18	16.570
323.54	14.842
323.91	16.887
324.27	16.252
324.64	16.403
325.00	17.583
325.37	17.652
325.73	17.325
326.10	17.741
326.46	17.563
326.83	19.154
327.19	18.873
327.56	19.774
327.92	18.985
328.29	21.650
328.65	20.534
329.01	21.029
329.38	21.092
329.74	20.129
330.11	21.395
330.47	21.579
330.84	22.335
331.20	21.949
331.56	21.468
331.93	21.667
332.29	22.804
332.66	22.124
333.02	22.669
333.38	23.577
333.75	22.549
334.11	23.221
334.48	22.538
334.84	23.437
335.20	21.818
335.57	22.212
335.93	21.875
336.29	23.718
336.66	22.994
337.02	22.353
337.38	23.333
337.75	22.282
338.11	22.650
338.47	22.007
338.84	22.731
339.20	21.376
339.56	24.270
339.93	22.000
340.29	21.467
340.65	21.480
341.02	24.084
341.38	21.975
341.74	22.719
342.11	22.533
342.47	21.938
342.83	22.860
343.20	22.684
343.56	23.505
343.92	22.544
344.28	21.854
344.65	23.044
345.01	22.475
345.37	21.612
345.73	21.912
346.10	21.995
346.46	21.949
346.82	21.746
347.19	20.468
347.55	22.167
347.91	22.330
348.27	22.679
348.63	21.321
349.00	22.006
349.36	22.496
349.72	22.775
350.08	21.556
350.45	22.783
350.81	21.933
351.17	22.042
351.53	22.031
351.89	20.875
352.26	22.731
352.62	22.855
352.98	21.556
353.34	21.939
353.70	20.867
354.07	21.935
354.43	21.667
354.79	21.400
355.15	21.708
355.51	22.462
355.87	22.449
356.24	20.765
356.60	21.973
356.96	22.124
357.32	21.504
357.68	22.047
358.04	21.774
358.40	21.061
358.77	21.283
359.13	20.205
359.49	21.412
359.85	21.746
360.21	21.451
360.57	22.412
360.93	21.923
361.29	21.542
361.66	21.130
362.02	21.119
362.38	22.053
362.74	21.354
363.10	20.059
363.46	20.396
363.82	21.995
364.18	20.852
364.54	22.140
364.90	22.734
365.26	22.647
365.62	21.914
365.98	21.402
366.35	20.702
366.71	22.343
367.07	21.850
367.43	21.553
367.79	22.698
368.15	21.911
368.51	21.657
368.87	22.984
369.23	21.580
369.59	21.868
369.95	21.103
370.31	22.009
370.67	21.594
371.03	22.247
371.39	22.303
371.75	21.324
372.11	22.262
372.47	22.214
372.83	22.695
373.19	21.749
373.55	22.469
373.91	23.343
374.27	21.924
374.63	20.873
374.99	22.952
375.35	21.005
375.71	21.659
376.07	22.634
376.42	23.109
376.78	23.260
377.14	22.456
377.50	22.517
377.86	21.875
378.22	21.808
378.58	21.366
378.94	21.873
379.30	22.455
379.66	22.843
380.02	22.850
380.38	22.890
380.74	22.569
381.09	22.983
381.45	21.758
381.81	23.526
382.17	23.121
382.53	21.950
382.89	22.346
383.25	22.577
383.61	22.862
383.97	22.577
384.32	22.583
384.68	22.677
385.04	23.356
385.40	22.291
385.76	22.912
386.12	22.992
386.48	23.222
386.83	23.477
387.19	23.315
387.55	23.253
387.91	22.672
388.27	22.379
388.62	23.602
388.98	22.666
389.34	23.529
389.70	22.624
390.06	23.194
390.42	23.087
390.77	23.282
391.13	22.846
391.49	22.779
391.85	23.361
392.20	22.271
392.56	22.917
392.92	22.248
393.28	22.071
393.64	23.501
393.99	22.786
394.35	22.395
394.71	22.647
395.07	22.991
395.42	23.053
395.78	22.583
396.14	22.905
396.50	23.183
396.85	22.123
397.21	22.873
397.57	23.001
397.92	23.317
398.28	21.525
398.64	22.222
399.00	22.999
399.35	22.109
399.71	22.338
400.07	22.058
400.42	22.209
400.78	22.316
401.14	21.768
401.49	21.910
401.85	22.202
402.21	21.377
402.57	22.640
402.92	21.879
403.28	22.548
403.63	22.092
403.99	22.293
404.35	22.364
404.70	21.703
405.06	22.015
405.42	22.208
405.77	21.086
406.13	21.501
406.49	22.235
406.84	21.973
407.20	21.454
407.55	22.144
407.91	21.600
408.27	22.017
408.62	22.396
408.98	21.936
409.34	21.648
409.69	21.677
410.05	21.871
410.40	21.651
410.76	21.685
411.11	20.929
411.47	21.725
411.83	22.175
412.18	21.336
412.54	20.984
412.89	21.205
413.25	20.720
413.60	21.495
413.96	21.251
414.31	21.142
414.67	22.433
415.03	21.060
415.38	21.843
415.74	21.801
416.09	22.208
416.45	22.155
416.80	21.414
417.16	22.587
417.51	21.765
417.87	21.259
418.22	21.514
418.58	21.369
418.93	21.683
419.29	22.279
419.64	21.977
420.00	21.890
420.35	20.870
420.71	22.594
421.06	21.778
421.42	21.228
421.77	21.188
422.12	20.719
422.48	20.615
422.83	20.909
423.19	21.326
423.54	20.894
423.90	21.681
424.25	21.831
424.61	20.536
424.96	21.516
425.31	21.484
425.67	21.180
426.02	20.971
426.38	21.856
426.73	20.597
427.09	21.155
427.44	20.472
427.79	20.759
428.15	21.488
428.50	21.182
428.85	22.408
429.21	21.480
429.56	20.529
429.92	20.634
430.27	20.655
430.62	20.686
430.98	20.343
431.33	20.619
431.68	21.728
432.04	20.341
432.39	21.131
432.74	21.843
433.10	21.619
433.45	21.458
433.80	21.452
434.16	21.207
434.51	20.368
434.86	21.551
435.22	21.123
435.57	21.216
435.92	20.597
436.28	21.649
436.63	22.185
436.98	21.637
437.34	21.348
437.69	21.529
438.04	20.911
438.39	21.194
438.75	22.255
439.10	21.173
439.45	21.960
439.81	21.692
440.16	21.457
440.51	22.086
440.86	22.409
441.22	21.135
441.57	21.497
441.92	21.290
442.27	21.636
442.63	21.327
442.98	22.366
443.33	21.576
443.68	21.270
444.03	21.571
444.39	20.983
444.74	21.645
445.09	22.049
445.44	21.487
445.79	21.079
446.15	22.234
446.50	21.055
446.85	21.531
447.20	21.622
447.55	21.720
447.91	21.291
448.26	21.703
448.61	21.707
448.96	21.705
449.31	21.991
449.66	22.622
450.02	21.727
450.37	22.222
450.72	21.433
451.07	21.633
451.42	22.371
451.77	22.607
452.12	21.882
452.47	21.766
452.83	21.795
453.18	21.516
453.53	22.387
453.88	21.028
454.23	21.578
454.58	22.956
454.93	22.695
455.28	22.195
455.63	22.330
455.98	23.333
456.34	22.676
456.69	22.354
457.04	22.910
457.39	21.742
457.74	21.880
458.09	22.369
458.44	22.178
458.79	21.475
459.14	22.122
459.49	22.008
459.84	21.828
460.19	21.096
460.54	21.238
460.89	22.052
461.24	22.526
461.59	23.300
461.94	22.195
462.29	22.255
462.64	22.527
462.99	22.316
463.34	23.133
463.69	23.452
464.04	22.667
464.39	21.971
464.74	22.638
465.09	21.713
465.44	21.274
465.79	21.141
466.14	21.730
466.49	21.802
466.84	22.125
467.19	22.631
467.54	22.375
467.89	22.029
468.24	22.804
468.59	22.589
468.94	22.175
469.29	22.301
469.64	22.825
469.99	23.410
470.34	22.589
470.68	23.276
471.03	22.381
471.38	22.377
471.73	21.519
472.08	22.961
472.43	22.676
472.78	22.646
473.13	23.492
473.48	22.160
473.83	22.317
474.17	22.402
474.52	22.457
474.87	22.534
475.22	22.403
475.57	21.816
475.92	21.721
476.27	21.590
476.61	21.897
476.96	21.880
477.31	21.559
477.66	22.046
478.01	21.746
478.36	22.475
478.70	21.443
479.05	21.991
479.40	22.262
479.75	21.607
480.10	21.322
480.45	20.800
480.79	21.309
481.14	22.358
481.49	21.832
481.84	21.125
482.19	21.308
482.53	21.330
482.88	21.219
483.23	21.963
483.58	21.793
483.92	21.415
484.27	21.002
484.62	21.810
484.97	20.733
485.31	21.301
485.66	20.747
486.01	19.492
486.36	18.869
486.70	18.320
487.05	19.215
487.40	19.637
487.75	19.660
488.09	20.200
488.44	19.947
488.79	21.230
489.13	21.276
489.48	21.248
489.83	21.148
490.17	21.526
490.52	21.391
490.87	21.891
491.22	21.146
491.56	21.048
491.91	21.591
492.26	20.854
492.60	21.336
492.95	20.814
493.30	21.308
493.64	21.465
493.99	20.984
494.34	21.462
494.68	21.474
495.03	21.288
495.37	21.219
495.72	20.906
496.07	22.135
496.41	20.708
496.76	20.449
497.11	21.162
497.45	20.587
497.80	21.353
498.14	21.353
498.49	21.024
498.84	21.429
499.18	21.524
499.53	21.368
499.87	20.923
500.22	20.820
500.56	21.942
500.91	20.962
501.26	21.337
501.60	21.310
501.95	21.861
502.29	21.743
502.64	22.067
502.98	21.505
503.33	21.709
503.67	21.021
504.02	21.562
504.36	21.011
504.71	20.957
505.06	21.012
505.40	21.293
505.75	20.829
506.09	21.380
506.44	20.770
506.78	21.676
507.13	21.656
507.47	21.566
507.82	21.277
508.16	21.682
508.51	22.171
508.85	21.251
509.19	21.633
509.54	20.765
509.88	21.896
510.23	22.416
510.57	22.136
510.92	22.216
511.26	21.326
511.61	21.992
511.95	20.981
512.30	21.050
512.64	21.118
512.98	22.937
513.33	22.163
513.67	21.451
514.02	21.320
514.36	21.409
514.70	21.085
515.05	21.863
515.39	21.873
515.74	22.016
516.08	21.912
516.42	21.865
516.77	22.798
517.11	22.031
517.46	21.896
517.80	22.706
518.14	22.177
518.49	22.870
518.83	22.045
519.17	21.882
519.52	22.750
519.86	22.076
520.20	22.775
520.55	23.279
520.89	22.871
521.23	22.075
521.58	23.289
521.92	23.148
522.26	22.209
522.61	22.804
522.95	22.652
523.29	22.824
523.64	22.927
523.98	22.736
524.32	22.437
524.66	23.091
525.01	22.488
525.35	23.234
525.69	22.722
526.04	22.243
526.38	22.758
526.72	22.025
527.06	22.976
527.41	21.844
527.75	23.537
528.09	22.543
528.43	23.709
528.78	22.680
529.12	22.545
529.46	23.454
529.80	22.834
530.15	23.178
530.49	22.277
530.83	23.354
531.17	23.499
531.51	23.800
531.86	23.097
532.20	23.338
532.54	23.126
532.88	23.299
533.22	22.486
533.57	22.840
533.91	22.035
534.25	23.208
534.59	23.185
534.93	22.308
535.27	22.269
535.62	23.504
535.96	23.101
536.30	22.123
536.64	23.181
536.98	23.225
537.32	23.239
537.66	22.800
538.01	22.383
538.35	22.948
538.69	22.846
539.03	23.132
539.37	22.109
539.71	22.165
540.05	23.399
540.39	22.193
540.73	22.316
541.07	22.713
541.42	23.679
541.76	23.161
542.10	23.480
542.44	22.848
542.78	23.979
543.12	22.329
543.46	22.689
543.80	21.861
544.14	22.465
544.48	22.921
544.82	22.258
545.16	22.707
545.50	22.237
545.84	21.841
546.18	22.761
546.52	23.813
546.86	23.162
547.20	23.264
547.54	23.580
547.88	23.406
548.22	21.918
548.56	22.704
548.90	22.151
549.24	22.155
549.58	22.510
549.92	22.390
550.26	23.011
550.60	22.752
550.94	22.113
551.28	23.116
551.62	22.789
551.96	22.316
552.30	22.867
552.64	22.989
552.98	22.712
553.32	23.331
553.66	23.517
554.00	23.267
554.34	22.774
554.68	23.033
555.02	22.990
555.36	22.408
555.69	22.733
556.03	22.813
556.37	22.033
556.71	23.533
557.05	22.689
557.39	22.463
557.73	22.936
558.07	22.263
558.41	23.444
558.75	22.704
559.08	24.310
559.42	22.373
559.76	23.750
560.10	22.056
560.44	22.921
560.78	22.355
561.12	23.087
561.45	22.621
561.79	21.424
562.13	22.334
562.47	22.404
562.81	22.385
563.15	22.475
563.48	22.414
563.82	22.114
564.16	22.891
564.50	21.745
564.84	21.618
565.17	21.750
565.51	21.981
565.85	21.954
566.19	21.728
566.52	22.926
566.86	21.398
567.20	21.403
567.54	20.833
567.88	21.021
568.21	21.534
568.55	21.132
568.89	20.720
569.23	21.034
569.56	20.324
569.90	19.736
570.24	20.057
570.57	19.857
570.91	19.360
571.25	19.549
571.59	19.882
571.92	19.556
572.26	19.440
572.60	19.790
572.93	19.280
573.27	19.403
573.61	19.598
573.95	19.690
574.28	19.623
574.62	18.926
574.96	18.829
575.29	19.568
575.63	18.953
575.97	19.005
576.30	19.490
576.64	19.358
576.98	18.960
577.31	18.993
577.65	19.045
577.98	18.878
578.32	18.527
578.66	18.784
578.99	18.740
579.33	18.906
579.67	18.657
580.00	19.492
580.34	19.150
580.67	19.215
581.01	18.777
581.35	19.309
581.68	18.523
582.02	18.471
582.35	18.752
582.69	18.647
583.02	18.477
583.36	19.068
583.70	19.031
584.03	19.775
584.37	19.315
584.70	19.514
585.04	19.521
585.37	19.571
585.71	19.173
586.04	19.111
586.38	19.227
586.72	19.276
587.05	19.478
587.39	18.918
587.72	19.376
588.06	19.530
588.39	19.396
588.73	19.507
589.06	20.037
589.40	19.832
589.73	20.169
590.07	20.249
590.40	19.547
590.73	19.711
591.07	20.228
591.40	20.456
591.74	20.866
592.07	20.026
592.41	19.967
592.74	19.551
593.08	20.286
593.41	19.424
593.75	19.207
594.08	19.444
594.41	19.724
594.75	19.593
595.08	20.150
595.42	20.140
595.75	19.658
596.09	20.578
596.42	20.550
596.75	20.304
597.09	20.866
597.42	19.730
597.75	20.181
598.09	20.522
598.42	20.704
598.76	20.308
599.09	19.840
599.42	19.214
599.76	19.436
600.09	19.162
600.42	19.357
600.76	20.071
601.09	19.344
601.42	19.330
601.76	20.190
602.09	19.842
602.42	20.661
602.76	20.113
603.09	20.260
603.42	19.914
603.76	19.817
604.09	19.736
604.42	19.731
604.76	20.498
605.09	20.183
605.42	19.923
605.75	20.240
606.09	20.577
606.42	20.147
606.75	19.950
607.09	19.925
607.42	20.068
607.75	19.156
608.08	19.627
608.42	20.126
608.75	20.018
609.08	19.935
609.41	19.467
609.75	19.390
610.08	20.452
610.41	19.693
610.74	20.624
611.07	20.899
611.41	20.216
611.74	20.865
612.07	20.807
612.40	20.829
612.73	20.737
613.07	20.636
613.40	21.222
613.73	21.028
614.06	20.914
614.39	20.399
614.72	20.526
615.06	21.166
615.39	20.648
615.72	21.012
616.05	19.777
616.38	20.845
616.71	21.200
617.05	21.143
617.38	21.167
617.71	21.021
618.04	21.214
618.37	21.112
618.70	21.282
619.03	21.974
619.36	21.928
619.69	22.535
620.03	21.566
620.36	21.791
620.69	21.849
621.02	22.493
621.35	21.691
621.68	21.729
622.01	22.136
622.34	22.617
622.67	22.281
623.00	21.277
623.33	20.944
623.66	21.873
623.99	21.870
624.32	22.682
624.65	22.105
624.99	21.105
625.32	20.927
625.65	22.314
625.98	21.522
626.31	22.628
626.64	22.939
626.97	22.195
627.30	21.945
627.63	22.806
627.96	24.222
628.29	22.135
628.62	22.598
628.95	24.717
629.28	23.540
629.61	24.565
629.94	23.619
630.26	22.307
630.59	22.784
630.92	22.318
631.25	23.297
631.58	22.523
631.91	23.327
632.24	23.418
632.57	24.134
632.90	23.246
633.23	23.490
633.56	23.955
633.89	24.689
634.22	25.199
634.55	25.562
634.88	24.072
635.20	24.014
635.53	25.783
635.86	24.134
636.19	24.824
636.52	23.645
636.85	23.139
637.18	24.078
637.51	24.468
637.83	24.168
638.16	25.831
638.49	25.441
638.82	24.273
639.15	25.125
639.48	25.561
639.81	26.005
640.13	24.740
640.46	25.235
640.79	25.892
641.12	24.484
641.45	24.441
641.77	27.982
642.10	26.608
642.43	24.024
642.76	25.232
643.09	26.380
643.41	27.011
643.74	27.623
644.07	26.372
644.40	26.994
644.73	27.874
645.05	28.209
645.38	24.961
645.71	27.214
646.04	28.405
646.36	28.548
646.69	26.254
647.02	28.061
647.35	27.320
647.67	27.611
648.00	28.130
648.33	25.248
648.66	26.515
648.98	26.387
649.31	25.561
649.64	24.514
649.96	25.037
650.29	25.276
650.62	26.214
650.94	25.446
651.27	29.054
651.60	25.790
651.92	28.115
652.25	26.221
652.58	26.168
652.90	26.066
653.23	24.191
653.56	25.984
653.88	27.417
654.21	27.172
654.54	26.733
654.86	25.545
655.19	25.270
655.52	16.438
655.84	14.894
656.17	19.232
656.49	26.143
656.82	26.507
657.15	19.963
657.47	15.105
657.80	11.638
658.13	12.255
658.45	18.522
658.78	18.845
659.10	19.688
659.43	20.388
659.75	22.555
660.08	24.051
660.41	27.561
660.73	28.335
661.06	27.548
661.38	27.818
661.71	29.038
662.03	29.980
662.36	26.640
662.68	30.120
663.01	28.889
663.33	29.724
663.66	27.311
663.98	28.510
664.31	28.782
664.63	27.530
664.96	27.767
665.28	31.148
665.61	27.875
665.93	25.755
666.26	27.586
666.58	26.987
666.91	30.444
667.23	30.112
667.56	27.430
667.88	27.350
668.21	28.358
668.53	26.898
668.86	29.004
669.18	28.358
669.50	29.348
669.83	32.462
670.15	29.111
670.48	29.412
670.80	29.310
671.13	28.662
671.45	28.298
671.77	28.717
672.10	26.802
672.42	27.385
672.75	26.534
673.07	27.113
673.39	22.966
673.72	27.344
674.04	26.471
674.37	27.573
674.69	27.198
675.01	27.824
675.34	27.105
675.66	29.684
675.98	28.310
676.31	30.252
676.63	28.450
676.95	29.769
677.28	30.607
677.60	29.670
677.92	32.911
678.25	27.515
678.57	27.888
678.89	25.451
679.22	25.933
679.54	27.099
679.86	28.624
680.18	27.191
680.51	27.305
680.83	26.335
681.15	26.415
681.48	30.435
681.80	26.692
682.12	26.820
682.44	26.306
682.77	29.124
683.09	30.043
683.41	31.042
683.73	26.711
684.06	27.066
684.38	26.223
684.70	28.682
685.02	29.268
685.34	28.205
685.67	23.601
685.99	25.430
686.31	24.061
686.63	24.028
686.96	26.429
687.28	25.812
687.60	23.732
687.92	27.971
688.24	26.426
688.56	28.715
688.89	29.253
689.21	28.603
689.53	27.349
689.85	27.716
690.17	26.708
690.49	28.025
690.82	28.738
691.14	29.464
691.46	26.793
691.78	28.514
692.10	28.099
692.42	28.942
692.74	26.971
693.06	27.660
693.39	28.953
693.71	27.729
694.03	25.053
694.35	27.489
694.67	28.375
694.99	32.195
695.31	25.735
695.63	25.359
695.95	27.628
696.27	26.904
696.59	27.461
696.91	30.311
697.23	23.944
697.56	30.064
697.88	23.722
698.20	26.042
698.52	27.742
698.84	25.167
699.16	26.037
699.48	28.029
699.80	26.329
700.12	31.169
700.44	30.769
700.76	32.597
701.08	28.736
701.40	29.050
701.72	32.070
702.04	33.807
702.36	29.178
702.68	32.011
703.00	31.856
703.32	27.926
703.64	30.831
703.96	30.641
704.28	30.814
704.60	31.672
704.91	33.531
705.23	31.378
705.55	35.880
705.87	35.880
706.19	34.276
706.51	32.087
706.83	34.242
707.15	33.894
707.47	27.778
707.79	28.010
708.11	29.224
708.43	26.429
708.74	24.490
709.06	31.429
709.38	29.396
709.70	32.558
710.02	30.564
710.34	29.697
710.66	33.134
710.98	31.818
711.29	32.267
711.61	33.628
711.93	30.449
712.25	33.762
712.57	31.618
712.89	34.948
713.20	31.915
713.52	36.842
713.84	31.013
714.16	32.317
714.48	29.023
714.80	34.954
715.11	28.818
715.43	30.861
715.75	33.333
716.07	31.629
716.39	30.721
716.70	36.213
717.02	34.173
717.34	34.982
717.66	35.821
717.97	37.052
718.29	33.704
718.61	32.847
718.93	35.294
719.24	29.758
719.56	31.525
719.88	33.898
720.20	31.757
720.51	33.449
720.83	35.316
721.15	27.985
721.46	32.979
721.78	37.276
722.10	33.208
722.42	37.218
722.73	36.330
723.05	37.705
723.37	30.364
723.68	39.382
724.00	41.057
724.32	39.516
724.63	36.585
724.95	33.891
725.27	35.628
725.58	33.203
725.90	37.226
726.22	32.830
726.53	34.028
726.85	33.106
727.16	33.096
727.48	29.433
727.80	32.955
728.11	37.681
728.43	33.462
728.74	31.183
729.06	36.861
729.38	31.985
729.69	35.587
730.01	29.693
730.32	29.167
730.64	31.104
730.96	29.703
731.27	29.139
731.59	29.969
731.90	30.904
732.22	30.124
732.53	29.102
732.85	32.692
733.16	31.190
733.48	29.568
733.80	37.338
734.11	30.892
734.43	31.657
734.74	26.857
735.06	26.648
735.37	34.104
735.69	29.299
736.00	33.007
736.32	31.464
736.63	30.032
736.95	33.227
737.26	25.850
737.58	28.710
737.89	29.766
738.21	32.423
738.52	31.429
738.83	33.208
739.15	31.538
739.46	33.212
739.78	31.944
740.09	28.923
740.41	35.161
740.72	28.920
741.04	32.222
741.35	33.750
741.66	35.556
741.98	33.962
742.29	42.105
742.61	37.500
742.92	33.484
743.23	32.479
743.55	36.800
743.86	37.719
744.18	42.478
744.49	40.191
744.80	38.028
745.12	42.273
745.43	33.480
745.74	40.991
746.06	37.615
746.37	37.668
746.68	35.747
747.00	42.130
747.31	36.190
747.62	30.088
747.94	36.123
748.25	33.191
748.56	38.767
748.88	37.624
749.19	40.000
749.50	37.674
749.82	33.740
750.13	31.020
750.44	32.117
750.75	34.035
751.07	34.727
751.38	36.585
751.69	32.491
752.01	30.451
752.32	31.769
752.63	34.752
752.94	36.885
753.26	42.400
753.57	29.675
753.88	37.109
754.19	32.857
754.51	31.597
754.82	29.964
755.13	30.566
755.44	30.075
755.75	32.482
756.07	30.142
756.38	28.832
756.69	31.208
757.00	28.144
757.31	28.487
757.63	26.608
757.94	32.440
758.25	23.529
758.56	25.926
758.87	31.989
759.18	27.273
759.50	26.646
759.81	31.776
760.12	28.438
760.43	26.648
760.74	27.989
761.05	30.791
761.36	25.936
761.67	28.693
761.99	27.950
762.30	31.250
762.61	32.824
762.92	35.156
763.23	32.353
763.54	34.000
763.85	32.422
764.16	36.154
764.47	33.840
764.78	26.855
765.10	28.797
765.41	30.678
765.72	26.347
766.03	32.602
766.34	30.000
766.65	37.021
766.96	37.179
767.27	37.563
767.58	43.750
767.89	44.737
768.20	38.506
768.51	36.548
768.82	37.156
769.13	33.740
769.44	33.603
769.75	35.622
770.06	28.440
770.37	35.294
770.68	33.796
770.99	34.222
771.30	29.098
771.61	39.910
771.92	35.656
772.23	42.857
772.54	41.026
772.85	35.079
773.16	41.489
773.47	40.217
773.78	44.162
774.09	42.857
774.39	42.105
774.70	41.358
775.01	55.072
775.32	52.941
775.63	49.342
775.94	48.201
776.25	55.118
776.56	55.224
776.87	53.279
777.18	47.656
777.48	52.672
777.79	47.727
778.10	52.593
778.41	63.393
778.72	47.445
779.03	40.940
779.34	53.691
779.65	41.216
779.95	43.558
780.26	51.634
780.57	48.276
780.88	59.375
781.19	43.609
781.50	48.649
781.80	45.283
782.11	46.893
782.42	50.000
782.73	42.331
783.04	48.649
783.34	47.887
783.65	53.425
783.96	51.493
784.27	43.357
784.57	46.763
784.88	39.815
785.19	62.698
785.50	53.774
785.81	50.000
786.11	62.295
786.42	51.938
786.73	50.442
787.04	59.434
787.34	51.786
787.65	57.000
787.96	53.153
788.26	52.066
788.57	72.034
788.88	57.025
789.19	54.167
789.49	56.818
789.80	49.618
790.11	74.286
790.41	71.287
790.72	60.241
791.03	73.913
791.33	61.628
791.64	63.918
791.95	55.446
792.25	80.000
792.56	71.429
792.87	74.359
793.17	89.873
793.48	74.713
793.79	66.667
794.09	77.273
794.40	60.504
794.70	61.765
795.01	50.370
795.32	48.201
795.62	54.331
795.93	54.310
796.23	61.062
796.54	49.412
796.85	68.919
797.15	92.958
797.46	71.212
797.76	89.157
798.07	78.481
798.37	76.923
798.68	90.909
798.99	87.324
799.29	84.416
799.60	65.909
799.90	79.452
800.21	92.537
800.51	91.379
800.82	98.246
801.12	83.607
801.43	89.394
801.73	82.432
802.04	100.000
802.34	72.840
802.65	81.250
802.95	100.000
803.26	93.750
803.56	87.143
803.87	84.615
804.17	94.118
804.48	109.259
804.78	89.655
805.09	67.647
805.39	96.154
805.70	105.357
806.00	98.361
806.30	68.182
806.61	87.805
806.91	63.291
807.22	89.474
807.52	53.731
807.83	88.732
808.13	98.437
808.43	88.333
808.74	89.474
809.04	91.304
809.35	94.030
809.65	77.632
809.95	104.839
810.26	94.915
810.56	103.175
810.86	118.182
811.17	147.619
811.47	105.000
811.77	81.481
812.08	110.909
812.38	132.000
812.69	138.889
812.99	145.455
813.29	104.082
813.59	104.762
813.90	128.571
814.20	96.364
814.50	84.615
814.81	100.000
815.11	110.204
815.41	114.754
815.72	130.952
816.02	109.091
816.32	126.190
816.62	110.000
816.93	131.707
817.23	130.952
817.53	127.273
817.84	154.545
818.14	110.870
818.44	111.111
818.74	132.353
819.04	155.000
819.35	180.000
819.65	173.529
819.95	185.714
820.25	185.000
820.56	156.410
820.86	138.636
821.16	130.233
821.46	130.769
821.76	136.000
822.07	162.857
822.37	115.000
822.67	169.697
822.97	100.000
823.27	200.000
823.57	151.351
823.88	132.500
824.18	183.333
824.48	142.857
824.78	192.000
825.08	183.333
825.38	135.135
825.69	124.390
825.99	229.167
826.29	131.034
826.59	147.368
826.89	136.842
827.19	155.882
827.49	177.419
827.79	143.182
828.09	111.364
828.39	129.787
828.70	142.857
829.00	170.370
829.30	174.194
829.60	147.500
829.90	333.333
830.20	167.857
830.50	200.000
830.80	226.087
831.10	213.333
831.40	190.000
831.70	195.652
832.00	207.692
832.30	188.889
832.60	293.750
832.90	213.333
833.20	385.714
833.50	177.419
833.80	165.517
834.10	162.500
834.40	246.154
834.70	311.111
835.00	266.667
835.30	154.286
835.60	346.154
835.90	189.655
836.20	271.429
836.50	175.862
836.80	196.000
837.10	175.000
837.40	214.286
837.70	305.882
838.00	225.926
838.30	219.048
838.60	309.524
838.90	165.385
839.19	265.000
839.49	442.857
839.79	310.000
840.09	225.000
840.39	257.143
840.69	239.130
840.99	277.778
841.29	460.000
841.59	358.333
841.88	343.750
842.18	182.759
842.48	280.952
842.78	173.333
843.08	234.783
843.38	153.125
843.68	783.333
843.97	226.923
844.27	196.552
844.57	266.667
844.87	350.000
845.17	225.926
845.47	1366.667
845.76	466.667
846.06	323.529
846.36	525.000
846.66	321.429
846.96	262.500
847.25	336.364
847.55	418.182
847.85	234.783
848.15	490.000
848.44	421.429
848.74	277.778
849.04	329.412
849.34	490.000
849.63	236.842
849.93	390.909
850.23	960.000
850.53	435.714
850.82	2350.000
851.12	-4700.000
851.42	4400.000
851.71	280.000
852.01	-1033.333
852.31	216.667
852.61	1700.000
852.90	304.762
853.20	232.000
853.50	352.941
853.79	271.429
854.09	208.333
854.39	312.500
854.68	175.676
854.98	193.548
855.28	210.000
855.57	182.759
855.87	196.296
856.17	278.947
856.46	240.000
856.76	300.000
857.05	237.931
857.35	245.833
857.65	346.667
857.94	230.435
858.24	242.308
858.53	265.000
858.83	222.727
859.13	293.333
859.42	0.000
859.72	522.222
860.01	381.818
860.31	295.455
860.60	257.895
860.90	221.739
861.20	588.889
861.49	566.667
861.79	-4800.000
862.08	700.000
862.38	280.952
862.67	361.538
862.97	358.824
863.26	466.667
863.56	244.444
863.85	366.667
864.15	575.000
864.44	420.000
864.74	866.667
865.03	600.000
865.33	305.263
865.62	472.727
865.92	415.385
866.21	350.000
866.51	0.000
866.80	490.909
867.10	1220.000
867.39	438.462
867.69	454.545
867.98	252.632
868.27	481.818
868.57	247.368
868.86	-4500.000
869.16	331.250
869.45	2350.000
869.75	-3600.000
870.04	441.667
870.33	571.429
870.63	1100.000
870.92	2750.000
871.22	814.286
871.51	335.294
871.80	204.762
872.10	307.143
>>>>>End Processed Spectral Data<<<<<
