SpectraSuite Data File
++++++++++++++++++++++++++++++++++++
Date: Wed May 13 16:50:58 PDT 2015
User: schluterlab
Dark Spectrum Present: Yes
Reference Spectrum Present: Yes
Number of Sampled Component Spectra: 1
Spectrometers: USB2E3373
Integration Time (usec): 3000 (USB2E3373)
Spectra Averaged: 3 (USB2E3373)
Boxcar Smoothing: 0 (USB2E3373)
Correct for Electrical Dark: No (USB2E3373)
Strobe/Lamp Enabled: No (USB2E3373)
Correct for Detector Non-linearity: No (USB2E3373)
Correct for Stray Light: No (USB2E3373)
Number of Pixels in Processed Spectrum: 2048
>>>>>Begin Processed Spectral Data<<<<<
178.53	0.000
178.91	-1275.000
179.29	-1250.000
179.67	-211.111
180.04	-1150.000
180.42	2300.000
180.80	1200.000
181.18	-950.000
181.56	571.429
181.94	0.000
182.31	-685.714
182.69	1666.667
183.07	-500.000
183.45	-500.000
183.83	472.727
184.20	-430.000
184.58	1950.000
184.96	4200.000
185.34	-780.000
185.72	-712.500
186.09	-2250.000
186.47	2700.000
186.85	2600.000
187.23	4200.000
187.61	-1866.667
187.98	1125.000
188.36	509.091
188.74	463.636
189.12	-820.000
189.49	510.000
189.87	-4900.000
190.25	-1250.000
190.63	421.429
191.00	369.231
191.38	733.333
191.76	-900.000
192.14	1400.000
192.51	650.000
192.89	766.667
193.27	725.000
193.65	-1225.000
194.02	520.000
194.40	1020.000
194.78	550.000
195.15	525.000
195.53	640.000
195.91	-1900.000
196.29	356.250
196.66	289.474
197.04	-310.000
197.42	0.000
197.79	580.000
198.17	-5000.000
198.55	685.714
198.92	575.000
199.30	940.000
199.68	0.000
200.05	361.111
200.43	714.286
200.81	4500.000
201.18	1400.000
201.56	-1400.000
201.94	500.000
202.31	544.444
202.69	466.667
203.07	490.000
203.44	0.000
203.82	1200.000
204.19	728.571
204.57	371.429
204.95	550.000
205.32	1733.333
205.70	472.727
206.08	385.714
206.45	2400.000
206.83	300.000
207.20	700.000
207.58	760.000
207.96	288.889
208.33	750.000
208.71	-800.000
209.08	814.286
209.46	655.556
209.84	327.273
210.21	-1733.333
210.59	1575.000
210.96	-500.000
211.34	2600.000
211.71	520.000
212.09	683.333
212.46	0.000
212.84	1566.667
213.22	1450.000
213.59	-3900.000
213.97	733.333
214.34	671.429
214.72	445.455
215.09	1000.000
215.47	-1950.000
215.84	-2450.000
216.22	1633.333
216.59	350.000
216.97	1175.000
217.34	418.182
217.72	-783.333
218.09	0.000
218.47	-4800.000
218.84	622.222
219.22	742.857
219.59	1533.333
219.97	-514.286
220.34	840.000
220.72	-1700.000
221.09	392.857
221.47	1525.000
221.84	-933.333
222.22	0.000
222.59	1375.000
222.97	-2950.000
223.34	1220.000
223.72	415.385
224.09	940.000
224.46	2100.000
224.84	-4800.000
225.21	-960.000
225.59	-3900.000
225.96	580.000
226.34	300.000
226.71	2400.000
227.08	525.000
227.46	510.000
227.83	-1225.000
228.21	-1250.000
228.58	466.667
228.95	-2300.000
229.33	-2550.000
229.70	1900.000
230.08	771.429
230.45	-1000.000
230.82	491.667
231.20	816.667
231.57	785.714
231.95	458.333
232.32	222.727
232.69	336.364
233.07	614.286
233.44	361.538
233.81	-1366.667
234.19	310.526
234.56	408.333
234.93	416.667
235.31	436.364
235.68	369.231
236.05	350.000
236.43	160.606
236.80	336.842
237.17	5200.000
237.55	266.667
237.92	214.286
238.29	300.000
238.67	180.645
239.04	206.897
239.41	158.333
239.79	139.130
240.16	147.619
240.53	165.909
240.91	145.098
241.28	138.000
241.65	140.000
242.02	126.087
242.40	120.968
242.77	135.000
243.14	106.452
243.51	103.371
243.89	103.529
244.26	95.556
244.63	88.172
245.00	92.553
245.38	100.000
245.75	91.589
246.12	81.651
246.49	81.752
246.87	89.600
247.24	93.077
247.61	72.857
247.98	76.471
248.36	70.946
248.73	78.344
249.10	75.796
249.47	77.401
249.84	76.471
250.22	72.193
250.59	73.964
250.96	72.222
251.33	73.934
251.70	75.248
252.08	71.429
252.45	63.229
252.82	62.609
253.19	68.936
253.56	67.059
253.94	68.880
254.31	64.453
254.68	73.077
255.05	64.576
255.42	67.480
255.79	65.809
256.16	66.426
256.54	59.364
256.91	65.125
257.28	62.230
257.65	61.716
258.02	58.075
258.39	63.722
258.76	61.204
259.14	58.631
259.51	61.094
259.88	55.590
260.25	62.236
260.62	59.538
260.99	61.180
261.36	61.862
261.73	60.172
262.10	62.500
262.47	60.000
262.85	52.925
263.22	57.835
263.59	60.399
263.96	57.143
264.33	56.136
264.70	55.789
265.07	59.335
265.44	55.303
265.81	54.501
266.18	57.538
266.55	56.341
266.92	56.511
267.29	55.787
267.66	56.193
268.03	51.591
268.40	55.607
268.77	53.222
269.14	54.730
269.51	56.885
269.88	55.944
270.25	55.305
270.62	53.933
270.99	52.258
271.36	51.717
271.73	54.673
272.10	55.217
272.47	56.129
272.84	56.061
273.21	53.459
273.58	51.310
273.95	50.734
274.32	54.339
274.69	55.246
275.06	50.787
275.43	52.979
275.80	51.303
276.17	51.324
276.54	51.767
276.91	51.581
277.28	51.563
277.65	50.097
278.02	51.346
278.39	51.953
278.76	51.091
279.13	52.075
279.50	50.466
279.87	54.382
280.23	51.497
280.60	50.484
280.97	51.941
281.34	50.088
281.71	52.545
282.08	51.248
282.45	50.545
282.82	50.622
283.19	51.159
283.56	48.246
283.92	49.069
284.29	49.383
284.66	50.272
285.03	49.005
285.40	48.944
285.77	47.643
286.14	50.259
286.51	49.833
286.87	45.470
287.24	48.208
287.61	48.636
287.98	47.565
288.35	46.276
288.72	44.704
289.08	45.383
289.45	46.293
289.82	47.805
290.19	44.427
290.56	44.257
290.93	42.598
291.29	44.018
291.66	43.658
292.03	44.477
292.40	43.319
292.77	45.414
293.13	41.791
293.50	44.315
293.87	43.259
294.24	41.333
294.60	42.213
294.97	41.570
295.34	39.774
295.71	41.051
296.08	42.023
296.44	41.953
296.81	39.630
297.18	41.192
297.55	38.786
297.91	38.918
298.28	39.893
298.65	37.467
299.02	40.053
299.38	37.583
299.75	36.523
300.12	38.186
300.48	38.875
300.85	36.621
301.22	37.070
301.59	37.753
301.95	36.146
302.32	38.768
302.69	35.842
303.05	36.727
303.42	37.654
303.79	35.334
304.15	35.664
304.52	36.037
304.89	35.772
305.25	35.267
305.62	35.447
305.99	35.537
306.35	35.570
306.72	35.650
307.09	36.182
307.45	36.036
307.82	34.375
308.19	34.658
308.55	34.736
308.92	34.694
309.29	34.213
309.65	33.510
310.02	33.721
310.38	35.054
310.75	34.319
311.12	33.777
311.48	34.587
311.85	34.801
312.22	33.611
312.58	32.744
312.95	34.319
313.31	32.718
313.68	34.304
314.05	34.122
314.41	34.472
314.78	33.635
315.14	33.466
315.51	33.368
315.87	33.366
316.24	32.175
316.61	31.384
316.97	32.192
317.34	32.583
317.70	32.887
318.07	33.590
318.43	33.659
318.80	34.114
319.16	32.674
319.53	31.989
319.89	32.571
320.26	32.800
320.62	33.631
320.99	31.313
321.35	31.717
321.72	32.752
322.08	32.577
322.45	33.632
322.81	32.364
323.18	33.044
323.54	30.983
323.91	32.642
324.27	32.505
324.64	30.755
325.00	30.929
325.37	31.756
325.73	31.867
326.10	30.803
326.46	30.556
326.83	32.528
327.19	31.939
327.56	30.052
327.92	31.234
328.29	31.854
328.65	32.228
329.01	32.220
329.38	30.527
329.74	31.579
330.11	30.443
330.47	30.211
330.84	31.434
331.20	29.964
331.56	30.092
331.93	31.204
332.29	30.790
332.66	30.265
333.02	30.713
333.38	31.256
333.75	29.857
334.11	30.160
334.48	29.725
334.84	30.331
335.20	30.273
335.57	29.828
335.93	28.571
336.29	29.212
336.66	30.388
337.02	29.140
337.38	29.907
337.75	29.501
338.11	29.543
338.47	29.374
338.84	30.797
339.20	28.532
339.56	30.383
339.93	29.182
340.29	28.351
340.65	29.055
341.02	29.058
341.38	29.804
341.74	28.947
342.11	29.258
342.47	29.339
342.83	29.281
343.20	29.784
343.56	28.054
343.92	28.947
344.28	29.422
344.65	29.751
345.01	27.778
345.37	28.816
345.73	27.242
346.10	28.218
346.46	27.881
346.82	28.171
347.19	26.901
347.55	27.176
347.91	28.641
348.27	28.595
348.63	27.341
349.00	27.913
349.36	27.011
349.72	27.747
350.08	27.796
350.45	28.478
350.81	28.107
351.17	29.173
351.53	26.945
351.89	27.063
352.26	26.914
352.62	26.945
352.98	26.256
353.34	27.773
353.70	27.005
354.07	27.984
354.43	26.508
354.79	25.261
355.15	26.975
355.51	28.617
355.87	27.510
356.24	26.547
356.60	27.747
356.96	26.870
357.32	26.819
357.68	27.874
358.04	27.237
358.40	28.187
358.77	27.308
359.13	25.888
359.49	26.588
359.85	26.270
360.21	27.432
360.57	26.926
360.93	26.923
361.29	25.699
361.66	25.851
362.02	27.015
362.38	26.996
362.74	26.786
363.10	25.981
363.46	25.605
363.82	25.850
364.18	26.505
364.54	26.895
364.90	26.346
365.26	26.103
365.62	26.662
365.98	25.858
366.35	25.573
366.71	26.320
367.07	26.220
367.43	26.125
367.79	26.267
368.15	27.586
368.51	25.799
368.87	26.267
369.23	26.701
369.59	27.444
369.95	25.588
370.31	25.712
370.67	25.870
371.03	27.116
371.39	26.020
371.75	27.206
372.11	25.107
372.47	26.833
372.83	26.369
373.19	25.289
373.55	25.868
373.91	26.510
374.27	25.361
374.63	25.745
374.99	26.554
375.35	25.192
375.71	24.949
376.07	25.514
376.42	26.479
376.78	26.839
377.14	25.645
377.50	25.629
377.86	25.332
378.22	24.336
378.58	24.937
378.94	25.330
379.30	24.873
379.66	25.254
380.02	26.106
380.38	25.440
380.74	26.170
381.09	25.978
381.45	26.122
381.81	25.123
382.17	25.924
382.53	24.654
382.89	25.494
383.25	24.578
383.61	25.527
383.97	25.641
384.32	25.577
384.68	25.403
385.04	25.999
385.40	25.759
385.76	25.614
386.12	25.583
386.48	25.928
386.83	25.208
387.19	25.603
387.55	26.345
387.91	25.574
388.27	25.261
388.62	26.368
388.98	25.860
389.34	26.283
389.70	25.383
390.06	26.172
390.42	25.551
390.77	25.954
391.13	26.484
391.49	25.888
391.85	25.334
392.20	24.795
392.56	26.326
392.92	25.721
393.28	24.734
393.64	26.019
393.99	26.145
394.35	25.806
394.71	25.784
395.07	24.922
395.42	25.896
395.78	25.573
396.14	25.326
396.50	26.190
396.85	25.938
397.21	25.092
397.57	25.418
397.92	25.421
398.28	24.439
398.64	25.388
399.00	25.294
399.35	25.042
399.71	25.058
400.07	26.375
400.42	25.951
400.78	25.392
401.14	24.695
401.49	25.910
401.85	25.166
402.21	25.090
402.57	25.231
402.92	25.914
403.28	25.859
403.63	24.938
403.99	25.669
404.35	25.273
404.70	24.880
405.06	25.335
405.42	25.140
405.77	24.971
406.13	25.451
406.49	24.837
406.84	24.690
407.20	24.113
407.55	25.463
407.91	25.200
408.27	24.378
408.62	24.202
408.98	25.123
409.34	24.969
409.69	24.581
410.05	25.465
410.40	24.893
410.76	24.851
411.11	24.970
411.47	23.770
411.83	24.679
412.18	24.057
412.54	24.035
412.89	24.639
413.25	25.620
413.60	24.768
413.96	24.104
414.31	25.273
414.67	25.349
415.03	24.106
415.38	25.258
415.74	25.402
416.09	25.669
416.45	24.967
416.80	25.380
417.16	25.134
417.51	24.884
417.87	24.277
418.22	24.795
418.58	24.855
418.93	25.307
419.29	25.080
419.64	25.063
420.00	25.610
420.35	24.754
420.71	24.925
421.06	24.105
421.42	25.556
421.77	24.271
422.12	23.807
422.48	24.231
422.83	24.811
423.19	25.028
423.54	25.421
423.90	25.565
424.25	25.070
424.61	25.536
424.96	24.840
425.31	24.862
425.67	24.045
426.02	24.286
426.38	26.618
426.73	25.161
427.09	24.863
427.44	24.382
427.79	24.209
428.15	25.179
428.50	25.044
428.85	25.209
429.21	24.462
429.56	24.780
429.92	24.660
430.27	24.926
430.62	24.066
430.98	24.857
431.33	24.588
431.68	24.869
432.04	24.281
432.39	24.672
432.74	25.374
433.10	24.165
433.45	25.481
433.80	24.612
434.16	25.214
434.51	24.000
434.86	25.143
435.22	25.403
435.57	25.775
435.92	24.517
436.28	26.097
436.63	25.331
436.98	24.556
437.34	25.462
437.69	24.854
438.04	24.564
438.39	25.194
438.75	25.741
439.10	25.084
439.45	25.030
439.81	24.350
440.16	25.466
440.51	24.897
440.86	25.478
441.22	24.194
441.57	25.372
441.92	24.616
442.27	24.758
442.63	24.329
442.98	25.746
443.33	24.783
443.68	24.316
444.03	24.646
444.39	24.489
444.74	24.134
445.09	24.636
445.44	24.276
445.79	24.344
446.15	25.357
446.50	24.933
446.85	24.409
447.20	25.089
447.55	25.181
447.91	24.600
448.26	24.708
448.61	24.760
448.96	25.305
449.31	25.084
449.66	24.648
450.02	24.624
450.37	24.036
450.72	24.647
451.07	24.863
451.42	24.681
451.77	25.661
452.12	24.307
452.47	25.622
452.83	24.767
453.18	24.817
453.53	26.036
453.88	25.044
454.23	24.626
454.58	25.621
454.93	25.747
455.28	25.623
455.63	25.485
455.98	25.417
456.34	25.942
456.69	24.421
457.04	26.006
457.39	24.489
457.74	24.666
458.09	25.532
458.44	25.485
458.79	23.807
459.14	24.718
459.49	25.861
459.84	24.765
460.19	24.573
460.54	24.826
460.89	23.971
461.24	25.744
461.59	25.508
461.94	24.599
462.29	25.104
462.64	25.526
462.99	25.049
463.34	26.600
463.69	25.578
464.04	24.522
464.39	25.681
464.74	24.896
465.09	24.608
465.44	24.986
465.79	24.049
466.14	25.068
466.49	24.305
466.84	25.102
467.19	24.744
467.54	26.000
467.89	24.910
468.24	24.898
468.59	25.275
468.94	24.557
469.29	25.193
469.64	25.569
469.99	25.237
470.34	25.892
470.68	25.575
471.03	24.762
471.38	26.199
471.73	25.916
472.08	25.789
472.43	24.937
472.78	26.004
473.13	24.840
473.48	24.782
473.83	25.183
474.17	24.331
474.52	25.682
474.87	24.810
475.22	25.421
475.57	24.557
475.92	24.323
476.27	24.859
476.61	24.324
476.96	23.529
477.31	24.385
477.66	25.000
478.01	24.255
478.36	25.912
478.70	23.832
479.05	25.133
479.40	24.821
479.75	25.419
480.10	24.155
480.45	24.227
480.79	23.841
481.14	24.462
481.49	24.585
481.84	23.914
482.19	24.398
482.53	24.450
482.88	24.011
483.23	24.813
483.58	24.568
483.92	24.977
484.27	23.704
484.62	24.224
484.97	23.926
485.31	25.171
485.66	23.869
486.01	23.213
486.36	22.059
486.70	21.944
487.05	22.327
487.40	22.957
487.75	23.275
488.09	23.961
488.44	23.249
488.79	24.195
489.13	24.370
489.48	24.062
489.83	23.910
490.17	24.682
490.52	24.314
490.87	23.564
491.22	23.602
491.56	23.462
491.91	24.570
492.26	24.208
492.60	24.378
492.95	23.807
493.30	23.551
493.64	25.012
493.99	23.909
494.34	23.867
494.68	23.901
495.03	24.812
495.37	23.825
495.72	24.513
496.07	24.223
496.41	23.407
496.76	24.055
497.11	23.683
497.45	24.173
497.80	24.088
498.14	23.720
498.49	24.293
498.84	24.209
499.18	23.857
499.53	25.024
499.87	24.138
500.22	24.494
500.56	24.757
500.91	23.558
501.26	24.846
501.60	24.917
501.95	24.015
502.29	24.414
502.64	23.696
502.98	24.404
503.33	23.492
503.67	23.991
504.02	23.948
504.36	23.350
504.71	24.573
505.06	24.193
505.40	24.648
505.75	24.349
506.09	24.101
506.44	24.322
506.78	23.673
507.13	24.281
507.47	24.343
507.82	24.772
508.16	24.620
508.51	25.114
508.85	24.876
509.19	25.102
509.54	24.847
509.88	24.781
510.23	24.884
510.57	24.974
510.92	25.790
511.26	25.385
511.61	25.052
511.95	24.791
512.30	24.231
512.64	24.181
512.98	25.241
513.33	24.786
513.67	24.546
514.02	24.946
514.36	25.123
514.70	25.235
515.05	24.261
515.39	25.070
515.74	25.000
516.08	24.595
516.42	25.028
516.77	25.139
517.11	24.972
517.46	25.282
517.80	24.623
518.14	24.146
518.49	24.971
518.83	25.000
519.17	24.942
519.52	25.014
519.86	24.872
520.20	25.029
520.55	25.613
520.89	24.818
521.23	25.573
521.58	25.150
521.92	24.985
522.26	24.893
522.61	25.794
522.95	25.046
523.29	24.285
523.64	25.610
523.98	25.940
524.32	25.332
524.66	25.195
525.01	25.980
525.35	24.783
525.69	24.877
526.04	25.171
526.38	25.320
526.72	24.969
527.06	25.235
527.41	24.134
527.75	25.209
528.09	25.434
528.43	24.984
528.78	25.015
529.12	24.485
529.46	25.964
529.80	25.309
530.15	25.670
530.49	24.615
530.83	25.823
531.17	25.914
531.51	26.329
531.86	25.226
532.20	26.010
532.54	24.920
532.88	26.316
533.22	26.046
533.57	25.741
533.91	25.707
534.25	25.638
534.59	25.259
534.93	24.331
535.27	24.925
535.62	24.847
535.96	25.989
536.30	24.793
536.64	25.499
536.98	25.547
537.32	25.806
537.66	25.533
538.01	24.819
538.35	25.792
538.69	26.037
539.03	25.731
539.37	24.089
539.71	23.655
540.05	25.229
540.39	25.050
540.73	25.032
541.07	25.762
541.42	25.571
541.76	24.968
542.10	25.485
542.44	25.099
542.78	25.494
543.12	23.992
543.46	24.787
543.80	25.309
544.14	24.069
544.48	24.571
544.82	24.503
545.16	24.854
545.50	24.807
545.84	24.933
546.18	24.848
546.52	25.396
546.86	25.155
547.20	25.354
547.54	25.585
547.88	25.446
548.22	25.156
548.56	24.591
548.90	24.392
549.24	25.455
549.58	25.716
549.92	25.206
550.26	25.568
550.60	25.173
550.94	25.493
551.28	24.433
551.62	25.377
551.96	24.561
552.30	25.392
552.64	26.099
552.98	25.898
553.32	25.691
553.66	25.290
554.00	26.081
554.34	24.845
554.68	25.751
555.02	25.388
555.36	25.609
555.69	24.696
556.03	25.841
556.37	24.761
556.71	25.171
557.05	25.000
557.39	25.262
557.73	25.618
558.07	26.613
558.41	25.253
558.75	24.908
559.08	25.652
559.42	24.641
559.76	26.397
560.10	25.910
560.44	25.996
560.78	25.083
561.12	24.802
561.45	25.815
561.79	25.247
562.13	24.279
562.47	24.932
562.81	26.081
563.15	24.883
563.48	24.934
563.82	24.723
564.16	24.853
564.50	24.674
564.84	25.348
565.17	24.517
565.51	25.176
565.85	24.365
566.19	24.796
566.52	24.889
566.86	24.171
567.20	24.646
567.54	24.886
567.88	24.715
568.21	24.974
568.55	24.823
568.89	25.292
569.23	23.886
569.56	23.117
569.90	24.302
570.24	23.538
570.57	23.733
570.91	22.754
571.25	22.977
571.59	22.946
571.92	23.358
572.26	23.195
572.60	23.363
572.93	22.849
573.27	23.307
573.61	23.646
573.95	22.610
574.28	22.663
574.62	22.716
574.96	22.772
575.29	22.648
575.63	22.358
575.97	22.728
576.30	23.234
576.64	22.745
576.98	22.581
577.31	22.551
577.65	23.105
577.98	22.658
578.32	22.319
578.66	22.746
578.99	22.438
579.33	22.706
579.67	22.501
580.00	22.944
580.34	22.591
580.67	22.524
581.01	22.982
581.35	22.888
581.68	21.908
582.02	22.564
582.35	22.351
582.69	22.399
583.02	22.641
583.36	22.965
583.70	23.526
584.03	23.119
584.37	23.742
584.70	23.589
585.04	22.970
585.37	23.183
585.71	23.144
586.04	23.073
586.38	23.276
586.72	23.474
587.05	23.092
587.39	23.325
587.72	23.499
588.06	23.106
588.39	23.155
588.73	23.233
589.06	24.026
589.40	23.502
589.73	23.759
590.07	23.416
590.40	23.274
590.73	23.770
591.07	23.728
591.40	23.998
591.74	24.762
592.07	24.346
592.41	24.680
592.74	23.446
593.08	23.051
593.41	23.126
593.75	23.048
594.08	23.232
594.41	23.330
594.75	23.475
595.08	23.372
595.42	23.888
595.75	23.682
596.09	23.432
596.42	24.204
596.75	23.639
597.09	24.329
597.42	23.061
597.75	24.364
598.09	24.261
598.42	23.926
598.76	23.672
599.09	23.147
599.42	22.853
599.76	23.097
600.09	23.133
600.42	23.119
600.76	22.643
601.09	23.352
601.42	23.212
601.76	23.036
602.09	22.688
602.42	23.487
602.76	24.345
603.09	23.603
603.42	23.741
603.76	23.476
604.09	23.963
604.42	23.481
604.76	24.378
605.09	23.810
605.42	22.659
605.75	23.510
606.09	23.261
606.42	23.335
606.75	23.227
607.09	24.278
607.42	23.363
607.75	23.249
608.08	22.753
608.42	23.801
608.75	23.309
609.08	22.942
609.41	24.369
609.75	24.011
610.08	24.175
610.41	23.696
610.74	23.794
611.07	23.370
611.41	24.190
611.74	23.529
612.07	23.654
612.40	24.502
612.73	23.789
613.07	24.784
613.40	23.907
613.73	23.702
614.06	24.194
614.39	23.388
614.72	23.895
615.06	24.107
615.39	23.779
615.72	23.262
616.05	24.083
616.38	23.624
616.71	24.406
617.05	24.382
617.38	23.752
617.71	23.123
618.04	24.579
618.37	23.300
618.70	24.642
619.03	24.671
619.36	25.051
619.69	25.070
620.03	24.725
620.36	24.933
620.69	24.932
621.02	24.853
621.35	25.215
621.68	23.910
622.01	24.845
622.34	25.038
622.67	25.475
623.00	24.211
623.33	24.089
623.66	24.589
623.99	25.110
624.32	24.251
624.65	24.506
624.99	24.221
625.32	24.330
625.65	24.793
625.98	25.365
626.31	26.205
626.64	26.122
626.97	24.771
627.30	25.686
627.63	25.759
627.96	24.558
628.29	26.597
628.62	26.167
628.95	26.604
629.28	25.274
629.61	25.756
629.94	25.714
630.26	26.025
630.59	24.690
630.92	25.670
631.25	23.593
631.58	25.526
631.91	24.949
632.24	26.371
632.57	26.338
632.90	26.535
633.23	26.734
633.56	26.441
633.89	26.161
634.22	27.242
634.55	26.509
634.88	26.707
635.20	26.643
635.53	27.229
635.86	27.723
636.19	26.118
636.52	26.182
636.85	26.231
637.18	24.770
637.51	26.832
637.83	25.154
638.16	26.471
638.49	27.078
638.82	27.181
639.15	28.000
639.48	28.180
639.81	28.418
640.13	26.693
640.46	26.846
640.79	27.741
641.12	25.860
641.45	26.536
641.77	27.541
642.10	26.901
642.43	26.877
642.76	27.554
643.09	26.840
643.41	26.707
643.74	29.475
644.07	27.439
644.40	29.141
644.73	28.976
645.05	29.635
645.38	28.594
645.71	27.053
646.04	29.236
646.36	31.052
646.69	29.599
647.02	28.401
647.35	29.210
647.67	28.142
648.00	28.780
648.33	27.558
648.66	24.697
648.98	29.085
649.31	26.009
649.64	26.308
649.96	27.869
650.29	29.858
650.62	26.052
650.94	28.363
651.27	29.899
651.60	30.116
651.92	29.872
652.25	26.221
652.58	27.882
652.90	27.330
653.23	27.273
653.56	27.559
653.88	28.051
654.21	29.858
654.54	27.723
654.86	28.972
655.19	27.703
655.52	19.904
655.84	19.097
656.17	24.302
656.49	32.796
656.82	33.789
657.15	25.594
657.47	19.017
657.80	14.904
658.13	15.736
658.45	23.366
658.78	23.918
659.10	25.502
659.43	27.093
659.75	28.540
660.08	29.747
660.41	33.054
660.73	32.656
661.06	30.732
661.38	30.364
661.71	29.423
662.03	30.966
662.36	29.225
662.68	31.124
663.01	29.697
663.33	32.059
663.66	27.941
663.98	31.965
664.31	28.151
664.63	27.126
664.96	26.761
665.28	30.328
665.61	31.189
665.93	29.980
666.26	29.209
666.58	29.498
666.91	31.712
667.23	31.910
667.56	28.510
667.88	30.769
668.21	30.277
668.53	32.104
668.86	30.303
669.18	32.836
669.50	29.348
669.83	33.987
670.15	28.667
670.48	30.065
670.80	34.052
671.13	30.361
671.45	30.213
671.77	29.939
672.10	29.205
672.42	28.975
672.75	28.027
673.07	30.106
673.39	25.497
673.72	29.492
674.04	30.196
674.37	28.350
674.69	29.243
675.01	29.498
675.34	32.444
675.66	31.789
675.98	30.550
676.31	31.933
676.63	29.724
676.95	28.721
677.28	28.738
677.60	29.231
677.92	32.278
678.25	32.238
678.57	30.080
678.89	30.060
679.22	30.845
679.54	30.534
679.86	30.459
680.18	28.444
680.51	30.496
680.83	30.961
681.15	30.000
681.48	27.977
681.80	27.079
682.12	29.310
682.44	29.981
682.77	30.754
683.09	33.047
683.41	31.486
683.73	30.905
684.06	30.165
684.38	29.550
684.70	31.008
685.02	30.206
685.34	28.938
685.67	27.273
685.99	27.491
686.31	27.986
686.63	28.622
686.96	29.643
687.28	28.700
687.60	28.261
687.92	29.433
688.24	30.608
688.56	30.120
688.89	32.365
689.21	32.533
689.53	30.480
689.85	32.594
690.17	29.814
690.49	31.423
690.82	31.308
691.14	28.795
691.46	27.637
691.78	28.313
692.10	30.579
692.42	31.737
692.74	29.668
693.06	30.000
693.39	30.390
693.71	30.786
694.03	30.526
694.35	28.139
694.67	28.146
694.99	33.659
695.31	31.127
695.63	32.057
695.95	33.007
696.27	29.188
696.59	32.124
696.91	31.088
697.23	29.108
697.56	31.343
697.88	28.834
698.20	28.958
698.52	30.538
698.84	30.290
699.16	29.724
699.48	31.591
699.80	31.643
700.12	37.143
700.44	33.156
700.76	33.425
701.08	34.770
701.40	36.872
701.72	32.070
702.04	38.920
702.36	30.028
702.68	31.445
703.00	32.133
703.32	29.255
703.64	32.708
703.96	34.262
704.28	34.593
704.60	33.724
704.91	34.421
705.23	34.897
705.55	33.555
705.87	38.206
706.19	34.629
706.51	35.514
706.83	35.152
707.15	33.894
707.47	33.333
707.79	34.398
708.11	31.507
708.43	35.000
708.74	30.102
709.06	31.688
709.38	33.858
709.70	32.558
710.02	36.499
710.34	33.333
710.66	34.627
710.98	36.648
711.29	34.012
711.61	35.693
711.93	32.692
712.25	32.797
712.57	34.191
712.89	37.024
713.20	31.307
713.52	36.184
713.84	34.177
714.16	34.146
714.48	34.770
714.80	39.210
715.11	32.565
715.43	33.531
715.75	33.043
716.07	35.463
716.39	34.483
716.70	36.877
717.02	38.129
717.34	38.163
717.66	36.194
717.97	39.044
718.29	32.593
718.61	37.226
718.93	38.971
719.24	36.678
719.56	33.898
719.88	31.864
720.20	36.149
720.51	39.373
720.83	36.803
721.15	39.179
721.46	39.362
721.78	39.427
722.10	33.962
722.42	42.857
722.73	36.330
723.05	34.836
723.37	36.842
723.68	39.768
724.00	38.618
724.32	40.323
724.63	40.244
724.95	37.657
725.27	40.486
725.58	39.453
725.90	40.146
726.22	37.736
726.53	38.889
726.85	36.519
727.16	33.096
727.48	35.816
727.80	37.121
728.11	36.594
728.43	37.692
728.74	35.125
729.06	39.781
729.38	41.544
729.69	36.655
730.01	35.836
730.32	34.722
730.64	38.127
730.96	31.683
731.27	37.748
731.59	36.086
731.90	34.402
732.22	35.093
732.53	32.508
732.85	34.615
733.16	31.833
733.48	35.548
733.80	36.688
734.11	35.032
734.43	36.095
734.74	35.714
735.06	28.940
735.37	35.260
735.69	34.395
736.00	39.216
736.32	37.383
736.63	33.546
736.95	37.061
737.26	31.973
737.58	31.935
737.89	36.120
738.21	36.177
738.52	35.000
738.83	34.717
739.15	40.000
739.46	38.686
739.78	36.458
740.09	38.154
740.41	38.710
740.72	31.707
741.04	38.148
741.35	37.500
741.66	48.444
741.98	40.566
742.29	41.148
742.61	43.966
742.92	41.176
743.23	40.598
743.55	38.800
743.86	39.035
744.18	39.381
744.49	43.062
744.80	43.662
745.12	44.091
745.43	36.564
745.74	41.892
746.06	43.578
746.37	42.601
746.68	38.914
747.00	44.444
747.31	48.095
747.62	38.496
747.94	37.885
748.25	40.000
748.56	38.767
748.88	42.574
749.19	50.500
749.50	42.791
749.82	36.992
750.13	36.327
750.44	33.577
750.75	37.544
751.07	38.585
751.38	38.676
751.69	38.989
752.01	40.977
752.32	34.657
752.63	35.106
752.94	38.525
753.26	43.200
753.57	35.366
753.88	40.234
754.19	36.429
754.51	38.542
754.82	36.462
755.13	38.113
755.44	42.481
755.75	33.577
756.07	37.943
756.38	31.387
756.69	36.913
757.00	32.335
757.31	31.751
757.63	32.456
757.94	32.172
758.25	29.902
758.56	30.617
758.87	32.258
759.18	33.636
759.50	32.288
759.81	33.022
760.12	31.562
760.43	37.249
760.74	33.696
761.05	30.791
761.36	32.620
761.67	37.784
761.99	33.230
762.30	34.375
762.61	35.878
762.92	39.062
763.23	42.437
763.54	39.200
763.85	35.156
764.16	40.000
764.47	39.544
764.78	35.336
765.10	34.810
765.41	36.283
765.72	32.635
766.03	34.483
766.34	37.667
766.65	41.277
766.96	41.453
767.27	50.761
767.58	50.521
767.89	47.895
768.20	49.425
768.51	38.579
768.82	42.202
769.13	36.992
769.44	36.032
769.75	38.197
770.06	35.780
770.37	42.534
770.68	40.278
770.99	45.778
771.30	34.836
771.61	42.601
771.92	44.672
772.23	40.336
772.54	46.667
772.85	42.932
773.16	50.532
773.47	50.543
773.78	47.716
774.09	44.048
774.39	52.047
774.70	48.765
775.01	57.246
775.32	55.556
775.63	53.947
775.94	51.079
776.25	56.693
776.56	64.179
776.87	54.098
777.18	53.906
777.48	61.832
777.79	59.848
778.10	57.037
778.41	55.357
778.72	52.555
779.03	49.664
779.34	45.638
779.65	45.946
779.95	46.012
780.26	52.941
780.57	61.379
780.88	65.625
781.19	57.143
781.50	50.676
781.80	49.686
782.11	48.023
782.42	54.430
782.73	52.761
783.04	56.757
783.34	59.859
783.65	65.753
783.96	61.940
784.27	46.853
784.57	46.763
784.88	53.704
785.19	61.905
785.50	65.094
785.81	53.731
786.11	59.836
786.42	63.566
786.73	60.177
787.04	65.094
787.34	61.607
787.65	69.000
787.96	60.360
788.26	57.851
788.57	59.322
788.88	67.769
789.19	63.889
789.49	62.879
789.80	62.595
790.11	80.000
790.41	64.356
790.72	75.904
791.03	66.304
791.33	76.744
791.64	63.918
791.95	86.139
792.25	70.000
792.56	74.026
792.87	82.051
793.17	87.342
793.48	78.161
793.79	70.115
794.09	77.273
794.40	56.303
794.70	61.029
795.01	60.000
795.32	47.482
795.62	57.480
795.93	56.034
796.23	54.867
796.54	78.824
796.85	77.027
797.15	100.000
797.46	86.364
797.76	83.133
798.07	77.215
798.37	86.154
798.68	86.364
798.99	73.239
799.29	71.429
799.60	77.273
799.90	87.671
800.21	95.522
800.51	101.724
800.82	117.544
801.12	85.246
801.43	98.485
801.73	86.486
802.04	93.651
802.34	82.716
802.65	78.125
802.95	122.034
803.26	96.875
803.56	87.143
803.87	84.615
804.17	100.000
804.48	107.407
804.78	103.448
805.09	113.235
805.39	103.846
805.70	85.714
806.00	104.918
806.30	81.818
806.61	74.390
806.91	69.620
807.22	77.632
807.52	74.627
807.83	95.775
808.13	92.188
808.43	96.667
808.74	69.737
809.04	92.754
809.35	98.507
809.65	85.526
809.95	112.903
810.26	96.610
810.56	100.000
810.86	127.273
811.17	161.905
811.47	130.000
811.77	109.259
812.08	100.000
812.38	128.000
812.69	161.111
812.99	168.182
813.29	130.612
813.59	107.143
813.90	134.694
814.20	103.636
814.50	80.000
814.81	100.000
815.11	122.449
815.41	96.721
815.72	147.619
816.02	125.455
816.32	154.762
816.62	105.000
816.93	146.341
817.23	138.095
817.53	129.545
817.84	169.697
818.14	121.739
818.44	131.111
818.74	170.588
819.04	127.500
819.35	162.857
819.65	170.588
819.95	185.714
820.25	275.000
820.56	143.590
820.86	118.182
821.16	162.791
821.46	125.641
821.76	132.000
822.07	182.857
822.37	130.000
822.67	166.667
822.97	133.333
823.27	192.857
823.57	156.757
823.88	157.500
824.18	173.333
824.48	145.238
824.78	200.000
825.08	179.167
825.38	140.541
825.69	117.073
825.99	220.833
826.29	165.517
826.59	142.105
826.89	144.737
827.19	147.059
827.49	187.097
827.79	129.545
828.09	134.091
828.39	117.021
828.70	110.204
829.00	159.259
829.30	158.065
829.60	127.500
829.90	260.000
830.20	182.143
830.50	169.565
830.80	234.783
831.10	190.000
831.40	166.667
831.70	217.391
832.00	196.154
832.30	192.593
832.60	337.500
832.90	210.000
833.20	385.714
833.50	206.452
833.80	182.759
834.10	190.625
834.40	246.154
834.70	283.333
835.00	290.476
835.30	154.286
835.60	353.846
835.90	175.862
836.20	307.143
836.50	165.517
836.80	208.000
837.10	197.222
837.40	238.095
837.70	264.706
838.00	229.630
838.30	223.810
838.60	338.095
838.90	238.462
839.19	315.000
839.49	321.429
839.79	345.000
840.09	280.000
840.39	238.095
840.69	217.391
840.99	233.333
841.29	500.000
841.59	325.000
841.88	318.750
842.18	148.276
842.48	252.381
842.78	156.667
843.08	256.522
843.38	178.125
843.68	800.000
843.97	230.769
844.27	172.414
844.57	295.238
844.87	350.000
845.17	200.000
845.47	1733.333
845.76	511.111
846.06	288.235
846.36	437.500
846.66	342.857
846.96	293.750
847.25	427.273
847.55	400.000
847.85	265.217
848.15	480.000
848.44	278.571
848.74	227.778
849.04	323.529
849.34	520.000
849.63	242.105
849.93	472.727
850.23	960.000
850.53	371.429
850.82	2050.000
851.12	-3800.000
851.42	4300.000
851.71	250.000
852.01	-1366.667
852.31	237.500
852.61	1733.333
852.90	266.667
853.20	244.000
853.50	376.471
853.79	209.524
854.09	229.167
854.39	343.750
854.68	162.162
854.98	180.645
855.28	170.000
855.57	213.793
855.87	203.704
856.17	226.316
856.46	286.667
856.76	282.353
857.05	165.517
857.35	204.167
857.65	393.333
857.94	191.304
858.24	188.462
858.53	290.000
858.83	263.636
859.13	353.333
859.42	0.000
859.72	533.333
860.01	472.727
860.31	268.182
860.60	263.158
860.90	213.043
861.20	622.222
861.49	550.000
861.79	-4700.000
862.08	637.500
862.38	290.476
862.67	323.077
862.97	311.765
863.26	477.778
863.56	305.556
863.85	383.333
864.15	500.000
864.44	366.667
864.74	883.333
865.03	625.000
865.33	273.684
865.62	490.909
865.92	392.308
866.21	433.333
866.51	0.000
866.80	427.273
867.10	1080.000
867.39	469.231
867.69	445.455
867.98	268.421
868.27	472.727
868.57	315.789
868.86	-4100.000
869.16	362.500
869.45	2300.000
869.75	-3400.000
870.04	433.333
870.33	685.714
870.63	975.000
870.92	2500.000
871.22	585.714
871.51	370.588
871.80	214.286
872.10	328.571
>>>>>End Processed Spectral Data<<<<<
