SpectraSuite Data File
++++++++++++++++++++++++++++++++++++
Date: Wed May 13 16:12:09 PDT 2015
User: schluterlab
Dark Spectrum Present: Yes
Reference Spectrum Present: Yes
Number of Sampled Component Spectra: 1
Spectrometers: USB2E3373
Integration Time (usec): 3000 (USB2E3373)
Spectra Averaged: 3 (USB2E3373)
Boxcar Smoothing: 0 (USB2E3373)
Correct for Electrical Dark: No (USB2E3373)
Strobe/Lamp Enabled: No (USB2E3373)
Correct for Detector Non-linearity: No (USB2E3373)
Correct for Stray Light: No (USB2E3373)
Number of Pixels in Processed Spectrum: 2048
>>>>>Begin Processed Spectral Data<<<<<
178.53	0.000
178.91	-1125.000
179.29	-1025.000
179.67	-172.222
180.04	-850.000
180.42	2450.000
180.80	920.000
181.18	-975.000
181.56	557.143
181.94	0.000
182.31	-557.143
182.69	1266.667
183.07	-525.000
183.45	-377.778
183.83	427.273
184.20	-340.000
184.58	1500.000
184.96	4400.000
185.34	-520.000
185.72	-475.000
186.09	-1800.000
186.47	2350.000
186.85	2200.000
187.23	4300.000
187.61	-1333.333
187.98	1050.000
188.36	454.545
188.74	463.636
189.12	-700.000
189.49	390.000
189.87	-3500.000
190.25	-1100.000
190.63	292.857
191.00	292.308
191.38	633.333
191.76	-725.000
192.14	900.000
192.51	437.500
192.89	916.667
193.27	450.000
193.65	-675.000
194.02	370.000
194.40	680.000
194.78	490.000
195.15	325.000
195.53	540.000
195.91	-1750.000
196.29	281.250
196.66	231.579
197.04	-330.000
197.42	0.000
197.79	550.000
198.17	-3800.000
198.55	585.714
198.92	512.500
199.30	780.000
199.68	0.000
200.05	222.222
200.43	600.000
200.81	3400.000
201.18	1133.333
201.56	-1000.000
201.94	333.333
202.31	344.444
202.69	391.667
203.07	490.000
203.44	0.000
203.82	850.000
204.19	628.571
204.57	350.000
204.95	412.500
205.32	1266.667
205.70	400.000
206.08	292.857
206.45	2050.000
206.83	325.000
207.20	783.333
207.58	520.000
207.96	283.333
208.33	537.500
208.71	-700.000
209.08	728.571
209.46	455.556
209.84	418.182
210.21	-833.333
210.59	1125.000
210.96	-462.500
211.34	2500.000
211.71	490.000
212.09	516.667
212.46	0.000
212.84	1400.000
213.22	775.000
213.59	-2500.000
213.97	666.667
214.34	600.000
214.72	454.545
215.09	800.000
215.47	-1650.000
215.84	-1750.000
216.22	1233.333
216.59	292.857
216.97	775.000
217.34	400.000
217.72	-533.333
218.09	0.000
218.47	-3700.000
218.84	488.889
219.22	485.714
219.59	1300.000
219.97	-571.429
220.34	760.000
220.72	-1600.000
221.09	292.857
221.47	975.000
221.84	-633.333
222.22	0.000
222.59	1175.000
222.97	-2200.000
223.34	1040.000
223.72	307.692
224.09	860.000
224.46	1800.000
224.84	-4500.000
225.21	-640.000
225.59	-4000.000
225.96	420.000
226.34	250.000
226.71	2100.000
227.08	462.500
227.46	390.000
227.83	-800.000
228.21	-1750.000
228.58	444.444
228.95	-1700.000
229.33	-1800.000
229.70	1100.000
230.08	571.429
230.45	-600.000
230.82	300.000
231.20	650.000
231.57	457.143
231.95	375.000
232.32	222.727
232.69	300.000
233.07	542.857
233.44	346.154
233.81	-1333.333
234.19	263.158
234.56	425.000
234.93	350.000
235.31	481.818
235.68	284.615
236.05	342.857
236.43	139.394
236.80	247.368
237.17	3700.000
237.55	223.810
237.92	182.143
238.29	185.714
238.67	132.258
239.04	193.103
239.41	152.778
239.79	117.391
240.16	130.952
240.53	134.091
240.91	123.529
241.28	112.000
241.65	122.000
242.02	95.652
242.40	112.903
242.77	110.000
243.14	91.398
243.51	98.876
243.89	94.118
244.26	83.333
244.63	79.570
245.00	93.617
245.38	83.168
245.75	80.374
246.12	76.147
246.49	73.723
246.87	80.800
247.24	70.769
247.61	80.000
247.98	67.974
248.36	63.514
248.73	71.338
249.10	75.796
249.47	66.667
249.84	65.775
250.22	61.497
250.59	66.864
250.96	66.162
251.33	62.559
251.70	66.832
252.08	60.476
252.45	57.399
252.82	53.043
253.19	60.851
253.56	57.255
253.94	61.411
254.31	58.984
254.68	59.231
255.05	61.255
255.42	58.130
255.79	63.603
256.16	54.513
256.54	53.357
256.91	60.142
257.28	52.518
257.65	58.746
258.02	53.106
258.39	57.729
258.76	56.187
259.14	53.571
259.51	49.848
259.88	53.106
260.25	56.193
260.62	51.734
260.99	55.590
261.36	51.952
261.73	53.009
262.10	53.488
262.47	54.648
262.85	53.760
263.22	49.858
263.59	58.120
263.96	53.571
264.33	55.614
264.70	53.158
265.07	52.174
265.44	53.788
265.81	47.445
266.18	53.518
266.55	49.268
266.92	51.106
267.29	53.009
267.66	50.000
268.03	50.455
268.40	48.598
268.77	49.642
269.14	52.703
269.51	51.467
269.88	54.312
270.25	45.824
270.62	49.663
270.99	50.968
271.36	52.575
271.73	51.402
272.10	50.435
272.47	49.462
272.84	49.134
273.21	49.895
273.58	47.380
273.95	44.235
274.32	48.140
274.69	49.679
275.06	47.441
275.43	48.298
275.80	48.697
276.17	50.305
276.54	48.233
276.91	47.826
277.28	46.484
277.65	46.422
278.02	50.311
278.39	49.023
278.76	45.091
279.13	44.528
279.50	44.693
279.87	46.016
280.23	47.705
280.60	50.097
280.97	45.656
281.34	46.018
281.71	49.636
282.08	48.560
282.45	47.455
282.82	46.714
283.19	45.989
283.56	45.789
283.92	46.701
284.29	45.679
284.66	46.279
285.03	45.208
285.40	42.958
285.77	45.960
286.14	46.632
286.51	45.500
286.87	43.932
287.24	46.091
287.61	43.178
287.98	45.130
288.35	41.204
288.72	41.745
289.08	42.567
289.45	42.339
289.82	43.252
290.19	41.601
290.56	40.582
290.93	38.520
291.29	41.718
291.66	41.445
292.03	41.570
292.40	42.731
292.77	38.905
293.13	41.791
293.50	40.233
293.87	39.556
294.24	39.556
294.60	39.447
294.97	39.244
295.34	39.633
295.71	39.489
296.08	37.179
296.44	37.139
296.81	36.328
297.18	38.211
297.55	36.807
297.91	37.071
298.28	39.625
298.65	37.467
299.02	37.813
299.38	36.388
299.75	36.658
300.12	34.610
300.48	35.625
300.85	35.388
301.22	36.051
301.59	34.470
301.95	37.154
302.32	36.585
302.69	35.603
303.05	36.121
303.42	33.333
303.79	35.561
304.15	34.382
304.52	34.647
304.89	34.727
305.25	32.019
305.62	34.994
305.99	34.120
306.35	33.221
306.72	34.081
307.09	34.406
307.45	34.347
307.82	33.147
308.19	34.658
308.55	33.873
308.92	33.083
309.29	33.580
309.65	32.450
310.02	34.461
310.38	33.011
310.75	34.319
311.12	33.879
311.48	33.438
311.85	33.438
312.22	33.819
312.58	35.239
312.95	33.685
313.31	32.718
313.68	33.472
314.05	34.714
314.41	33.769
314.78	34.945
315.14	33.664
315.51	34.501
315.87	34.059
316.24	33.168
316.61	32.554
316.97	33.659
317.34	32.681
317.70	34.704
318.07	33.494
318.43	32.975
318.80	35.052
319.16	33.898
319.53	32.458
319.89	34.000
320.26	33.000
320.62	34.425
320.99	32.020
321.35	32.828
321.72	33.368
322.08	33.465
322.45	35.124
322.81	34.109
323.18	34.586
323.54	32.468
323.91	31.509
324.27	31.644
324.64	32.432
325.00	32.642
325.37	34.122
325.73	33.932
326.10	33.628
326.46	32.258
326.83	31.838
327.19	31.768
327.56	33.188
327.92	32.983
328.29	33.540
328.65	32.505
329.01	32.581
329.38	31.822
329.74	33.518
330.11	32.139
330.47	33.792
330.84	32.904
331.20	29.781
331.56	31.835
331.93	31.944
332.29	31.766
332.66	32.655
333.02	31.810
333.38	32.520
333.75	30.927
334.11	31.851
334.48	31.588
334.84	31.893
335.20	32.818
335.57	31.369
335.93	30.179
336.29	31.227
336.66	31.289
337.02	29.231
337.38	32.593
337.75	29.947
338.11	30.797
338.47	30.479
338.84	33.089
339.20	29.908
339.56	31.204
339.93	30.455
340.29	30.525
340.65	30.838
341.02	31.937
341.38	31.050
341.74	31.316
342.11	30.655
342.47	31.806
342.83	30.137
343.20	31.429
343.56	30.581
343.92	30.877
344.28	30.442
344.65	30.353
345.01	29.798
345.37	30.360
345.73	29.272
346.10	29.753
346.46	29.831
346.82	28.913
347.19	29.825
347.55	30.213
347.91	30.097
348.27	29.992
348.63	29.431
349.00	29.369
349.36	27.586
349.72	28.949
350.08	29.498
350.45	30.757
350.81	28.838
351.17	29.822
351.53	28.501
351.89	28.135
352.26	28.808
352.62	28.388
352.98	29.092
353.34	29.088
353.70	28.478
354.07	29.839
354.43	28.016
354.79	28.479
355.15	29.210
355.51	29.177
355.87	29.469
356.24	29.397
356.60	28.468
356.96	29.686
357.32	28.945
357.68	29.134
358.04	28.345
358.40	28.820
358.77	29.186
359.13	28.729
359.49	28.000
359.85	26.825
360.21	28.708
360.57	28.171
360.93	29.385
361.29	29.101
361.66	27.477
362.02	28.134
362.38	27.605
362.74	28.646
363.10	26.869
363.46	28.320
363.82	28.647
364.18	28.267
364.54	28.826
364.90	27.550
365.26	27.794
365.62	28.999
365.98	27.392
366.35	27.149
366.71	29.284
367.07	27.822
367.43	27.794
367.79	27.338
368.15	28.520
368.51	28.706
368.87	28.194
369.23	27.652
369.59	28.023
369.95	28.162
370.31	26.852
370.67	27.319
371.03	28.689
371.39	28.499
371.75	28.971
372.11	27.312
372.47	28.592
372.83	28.458
373.19	27.673
373.55	28.086
373.91	28.424
374.27	27.698
374.63	28.000
374.99	28.955
375.35	27.774
375.71	28.033
376.07	27.984
376.42	27.854
376.78	28.429
377.14	27.815
377.50	28.477
377.86	27.527
378.22	26.675
378.58	26.378
378.94	28.410
379.30	27.354
379.66	28.173
380.02	28.686
380.38	26.897
380.74	29.112
381.09	27.445
381.45	28.027
381.81	28.133
382.17	28.408
382.53	28.679
382.89	28.704
383.25	28.518
383.61	28.872
383.97	28.768
384.32	29.133
384.68	28.005
385.04	28.519
385.40	27.988
385.76	28.133
386.12	28.109
386.48	28.634
386.83	28.672
387.19	28.942
387.55	28.386
387.91	27.690
388.27	28.142
388.62	29.010
388.98	28.256
389.34	29.036
389.70	28.510
390.06	29.341
390.42	28.664
390.77	29.262
391.13	29.930
391.49	28.997
391.85	27.880
392.20	28.391
392.56	29.293
392.92	28.723
393.28	27.101
393.64	27.878
393.99	28.039
394.35	28.474
394.71	28.984
395.07	28.162
395.42	29.481
395.78	29.453
396.14	28.119
396.50	29.699
396.85	29.688
397.21	28.422
397.57	28.208
397.92	29.207
398.28	27.691
398.64	28.973
399.00	28.036
399.35	28.201
399.71	28.067
400.07	28.445
400.42	28.037
400.78	28.227
401.14	28.415
401.49	28.657
401.85	27.586
402.21	27.605
402.57	27.699
402.92	28.373
403.28	28.357
403.63	28.342
403.99	27.389
404.35	28.364
404.70	27.338
405.06	26.383
405.42	28.322
405.77	27.257
406.13	27.032
406.49	27.912
406.84	27.998
407.20	27.069
407.55	27.632
407.91	27.600
408.27	27.377
408.62	27.634
408.98	28.002
409.34	28.413
409.69	28.000
410.05	27.385
410.40	27.095
410.76	27.599
411.11	26.960
411.47	27.220
411.83	27.428
412.18	26.778
412.54	26.899
412.89	27.410
413.25	27.450
413.60	27.795
413.96	26.108
414.31	26.914
414.67	26.109
415.03	27.748
415.38	27.320
415.74	27.267
416.09	27.890
416.45	27.175
416.80	26.702
417.16	27.413
417.51	27.140
417.87	26.397
418.22	28.454
418.58	26.921
418.93	26.658
419.29	27.116
419.64	27.204
420.00	27.195
420.35	27.710
420.71	27.496
421.06	26.014
421.42	27.135
421.77	26.626
422.12	25.772
422.48	26.066
422.83	27.315
423.19	26.464
423.54	26.465
423.90	27.652
424.25	28.252
424.61	26.548
424.96	26.647
425.31	26.357
425.67	24.888
426.02	26.400
426.38	27.045
426.73	26.156
427.09	25.957
427.44	27.142
427.79	26.740
428.15	26.607
428.50	26.390
428.85	26.520
429.21	27.057
429.56	25.868
429.92	26.019
430.27	25.670
430.62	26.318
430.98	26.622
431.33	26.753
431.68	27.068
432.04	26.251
432.39	26.728
432.74	27.828
433.10	26.655
433.45	27.289
433.80	26.275
434.16	26.656
434.51	26.000
434.86	26.454
435.22	26.570
435.57	26.444
435.92	26.448
436.28	26.928
436.63	27.373
436.98	26.045
437.34	26.834
437.69	26.954
438.04	26.700
438.39	27.343
438.75	27.310
439.10	26.313
439.45	26.978
439.81	26.465
440.16	26.369
440.51	26.186
440.86	26.809
441.22	26.363
441.57	26.486
441.92	27.687
442.27	26.372
442.63	26.172
442.98	26.535
443.33	26.033
443.68	25.968
444.03	27.477
444.39	26.436
444.74	26.190
445.09	26.631
445.44	25.970
445.79	25.977
446.15	26.257
446.50	25.956
446.85	25.899
447.20	26.415
447.55	26.857
447.91	25.979
448.26	26.711
448.61	26.399
448.96	26.855
449.31	27.278
449.66	26.280
450.02	25.850
450.37	26.190
450.72	25.888
451.07	26.021
451.42	25.836
451.77	27.892
452.12	26.674
452.47	26.306
452.83	26.515
453.18	25.733
453.53	26.592
453.88	25.812
454.23	26.300
454.58	27.317
454.93	27.400
455.28	26.434
455.63	27.367
455.98	27.440
456.34	26.822
456.69	27.239
457.04	26.130
457.39	26.242
457.74	25.769
458.09	26.970
458.44	25.770
458.79	25.976
459.14	26.242
459.49	25.628
459.84	25.817
460.19	25.987
460.54	25.579
460.89	25.782
461.24	26.108
461.59	27.484
461.94	25.586
462.29	26.825
462.64	26.930
462.99	26.805
463.34	27.067
463.69	26.266
464.04	26.145
464.39	26.261
464.74	26.797
465.09	25.935
465.44	25.762
465.79	25.839
466.14	25.889
466.49	25.362
466.84	26.211
467.19	25.890
467.54	27.125
467.89	25.690
468.24	26.353
468.59	26.374
468.94	26.512
469.29	25.900
469.64	27.175
469.99	26.590
470.34	25.892
470.68	27.371
471.03	26.259
471.38	26.338
471.73	25.916
472.08	26.776
472.43	26.759
472.78	26.267
473.13	27.086
473.48	25.468
473.83	26.220
474.17	25.825
474.52	27.357
474.87	26.620
475.22	26.059
475.57	25.900
475.92	25.969
476.27	25.705
476.61	26.145
476.96	25.563
477.31	26.164
477.66	25.930
478.01	25.301
478.36	26.600
478.70	25.545
479.05	26.518
479.40	25.640
479.75	25.674
480.10	25.000
480.45	25.988
480.79	25.561
481.14	25.636
481.49	26.103
481.84	25.606
482.19	26.215
482.53	25.000
482.88	25.593
483.23	25.888
483.58	25.887
483.92	25.820
484.27	24.880
484.62	25.560
484.97	25.187
485.31	26.096
485.66	26.131
486.01	25.276
486.36	23.880
486.70	23.170
487.05	23.568
487.40	23.468
487.75	24.425
488.09	25.144
488.44	24.283
488.79	25.606
489.13	24.866
489.48	25.326
489.83	25.205
490.17	25.778
490.52	24.889
490.87	24.876
491.22	25.057
491.56	24.328
491.91	24.477
492.26	25.356
492.60	24.793
492.95	24.602
493.30	24.907
493.64	24.732
493.99	24.884
494.34	25.254
494.68	24.908
495.03	25.470
495.37	25.174
495.72	25.487
496.07	25.568
496.41	25.088
496.76	25.418
497.11	25.079
497.45	24.825
497.80	25.576
498.14	25.411
498.49	24.732
498.84	24.832
499.18	25.095
499.53	25.404
499.87	25.536
500.22	24.823
500.56	25.825
500.91	24.712
501.26	24.704
501.60	25.914
501.95	24.931
502.29	26.101
502.64	25.279
502.98	24.918
503.33	25.183
503.67	24.919
504.02	24.602
504.36	24.801
504.71	24.426
505.06	25.494
505.40	25.036
505.75	24.446
506.09	24.976
506.44	25.259
506.78	25.280
507.13	24.937
507.47	23.788
507.82	25.177
508.16	25.583
508.51	26.585
508.85	24.826
509.19	25.663
509.54	25.357
509.88	25.811
510.23	24.781
510.57	26.213
510.92	25.272
511.26	25.642
511.61	25.571
511.95	24.739
512.30	24.708
512.64	25.202
512.98	24.973
513.33	25.696
513.67	24.867
514.02	25.054
514.36	25.123
514.70	25.789
515.05	24.707
515.39	25.799
515.74	25.282
516.08	25.769
516.42	25.694
516.77	25.808
517.11	25.527
517.46	26.242
517.80	25.958
518.14	24.899
518.49	26.196
518.83	26.193
519.17	25.924
519.52	25.467
519.86	25.499
520.20	25.723
520.55	26.032
520.89	25.365
521.23	26.719
521.58	25.810
521.92	25.842
522.26	25.442
522.61	26.355
522.95	25.783
523.29	24.285
523.64	25.793
523.98	26.864
524.32	25.573
524.66	25.616
525.01	25.980
525.35	25.341
525.69	25.000
526.04	26.729
526.38	25.869
526.72	25.706
527.06	26.240
527.41	24.567
527.75	25.080
528.09	26.204
528.43	26.450
528.78	26.368
529.12	24.970
529.46	26.393
529.80	26.238
530.15	25.919
530.49	26.215
530.83	25.253
531.17	26.632
531.51	26.978
531.86	26.645
532.20	26.076
532.54	26.329
532.88	26.701
533.22	24.610
533.57	25.926
533.91	25.768
534.25	25.091
534.59	25.686
534.93	25.283
535.27	25.890
535.62	26.068
535.96	25.487
536.30	25.811
536.64	25.499
536.98	26.277
537.32	25.741
537.66	26.667
538.01	25.543
538.35	26.826
538.69	25.909
539.03	25.211
539.37	25.048
539.71	23.331
540.05	26.601
540.39	25.449
540.73	24.774
541.07	25.892
541.42	25.636
541.76	26.194
542.10	25.679
542.44	25.695
542.78	26.877
543.12	25.592
543.46	25.902
543.80	25.634
544.14	24.904
544.48	25.651
544.82	25.273
545.16	25.830
545.50	25.257
545.84	24.731
546.18	26.128
546.52	26.153
546.86	26.392
547.20	26.231
547.54	26.186
547.88	26.786
548.22	25.156
548.56	26.289
548.90	25.032
549.24	24.242
549.58	25.853
549.92	26.580
550.26	26.349
550.60	25.035
550.94	25.775
551.28	25.165
551.62	25.809
551.96	25.404
552.30	26.280
552.64	25.625
552.98	25.559
553.32	25.354
553.66	26.108
554.00	26.012
554.34	25.742
554.68	25.536
555.02	24.894
555.36	26.096
555.69	24.628
556.03	25.303
556.37	26.194
556.71	24.898
557.05	26.611
557.39	24.983
557.73	24.700
558.07	26.033
558.41	25.036
558.75	25.643
559.08	26.100
559.42	25.321
559.76	25.735
560.10	25.839
560.44	24.948
560.78	25.083
561.12	24.538
561.45	26.076
561.79	25.445
562.13	25.352
562.47	25.478
562.81	25.453
563.15	25.017
563.48	25.663
563.82	25.245
564.16	25.376
564.50	24.154
564.84	24.905
565.17	25.290
565.51	25.304
565.85	25.190
566.19	24.859
566.52	25.522
566.86	25.437
567.20	25.767
567.54	25.799
567.88	24.661
568.21	25.397
568.55	24.520
568.89	25.827
569.23	24.599
569.56	25.223
569.90	24.906
570.24	24.614
570.57	24.549
570.91	24.434
571.25	24.521
571.59	24.065
571.92	23.848
572.26	24.263
572.60	24.474
572.93	23.988
573.27	24.490
573.61	24.149
573.95	24.393
574.28	24.472
574.62	23.907
574.96	23.871
575.29	23.909
575.63	23.526
575.97	24.056
576.30	24.642
576.64	24.261
576.98	24.429
577.31	24.307
577.65	24.539
577.98	24.206
578.32	23.431
578.66	23.606
578.99	23.921
579.33	23.917
579.67	23.984
580.00	24.047
580.34	23.991
580.67	23.777
581.01	24.376
581.35	24.627
581.68	24.512
582.02	23.999
582.35	24.014
582.69	23.896
583.02	23.708
583.36	23.749
583.70	24.451
584.03	24.373
584.37	25.059
584.70	24.582
585.04	24.144
585.37	24.394
585.71	24.812
586.04	24.330
586.38	24.478
586.72	23.888
587.05	24.124
587.39	24.274
587.72	23.886
588.06	24.146
588.39	25.075
588.73	24.142
589.06	24.961
589.40	25.084
589.73	24.710
590.07	24.840
590.40	23.895
590.73	24.785
591.07	25.234
591.40	24.378
591.74	25.628
592.07	25.000
592.41	25.506
592.74	24.757
593.08	25.117
593.41	24.707
593.75	24.485
594.08	24.371
594.41	24.355
594.75	24.399
595.08	25.018
595.42	24.904
595.75	24.644
596.09	25.122
596.42	25.069
596.75	24.230
597.09	24.978
597.42	24.958
597.75	25.183
598.09	25.043
598.42	24.656
598.76	25.294
599.09	24.857
599.42	25.218
599.76	24.488
600.09	24.481
600.42	24.836
600.76	24.679
601.09	25.137
601.42	24.467
601.76	24.478
602.09	24.387
602.42	25.000
602.76	25.353
603.09	24.154
603.42	24.834
603.76	24.695
604.09	24.351
604.42	25.031
604.76	25.601
605.09	25.295
605.42	25.139
605.75	25.083
606.09	24.888
606.42	24.642
606.75	24.762
607.09	24.613
607.42	24.476
607.75	24.135
608.08	24.577
608.42	24.877
608.75	24.301
609.08	24.052
609.41	24.131
609.75	24.869
610.08	25.401
610.41	24.814
610.74	24.456
611.07	25.049
611.41	25.123
611.74	25.289
612.07	25.880
612.40	25.446
612.73	24.737
613.07	24.461
613.40	25.961
613.73	25.433
614.06	24.892
614.39	25.957
614.72	25.632
615.06	25.630
615.39	25.106
615.72	24.591
616.05	24.880
616.38	24.402
616.71	25.594
617.05	25.854
617.38	24.293
617.71	24.444
618.04	25.962
618.37	25.370
618.70	25.887
619.03	25.855
619.36	26.341
619.69	25.986
620.03	26.099
620.36	25.735
620.69	26.507
621.02	25.885
621.35	25.059
621.68	24.766
622.01	27.012
622.34	27.156
622.67	25.475
623.00	24.725
623.33	25.089
623.66	25.590
623.99	25.626
624.32	26.676
624.65	25.918
624.99	25.283
625.32	24.330
625.65	26.521
625.98	24.981
626.31	25.272
626.64	27.020
626.97	26.018
627.30	26.933
627.63	26.005
627.96	27.082
628.29	26.597
628.62	25.709
628.95	26.792
629.28	27.828
629.61	26.764
629.94	27.238
630.26	25.834
630.59	25.167
630.92	26.341
631.25	26.357
631.58	25.425
631.91	26.065
632.24	25.105
632.57	26.653
632.90	27.522
633.23	25.391
633.56	27.458
633.89	26.840
634.22	26.220
634.55	28.521
634.88	27.665
635.20	27.001
635.53	27.590
635.86	27.475
636.19	27.176
636.52	27.797
636.85	27.262
637.18	26.382
637.51	27.305
637.83	23.551
638.16	26.598
638.49	28.212
638.82	28.319
639.15	27.250
639.48	28.304
639.81	29.088
640.13	25.781
640.46	28.188
640.79	28.666
641.12	26.410
641.45	27.514
641.77	27.982
642.10	28.070
642.43	27.327
642.76	27.709
643.09	29.294
643.41	27.314
643.74	30.556
644.07	27.591
644.40	28.681
644.73	28.976
645.05	27.575
645.38	27.804
645.71	27.858
646.04	26.910
646.36	29.883
646.69	28.094
647.02	29.592
647.35	32.131
647.67	28.142
648.00	27.480
648.33	26.733
648.66	27.879
648.98	28.936
649.31	27.055
649.64	27.952
649.96	27.124
650.29	26.540
650.62	26.861
650.94	27.877
651.27	30.068
651.60	28.619
651.92	28.115
652.25	25.733
652.58	27.882
652.90	28.436
653.23	28.043
653.56	29.449
653.88	31.062
654.21	29.542
654.54	28.548
654.86	29.128
655.19	27.297
655.52	23.132
655.84	23.417
656.17	29.515
656.49	39.007
656.82	38.338
657.15	27.909
657.47	20.468
657.80	15.506
658.13	15.898
658.45	23.689
658.78	23.830
659.10	24.128
659.43	25.970
659.75	25.994
660.08	27.848
660.41	29.050
660.73	29.479
661.06	27.866
661.38	30.000
661.71	28.846
662.03	30.178
662.36	28.827
662.68	28.916
663.01	28.889
663.33	29.936
663.66	31.933
663.98	29.374
664.31	29.832
664.63	30.769
664.96	27.364
665.28	31.762
665.61	26.706
665.93	27.364
666.26	30.629
666.58	29.707
666.91	29.810
667.23	29.438
667.56	28.078
667.88	30.983
668.21	31.557
668.53	26.030
668.86	29.870
669.18	32.409
669.50	29.348
669.83	30.937
670.15	30.889
670.48	29.630
670.80	27.586
671.13	30.998
671.45	30.000
671.77	30.346
672.10	31.423
672.42	28.975
672.75	29.353
673.07	28.521
673.39	27.848
673.72	26.953
674.04	30.588
674.37	28.738
674.69	30.470
675.01	29.079
675.34	31.417
675.66	35.368
675.98	29.124
676.31	31.092
676.63	30.361
676.95	31.027
677.28	30.841
677.60	31.209
677.92	32.911
678.25	30.801
678.57	30.677
678.89	30.461
679.22	28.291
679.54	29.580
679.86	30.826
680.18	26.655
680.51	30.319
680.83	29.181
681.15	30.943
681.48	29.490
681.80	30.174
682.12	28.927
682.44	29.400
682.77	30.143
683.09	31.974
683.41	29.933
683.73	31.567
684.06	30.372
684.38	29.354
684.70	31.202
685.02	29.644
685.34	29.853
685.67	29.371
685.99	28.694
686.31	28.157
686.63	27.385
686.96	26.071
687.28	30.325
687.60	28.442
687.92	28.702
688.24	29.087
688.56	29.920
688.89	29.253
689.21	32.969
689.53	30.271
689.85	32.594
690.17	26.294
690.49	31.635
690.82	32.009
691.14	30.580
691.46	31.224
691.78	30.321
692.10	30.992
692.42	30.140
692.74	28.008
693.06	32.340
693.39	32.033
693.71	30.568
694.03	30.105
694.35	30.087
694.67	28.833
694.99	32.195
695.31	31.618
695.63	30.383
695.95	33.252
696.27	28.934
696.59	30.311
696.91	32.124
697.23	26.761
697.56	30.277
697.88	29.448
698.20	28.542
698.52	27.742
698.84	31.849
699.16	31.336
699.48	28.979
699.80	32.850
700.12	33.766
700.44	32.891
700.76	31.215
701.08	28.161
701.40	30.726
701.72	33.528
702.04	39.489
702.36	32.578
702.68	32.295
703.00	33.518
703.32	28.457
703.64	32.976
703.96	31.755
704.28	31.686
704.60	31.965
704.91	35.015
705.23	34.604
705.55	37.542
705.87	34.884
706.19	36.396
706.51	33.956
706.83	34.848
707.15	33.894
707.47	28.788
707.79	34.398
708.11	31.279
708.43	30.952
708.74	29.082
709.06	33.766
709.38	32.808
709.70	36.919
710.02	35.905
710.34	31.212
710.66	35.821
710.98	33.523
711.29	33.721
711.61	34.218
711.93	32.372
712.25	37.299
712.57	29.779
712.89	34.256
713.20	33.739
713.52	34.539
713.84	32.911
714.16	32.622
714.48	31.897
714.80	35.562
715.11	30.259
715.43	35.312
715.75	31.594
716.07	34.505
716.39	31.975
716.70	34.551
717.02	39.209
717.34	34.629
717.66	38.806
717.97	39.841
718.29	33.333
718.61	35.766
718.93	34.191
719.24	34.256
719.56	36.271
719.88	33.898
720.20	36.486
720.51	39.373
720.83	36.059
721.15	29.851
721.46	34.397
721.78	39.427
722.10	36.226
722.42	34.586
722.73	38.577
723.05	36.885
723.37	36.032
723.68	35.907
724.00	35.772
724.32	36.290
724.63	37.805
724.95	36.402
725.27	37.652
725.58	35.156
725.90	40.146
726.22	32.453
726.53	32.639
726.85	33.447
727.16	33.452
727.48	38.652
727.80	36.742
728.11	32.246
728.43	33.846
728.74	30.466
729.06	38.686
729.38	38.235
729.69	34.875
730.01	35.495
730.32	32.986
730.64	33.445
730.96	29.373
731.27	34.437
731.59	38.226
731.90	34.985
732.22	33.851
732.53	34.056
732.85	34.295
733.16	31.833
733.48	34.884
733.80	35.065
734.11	36.943
734.43	33.136
734.74	31.429
735.06	32.378
735.37	39.595
735.69	34.076
736.00	37.255
736.32	37.695
736.63	32.907
736.95	38.019
737.26	30.272
737.58	31.935
737.89	32.107
738.21	41.638
738.52	35.357
738.83	33.585
739.15	30.769
739.46	36.496
739.78	37.500
740.09	31.077
740.41	35.161
740.72	30.662
741.04	36.296
741.35	40.000
741.66	43.111
741.98	35.849
742.29	40.670
742.61	42.241
742.92	36.652
743.23	38.462
743.55	38.400
743.86	37.719
744.18	38.053
744.49	43.062
744.80	40.376
745.12	44.545
745.43	40.529
745.74	42.342
746.06	40.367
746.37	39.013
746.68	38.914
747.00	43.056
747.31	43.333
747.62	37.611
747.94	34.361
748.25	36.596
748.56	38.326
748.88	42.079
749.19	41.500
749.50	40.930
749.82	39.431
750.13	33.878
750.44	36.496
750.75	37.895
751.07	40.193
751.38	36.237
751.69	31.408
752.01	36.090
752.32	37.545
752.63	34.752
752.94	37.295
753.26	38.000
753.57	37.398
753.88	38.672
754.19	33.929
754.51	40.278
754.82	30.325
755.13	38.491
755.44	37.218
755.75	33.577
756.07	33.333
756.38	34.307
756.69	35.235
757.00	32.335
757.31	36.202
757.63	35.088
757.94	32.708
758.25	34.804
758.56	32.346
758.87	31.989
759.18	35.152
759.50	33.542
759.81	34.579
760.12	32.188
760.43	30.659
760.74	31.793
761.05	34.181
761.36	31.283
761.67	34.091
761.99	34.783
762.30	36.111
762.61	36.260
762.92	35.156
763.23	34.874
763.54	44.800
763.85	36.719
764.16	41.154
764.47	38.783
764.78	37.456
765.10	32.278
765.41	35.988
765.72	38.623
766.03	35.110
766.34	36.333
766.65	41.702
766.96	44.444
767.27	45.685
767.58	43.229
767.89	44.737
768.20	43.103
768.51	37.056
768.82	40.826
769.13	35.772
769.44	35.223
769.75	37.768
770.06	33.028
770.37	42.534
770.68	45.370
770.99	32.444
771.30	32.377
771.61	39.013
771.92	37.295
772.23	42.437
772.54	44.615
772.85	37.696
773.16	48.404
773.47	43.478
773.78	39.594
774.09	41.667
774.39	45.614
774.70	49.383
775.01	48.551
775.32	52.288
775.63	46.053
775.94	51.079
776.25	47.244
776.56	52.985
776.87	53.279
777.18	49.219
777.48	51.908
777.79	58.333
778.10	50.370
778.41	59.821
778.72	43.066
779.03	55.034
779.34	48.322
779.65	47.297
779.95	47.239
780.26	51.634
780.57	47.586
780.88	57.813
781.19	48.120
781.50	54.730
781.80	37.107
782.11	42.938
782.42	48.101
782.73	44.785
783.04	47.973
783.34	55.634
783.65	53.425
783.96	52.239
784.27	46.154
784.57	52.518
784.88	44.444
785.19	55.556
785.50	57.547
785.81	54.478
786.11	54.098
786.42	62.016
786.73	40.708
787.04	61.321
787.34	53.571
787.65	64.000
787.96	54.955
788.26	52.066
788.57	61.864
788.88	63.636
789.19	54.167
789.49	64.394
789.80	57.252
790.11	75.238
790.41	63.366
790.72	59.036
791.03	67.391
791.33	65.116
791.64	68.041
791.95	55.446
792.25	76.667
792.56	72.727
792.87	83.333
793.17	83.544
793.48	75.862
793.79	73.563
794.09	68.182
794.40	54.622
794.70	55.147
795.01	54.074
795.32	50.360
795.62	57.480
795.93	55.172
796.23	61.062
796.54	56.471
796.85	64.865
797.15	67.606
797.46	66.667
797.76	78.313
798.07	70.886
798.37	86.154
798.68	83.333
798.99	61.972
799.29	74.026
799.60	67.045
799.90	78.082
800.21	77.612
800.51	79.310
800.82	98.246
801.12	83.607
801.43	90.909
801.73	83.784
802.04	98.413
802.34	69.136
802.65	81.250
802.95	91.525
803.26	87.500
803.56	68.571
803.87	83.077
804.17	76.471
804.48	100.000
804.78	81.034
805.09	73.529
805.39	76.923
805.70	71.429
806.00	85.246
806.30	69.697
806.61	68.293
806.91	64.557
807.22	77.632
807.52	61.194
807.83	84.507
808.13	89.062
808.43	85.000
808.74	63.158
809.04	76.812
809.35	86.567
809.65	78.947
809.95	111.290
810.26	86.441
810.56	66.667
810.86	102.273
811.17	126.190
811.47	91.667
811.77	96.296
812.08	100.000
812.38	120.000
812.69	138.889
812.99	100.000
813.29	104.082
813.59	78.571
813.90	116.327
814.20	85.455
814.50	58.462
814.81	100.000
815.11	97.959
815.41	98.361
815.72	114.286
816.02	107.273
816.32	138.095
816.62	130.000
816.93	112.195
817.23	95.238
817.53	102.273
817.84	127.273
818.14	102.174
818.44	117.778
818.74	132.353
819.04	122.500
819.35	125.714
819.65	129.412
819.95	139.286
820.25	215.000
820.56	125.641
820.86	95.455
821.16	106.977
821.46	117.949
821.76	122.000
822.07	142.857
822.37	137.500
822.67	124.242
822.97	92.157
823.27	178.571
823.57	127.027
823.88	120.000
824.18	140.000
824.48	121.429
824.78	164.000
825.08	191.667
825.38	127.027
825.69	109.756
825.99	145.833
826.29	141.379
826.59	134.211
826.89	102.632
827.19	132.353
827.49	151.613
827.79	111.364
828.09	120.455
828.39	110.638
828.70	112.245
829.00	148.148
829.30	125.806
829.60	105.000
829.90	233.333
830.20	171.429
830.50	173.913
830.80	173.913
831.10	170.000
831.40	170.000
831.70	121.739
832.00	219.231
832.30	170.370
832.60	237.500
832.90	170.000
833.20	400.000
833.50	158.065
833.80	134.483
834.10	156.250
834.40	165.385
834.70	227.778
835.00	300.000
835.30	162.857
835.60	207.692
835.90	151.724
836.20	242.857
836.50	131.034
836.80	144.000
837.10	136.111
837.40	204.762
837.70	229.412
838.00	192.593
838.30	185.714
838.60	214.286
838.90	176.923
839.19	260.000
839.49	250.000
839.79	270.000
840.09	210.000
840.39	238.095
840.69	208.696
840.99	211.111
841.29	340.000
841.59	266.667
841.88	281.250
842.18	148.276
842.48	219.048
842.78	163.333
843.08	186.957
843.38	140.625
843.68	600.000
843.97	188.462
844.27	155.172
844.57	209.524
844.87	275.000
845.17	181.481
845.47	1066.667
845.76	366.667
846.06	252.941
846.36	387.500
846.66	285.714
846.96	250.000
847.25	363.636
847.55	372.727
847.85	204.348
848.15	340.000
848.44	307.143
848.74	188.889
849.04	247.059
849.34	440.000
849.63	163.158
849.93	354.545
850.23	900.000
850.53	292.857
850.82	1400.000
851.12	-4100.000
851.42	3100.000
851.71	185.000
852.01	-1100.000
852.31	204.167
852.61	1333.333
852.90	176.190
853.20	204.000
853.50	264.706
853.79	161.905
854.09	154.167
854.39	287.500
854.68	137.838
854.98	129.032
855.28	143.333
855.57	189.655
855.87	159.259
856.17	152.632
856.46	166.667
856.76	200.000
857.05	134.483
857.35	200.000
857.65	300.000
857.94	230.435
858.24	173.077
858.53	195.000
858.83	154.545
859.13	333.333
859.42	0.000
859.72	511.111
860.01	290.909
860.31	172.727
860.60	205.263
860.90	169.565
861.20	411.111
861.49	341.667
861.79	-2400.000
862.08	550.000
862.38	195.238
862.67	246.154
862.97	264.706
863.26	433.333
863.56	222.222
863.85	275.000
864.15	337.500
864.44	340.000
864.74	616.667
865.03	525.000
865.33	268.421
865.62	354.545
865.92	346.154
866.21	283.333
866.51	0.000
866.80	327.273
867.10	980.000
867.39	330.769
867.69	381.818
867.98	226.316
868.27	400.000
868.57	194.737
868.86	-3700.000
869.16	275.000
869.45	1750.000
869.75	-2300.000
870.04	375.000
870.33	557.143
870.63	900.000
870.92	1900.000
871.22	500.000
871.51	288.235
871.80	138.095
872.10	242.857
>>>>>End Processed Spectral Data<<<<<
