SpectraSuite Data File
++++++++++++++++++++++++++++++++++++
Date: Wed May 13 16:14:05 PDT 2015
User: schluterlab
Dark Spectrum Present: Yes
Reference Spectrum Present: Yes
Number of Sampled Component Spectra: 1
Spectrometers: USB2E3373
Integration Time (usec): 3000 (USB2E3373)
Spectra Averaged: 3 (USB2E3373)
Boxcar Smoothing: 0 (USB2E3373)
Correct for Electrical Dark: No (USB2E3373)
Strobe/Lamp Enabled: No (USB2E3373)
Correct for Detector Non-linearity: No (USB2E3373)
Correct for Stray Light: No (USB2E3373)
Number of Pixels in Processed Spectrum: 2048
>>>>>Begin Processed Spectral Data<<<<<
178.53	0.000
178.91	-1375.000
179.29	-950.000
179.67	-177.778
180.04	-1100.000
180.42	2450.000
180.80	840.000
181.18	-775.000
181.56	485.714
181.94	0.000
182.31	-614.286
182.69	1100.000
183.07	-475.000
183.45	-277.778
183.83	436.364
184.20	-290.000
184.58	1400.000
184.96	4600.000
185.34	-780.000
185.72	-512.500
186.09	-1250.000
186.47	2300.000
186.85	2000.000
187.23	3600.000
187.61	-1166.667
187.98	975.000
188.36	427.273
188.74	354.545
189.12	-620.000
189.49	490.000
189.87	-4000.000
190.25	-1150.000
190.63	328.571
191.00	400.000
191.38	700.000
191.76	-750.000
192.14	1050.000
192.51	525.000
192.89	716.667
193.27	425.000
193.65	-650.000
194.02	390.000
194.40	740.000
194.78	430.000
195.15	408.333
195.53	570.000
195.91	-1750.000
196.29	325.000
196.66	278.947
197.04	-280.000
197.42	0.000
197.79	610.000
198.17	-3400.000
198.55	400.000
198.92	487.500
199.30	540.000
199.68	0.000
200.05	277.778
200.43	628.571
200.81	3700.000
201.18	1333.333
201.56	-1233.333
201.94	355.556
202.31	466.667
202.69	316.667
203.07	550.000
203.44	0.000
203.82	925.000
204.19	714.286
204.57	371.429
204.95	425.000
205.32	1066.667
205.70	409.091
206.08	292.857
206.45	2250.000
206.83	287.500
207.20	766.667
207.58	460.000
207.96	311.111
208.33	562.500
208.71	-633.333
209.08	585.714
209.46	477.778
209.84	300.000
210.21	-1066.667
210.59	975.000
210.96	-362.500
211.34	2650.000
211.71	500.000
212.09	400.000
212.46	0.000
212.84	1366.667
213.22	1000.000
213.59	-3700.000
213.97	766.667
214.34	571.429
214.72	563.636
215.09	820.000
215.47	-1950.000
215.84	-2300.000
216.22	1533.333
216.59	328.571
216.97	1175.000
217.34	481.818
217.72	-383.333
218.09	0.000
218.47	-4800.000
218.84	511.111
219.22	585.714
219.59	1300.000
219.97	-442.857
220.34	780.000
220.72	-1100.000
221.09	385.714
221.47	1100.000
221.84	-733.333
222.22	0.000
222.59	1350.000
222.97	-1600.000
223.34	920.000
223.72	392.308
224.09	1020.000
224.46	1850.000
224.84	-4500.000
225.21	-820.000
225.59	-3500.000
225.96	500.000
226.34	255.000
226.71	2300.000
227.08	475.000
227.46	440.000
227.83	-800.000
228.21	-2000.000
228.58	433.333
228.95	-1650.000
229.33	-1800.000
229.70	1433.333
230.08	600.000
230.45	-800.000
230.82	383.333
231.20	666.667
231.57	471.429
231.95	341.667
232.32	209.091
232.69	327.273
233.07	614.286
233.44	269.231
233.81	-1500.000
234.19	300.000
234.56	466.667
234.93	291.667
235.31	472.727
235.68	338.462
236.05	421.429
236.43	209.091
236.80	289.474
237.17	3900.000
237.55	266.667
237.92	217.857
238.29	295.238
238.67	225.806
239.04	262.069
239.41	213.889
239.79	152.174
240.16	188.095
240.53	204.545
240.91	194.118
241.28	156.000
241.65	158.000
242.02	139.130
242.40	172.581
242.77	145.000
243.14	125.806
243.51	128.090
243.89	136.471
244.26	127.778
244.63	126.882
245.00	121.277
245.38	125.743
245.75	122.430
246.12	113.761
246.49	114.599
246.87	129.600
247.24	119.231
247.61	117.857
247.98	107.843
248.36	114.865
248.73	112.102
249.10	112.739
249.47	113.559
249.84	102.139
250.22	104.278
250.59	110.059
250.96	112.626
251.33	97.630
251.70	105.446
252.08	103.810
252.45	96.861
252.82	104.783
253.19	103.404
253.56	101.961
253.94	99.170
254.31	100.781
254.68	98.462
255.05	97.417
255.42	100.813
255.79	100.000
256.16	101.444
256.54	95.760
256.91	98.221
257.28	97.122
257.65	97.690
258.02	92.547
258.39	92.429
258.76	101.003
259.14	93.750
259.51	94.225
259.88	93.789
260.25	98.489
260.62	93.353
260.99	93.168
261.36	95.796
261.73	96.562
262.10	97.965
262.47	96.056
262.85	89.415
263.22	95.726
263.59	97.151
263.96	94.780
264.33	92.167
264.70	93.421
265.07	95.908
265.44	94.444
265.81	85.888
266.18	94.724
266.55	92.927
266.92	95.332
267.29	90.741
267.66	90.138
268.03	91.364
268.40	89.486
268.77	88.067
269.14	91.216
269.51	89.616
269.88	95.804
270.25	89.391
270.62	90.787
270.99	89.032
271.36	86.052
271.73	91.121
272.10	89.130
272.47	90.538
272.84	87.879
273.21	87.631
273.58	89.520
273.95	85.115
274.32	86.570
274.69	94.218
275.06	85.039
275.43	91.915
275.80	89.579
276.17	90.835
276.54	89.397
276.91	87.945
277.28	84.375
277.65	86.847
278.02	89.027
278.39	87.305
278.76	82.182
279.13	86.792
279.50	83.426
279.87	86.056
280.23	84.032
280.60	88.395
280.97	84.473
281.34	85.487
281.71	84.182
282.08	87.140
282.45	84.364
282.82	84.725
283.19	83.244
283.56	81.053
283.92	82.064
284.29	82.892
284.66	82.577
285.03	82.278
285.40	84.155
285.77	81.987
286.14	83.074
286.51	81.667
286.87	80.513
287.24	79.479
287.61	78.652
287.98	80.682
288.35	76.228
288.72	75.545
289.08	79.343
289.45	77.100
289.82	77.398
290.19	73.312
290.56	71.669
290.93	74.471
291.29	75.613
291.66	71.829
292.03	76.017
292.40	72.981
292.77	71.006
293.13	70.299
293.50	71.720
293.87	71.556
294.24	69.926
294.60	69.287
294.97	70.349
295.34	68.688
295.71	69.034
296.08	68.091
296.44	68.776
296.81	65.125
297.18	66.260
297.55	65.435
297.91	64.512
298.28	66.801
298.65	63.838
299.02	64.295
299.38	66.534
299.75	63.477
300.12	63.985
300.48	62.125
300.85	62.885
301.22	64.459
301.59	62.626
301.95	62.091
302.32	62.901
302.69	60.454
303.05	63.394
303.42	60.988
303.79	62.854
304.15	59.790
304.52	60.950
304.89	58.769
305.25	58.121
305.62	59.909
305.99	61.511
306.35	58.166
306.72	60.538
307.09	59.156
307.45	60.473
307.82	56.250
308.19	58.720
308.55	58.792
308.92	58.647
309.29	56.917
309.65	56.840
310.02	57.188
310.38	58.495
310.75	57.233
311.12	57.216
311.48	57.785
311.85	57.862
312.22	59.001
312.58	56.029
312.95	57.656
313.31	55.243
313.68	58.628
314.05	58.974
314.41	60.000
314.78	58.610
315.14	57.001
315.51	58.599
315.87	57.030
316.24	56.703
316.61	56.823
316.97	57.436
317.34	56.849
317.70	58.317
318.07	56.689
318.43	58.904
318.80	58.388
319.16	57.156
319.53	58.255
319.89	57.429
320.26	58.000
320.62	58.135
320.99	58.182
321.35	57.172
321.72	60.164
322.08	59.427
322.45	60.995
322.81	59.593
323.18	59.345
323.54	58.442
323.91	59.340
324.27	59.082
324.64	59.087
325.00	57.529
325.37	59.054
325.73	59.695
326.10	59.753
326.46	58.513
326.83	58.930
327.19	60.376
327.56	59.408
327.92	60.017
328.29	59.450
328.65	60.866
329.01	59.116
329.38	59.944
329.74	59.834
330.11	62.017
330.47	59.045
330.84	59.743
331.20	59.016
331.56	59.174
331.93	60.278
332.29	59.184
332.66	60.265
333.02	57.952
333.38	60.434
333.75	58.556
334.11	60.587
334.48	59.006
334.84	60.846
335.20	58.909
335.57	58.386
335.93	59.375
336.29	58.425
336.66	58.521
337.02	57.104
337.38	58.333
337.75	58.111
338.11	58.013
338.47	59.945
338.84	59.395
339.20	58.349
339.56	58.759
339.93	58.364
340.29	58.152
340.65	57.308
341.02	59.860
341.38	59.698
341.74	57.982
342.11	58.341
342.47	58.943
342.83	57.449
343.20	58.009
343.56	56.950
343.92	57.632
344.28	58.929
344.65	58.813
345.01	55.976
345.37	58.062
345.73	58.037
346.10	57.374
346.46	58.305
346.82	58.320
347.19	58.229
347.55	56.240
347.91	57.282
348.27	57.272
348.63	57.274
349.00	56.958
349.36	57.882
349.72	56.536
350.08	56.483
350.45	58.096
350.81	57.189
351.17	57.131
351.53	56.593
351.89	56.601
352.26	57.459
352.62	57.739
352.98	56.807
353.34	57.354
353.70	56.056
354.07	55.887
354.43	55.238
354.79	56.879
355.15	55.148
355.51	57.794
355.87	58.204
356.24	57.329
356.60	55.493
356.96	57.924
357.32	57.972
357.68	57.087
358.04	55.503
358.40	56.770
358.77	55.477
359.13	56.433
359.49	56.157
359.85	56.587
360.21	56.778
360.57	56.342
360.93	58.615
361.29	56.387
361.66	55.263
362.02	56.269
362.38	56.654
362.74	56.324
363.10	55.440
363.46	57.007
363.82	58.503
364.18	56.902
364.54	58.470
364.90	57.436
365.26	58.162
365.62	56.757
365.98	57.268
366.35	56.948
366.71	56.905
367.07	57.538
367.43	58.563
367.79	57.602
368.15	58.405
368.51	56.468
368.87	58.601
369.23	58.376
369.59	58.291
369.95	58.162
370.31	58.405
370.67	57.464
371.03	57.828
371.39	57.726
371.75	58.456
372.11	56.259
372.47	59.018
372.83	58.141
373.19	57.298
373.55	58.758
373.91	58.689
374.27	57.457
374.63	57.818
374.99	57.556
375.35	57.362
375.71	58.739
376.07	58.848
376.42	59.766
376.78	59.708
377.14	59.362
377.50	59.272
377.86	58.843
378.22	59.798
378.58	58.521
378.94	58.894
379.30	59.288
379.66	60.977
380.02	60.627
380.38	59.927
380.74	59.544
381.09	60.269
381.45	60.172
381.81	60.749
382.17	60.446
382.53	61.258
382.89	60.309
383.25	60.725
383.61	61.710
383.97	61.288
384.32	60.574
384.68	61.586
385.04	61.524
385.40	61.734
385.76	61.916
386.12	61.658
386.48	62.115
386.83	63.374
387.19	64.255
387.55	62.152
387.91	62.636
388.27	61.925
388.62	62.323
388.98	61.855
389.34	62.829
389.70	62.600
390.06	62.864
390.42	62.451
390.77	63.232
391.13	63.944
391.49	62.310
391.85	63.654
392.20	63.091
392.56	63.068
392.92	63.155
393.28	62.840
393.64	62.110
393.99	62.187
394.35	63.834
394.71	63.363
395.07	62.305
395.42	64.524
395.78	63.868
396.14	63.004
396.50	64.411
396.85	64.463
397.21	63.440
397.57	63.112
397.92	66.106
398.28	62.780
398.64	63.262
399.00	62.899
399.35	63.734
399.71	64.236
400.07	63.808
400.42	63.926
400.78	64.536
401.14	64.878
401.49	65.433
401.85	63.944
402.21	63.653
402.57	65.022
402.92	65.952
403.28	64.085
403.63	64.233
403.99	65.223
404.35	63.455
404.70	64.149
405.06	64.240
405.42	64.504
405.77	64.457
406.13	64.391
406.49	63.868
406.84	63.851
407.20	63.298
407.55	65.220
407.91	65.267
408.27	65.858
408.62	64.600
408.98	64.583
409.34	65.129
409.69	64.323
410.05	65.118
410.40	63.425
410.76	64.098
411.11	63.390
411.47	64.537
411.83	65.119
412.18	64.378
412.54	64.633
412.89	64.398
413.25	64.463
413.60	65.164
413.96	63.024
414.31	63.791
414.67	64.829
415.03	64.636
415.38	64.626
415.74	65.016
416.09	65.774
416.45	65.328
416.80	65.433
417.16	65.885
417.51	65.627
417.87	63.006
418.22	64.858
418.58	65.268
418.93	65.356
419.29	65.436
419.64	65.176
420.00	64.634
420.35	64.406
420.71	65.332
421.06	64.081
421.42	64.561
421.77	64.574
422.12	64.234
422.48	64.544
422.83	65.754
423.19	65.083
423.54	64.655
423.90	65.275
424.25	65.103
424.61	65.536
424.96	65.598
425.31	65.061
425.67	64.326
426.02	65.257
426.38	66.606
426.73	66.121
427.09	65.471
427.44	65.037
427.79	64.060
428.15	65.417
428.50	64.775
428.85	65.733
429.21	64.992
429.56	65.993
429.92	65.526
430.27	64.548
430.62	64.567
430.98	65.127
431.33	64.330
431.68	65.183
432.04	64.111
432.39	64.763
432.74	64.991
433.10	65.308
433.45	66.181
433.80	65.965
434.16	65.118
434.51	65.211
434.86	64.595
435.22	66.648
435.57	66.079
435.92	66.296
436.28	65.540
436.63	66.501
436.98	66.171
437.34	66.726
437.69	67.211
438.04	65.992
438.39	66.448
438.75	66.241
439.10	66.369
439.45	65.584
439.81	65.982
440.16	65.613
440.51	66.960
440.86	66.300
441.22	66.352
441.57	65.180
441.92	66.786
442.27	66.469
442.63	66.403
442.98	67.155
443.33	65.543
443.68	65.152
444.03	65.739
444.39	66.650
444.74	67.208
445.09	66.092
445.44	65.828
445.79	65.463
446.15	64.690
446.50	65.320
446.85	67.009
447.20	66.701
447.55	66.723
447.91	66.078
448.26	66.221
448.61	66.026
448.96	67.331
449.31	67.548
449.66	65.560
450.02	65.738
450.37	66.327
450.72	66.215
451.07	65.996
451.42	66.383
451.77	67.293
452.12	63.568
452.47	67.289
452.83	67.366
453.18	65.892
453.53	68.213
453.88	66.509
454.23	65.690
454.58	66.021
454.93	67.959
455.28	66.584
455.63	67.476
455.98	66.607
456.34	68.028
456.69	67.188
457.04	67.307
457.39	66.920
457.74	66.570
458.09	65.727
458.44	66.819
458.79	64.534
459.14	66.761
459.49	66.141
459.84	66.759
460.19	66.588
460.54	64.988
460.89	66.264
461.24	66.363
461.59	67.635
461.94	65.906
462.29	67.359
462.64	66.241
462.99	65.062
463.34	67.467
463.69	66.729
464.04	67.478
464.39	64.580
464.74	65.657
465.09	66.707
465.44	65.596
465.79	67.170
466.14	65.517
466.49	64.850
466.84	66.025
467.19	66.687
467.54	67.000
467.89	65.546
468.24	65.620
468.59	65.995
468.94	65.852
469.29	67.674
469.64	66.734
469.99	66.712
470.34	67.041
470.68	67.888
471.03	65.646
471.38	68.937
471.73	66.289
472.08	68.092
472.43	65.075
472.78	66.425
473.13	65.789
473.48	66.417
473.83	65.793
474.17	66.708
474.52	67.432
474.87	66.667
475.22	67.034
475.57	64.267
475.92	64.843
476.27	65.502
476.61	65.637
476.96	65.531
477.31	65.306
477.66	66.466
478.01	64.558
478.36	65.838
478.70	65.576
479.05	65.442
479.40	65.455
479.75	65.379
480.10	65.358
480.45	64.017
480.79	64.166
481.14	65.558
481.49	65.638
481.84	64.518
482.19	65.879
482.53	65.321
482.88	64.821
483.23	64.813
483.58	65.105
483.92	64.339
484.27	64.139
484.62	64.397
484.97	63.343
485.31	65.993
485.66	63.741
486.01	61.533
486.36	60.103
486.70	58.638
487.05	59.675
487.40	61.721
487.75	62.432
488.09	63.482
488.44	63.209
488.79	64.195
489.13	64.171
489.48	65.090
489.83	64.135
490.17	64.533
490.52	64.526
490.87	64.496
491.22	63.893
491.56	63.508
491.91	64.588
492.26	62.839
492.60	63.502
492.95	63.330
493.30	64.206
493.64	64.022
493.99	63.603
494.34	63.645
494.68	64.606
495.03	64.286
495.37	63.564
495.72	64.522
496.07	64.919
496.41	61.991
496.76	63.412
497.11	62.629
497.45	63.903
497.80	63.916
498.14	63.382
498.49	64.780
498.84	63.567
499.18	63.857
499.53	64.150
499.87	63.793
500.22	62.930
500.56	63.786
500.91	62.548
501.26	63.727
501.60	63.835
501.95	62.832
502.29	64.620
502.64	64.479
502.98	64.282
503.33	61.883
503.67	62.831
504.02	63.938
504.36	62.377
504.71	63.752
505.06	62.217
505.40	62.713
505.75	62.392
506.09	63.265
506.44	64.726
506.78	62.737
507.13	65.321
507.47	63.586
507.82	62.715
508.16	64.488
508.51	65.145
508.85	62.016
509.19	65.357
509.54	62.704
509.88	63.679
510.23	63.650
510.57	64.241
510.92	63.076
511.26	62.333
511.61	62.967
511.95	62.578
512.30	62.778
512.64	64.052
512.98	64.202
513.33	63.972
513.67	62.113
514.02	62.554
514.36	64.391
514.70	64.029
515.05	63.804
515.39	63.993
515.74	64.189
516.08	63.387
516.42	63.873
516.77	64.771
517.11	63.984
517.46	64.052
517.80	65.273
518.14	64.042
518.49	64.352
518.83	64.091
519.17	63.799
519.52	63.780
519.86	63.948
520.20	64.046
520.55	65.111
520.89	65.633
521.23	64.475
521.58	62.845
521.92	63.870
522.26	63.880
522.61	64.299
522.95	64.027
523.29	64.394
523.64	65.183
523.98	66.112
524.32	64.656
524.66	64.582
525.01	63.848
525.35	65.118
525.69	63.054
526.04	64.548
526.38	63.392
526.72	62.454
527.06	65.035
527.41	63.119
527.75	65.145
528.09	64.611
528.43	64.946
528.78	64.474
529.12	63.394
529.46	63.870
529.80	63.366
530.15	63.801
530.49	62.462
530.83	64.051
531.17	64.099
531.51	65.499
531.86	63.097
532.20	64.537
532.54	62.780
532.88	63.350
533.22	62.773
533.57	63.148
533.91	62.553
534.25	62.880
534.59	62.965
534.93	61.214
535.27	63.126
535.62	62.821
535.96	63.465
536.30	62.683
536.64	63.361
536.98	65.096
537.32	62.014
537.66	63.067
538.01	63.397
538.35	63.866
538.69	62.987
539.03	62.508
539.37	61.661
539.71	62.605
540.05	63.856
540.39	62.990
540.73	61.708
541.07	63.465
541.42	62.948
541.76	61.935
542.10	62.613
542.44	62.980
542.78	63.505
543.12	60.781
543.46	62.689
543.80	62.850
544.14	62.003
544.48	62.032
544.82	62.797
545.16	62.720
545.50	62.018
545.84	62.030
546.18	63.165
546.52	62.078
546.86	63.436
547.20	62.643
547.54	61.857
547.88	61.798
548.22	59.838
548.56	61.132
548.90	60.115
549.24	62.020
549.58	62.278
549.92	62.706
550.26	62.358
550.60	60.719
550.94	63.239
551.28	61.229
551.62	62.257
551.96	61.404
552.30	62.730
552.64	61.190
552.98	62.644
553.32	60.418
553.66	61.895
554.00	62.320
554.34	61.905
554.68	62.947
555.02	61.072
555.36	60.682
555.69	60.622
556.03	60.363
556.37	60.437
556.71	60.300
557.05	61.345
557.39	59.692
557.73	61.256
558.07	62.509
558.41	60.781
558.75	61.278
559.08	62.789
559.42	61.980
559.76	60.735
560.10	61.527
560.44	59.679
560.78	59.415
561.12	60.092
561.45	61.147
561.79	59.789
562.13	60.899
562.47	60.109
562.81	62.692
563.15	60.669
563.48	60.146
563.82	61.057
564.16	59.778
564.50	60.156
564.84	59.987
565.17	59.781
565.51	60.256
565.85	60.216
566.19	58.923
566.52	60.608
566.86	58.590
567.20	59.139
567.54	58.562
567.88	57.414
568.21	58.095
568.55	57.533
568.89	58.220
569.23	56.328
569.56	56.235
569.90	56.566
570.24	55.867
570.57	55.525
570.91	54.234
571.25	54.571
571.59	54.698
571.92	54.522
572.26	55.055
572.60	54.745
572.93	53.733
573.27	54.658
573.61	54.690
573.95	53.928
574.28	53.291
574.62	53.523
574.96	53.381
575.29	53.007
575.63	53.532
575.97	53.632
576.30	53.903
576.64	54.562
576.98	53.379
577.31	53.420
577.65	53.094
577.98	52.875
578.32	52.323
578.66	52.600
578.99	52.591
579.33	53.450
579.67	52.445
580.00	53.488
580.34	53.512
580.67	53.179
581.01	53.542
581.35	53.549
581.68	52.762
582.02	52.248
582.35	52.731
582.69	51.999
583.02	52.438
583.36	53.240
583.70	53.497
584.03	53.683
584.37	54.835
584.70	54.023
585.04	53.058
585.37	53.308
585.71	52.561
586.04	52.187
586.38	52.952
586.72	53.797
587.05	53.491
587.39	53.140
587.72	53.285
588.06	53.522
588.39	52.593
588.73	53.153
589.06	53.132
589.40	54.141
589.73	55.403
590.07	53.843
590.40	53.745
590.73	56.050
591.07	56.370
591.40	54.197
591.74	55.368
592.07	54.887
592.41	54.444
592.74	53.745
593.08	52.965
593.41	53.211
593.75	50.781
594.08	52.062
594.41	52.987
594.75	53.604
595.08	53.830
595.42	53.450
595.75	53.597
596.09	54.300
596.42	55.128
596.75	54.327
597.09	53.593
597.42	53.120
597.75	54.808
598.09	54.435
598.42	52.835
598.76	52.574
599.09	52.033
599.42	51.383
599.76	53.001
600.09	51.475
600.42	52.082
600.76	52.071
601.09	50.929
601.42	52.435
601.76	52.258
602.09	52.767
602.42	52.707
602.76	54.252
603.09	53.186
603.42	53.065
603.76	51.677
604.09	53.160
604.42	53.037
604.76	53.100
605.09	52.993
605.42	52.800
605.75	53.725
606.09	52.379
606.42	53.576
606.75	53.131
607.09	52.491
607.42	51.861
607.75	51.350
608.08	53.322
608.42	52.532
608.75	51.533
609.08	53.006
609.41	52.594
609.75	52.787
610.08	53.864
610.41	52.514
610.74	53.453
611.07	54.150
611.41	53.778
611.74	53.595
612.07	54.193
612.40	54.669
612.73	52.842
613.07	54.364
613.40	53.923
613.73	52.176
614.06	52.796
614.39	52.805
614.72	52.947
615.06	52.731
615.39	52.601
615.72	52.505
616.05	52.472
616.38	53.141
616.71	54.988
617.05	55.065
617.38	53.458
617.71	54.535
618.04	54.988
618.37	54.701
618.70	55.258
619.03	55.066
619.36	55.126
619.69	55.141
620.03	54.396
620.36	54.880
620.69	54.795
621.02	55.236
621.35	54.111
621.68	54.050
622.01	55.108
622.34	55.219
622.67	54.373
623.00	53.191
623.33	52.966
623.66	55.826
623.99	55.449
624.32	54.636
624.65	53.955
624.99	53.329
625.32	53.512
625.65	55.147
625.98	56.034
626.31	56.376
626.64	55.265
626.97	56.692
627.30	55.195
627.63	55.045
627.96	56.854
628.29	55.031
628.62	55.444
628.95	57.547
629.28	57.391
629.61	57.195
629.94	56.952
630.26	56.339
630.59	55.767
630.92	55.364
631.25	53.998
631.58	56.857
631.91	55.375
632.24	55.907
632.57	56.978
632.90	58.882
633.23	58.389
633.56	58.644
633.89	57.984
634.22	58.797
634.55	60.592
634.88	59.162
635.20	58.184
635.53	57.229
635.86	59.035
636.19	56.471
636.52	59.400
636.85	56.586
637.18	56.912
637.51	57.801
637.83	57.090
638.16	58.824
638.49	57.179
638.82	58.534
639.15	59.000
639.48	57.731
639.81	63.003
640.13	57.943
640.46	56.913
640.79	58.124
641.12	58.322
641.45	58.799
641.77	62.592
642.10	61.550
642.43	59.159
642.76	61.765
643.09	61.196
643.41	58.725
643.74	59.722
644.07	59.451
644.40	58.896
644.73	62.205
645.05	60.856
645.38	60.190
645.71	61.675
646.04	60.133
646.36	62.771
646.69	61.873
647.02	61.054
647.35	59.450
647.67	61.770
648.00	58.699
648.33	60.231
648.66	56.970
648.98	59.220
649.31	57.100
649.64	57.997
649.96	60.507
650.29	59.400
650.62	58.738
650.94	58.185
651.27	60.980
651.60	59.567
651.92	57.508
652.25	56.515
652.58	58.567
652.90	60.190
653.23	55.624
653.56	57.323
653.88	58.003
654.21	58.294
654.54	56.601
654.86	56.854
655.19	56.892
655.52	44.411
655.84	41.070
656.17	52.662
656.49	70.395
656.82	71.703
657.15	54.622
657.47	40.691
657.80	31.538
658.13	33.660
658.45	50.228
658.78	49.769
659.10	50.872
659.43	53.097
659.75	54.399
660.08	58.165
660.41	61.266
660.73	61.626
661.06	57.643
661.38	62.909
661.71	61.154
662.03	62.722
662.36	57.058
662.68	58.434
663.01	61.212
663.33	59.873
663.66	59.244
663.98	60.259
664.31	59.874
664.63	57.692
664.96	59.155
665.28	61.066
665.61	59.259
665.93	61.167
666.26	60.243
666.58	62.552
666.91	61.945
667.23	63.820
667.56	61.555
667.88	63.034
668.21	61.407
668.53	62.907
668.86	57.576
669.18	65.458
669.50	61.522
669.83	61.656
670.15	60.667
670.48	61.002
670.80	59.267
671.13	61.783
671.45	57.660
671.77	58.452
672.10	58.410
672.42	56.537
672.75	55.390
673.07	56.690
673.39	57.143
673.72	59.180
674.04	59.608
674.37	60.194
674.69	59.100
675.01	59.623
675.34	59.548
675.66	64.211
675.98	58.656
676.31	62.815
676.63	60.297
676.95	59.539
677.28	60.047
677.60	58.681
677.92	62.236
678.25	60.575
678.57	59.960
678.89	57.916
679.22	58.546
679.54	58.588
679.86	57.064
680.18	56.708
680.51	58.511
680.83	53.915
681.15	58.679
681.48	58.034
681.80	56.867
682.12	59.195
682.44	56.673
682.77	60.692
683.09	61.588
683.41	62.084
683.73	60.265
684.06	58.058
684.38	58.708
684.70	56.589
685.02	58.912
685.34	57.692
685.67	53.497
685.99	54.467
686.31	54.778
686.63	54.770
686.96	56.250
687.28	56.137
687.60	55.797
687.92	54.113
688.24	55.133
688.56	58.032
688.89	59.129
689.21	58.079
689.53	58.455
689.85	60.310
690.17	56.729
690.49	55.839
690.82	56.776
691.14	56.696
691.46	55.907
691.78	56.426
692.10	57.231
692.42	56.886
692.74	56.432
693.06	57.447
693.39	57.084
693.71	58.079
694.03	58.105
694.35	55.411
694.67	58.352
694.99	60.976
695.31	56.618
695.63	60.048
695.95	57.946
696.27	60.152
696.59	58.808
696.91	58.549
697.23	56.808
697.56	51.812
697.88	51.943
698.20	57.917
698.52	56.989
698.84	56.570
699.16	56.452
699.48	60.570
699.80	58.454
700.12	66.494
700.44	64.191
700.76	58.840
701.08	58.908
701.40	60.335
701.72	62.391
702.04	64.773
702.36	56.374
702.68	60.057
703.00	57.064
703.32	57.979
703.64	58.981
703.96	60.724
704.28	62.791
704.60	60.997
704.91	62.315
705.23	60.411
705.55	62.791
705.87	65.449
706.19	63.604
706.51	60.436
706.83	57.576
707.15	58.263
707.47	58.081
707.79	57.494
708.11	56.849
708.43	60.238
708.74	55.612
709.06	60.000
709.38	58.005
709.70	60.756
710.02	59.644
710.34	56.364
710.66	60.896
710.98	56.818
711.29	59.302
711.61	62.537
711.93	60.256
712.25	62.379
712.57	64.706
712.89	61.592
713.20	57.143
713.52	66.447
713.84	58.544
714.16	61.280
714.48	56.897
714.80	65.957
715.11	57.925
715.43	56.380
715.75	57.391
716.07	60.064
716.39	59.248
716.70	66.113
717.02	56.835
717.34	58.304
717.66	68.657
717.97	66.932
718.29	57.778
718.61	64.234
718.93	66.912
719.24	61.938
719.56	59.322
719.88	63.729
720.20	62.162
720.51	62.718
720.83	62.825
721.15	58.582
721.46	62.411
721.78	61.290
722.10	63.019
722.42	65.038
722.73	65.543
723.05	61.066
723.37	66.397
723.68	62.548
724.00	63.008
724.32	64.919
724.63	63.008
724.95	68.619
725.27	64.777
725.58	64.062
725.90	63.504
726.22	60.755
726.53	59.028
726.85	60.751
727.16	60.854
727.48	57.092
727.80	63.258
728.11	59.783
728.43	63.077
728.74	59.857
729.06	61.679
729.38	63.971
729.69	60.142
730.01	60.410
730.32	57.292
730.64	57.525
730.96	55.116
731.27	62.252
731.59	58.410
731.90	60.058
732.22	55.590
732.53	50.464
732.85	58.013
733.16	57.235
733.48	59.801
733.80	61.364
734.11	59.873
734.43	58.876
734.74	55.143
735.06	53.009
735.37	56.936
735.69	57.325
736.00	60.784
736.32	58.255
736.63	59.105
736.95	60.064
737.26	57.823
737.58	60.000
737.89	58.863
738.21	61.092
738.52	60.714
738.83	56.981
739.15	60.385
739.46	62.409
739.78	62.500
740.09	56.308
740.41	57.097
740.72	54.704
741.04	59.630
741.35	61.250
741.66	72.444
741.98	63.679
742.29	62.679
742.61	62.931
742.92	61.991
743.23	62.821
743.55	57.600
743.86	62.719
744.18	69.027
744.49	60.287
744.80	68.545
745.12	69.091
745.43	62.996
745.74	58.559
746.06	65.138
746.37	65.022
746.68	60.633
747.00	64.815
747.31	65.714
747.62	61.947
747.94	60.793
748.25	53.617
748.56	68.282
748.88	66.832
749.19	70.000
749.50	66.512
749.82	60.976
750.13	56.735
750.44	61.679
750.75	64.561
751.07	58.842
751.38	60.976
751.69	60.289
752.01	57.895
752.32	57.401
752.63	57.092
752.94	60.656
753.26	66.400
753.57	57.317
753.88	62.891
754.19	57.500
754.51	61.111
754.82	53.791
755.13	60.755
755.44	62.406
755.75	58.029
756.07	57.092
756.38	58.029
756.69	58.725
757.00	52.395
757.31	54.303
757.63	53.801
757.94	53.619
758.25	49.510
758.56	51.358
758.87	52.151
759.18	56.061
759.50	53.605
759.81	56.698
760.12	53.437
760.43	54.441
760.74	53.533
761.05	58.192
761.36	53.743
761.67	55.114
761.99	55.901
762.30	58.333
762.61	54.198
762.92	62.109
763.23	58.824
763.54	59.200
763.85	55.469
764.16	57.692
764.47	60.076
764.78	54.064
765.10	54.114
765.41	53.687
765.72	54.790
766.03	55.799
766.34	56.667
766.65	64.681
766.96	63.675
767.27	66.497
767.58	64.583
767.89	67.895
768.20	67.816
768.51	65.482
768.82	62.844
769.13	58.130
769.44	52.227
769.75	62.232
770.06	54.587
770.37	63.348
770.68	59.722
770.99	63.556
771.30	54.098
771.61	61.435
771.92	59.016
772.23	61.345
772.54	61.026
772.85	63.874
773.16	64.894
773.47	64.674
773.78	64.975
774.09	64.286
774.39	65.497
774.70	68.519
775.01	71.739
775.32	70.588
775.63	69.737
775.94	79.137
776.25	82.677
776.56	73.134
776.87	86.885
777.18	72.656
777.48	77.099
777.79	77.273
778.10	67.407
778.41	88.393
778.72	70.073
779.03	67.114
779.34	67.114
779.65	72.297
779.95	60.736
780.26	79.739
780.57	66.207
780.88	82.812
781.19	62.406
781.50	64.865
781.80	71.069
782.11	64.972
782.42	64.557
782.73	62.577
783.04	78.378
783.34	71.127
783.65	74.658
783.96	79.851
784.27	71.329
784.57	64.748
784.88	65.741
785.19	76.190
785.50	81.132
785.81	73.134
786.11	77.049
786.42	77.519
786.73	78.761
787.04	90.566
787.34	81.250
787.65	87.000
787.96	78.378
788.26	74.380
788.57	83.051
788.88	78.512
789.19	74.306
789.49	78.788
789.80	72.519
790.11	88.571
790.41	81.188
790.72	85.542
791.03	85.870
791.33	88.372
791.64	76.289
791.95	77.228
792.25	92.222
792.56	84.416
792.87	100.000
793.17	98.734
793.48	87.356
793.79	87.356
794.09	92.045
794.40	76.471
794.70	74.265
795.01	68.889
795.32	72.662
795.62	70.866
795.93	73.276
796.23	73.451
796.54	98.824
796.85	78.378
797.15	108.451
797.46	87.879
797.76	100.000
798.07	78.481
798.37	107.692
798.68	90.909
798.99	91.549
799.29	89.610
799.60	72.727
799.90	95.890
800.21	97.015
800.51	110.345
800.82	122.807
801.12	116.393
801.43	110.606
801.73	70.270
802.04	88.889
802.34	79.012
802.65	101.563
802.95	122.034
803.26	120.313
803.56	77.143
803.87	95.385
804.17	95.588
804.48	144.444
804.78	96.552
805.09	83.824
805.39	109.615
805.70	103.571
806.00	104.918
806.30	98.485
806.61	86.585
806.91	89.873
807.22	86.842
807.52	102.985
807.83	80.282
808.13	104.688
808.43	110.000
808.74	90.789
809.04	97.101
809.35	94.030
809.65	93.421
809.95	137.097
810.26	98.305
810.56	114.286
810.86	154.545
811.17	123.810
811.47	106.667
811.77	124.074
812.08	121.818
812.38	144.000
812.69	130.556
812.99	136.364
813.29	138.776
813.59	102.381
813.90	134.694
814.20	107.273
814.50	93.846
814.81	111.765
815.11	126.531
815.41	100.000
815.72	140.476
816.02	114.545
816.32	140.476
816.62	102.500
816.93	124.390
817.23	140.476
817.53	152.273
817.84	160.606
818.14	108.696
818.44	131.111
818.74	164.706
819.04	127.500
819.35	157.143
819.65	167.647
819.95	171.429
820.25	180.000
820.56	120.513
820.86	136.364
821.16	146.512
821.46	115.385
821.76	120.000
822.07	151.429
822.37	132.500
822.67	169.697
822.97	117.647
823.27	192.857
823.57	140.541
823.88	160.000
824.18	156.667
824.48	152.381
824.78	180.000
825.08	162.500
825.38	145.946
825.69	107.317
825.99	241.667
826.29	148.276
826.59	163.158
826.89	131.579
827.19	150.000
827.49	187.097
827.79	143.182
828.09	129.545
828.39	106.383
828.70	120.408
829.00	162.963
829.30	132.258
829.60	147.500
829.90	280.000
830.20	167.857
830.50	208.696
830.80	252.174
831.10	170.000
831.40	156.667
831.70	147.826
832.00	207.692
832.30	162.963
832.60	331.250
832.90	203.333
833.20	371.429
833.50	177.419
833.80	175.862
834.10	156.250
834.40	223.077
834.70	294.444
835.00	295.238
835.30	151.429
835.60	269.231
835.90	189.655
836.20	314.286
836.50	175.862
836.80	184.000
837.10	144.444
837.40	223.810
837.70	223.529
838.00	200.000
838.30	233.333
838.60	266.667
838.90	207.692
839.19	230.000
839.49	371.429
839.79	285.000
840.09	240.000
840.39	185.714
840.69	239.130
840.99	233.333
841.29	440.000
841.59	266.667
841.88	293.750
842.18	162.069
842.48	238.095
842.78	163.333
843.08	178.261
843.38	150.000
843.68	683.333
843.97	200.000
844.27	175.862
844.57	257.143
844.87	293.750
845.17	200.000
845.47	1266.667
845.76	388.889
846.06	264.706
846.36	525.000
846.66	321.429
846.96	225.000
847.25	345.455
847.55	336.364
847.85	230.435
848.15	480.000
848.44	357.143
848.74	166.667
849.04	247.059
849.34	390.000
849.63	226.316
849.93	418.182
850.23	900.000
850.53	400.000
850.82	1550.000
851.12	-3800.000
851.42	4300.000
851.71	200.000
852.01	-866.667
852.31	212.500
852.61	1366.667
852.90	180.952
853.20	192.000
853.50	352.941
853.79	242.857
854.09	195.833
854.39	318.750
854.68	143.243
854.98	161.290
855.28	173.333
855.57	186.207
855.87	174.074
856.17	215.789
856.46	246.667
856.76	264.706
857.05	186.207
857.35	179.167
857.65	300.000
857.94	182.609
858.24	234.615
858.53	275.000
858.83	181.818
859.13	286.667
859.42	0.000
859.72	422.222
860.01	363.636
860.31	236.364
860.60	231.579
860.90	182.609
861.20	555.556
861.49	400.000
861.79	-4300.000
862.08	450.000
862.38	276.190
862.67	307.692
862.97	282.353
863.26	411.111
863.56	222.222
863.85	291.667
864.15	562.500
864.44	386.667
864.74	800.000
865.03	587.500
865.33	210.526
865.62	436.364
865.92	376.923
866.21	300.000
866.51	0.000
866.80	354.545
867.10	1160.000
867.39	353.846
867.69	400.000
867.98	247.368
868.27	381.818
868.57	221.053
868.86	-3200.000
869.16	250.000
869.45	1700.000
869.75	-2700.000
870.04	341.667
870.33	514.286
870.63	750.000
870.92	2000.000
871.22	542.857
871.51	276.471
871.80	157.143
872.10	342.857
>>>>>End Processed Spectral Data<<<<<
