SpectraSuite Data File
++++++++++++++++++++++++++++++++++++
Date: Thu May 14 14:38:17 PDT 2015
User: schluterlab
Dark Spectrum Present: Yes
Reference Spectrum Present: Yes
Number of Sampled Component Spectra: 1
Spectrometers: USB2E3373
Integration Time (usec): 3000 (USB2E3373)
Spectra Averaged: 3 (USB2E3373)
Boxcar Smoothing: 0 (USB2E3373)
Correct for Electrical Dark: No (USB2E3373)
Strobe/Lamp Enabled: No (USB2E3373)
Correct for Detector Non-linearity: No (USB2E3373)
Correct for Stray Light: No (USB2E3373)
Number of Pixels in Processed Spectrum: 2048
>>>>>Begin Processed Spectral Data<<<<<
178.53	0.000
178.91	-271.429
179.29	1100.000
179.67	1200.000
180.04	-14.286
180.42	-110.000
180.80	-180.000
181.18	300.000
181.56	1400.000
181.94	-350.000
182.31	525.000
182.69	-100.000
183.07	550.000
183.45	-275.000
183.83	400.000
184.20	200.000
184.58	-1100.000
184.96	250.000
185.34	66.667
185.72	280.000
186.09	-22.222
186.47	-700.000
186.85	-160.000
187.23	88.889
187.61	700.000
187.98	-380.000
188.36	-425.000
188.74	425.000
189.12	700.000
189.49	125.000
189.87	100.000
190.25	222.222
190.63	460.000
191.00	66.667
191.38	0.000
191.76	150.000
192.14	350.000
192.51	-1150.000
192.89	366.667
193.27	0.000
193.65	242.857
194.02	1000.000
194.40	200.000
194.78	-57.143
195.15	0.000
195.53	136.364
195.91	0.000
196.29	400.000
196.66	161.538
197.04	900.000
197.42	157.143
197.79	750.000
198.17	250.000
198.55	157.143
198.92	288.889
199.30	112.500
199.68	227.273
200.05	150.000
200.43	400.000
200.81	-42.857
201.18	0.000
201.56	-33.333
201.94	0.000
202.31	-166.667
202.69	144.444
203.07	-1400.000
203.44	166.667
203.82	175.000
204.19	75.000
204.57	150.000
204.95	162.500
205.32	1800.000
205.70	-500.000
206.08	316.667
206.45	216.667
206.83	-0.000
207.20	100.000
207.58	60.000
207.96	166.667
208.33	433.333
208.71	-75.000
209.08	466.667
209.46	0.000
209.84	-116.667
210.21	-800.000
210.59	-1100.000
210.96	-400.000
211.34	575.000
211.71	175.000
212.09	1500.000
212.46	0.000
212.84	-600.000
213.22	160.000
213.59	375.000
213.97	300.000
214.34	466.667
214.72	-333.333
215.09	425.000
215.47	0.000
215.84	-128.571
216.22	-0.000
216.59	540.000
216.97	340.000
217.34	275.000
217.72	287.500
218.09	200.000
218.47	350.000
218.84	0.000
219.22	-320.000
219.59	135.294
219.97	105.000
220.34	-650.000
220.72	155.556
221.09	169.231
221.47	433.333
221.84	220.000
222.22	142.857
222.59	0.000
222.97	212.500
223.34	160.000
223.72	1500.000
224.09	225.000
224.46	175.000
224.84	260.000
225.21	0.000
225.59	275.000
225.96	325.000
226.34	111.538
226.71	-266.667
227.08	500.000
227.46	113.333
227.83	300.000
228.21	126.316
228.58	-125.000
228.95	-800.000
229.33	183.333
229.70	190.000
230.08	136.842
230.45	-170.000
230.82	766.667
231.20	128.571
231.57	233.333
231.95	136.364
232.32	163.636
232.69	125.000
233.07	225.000
233.44	129.412
233.81	190.000
234.19	83.333
234.56	136.364
234.93	113.793
235.31	147.368
235.68	100.000
236.05	90.000
236.43	123.077
236.80	140.000
237.17	85.185
237.55	103.030
237.92	60.000
238.29	67.742
238.67	61.364
239.04	83.333
239.41	40.476
239.79	82.609
240.16	51.852
240.53	60.870
240.91	43.137
241.28	62.295
241.65	61.194
242.02	52.703
242.40	56.923
242.77	36.000
243.14	32.927
243.51	28.947
243.89	51.282
244.26	46.535
244.63	49.020
245.00	43.925
245.38	37.719
245.75	30.973
246.12	40.476
246.49	32.558
246.87	42.857
247.24	42.384
247.61	44.079
247.98	37.584
248.36	31.481
248.73	37.423
249.10	33.880
249.47	37.811
249.84	38.743
250.22	31.088
250.59	38.889
250.96	38.636
251.33	38.776
251.70	36.752
252.08	31.250
252.45	34.426
252.82	42.562
253.19	30.859
253.56	33.840
253.94	36.154
254.31	35.985
254.68	41.259
255.05	35.505
255.42	31.633
255.79	35.275
256.16	32.781
256.54	33.113
256.91	32.787
257.28	36.066
257.65	35.032
258.02	32.153
258.39	30.484
258.76	39.450
259.14	32.759
259.51	34.870
259.88	34.561
260.25	33.333
260.62	33.699
260.99	34.699
261.36	32.440
261.73	33.952
262.10	37.637
262.47	30.831
262.85	34.091
263.22	29.870
263.59	29.737
263.96	36.829
264.33	33.504
264.70	32.593
265.07	35.800
265.44	34.467
265.81	33.333
266.18	32.200
266.55	32.366
266.92	32.574
267.29	32.823
267.66	31.042
268.03	32.096
268.40	33.820
268.77	29.841
269.14	32.159
269.51	32.237
269.88	32.172
270.25	32.998
270.62	35.443
270.99	34.141
271.36	30.891
271.73	30.845
272.10	30.461
272.47	31.663
272.84	30.120
273.21	29.058
273.58	33.065
273.95	28.269
274.32	28.137
274.69	30.174
275.06	31.319
275.43	29.020
275.80	33.510
276.17	32.407
276.54	29.851
276.91	32.558
277.28	30.922
277.65	28.187
278.02	29.963
278.39	31.341
278.76	30.053
279.13	29.787
279.50	30.584
279.87	30.233
280.23	27.817
280.60	31.356
280.97	31.414
281.34	29.032
281.71	30.288
282.08	30.731
282.45	27.987
282.82	29.042
283.19	27.625
283.56	27.049
283.92	28.979
284.29	30.964
284.66	30.213
285.03	26.603
285.40	29.675
285.77	28.947
286.14	29.160
286.51	28.615
286.87	27.646
287.24	29.367
287.61	28.102
287.98	27.795
288.35	28.550
288.72	27.515
289.08	28.111
289.45	27.071
289.82	26.657
290.19	29.454
290.56	26.197
290.93	25.535
291.29	27.548
291.66	27.135
292.03	26.052
292.40	26.939
292.77	27.628
293.13	24.628
293.50	26.018
293.87	27.383
294.24	28.000
294.60	23.135
294.97	24.564
295.34	26.248
295.71	22.825
296.08	24.548
296.44	23.529
296.81	24.604
297.18	23.039
297.55	24.292
297.91	23.725
298.28	22.275
298.65	23.306
299.02	22.550
299.38	22.883
299.75	22.664
300.12	22.222
300.48	22.696
300.85	23.622
301.22	23.826
301.59	21.689
301.95	22.938
302.32	23.444
302.69	22.344
303.05	22.960
303.42	21.951
303.79	21.562
304.15	22.292
304.52	22.304
304.89	23.037
305.25	23.913
305.62	23.197
305.99	22.474
306.35	21.472
306.72	23.475
307.09	21.421
307.45	22.360
307.82	22.503
308.19	21.998
308.55	22.372
308.92	22.298
309.29	21.743
309.65	21.150
310.02	21.584
310.38	23.327
310.75	23.204
311.12	22.052
311.48	22.874
311.85	22.317
312.22	22.581
312.58	21.878
312.95	23.709
313.31	23.397
313.68	22.802
314.05	24.842
314.41	23.315
314.78	24.251
315.14	22.777
315.51	23.084
315.87	24.752
316.24	24.201
316.61	24.512
316.97	24.615
317.34	23.633
317.70	24.891
318.07	24.515
318.43	26.190
318.80	26.505
319.16	23.691
319.53	23.222
319.89	24.540
320.26	25.178
320.62	23.936
320.99	25.577
321.35	26.063
321.72	26.791
322.08	25.969
322.45	26.378
322.81	25.812
323.18	26.637
323.54	25.948
323.91	27.580
324.27	26.850
324.64	27.540
325.00	26.700
325.37	27.109
325.73	27.851
326.10	27.737
326.46	28.420
326.83	28.983
327.19	28.268
327.56	29.802
327.92	27.144
328.29	28.790
328.65	28.308
329.01	28.596
329.38	29.823
329.74	31.079
330.11	30.308
330.47	27.801
330.84	29.027
331.20	29.583
331.56	30.156
331.93	31.297
332.29	29.576
332.66	30.066
333.02	30.486
333.38	29.782
333.75	30.387
334.11	31.193
334.48	31.601
334.84	30.416
335.20	30.395
335.57	30.607
335.93	30.579
336.29	29.867
336.66	29.941
337.02	30.351
337.38	31.548
337.75	29.835
338.11	31.034
338.47	30.935
338.84	30.372
339.20	30.581
339.56	29.984
339.93	30.213
340.29	31.481
340.65	30.657
341.02	30.327
341.38	31.770
341.74	29.944
342.11	30.491
342.47	29.547
342.83	31.159
343.20	31.562
343.56	31.195
343.92	31.385
344.28	30.469
344.65	31.395
345.01	29.797
345.37	31.260
345.73	30.242
346.10	31.201
346.46	30.380
346.82	31.161
347.19	31.016
347.55	31.715
347.91	29.866
348.27	29.514
348.63	29.551
349.00	30.276
349.36	30.037
349.72	31.027
350.08	29.643
350.45	30.190
350.81	30.317
351.17	31.654
351.53	31.387
351.89	31.663
352.26	31.194
352.62	31.119
352.98	30.534
353.34	30.097
353.70	30.508
354.07	30.775
354.43	30.524
354.79	30.516
355.15	31.714
355.51	31.652
355.87	31.189
356.24	31.255
356.60	31.264
356.96	31.060
357.32	30.706
357.68	30.088
358.04	30.614
358.40	30.821
358.77	32.675
359.13	31.167
359.49	31.004
359.85	31.690
360.21	31.420
360.57	30.581
360.93	31.312
361.29	31.368
361.66	31.571
362.02	31.802
362.38	31.131
362.74	31.844
363.10	31.706
363.46	32.825
363.82	32.599
364.18	31.386
364.54	32.019
364.90	32.107
365.26	30.759
365.62	31.733
365.98	31.995
366.35	32.349
366.71	33.333
367.07	32.138
367.43	31.779
367.79	32.847
368.15	32.575
368.51	33.559
368.87	32.136
369.23	33.267
369.59	34.085
369.95	33.401
370.31	33.288
370.67	32.531
371.03	32.548
371.39	32.975
371.75	33.769
372.11	32.385
372.47	32.363
372.83	33.835
373.19	33.489
373.55	33.266
373.91	32.652
374.27	32.794
374.63	34.844
374.99	34.748
375.35	34.416
375.71	34.581
376.07	34.151
376.42	33.375
376.78	35.488
377.14	34.186
377.50	34.282
377.86	34.667
378.22	34.431
378.58	35.434
378.94	35.270
379.30	34.564
379.66	34.685
380.02	34.622
380.38	36.175
380.74	36.113
381.09	36.179
381.45	35.625
381.81	36.183
382.17	36.995
382.53	35.556
382.89	36.005
383.25	36.694
383.61	36.458
383.97	36.160
384.32	36.423
384.68	36.601
385.04	37.016
385.40	37.596
385.76	37.749
386.12	36.984
386.48	37.471
386.83	37.843
387.19	38.181
387.55	37.852
387.91	38.584
388.27	38.799
388.62	38.488
388.98	37.507
389.34	38.539
389.70	39.047
390.06	39.372
390.42	39.096
390.77	39.013
391.13	38.732
391.49	39.614
391.85	40.424
392.20	40.391
392.56	40.520
392.92	40.894
393.28	39.690
393.64	39.385
393.99	40.616
394.35	39.720
394.71	40.778
395.07	41.138
395.42	39.520
395.78	41.987
396.14	41.889
396.50	39.905
396.85	40.608
397.21	40.828
397.57	41.519
397.92	41.523
398.28	39.761
398.64	41.076
399.00	39.895
399.35	40.890
399.71	40.598
400.07	41.381
400.42	41.560
400.78	41.609
401.14	41.434
401.49	42.638
401.85	42.965
402.21	42.468
402.57	42.723
402.92	42.139
403.28	41.452
403.63	41.885
403.99	42.162
404.35	41.728
404.70	42.040
405.06	41.902
405.42	42.330
405.77	42.966
406.13	42.518
406.49	43.356
406.84	42.881
407.20	42.314
407.55	43.913
407.91	43.118
408.27	41.637
408.62	42.234
408.98	42.252
409.34	42.581
409.69	43.696
410.05	42.849
410.40	42.865
410.76	41.952
411.11	43.016
411.47	43.735
411.83	42.210
412.18	44.277
412.54	42.798
412.89	43.248
413.25	42.664
413.60	43.308
413.96	44.056
414.31	42.720
414.67	43.351
415.03	42.954
415.38	44.956
415.74	43.739
416.09	44.232
416.45	43.832
416.80	43.452
417.16	44.189
417.51	45.268
417.87	44.390
418.22	43.593
418.58	44.052
418.93	45.634
419.29	45.129
419.64	44.718
420.00	44.629
420.35	43.796
420.71	44.859
421.06	45.141
421.42	44.839
421.77	44.480
422.12	44.027
422.48	44.547
422.83	45.838
423.19	45.252
423.54	45.575
423.90	43.954
424.25	45.440
424.61	45.063
424.96	45.634
425.31	45.223
425.67	44.928
426.02	45.766
426.38	45.867
426.73	45.647
427.09	46.136
427.44	45.057
427.79	45.826
428.15	44.920
428.50	45.899
428.85	44.948
429.21	46.702
429.56	46.594
429.92	45.504
430.27	46.120
430.62	46.067
430.98	46.532
431.33	47.116
431.68	45.977
432.04	46.572
432.39	46.277
432.74	45.890
433.10	47.215
433.45	45.987
433.80	46.245
434.16	46.539
434.51	48.253
434.86	47.068
435.22	47.821
435.57	47.818
435.92	48.136
436.28	47.668
436.63	49.754
436.98	47.665
437.34	47.182
437.69	48.872
438.04	47.488
438.39	49.225
438.75	48.423
439.10	47.939
439.45	47.960
439.81	47.627
440.16	48.257
440.51	49.443
440.86	48.193
441.22	49.089
441.57	48.742
441.92	48.109
442.27	49.646
442.63	49.031
442.98	48.826
443.33	48.711
443.68	49.356
444.03	50.094
444.39	48.914
444.74	49.668
445.09	49.468
445.44	50.263
445.79	50.383
446.15	49.692
446.50	49.406
446.85	49.416
447.20	50.000
447.55	50.785
447.91	50.733
448.26	50.899
448.61	50.000
448.96	52.039
449.31	50.795
449.66	49.891
450.02	49.789
450.37	51.305
450.72	50.700
451.07	51.765
451.42	50.202
451.77	51.306
452.12	52.370
452.47	51.515
452.83	53.153
453.18	51.897
453.53	52.096
453.88	50.359
454.23	50.847
454.58	53.221
454.93	51.820
455.28	54.004
455.63	52.416
455.98	52.570
456.34	51.826
456.69	52.087
457.04	53.369
457.39	51.275
457.74	53.523
458.09	52.718
458.44	51.724
458.79	51.573
459.14	51.914
459.49	52.632
459.84	53.568
460.19	51.471
460.54	54.117
460.89	52.938
461.24	53.333
461.59	52.518
461.94	51.911
462.29	54.535
462.64	52.867
462.99	54.237
463.34	54.964
463.69	52.462
464.04	53.919
464.39	53.139
464.74	52.509
465.09	53.345
465.44	53.380
465.79	53.622
466.14	52.684
466.49	53.632
466.84	54.270
467.19	54.740
467.54	52.585
467.89	53.391
468.24	54.127
468.59	53.619
468.94	54.779
469.29	54.589
469.64	54.736
469.99	56.023
470.34	54.332
470.68	55.229
471.03	56.058
471.38	54.938
471.73	56.242
472.08	56.536
472.43	55.990
472.78	56.045
473.13	55.183
473.48	56.435
473.83	55.543
474.17	55.158
474.52	56.404
474.87	54.707
475.22	55.606
475.57	54.569
475.92	55.650
476.27	55.112
476.61	55.192
476.96	55.683
477.31	55.842
477.66	55.876
478.01	55.719
478.36	55.982
478.70	55.862
479.05	56.902
479.40	56.762
479.75	56.052
480.10	55.140
480.45	56.563
480.79	54.966
481.14	55.515
481.49	56.111
481.84	56.223
482.19	55.140
482.53	56.100
482.88	56.890
483.23	55.625
483.58	56.114
483.92	55.541
484.27	55.800
484.62	55.528
484.97	55.521
485.31	54.488
485.66	52.417
486.01	50.748
486.36	51.431
486.70	52.553
487.05	53.724
487.40	54.400
487.75	54.733
488.09	55.255
488.44	54.470
488.79	56.054
489.13	56.155
489.48	56.078
489.83	55.131
490.17	56.258
490.52	54.844
490.87	56.387
491.22	57.409
491.56	56.613
491.91	57.130
492.26	56.988
492.60	57.149
492.95	57.481
493.30	57.911
493.64	57.293
493.99	58.246
494.34	57.230
494.68	56.103
495.03	57.797
495.37	58.322
495.72	57.551
496.07	58.063
496.41	57.743
496.76	57.965
497.11	58.047
497.45	57.229
497.80	58.418
498.14	58.322
498.49	57.904
498.84	57.861
499.18	58.525
499.53	58.386
499.87	59.077
500.22	58.860
500.56	59.109
500.91	59.176
501.26	59.545
501.60	58.462
501.95	58.142
502.29	59.193
502.64	58.286
502.98	58.714
503.33	58.186
503.67	58.352
504.02	57.837
504.36	59.428
504.71	59.256
505.06	59.209
505.40	59.186
505.75	59.244
506.09	59.024
506.44	60.260
506.78	60.275
507.13	59.843
507.47	59.877
507.82	59.470
508.16	59.704
508.51	60.150
508.85	60.274
509.19	61.061
509.54	61.671
509.88	60.029
510.23	61.292
510.57	62.204
510.92	62.022
511.26	60.462
511.61	60.406
511.95	60.517
512.30	61.251
512.64	60.870
512.98	61.581
513.33	61.996
513.67	62.315
514.02	62.545
514.36	61.893
514.70	63.281
515.05	63.034
515.39	62.887
515.74	63.256
516.08	63.761
516.42	63.527
516.77	63.407
517.11	62.713
517.46	63.309
517.80	63.442
518.14	64.091
518.49	64.100
518.83	61.629
519.17	63.005
519.52	63.365
519.86	63.516
520.20	63.419
520.55	64.239
520.89	63.908
521.23	64.712
521.58	64.859
521.92	64.249
522.26	65.292
522.61	64.699
522.95	66.378
523.29	66.149
523.64	63.565
523.98	65.545
524.32	65.960
524.66	66.420
525.01	65.459
525.35	64.044
525.69	64.559
526.04	64.122
526.38	65.862
526.72	65.917
527.06	67.390
527.41	64.665
527.75	66.271
528.09	65.584
528.43	66.726
528.78	64.104
529.12	65.654
529.46	65.093
529.80	65.789
530.15	65.971
530.49	66.429
530.83	65.939
531.17	66.607
531.51	67.389
531.86	66.166
532.20	68.171
532.54	66.727
532.88	67.152
533.22	65.704
533.57	66.128
533.91	65.320
534.25	65.856
534.59	66.437
534.93	65.025
535.27	65.296
535.62	66.401
535.96	65.601
536.30	66.099
536.64	66.006
536.98	66.728
537.32	67.778
537.66	67.810
538.01	65.559
538.35	66.200
538.69	67.007
539.03	66.094
539.37	65.783
539.71	66.426
540.05	66.847
540.39	65.831
540.73	65.574
541.07	66.462
541.42	65.978
541.76	65.421
542.10	67.129
542.44	65.895
542.78	66.971
543.12	65.554
543.46	66.422
543.80	65.647
544.14	65.530
544.48	65.248
544.82	66.786
545.16	65.832
545.50	66.147
545.84	67.361
546.18	66.358
546.52	67.389
546.86	67.484
547.20	68.321
547.54	66.604
547.88	64.858
548.22	66.901
548.56	65.243
548.90	65.851
549.24	67.720
549.58	66.372
549.92	66.901
550.26	67.961
550.60	66.688
550.94	67.982
551.28	67.855
551.62	68.935
551.96	65.955
552.30	68.451
552.64	67.330
552.98	67.124
553.32	68.617
553.66	69.196
554.00	67.907
554.34	66.281
554.68	65.913
555.02	68.463
555.36	69.231
555.69	68.097
556.03	67.970
556.37	67.835
556.71	67.216
557.05	67.540
557.39	68.480
557.73	67.635
558.07	68.675
558.41	69.236
558.75	67.681
559.08	70.424
559.42	68.038
559.76	69.403
560.10	68.989
560.44	68.997
560.78	68.750
561.12	67.919
561.45	69.465
561.79	68.193
562.13	68.515
562.47	66.893
562.81	68.291
563.15	69.003
563.48	67.868
563.82	68.380
564.16	67.474
564.50	67.938
564.84	66.785
565.17	67.412
565.51	66.628
565.85	67.874
566.19	65.956
566.52	67.291
566.86	67.799
567.20	64.546
567.54	66.224
567.88	67.533
568.21	65.217
568.55	65.324
568.89	65.365
569.23	62.907
569.56	62.915
569.90	61.974
570.24	62.395
570.57	61.065
570.91	60.778
571.25	60.197
571.59	59.699
571.92	59.888
572.26	58.973
572.60	59.214
572.93	60.562
573.27	59.314
573.61	59.661
573.95	59.602
574.28	58.818
574.62	58.549
574.96	58.028
575.29	58.008
575.63	58.235
575.97	58.994
576.30	58.993
576.64	58.482
576.98	58.451
577.31	58.454
577.65	58.770
577.98	57.587
578.32	57.400
578.66	57.765
578.99	57.997
579.33	58.671
579.67	58.998
580.00	58.980
580.34	58.486
580.67	58.407
581.01	57.919
581.35	57.530
581.68	57.178
582.02	56.743
582.35	57.646
582.69	58.382
583.02	58.344
583.36	59.273
583.70	60.259
584.03	59.179
584.37	60.504
584.70	58.802
585.04	58.800
585.37	59.037
585.71	58.360
586.04	58.278
586.38	59.471
586.72	59.288
587.05	59.708
587.39	59.811
587.72	59.569
588.06	58.752
588.39	60.045
588.73	60.053
589.06	60.581
589.40	61.801
589.73	61.697
590.07	61.804
590.40	62.576
590.73	62.743
591.07	63.738
591.40	62.597
591.74	63.474
592.07	63.297
592.41	63.210
592.74	61.413
593.08	60.924
593.41	61.359
593.75	59.856
594.08	61.921
594.41	61.603
594.75	61.076
595.08	62.012
595.42	61.883
595.75	61.382
596.09	63.165
596.42	62.522
596.75	63.257
597.09	64.444
597.42	63.051
597.75	62.799
598.09	62.897
598.42	63.249
598.76	61.941
599.09	60.805
599.42	60.308
599.76	60.515
600.09	61.161
600.42	61.295
600.76	61.295
601.09	61.567
601.42	61.380
601.76	61.759
602.09	62.473
602.42	62.523
602.76	62.768
603.09	62.959
603.42	62.934
603.76	61.769
604.09	62.704
604.42	61.615
604.76	63.166
605.09	63.422
605.42	63.317
605.75	62.192
606.09	61.590
606.42	62.204
606.75	62.144
607.09	62.558
607.42	61.696
607.75	62.837
608.08	62.826
608.42	62.152
608.75	64.179
609.08	63.115
609.41	64.270
609.75	65.357
610.08	65.084
610.41	62.914
610.74	63.193
611.07	64.565
611.41	65.157
611.74	64.896
612.07	65.264
612.40	65.494
612.73	65.966
613.07	65.428
613.40	64.726
613.73	64.324
614.06	65.260
614.39	64.431
614.72	64.629
615.06	64.533
615.39	65.442
615.72	65.261
616.05	64.546
616.38	67.053
616.71	65.152
617.05	64.483
617.38	67.844
617.71	66.361
618.04	66.271
618.37	67.650
618.70	67.364
619.03	68.100
619.36	69.236
619.69	69.571
620.03	69.492
620.36	67.178
620.69	69.648
621.02	70.604
621.35	72.496
621.68	72.234
622.01	71.246
622.34	71.757
622.67	69.828
623.00	69.231
623.33	70.272
623.66	69.844
623.99	69.849
624.32	69.526
624.65	69.498
624.99	69.961
625.32	70.803
625.65	71.477
625.98	69.288
626.31	71.368
626.64	73.114
626.97	72.243
627.30	71.374
627.63	70.668
627.96	73.048
628.29	73.463
628.62	72.964
628.95	75.110
629.28	75.106
629.61	73.316
629.94	74.895
630.26	73.983
630.59	75.043
630.92	75.238
631.25	75.939
631.58	78.814
631.91	75.914
632.24	76.081
632.57	76.565
632.90	78.636
633.23	77.653
633.56	77.449
633.89	75.826
634.22	79.938
634.55	80.376
634.88	80.628
635.20	79.333
635.53	82.260
635.86	78.332
636.19	80.382
636.52	77.532
636.85	78.345
637.18	77.131
637.51	77.419
637.83	77.630
638.16	82.488
638.49	81.221
638.82	79.369
639.15	78.580
639.48	80.947
639.81	77.829
640.13	81.272
640.46	78.667
640.79	81.985
641.12	81.863
641.45	81.430
641.77	84.467
642.10	81.759
642.43	85.239
642.76	84.824
643.09	82.603
643.41	84.174
643.74	83.724
644.07	83.448
644.40	84.158
644.73	85.051
645.05	85.756
645.38	85.180
645.71	83.871
646.04	83.357
646.36	83.796
646.69	87.117
647.02	87.003
647.35	87.176
647.67	90.177
648.00	88.854
648.33	85.285
648.66	81.883
648.98	81.361
649.31	83.627
649.64	81.541
649.96	78.647
650.29	81.780
650.62	79.066
650.94	82.733
651.27	83.533
651.60	81.140
651.92	83.739
652.25	82.055
652.58	79.642
652.90	80.959
653.23	83.239
653.56	80.314
653.88	80.056
654.21	79.859
654.54	80.780
654.86	80.737
655.19	77.164
655.52	67.358
655.84	53.451
656.17	64.187
656.49	89.729
656.82	98.906
657.15	80.250
657.47	61.182
657.80	46.056
658.13	36.511
658.45	49.168
658.78	60.774
659.10	60.632
659.43	62.717
659.75	64.086
660.08	66.555
660.41	70.223
660.73	77.081
661.06	81.645
661.38	86.124
661.71	86.034
662.03	88.536
662.36	87.835
662.68	87.617
663.01	87.434
663.33	88.658
663.66	85.897
663.98	87.308
664.31	87.805
664.63	86.320
664.96	87.659
665.28	84.392
665.61	84.790
665.93	86.786
666.26	87.634
666.58	84.871
666.91	88.972
667.23	87.238
667.56	90.335
667.88	92.200
668.21	87.500
668.53	87.838
668.86	89.194
669.18	92.464
669.50	87.873
669.83	85.400
670.15	85.827
670.48	91.071
670.80	85.851
671.13	84.688
671.45	86.811
671.77	89.266
672.10	81.667
672.42	82.362
672.75	81.260
673.07	77.612
673.39	79.045
673.72	85.067
674.04	86.552
674.37	86.941
674.69	83.245
675.01	85.905
675.34	88.359
675.66	84.457
675.98	83.769
676.31	89.063
676.63	88.213
676.95	87.356
677.28	88.306
677.60	86.417
677.92	86.564
678.25	83.729
678.57	85.231
678.89	83.276
679.22	81.882
679.54	80.342
679.86	79.322
680.18	79.934
680.51	79.088
680.83	80.360
681.15	83.276
681.48	81.347
681.80	84.801
682.12	83.392
682.44	78.464
682.77	81.206
683.09	85.417
683.41	86.240
683.73	84.061
684.06	84.871
684.38	81.574
684.70	84.919
685.02	78.485
685.34	77.205
685.67	75.552
685.99	75.920
686.31	73.692
686.63	78.041
686.96	76.656
687.28	79.642
687.60	80.976
687.92	77.010
688.24	77.462
688.56	80.000
688.89	80.762
689.21	84.736
689.53	85.882
689.85	83.432
690.17	79.630
690.49	85.458
690.82	85.941
691.14	83.603
691.46	81.644
691.78	77.348
692.10	78.532
692.42	75.536
692.74	80.036
693.06	77.407
693.39	81.594
693.71	79.887
694.03	79.740
694.35	78.095
694.67	83.162
694.99	81.277
695.31	83.002
695.63	86.147
695.95	82.402
696.27	85.275
696.59	80.310
696.91	81.757
697.23	85.055
697.56	78.819
697.88	77.083
698.20	79.661
698.52	80.114
698.84	82.952
699.16	81.224
699.48	80.962
699.80	80.426
700.12	81.004
700.44	82.949
700.76	80.285
701.08	86.441
701.40	86.788
701.72	83.582
702.04	91.444
702.36	85.340
702.68	81.907
703.00	82.641
703.32	84.729
703.64	86.308
703.96	80.668
704.28	83.784
704.60	86.582
704.91	84.184
705.23	86.027
705.55	86.072
705.87	91.515
706.19	92.025
706.51	91.265
706.83	86.167
707.15	79.365
707.47	78.738
707.79	75.983
708.11	72.669
708.43	76.559
708.74	73.884
709.06	78.886
709.38	76.995
709.70	80.149
710.02	83.979
710.34	82.181
710.66	82.682
710.98	82.787
711.29	76.648
711.61	86.441
711.93	85.185
712.25	82.432
712.57	92.035
712.89	87.647
713.20	82.249
713.52	80.347
713.84	83.287
714.16	78.684
714.48	79.897
714.80	82.597
715.11	79.265
715.43	80.106
715.75	78.158
716.07	80.663
716.39	78.689
716.70	80.120
717.02	86.557
717.34	83.972
717.66	84.564
717.97	82.192
718.29	87.973
718.61	83.882
718.93	84.790
719.24	78.261
719.56	80.061
719.88	75.676
720.20	82.581
720.51	80.124
720.83	81.562
721.15	83.553
721.46	80.137
721.78	82.333
722.10	81.230
722.42	83.557
722.73	78.710
723.05	88.070
723.37	80.208
723.68	89.964
724.00	84.477
724.32	83.803
724.63	81.469
724.95	77.660
725.27	80.836
725.58	83.039
725.90	88.966
726.22	78.370
726.53	80.519
726.85	82.390
727.16	74.018
727.48	74.924
727.80	80.464
728.11	83.392
728.43	78.114
728.74	79.933
729.06	80.132
729.38	80.195
729.69	79.530
730.01	75.298
730.32	75.758
730.64	77.358
730.96	72.981
731.27	73.464
731.59	75.824
731.90	67.792
732.22	70.313
732.53	69.613
732.85	72.857
733.16	80.352
733.48	77.134
733.80	69.081
734.11	73.504
734.43	71.892
734.74	77.215
735.06	69.598
735.37	75.946
735.69	72.432
736.00	73.446
736.32	67.925
736.63	70.833
736.95	77.011
737.26	73.636
737.58	73.636
737.89	72.647
738.21	74.924
738.52	74.754
738.83	78.498
739.15	79.787
739.46	77.891
739.78	79.141
740.09	70.487
740.41	74.344
740.72	80.667
741.04	75.728
741.35	75.789
741.66	77.255
741.98	84.426
742.29	84.519
742.61	83.333
742.92	82.692
743.23	79.422
743.55	79.070
743.86	82.400
744.18	75.207
744.49	81.435
744.80	82.716
745.12	81.435
745.43	81.301
745.74	75.431
746.06	83.051
746.37	85.654
746.68	84.146
747.00	81.250
747.31	82.833
747.62	81.154
747.94	81.781
748.25	75.904
748.56	75.510
748.88	83.333
749.19	84.052
749.50	78.788
749.82	82.731
750.13	79.359
750.44	76.000
750.75	70.462
751.07	72.615
751.38	69.085
751.69	73.802
752.01	70.550
752.32	76.144
752.63	73.810
752.94	76.817
753.26	76.580
753.57	76.667
753.88	76.404
754.19	71.383
754.51	75.563
754.82	70.418
755.13	75.082
755.44	76.451
755.75	75.329
756.07	74.030
756.38	71.384
756.69	73.494
757.00	62.604
757.31	66.120
757.63	64.194
757.94	64.789
758.25	64.108
758.56	64.270
758.87	65.000
759.18	64.800
759.50	70.538
759.81	65.266
760.12	68.464
760.43	67.187
760.74	63.793
761.05	67.000
761.36	63.133
761.67	69.543
761.99	67.027
762.30	68.902
762.61	67.657
762.92	73.134
763.23	76.779
763.54	74.460
763.85	70.790
764.16	71.044
764.47	77.113
764.78	73.802
765.10	67.449
765.41	65.385
765.72	63.492
766.03	65.819
766.34	69.592
766.65	67.596
766.96	73.307
767.27	81.567
767.58	82.090
767.89	78.846
768.20	74.178
768.51	73.148
768.82	73.092
769.13	67.045
769.44	71.154
769.75	67.870
770.06	71.538
770.37	76.378
770.68	68.936
770.99	66.802
771.30	71.852
771.61	72.624
771.92	67.407
772.23	71.255
772.54	71.296
772.85	80.645
773.16	75.714
773.47	75.132
773.78	82.703
774.09	85.795
774.39	74.500
774.70	74.317
775.01	83.537
775.32	72.353
775.63	77.301
775.94	72.611
776.25	80.000
776.56	81.410
776.87	77.551
777.18	79.310
777.48	79.720
777.79	84.459
778.10	73.529
778.41	78.472
778.72	82.759
779.03	73.457
779.34	80.000
779.65	63.212
779.95	78.889
780.26	73.295
780.57	89.677
780.88	89.855
781.19	79.355
781.50	79.412
781.80	77.957
782.11	76.190
782.42	60.606
782.73	76.048
783.04	71.508
783.34	73.939
783.65	69.935
783.96	74.534
784.27	67.262
784.57	72.185
784.88	82.143
785.19	74.803
785.50	85.039
785.81	75.188
786.11	73.846
786.42	71.942
786.73	77.698
787.04	81.955
787.34	79.508
787.65	74.400
787.96	81.343
788.26	79.720
788.57	81.119
788.88	68.421
789.19	69.935
789.49	68.493
789.80	73.759
790.11	82.677
790.41	72.656
790.72	81.356
791.03	80.583
791.33	75.652
791.64	80.702
791.95	71.429
792.25	82.857
792.56	83.929
792.87	81.250
793.17	80.357
793.48	85.417
793.79	89.157
794.09	75.229
794.40	79.817
794.70	67.347
795.01	68.831
795.32	70.548
795.62	64.789
795.93	64.394
796.23	76.230
796.54	74.107
796.85	91.489
797.15	82.609
797.46	91.781
797.76	96.250
798.07	85.870
798.37	72.165
798.68	87.013
798.99	77.011
799.29	71.910
799.60	78.723
799.90	81.928
800.21	89.231
800.51	105.970
800.82	88.235
801.12	73.973
801.43	69.118
801.73	98.305
802.04	75.758
802.34	90.000
802.65	115.254
802.95	79.104
803.26	96.610
803.56	87.671
803.87	92.857
804.17	87.671
804.48	84.211
804.78	80.556
805.09	94.828
805.39	82.432
805.70	67.606
806.00	73.171
806.30	78.313
806.61	83.562
806.91	69.231
807.22	83.333
807.52	67.816
807.83	106.944
808.13	96.386
808.43	75.281
808.74	78.750
809.04	75.000
809.35	78.667
809.65	90.000
809.95	76.712
810.26	78.947
810.56	91.379
810.86	92.647
811.17	85.965
811.47	91.803
811.77	100.000
812.08	81.356
812.38	86.667
812.69	84.483
812.99	90.566
813.29	94.872
813.59	114.000
813.90	100.000
814.20	107.273
814.50	97.183
814.81	87.179
815.11	88.525
815.41	89.552
815.72	94.828
816.02	87.500
816.32	142.222
816.62	90.909
816.93	86.667
817.23	88.889
817.53	119.149
817.84	109.524
818.14	164.706
818.44	108.163
818.74	111.111
819.04	84.615
819.35	100.000
819.65	134.615
819.95	101.887
820.25	115.556
820.56	104.762
820.86	150.000
821.16	102.564
821.46	104.651
821.76	88.000
822.07	78.571
822.37	91.304
822.67	91.489
822.97	94.595
823.27	122.500
823.57	110.204
823.88	102.222
824.18	97.500
824.48	130.000
824.78	136.000
825.08	145.455
825.38	124.444
825.69	87.234
825.99	105.556
826.29	108.571
826.59	84.615
826.89	90.698
827.19	96.000
827.49	91.176
827.79	97.917
828.09	91.892
828.39	136.667
828.70	109.756
829.00	76.744
829.30	121.429
829.60	138.235
829.90	97.826
830.20	97.143
830.50	113.793
830.80	205.556
831.10	119.231
831.40	111.765
831.70	190.476
832.00	154.839
832.30	123.529
832.60	112.500
832.90	169.231
833.20	163.158
833.50	165.000
833.80	157.895
834.10	142.857
834.40	125.000
834.70	131.250
835.00	91.429
835.30	97.059
835.60	130.000
835.90	132.000
836.20	81.818
836.50	148.000
836.80	87.879
837.10	114.815
837.40	137.037
837.70	125.000
838.00	117.857
838.30	117.391
838.60	117.241
838.90	271.429
839.19	69.565
839.49	250.000
839.79	121.739
840.09	156.250
840.39	190.000
840.69	112.903
840.99	92.857
841.29	186.667
841.59	121.053
841.88	102.564
842.18	153.846
842.48	340.000
842.78	180.000
843.08	90.000
843.38	112.903
843.68	105.556
843.97	76.471
844.27	200.000
844.57	121.053
844.87	180.000
845.17	126.667
845.47	128.571
845.76	109.524
846.06	188.889
846.36	176.471
846.66	138.462
846.96	153.333
847.25	117.647
847.55	143.478
847.85	150.000
848.15	170.588
848.44	272.727
848.74	157.143
849.04	104.167
849.34	175.000
849.63	156.522
849.93	-1300.000
850.23	200.000
850.53	146.154
850.82	236.364
851.12	104.545
851.42	190.909
851.71	230.769
852.01	120.000
852.31	184.615
852.61	115.789
852.90	200.000
853.20	150.000
853.50	155.556
853.79	85.714
854.09	100.000
854.39	258.333
854.68	116.129
854.98	100.000
855.28	172.222
855.57	67.857
855.87	100.000
856.17	150.000
856.46	111.111
856.76	138.889
857.05	86.957
857.35	83.333
857.65	176.923
857.94	133.333
858.24	96.296
858.53	117.391
858.83	158.824
859.13	135.294
859.42	188.235
859.72	150.000
860.01	105.000
860.31	77.778
860.60	220.000
860.90	206.667
861.20	88.889
861.49	176.923
861.79	86.667
862.08	146.154
862.38	106.250
862.67	182.353
862.97	193.750
863.26	211.111
863.56	190.000
863.85	136.364
864.15	172.222
864.44	733.333
864.74	114.286
865.03	93.750
865.33	160.000
865.62	58.065
865.92	113.636
866.21	95.652
866.51	178.571
866.80	260.000
867.10	158.333
867.39	166.667
867.69	-2100.000
867.98	228.571
868.27	176.471
868.57	1300.000
868.86	130.000
869.16	57.143
869.45	141.667
869.75	136.364
870.04	314.286
870.33	216.667
870.63	214.286
870.92	650.000
871.22	75.000
871.51	209.091
871.80	366.667
872.10	650.000
>>>>>End Processed Spectral Data<<<<<
