SpectraSuite Data File
++++++++++++++++++++++++++++++++++++
Date: Thu May 14 14:38:00 PDT 2015
User: schluterlab
Dark Spectrum Present: Yes
Reference Spectrum Present: Yes
Number of Sampled Component Spectra: 1
Spectrometers: USB2E3373
Integration Time (usec): 3000 (USB2E3373)
Spectra Averaged: 3 (USB2E3373)
Boxcar Smoothing: 0 (USB2E3373)
Correct for Electrical Dark: No (USB2E3373)
Strobe/Lamp Enabled: No (USB2E3373)
Correct for Detector Non-linearity: No (USB2E3373)
Correct for Stray Light: No (USB2E3373)
Number of Pixels in Processed Spectrum: 2048
>>>>>Begin Processed Spectral Data<<<<<
178.53	0.000
178.91	-200.000
179.29	300.000
179.67	800.000
180.04	14.286
180.42	-230.000
180.80	-200.000
181.18	1200.000
181.56	1800.000
181.94	-225.000
182.31	225.000
182.69	-400.000
183.07	750.000
183.45	-250.000
183.83	250.000
184.20	466.667
184.58	-1200.000
184.96	125.000
185.34	266.667
185.72	360.000
186.09	-44.444
186.47	-300.000
186.85	-300.000
187.23	77.778
187.61	900.000
187.98	-320.000
188.36	-325.000
188.74	400.000
189.12	800.000
189.49	131.250
189.87	250.000
190.25	177.778
190.63	360.000
191.00	200.000
191.38	0.000
191.76	200.000
192.14	366.667
192.51	-500.000
192.89	150.000
193.27	0.000
193.65	114.286
194.02	300.000
194.40	342.857
194.78	-128.571
195.15	0.000
195.53	190.909
195.91	0.000
196.29	625.000
196.66	138.462
197.04	1600.000
197.42	200.000
197.79	750.000
198.17	225.000
198.55	142.857
198.92	222.222
199.30	200.000
199.68	127.273
200.05	121.429
200.43	650.000
200.81	-185.714
201.18	0.000
201.56	-0.000
201.94	0.000
202.31	-233.333
202.69	44.444
203.07	-1900.000
203.44	188.889
203.82	25.000
204.19	108.333
204.57	200.000
204.95	287.500
205.32	2100.000
205.70	-300.000
206.08	250.000
206.45	300.000
206.83	80.000
207.20	133.333
207.58	180.000
207.96	83.333
208.33	283.333
208.71	-66.667
209.08	400.000
209.46	0.000
209.84	-266.667
210.21	-850.000
210.59	-900.000
210.96	-333.333
211.34	375.000
211.71	275.000
212.09	500.000
212.46	0.000
212.84	150.000
213.22	280.000
213.59	325.000
213.97	130.000
214.34	600.000
214.72	-183.333
215.09	350.000
215.47	0.000
215.84	-285.714
216.22	-550.000
216.59	400.000
216.97	420.000
217.34	250.000
217.72	262.500
218.09	325.000
218.47	350.000
218.84	0.000
219.22	-400.000
219.59	129.412
219.97	90.000
220.34	-150.000
220.72	200.000
221.09	161.538
221.47	500.000
221.84	170.000
222.22	185.714
222.59	0.000
222.97	250.000
223.34	200.000
223.72	1200.000
224.09	225.000
224.46	325.000
224.84	500.000
225.21	157.143
225.59	275.000
225.96	400.000
226.34	92.308
226.71	-100.000
227.08	1150.000
227.46	113.333
227.83	225.000
228.21	105.263
228.58	-150.000
228.95	-250.000
229.33	141.667
229.70	230.000
230.08	157.895
230.45	-20.000
230.82	466.667
231.20	100.000
231.57	166.667
231.95	181.818
232.32	172.727
232.69	75.000
233.07	325.000
233.44	135.294
233.81	130.000
234.19	138.889
234.56	95.455
234.93	100.000
235.31	147.368
235.68	94.444
236.05	70.000
236.43	119.231
236.80	116.000
237.17	85.185
237.55	75.758
237.92	190.000
238.29	74.194
238.67	47.727
239.04	86.111
239.41	61.905
239.79	69.565
240.16	50.000
240.53	63.043
240.91	52.941
241.28	42.623
241.65	61.194
242.02	48.649
242.40	40.000
242.77	48.000
243.14	53.659
243.51	34.211
243.89	48.718
244.26	48.515
244.63	42.157
245.00	45.794
245.38	36.842
245.75	30.973
246.12	45.238
246.49	46.512
246.87	45.000
247.24	40.397
247.61	44.737
247.98	34.899
248.36	35.185
248.73	36.810
249.10	37.705
249.47	35.323
249.84	45.550
250.22	35.233
250.59	42.778
250.96	35.909
251.33	33.163
251.70	32.479
252.08	32.083
252.45	37.295
252.82	32.231
253.19	36.719
253.56	36.122
253.94	35.000
254.31	36.364
254.68	39.510
255.05	35.179
255.42	31.633
255.79	32.039
256.16	31.126
256.54	32.450
256.91	37.705
257.28	35.082
257.65	29.299
258.02	31.268
258.39	33.903
258.76	36.697
259.14	35.345
259.51	31.412
259.88	32.861
260.25	33.056
260.62	35.342
260.99	33.060
261.36	36.729
261.73	33.156
262.10	34.066
262.47	33.512
262.85	37.374
263.22	31.429
263.59	32.368
263.96	35.550
264.33	33.760
264.70	36.049
265.07	34.129
265.44	32.653
265.81	32.176
266.18	32.653
266.55	33.259
266.92	34.396
267.29	34.354
267.66	33.703
268.03	32.533
268.40	31.106
268.77	31.435
269.14	29.075
269.51	30.921
269.88	31.762
270.25	30.986
270.62	32.700
270.99	34.545
271.36	29.505
271.73	30.452
272.10	32.064
272.47	31.663
272.84	31.526
273.21	30.060
273.58	32.056
273.95	31.538
274.32	29.848
274.69	28.046
275.06	31.319
275.43	29.575
275.80	31.217
276.17	30.926
276.54	29.104
276.91	29.517
277.28	30.922
277.65	29.982
278.02	31.066
278.39	29.710
278.76	31.459
279.13	30.142
279.50	31.100
279.87	31.843
280.23	29.049
280.60	29.831
280.97	31.250
281.34	30.560
281.71	32.318
282.08	28.405
282.45	30.115
282.82	29.356
283.19	29.402
283.56	30.328
283.92	29.730
284.29	31.596
284.66	30.213
285.03	26.442
285.40	28.903
285.77	27.399
286.14	28.702
286.51	29.072
286.87	28.594
287.24	30.422
287.61	28.999
287.98	27.644
288.35	27.811
288.72	26.923
289.08	29.868
289.45	25.444
289.82	25.753
290.19	28.736
290.56	26.479
290.93	24.536
291.29	26.722
291.66	26.309
292.03	25.916
292.40	26.939
292.77	24.798
293.13	24.899
293.50	26.018
293.87	23.087
294.24	25.467
294.60	25.664
294.97	25.772
295.34	24.072
295.71	23.834
296.08	22.739
296.44	22.794
296.81	24.726
297.18	22.291
297.55	22.170
297.91	23.132
298.28	20.853
298.65	23.424
299.02	23.022
299.38	21.510
299.75	21.729
300.12	21.759
300.48	24.078
300.85	21.372
301.22	22.819
301.59	20.890
301.95	22.260
302.32	21.444
302.69	20.811
303.05	21.328
303.42	21.286
303.79	21.667
304.15	22.082
304.52	21.459
304.89	21.885
305.25	20.911
305.62	21.003
305.99	21.340
306.35	20.060
306.72	20.889
307.09	19.492
307.45	21.014
307.82	21.998
308.19	21.695
308.55	20.926
308.92	20.935
309.29	20.402
309.65	19.591
310.02	20.693
310.38	20.079
310.75	21.650
311.12	22.435
311.48	19.648
311.85	19.753
312.22	20.398
312.58	19.718
312.95	19.120
313.31	20.777
313.68	20.788
314.05	21.048
314.41	20.856
314.78	19.619
315.14	20.508
315.51	20.222
315.87	20.072
316.24	19.726
316.61	20.426
316.97	19.548
317.34	20.106
317.70	21.310
318.07	20.018
318.43	20.153
318.80	21.070
319.16	20.429
319.53	18.680
319.89	19.457
320.26	20.641
320.62	17.730
320.99	20.776
321.35	20.148
321.72	20.651
322.08	19.387
322.45	19.603
322.81	19.765
323.18	19.735
323.54	21.207
323.91	19.217
324.27	19.707
324.64	20.991
325.00	18.823
325.37	20.721
325.73	21.074
326.10	20.357
326.46	21.173
326.83	21.217
327.19	19.685
327.56	19.763
327.92	18.568
328.29	18.952
328.65	18.593
329.01	20.728
329.38	20.977
329.74	19.949
330.11	20.120
330.47	19.966
330.84	18.346
331.20	20.000
331.56	19.757
331.93	20.335
332.29	19.322
332.66	19.684
333.02	19.933
333.38	19.128
333.75	19.024
334.11	20.183
334.48	19.472
334.84	19.796
335.20	19.395
335.57	19.393
335.93	19.339
336.29	19.218
336.66	19.092
337.02	18.813
337.38	20.833
337.75	18.843
338.11	19.344
338.47	19.520
338.84	18.190
339.20	18.281
339.56	18.781
339.93	19.376
340.29	18.438
340.65	18.816
341.02	18.994
341.38	19.968
341.74	19.451
342.11	19.710
342.47	19.142
342.83	19.243
343.20	20.114
343.56	17.963
343.92	18.655
344.28	18.281
344.65	18.915
345.01	18.253
345.37	19.285
345.73	17.849
346.10	18.955
346.46	17.959
346.82	18.727
347.19	18.869
347.55	18.361
347.91	17.905
348.27	19.044
348.63	18.203
349.00	18.270
349.36	17.621
349.72	18.080
350.08	17.905
350.45	17.719
350.81	17.647
351.17	17.594
351.53	18.271
351.89	18.451
352.26	18.358
352.62	18.060
352.98	18.397
353.34	18.148
353.70	18.875
354.07	17.586
354.43	18.299
354.79	17.502
355.15	18.028
355.51	19.298
355.87	18.250
356.24	18.327
356.60	17.812
356.96	18.013
357.32	17.249
357.68	17.789
358.04	17.440
358.40	17.687
358.77	17.178
359.13	17.873
359.49	16.580
359.85	17.259
360.21	17.862
360.57	17.732
360.93	18.829
361.29	18.316
361.66	17.234
362.02	17.676
362.38	17.569
362.74	17.249
363.10	17.950
363.46	17.521
363.82	17.045
364.18	17.382
364.54	17.911
364.90	17.124
365.26	17.172
365.62	18.200
365.98	17.903
366.35	17.114
366.71	17.755
367.07	17.253
367.43	17.334
367.79	18.315
368.15	18.328
368.51	17.321
368.87	18.027
369.23	18.067
369.59	16.598
369.95	17.106
370.31	16.745
370.67	17.056
371.03	17.105
371.39	16.790
371.75	17.400
372.11	17.073
372.47	17.671
372.83	17.670
373.19	17.812
373.55	17.547
373.91	16.428
374.27	16.818
374.63	16.915
374.99	17.308
375.35	17.987
375.71	16.710
376.07	16.785
376.42	16.625
376.78	17.464
377.14	17.280
377.50	17.331
377.86	17.796
378.22	16.946
378.58	16.587
378.94	17.254
379.30	17.516
379.66	17.872
380.02	16.907
380.38	18.145
380.74	16.958
381.09	16.551
381.45	16.591
381.81	17.681
382.17	17.221
382.53	17.661
382.89	17.269
383.25	18.464
383.61	16.898
383.97	17.491
384.32	16.806
384.68	16.763
385.04	16.946
385.40	17.384
385.76	17.761
386.12	17.115
386.48	17.000
386.83	17.938
387.19	17.149
387.55	17.371
387.91	17.694
388.27	17.494
388.62	17.411
388.98	17.654
389.34	17.148
389.70	17.199
390.06	17.288
390.42	17.410
390.77	17.700
391.13	17.547
391.49	17.572
391.85	17.576
392.20	17.972
392.56	16.657
392.92	17.176
393.28	17.137
393.64	17.318
393.99	17.141
394.35	17.874
394.71	17.305
395.07	16.766
395.42	17.704
395.78	18.769
396.14	17.528
396.50	17.399
396.85	17.651
397.21	17.456
397.57	17.550
397.92	17.297
398.28	17.056
398.64	17.277
399.00	16.545
399.35	17.225
399.71	17.446
400.07	17.631
400.42	16.647
400.78	17.303
401.14	17.302
401.49	17.965
401.85	17.558
402.21	18.308
402.57	18.486
402.92	18.203
403.28	16.628
403.63	17.124
403.99	17.399
404.35	17.851
404.70	18.017
405.06	17.880
405.42	17.155
405.77	18.048
406.13	17.072
406.49	16.948
406.84	18.172
407.20	17.328
407.55	17.807
407.91	16.908
408.27	17.197
408.62	17.568
408.98	17.702
409.34	16.657
409.69	17.491
410.05	17.526
410.40	17.169
410.76	17.499
411.11	17.066
411.47	17.752
411.83	17.402
412.18	18.253
412.54	17.724
412.89	17.462
413.25	17.833
413.60	17.576
413.96	16.608
414.31	17.224
414.67	18.008
415.03	17.723
415.38	18.411
415.74	17.593
416.09	18.445
416.45	16.719
416.80	16.769
417.16	17.178
417.51	16.999
417.87	17.290
418.22	18.383
418.58	17.286
418.93	17.811
419.29	18.249
419.64	17.287
420.00	17.329
420.35	17.518
420.71	16.944
421.06	17.021
421.42	17.317
421.77	16.801
422.12	16.860
422.48	16.999
422.83	17.579
423.19	17.666
423.54	17.091
423.90	17.228
424.25	17.173
424.61	16.935
424.96	17.298
425.31	17.463
425.67	17.552
426.02	17.045
426.38	17.910
426.73	16.797
427.09	18.512
427.44	16.712
427.79	17.302
428.15	17.637
428.50	17.191
428.85	16.590
429.21	18.032
429.56	16.979
429.92	17.297
430.27	17.398
430.62	16.854
430.98	17.019
431.33	17.253
431.68	16.715
432.04	17.522
432.39	17.568
432.74	17.751
433.10	17.523
433.45	16.388
433.80	16.953
434.16	16.994
434.51	16.958
434.86	17.427
435.22	16.844
435.57	17.748
435.92	17.807
436.28	16.439
436.63	17.641
436.98	16.318
437.34	17.362
437.69	16.786
438.04	17.134
438.39	17.117
438.75	16.602
439.10	17.812
439.45	17.552
439.81	17.514
440.16	16.890
440.51	16.890
440.86	16.676
441.22	17.203
441.57	17.400
441.92	16.731
442.27	17.222
442.63	16.841
442.98	17.022
443.33	17.201
443.68	17.393
444.03	17.545
444.39	17.476
444.74	17.968
445.09	17.587
445.44	16.965
445.79	17.241
446.15	17.472
446.50	17.364
446.85	17.656
447.20	17.505
447.55	16.841
447.91	17.225
448.26	16.966
448.61	17.003
448.96	18.455
449.31	17.444
449.66	16.939
450.02	17.827
450.37	18.167
450.72	16.523
451.07	18.052
451.42	17.273
451.77	17.009
452.12	18.284
452.47	16.637
452.83	18.300
453.18	17.104
453.53	16.312
453.88	17.780
454.23	17.571
454.58	17.528
454.93	17.051
455.28	17.821
455.63	17.681
455.98	17.877
456.34	17.138
456.69	16.755
457.04	17.553
457.39	17.129
457.74	17.841
458.09	16.969
458.44	17.942
458.79	17.019
459.14	17.357
459.49	17.544
459.84	17.471
460.19	16.435
460.54	17.774
460.89	17.205
461.24	16.897
461.59	17.156
461.94	17.056
462.29	17.413
462.64	16.777
462.99	17.828
463.34	18.430
463.69	17.761
464.04	17.899
464.39	17.545
464.74	17.332
465.09	17.878
465.44	17.436
465.79	18.086
466.14	17.301
466.49	17.526
466.84	16.694
467.19	17.399
467.54	16.745
467.89	17.184
468.24	17.618
468.59	16.908
468.94	16.608
469.29	17.217
469.64	16.847
469.99	16.953
470.34	17.636
470.68	17.293
471.03	17.747
471.38	17.724
471.73	16.710
472.08	17.449
472.43	17.219
472.78	18.073
473.13	17.193
473.48	18.731
473.83	18.108
474.17	18.464
474.52	18.521
474.87	18.162
475.22	17.352
475.57	17.342
475.92	17.372
476.27	17.838
476.61	18.120
476.96	17.101
477.31	17.525
477.66	16.999
478.01	17.387
478.36	17.996
478.70	16.650
479.05	17.689
479.40	17.868
479.75	18.012
480.10	16.580
480.45	16.819
480.79	16.961
481.14	17.233
481.49	16.629
481.84	17.406
482.19	17.118
482.53	17.228
482.88	16.615
483.23	17.119
483.58	17.118
483.92	17.021
484.27	16.892
484.62	16.419
484.97	16.913
485.31	16.579
485.66	16.662
486.01	16.233
486.36	16.531
486.70	16.956
487.05	17.353
487.40	16.740
487.75	17.226
488.09	16.963
488.44	16.677
488.79	17.302
489.13	17.234
489.48	16.893
489.83	17.062
490.17	16.444
490.52	17.118
490.87	17.259
491.22	16.594
491.56	17.747
491.91	17.008
492.26	17.265
492.60	17.884
492.95	17.201
493.30	17.571
493.64	17.477
493.99	17.281
494.34	16.551
494.68	16.574
495.03	16.960
495.37	17.621
495.72	17.415
496.07	17.485
496.41	16.988
496.76	16.806
497.11	17.028
497.45	17.091
497.80	17.370
498.14	17.687
498.49	17.371
498.84	18.327
499.18	17.679
499.53	17.265
499.87	17.363
500.22	17.409
500.56	16.734
500.91	17.437
501.26	17.545
501.60	17.190
501.95	17.499
502.29	16.849
502.64	17.665
502.98	17.558
503.33	17.365
503.67	16.703
504.02	16.944
504.36	17.158
504.71	16.307
505.06	17.326
505.40	17.048
505.75	17.168
506.09	17.219
506.44	18.013
506.78	17.844
507.13	17.427
507.47	17.480
507.82	17.756
508.16	17.447
508.51	17.722
508.85	17.336
509.19	17.527
509.54	17.435
509.88	17.776
510.23	18.018
510.57	18.898
510.92	16.691
511.26	17.027
511.61	16.562
511.95	17.472
512.30	18.267
512.64	17.191
512.98	18.009
513.33	18.044
513.67	18.205
514.02	17.833
514.36	17.647
514.70	17.135
515.05	18.405
515.39	16.955
515.74	18.240
516.08	18.331
516.42	18.420
516.77	17.771
517.11	17.174
517.46	17.815
517.80	17.905
518.14	18.335
518.49	17.679
518.83	17.456
519.17	17.824
519.52	16.981
519.86	18.004
520.20	18.424
520.55	17.525
520.89	18.018
521.23	18.035
521.58	18.023
521.92	18.754
522.26	17.640
522.61	18.113
522.95	17.416
523.29	17.931
523.64	17.713
523.98	18.996
524.32	19.026
524.66	19.010
525.01	18.460
525.35	17.921
525.69	18.039
526.04	18.370
526.38	18.736
526.72	17.935
527.06	19.062
527.41	18.717
527.75	18.409
528.09	18.595
528.43	17.644
528.78	17.225
529.12	17.546
529.46	17.313
529.80	17.735
530.15	17.913
530.49	17.853
530.83	18.300
531.17	18.100
531.51	18.111
531.86	18.450
532.20	18.598
532.54	18.133
532.88	18.061
533.22	18.091
533.57	18.811
533.91	18.350
534.25	18.428
534.59	18.391
534.93	17.770
535.27	18.535
535.62	18.135
535.96	18.652
536.30	17.685
536.64	19.099
536.98	18.696
537.32	18.765
537.66	19.027
538.01	18.248
538.35	18.210
538.69	17.969
539.03	18.945
539.37	18.728
539.71	18.438
540.05	19.484
540.39	17.298
540.73	18.701
541.07	18.516
541.42	17.661
541.76	17.497
542.10	17.793
542.44	18.088
542.78	19.343
543.12	17.938
543.46	18.315
543.80	18.285
544.14	18.253
544.48	19.267
544.82	19.031
545.16	19.141
545.50	17.376
545.84	17.820
546.18	19.568
546.52	17.771
546.86	18.176
547.20	18.766
547.54	18.165
547.88	17.722
548.22	18.480
548.56	18.256
548.90	18.269
549.24	18.784
549.58	18.297
549.92	18.814
550.26	19.417
550.60	18.826
550.94	19.082
551.28	18.878
551.62	19.811
551.96	17.670
552.30	18.929
552.64	18.357
552.98	18.715
553.32	17.942
553.66	18.135
554.00	18.789
554.34	18.147
554.68	18.528
555.02	18.922
555.36	19.395
555.69	18.386
556.03	18.285
556.37	18.711
556.71	18.516
557.05	18.850
557.39	18.115
557.73	19.089
558.07	18.808
558.41	18.605
558.75	17.782
559.08	18.789
559.42	18.381
559.76	19.403
560.10	18.352
560.44	18.865
560.78	19.437
561.12	18.165
561.45	19.100
561.79	18.987
562.13	18.731
562.47	18.927
562.81	18.734
563.15	18.624
563.48	18.272
563.82	18.017
564.16	18.474
564.50	18.057
564.84	18.112
565.17	18.059
565.51	18.412
565.85	18.527
566.19	18.491
566.52	18.315
566.86	19.072
567.20	17.673
567.54	17.791
567.88	18.145
568.21	18.132
568.55	18.465
568.89	18.384
569.23	18.673
569.56	17.937
569.90	18.033
570.24	18.111
570.57	18.024
570.91	16.656
571.25	17.414
571.59	18.174
571.92	17.671
572.26	17.205
572.60	17.090
572.93	17.590
573.27	17.364
573.61	17.734
573.95	17.626
574.28	17.519
574.62	16.917
574.96	17.093
575.29	17.030
575.63	17.325
575.97	17.365
576.30	17.641
576.64	17.275
576.98	17.289
577.31	17.543
577.65	17.478
577.98	17.075
578.32	17.136
578.66	16.924
578.99	17.121
579.33	17.497
579.67	17.271
580.00	17.150
580.34	17.845
580.67	16.902
581.01	17.092
581.35	17.066
581.68	17.303
582.02	17.134
582.35	17.544
582.69	17.448
583.02	17.529
583.36	17.622
583.70	17.360
584.03	17.159
584.37	17.156
584.70	17.213
585.04	17.647
585.37	16.880
585.71	17.325
586.04	17.239
586.38	17.479
586.72	17.222
587.05	17.319
587.39	17.701
587.72	17.560
588.06	17.384
588.39	17.252
588.73	17.460
589.06	17.071
589.40	17.517
589.73	18.413
590.07	17.739
590.40	17.579
590.73	17.709
591.07	17.684
591.40	17.885
591.74	17.607
592.07	18.149
592.41	17.626
592.74	17.643
593.08	17.834
593.41	18.023
593.75	17.155
594.08	17.782
594.41	17.468
594.75	17.170
595.08	17.699
595.42	17.435
595.75	17.404
596.09	18.028
596.42	18.237
596.75	17.947
597.09	18.505
597.42	17.958
597.75	18.385
598.09	18.135
598.42	18.376
598.76	16.775
599.09	17.800
599.42	17.399
599.76	17.696
600.09	18.118
600.42	17.284
600.76	17.701
601.09	17.391
601.42	17.645
601.76	17.586
602.09	17.620
602.42	17.157
602.76	17.269
603.09	17.438
603.42	17.991
603.76	17.794
604.09	18.240
604.42	17.578
604.76	17.618
605.09	18.428
605.42	17.544
605.75	17.423
606.09	17.432
606.42	17.694
606.75	17.616
607.09	17.435
607.42	17.958
607.75	17.780
608.08	17.680
608.42	17.896
608.75	17.910
609.08	17.784
609.41	18.262
609.75	17.723
610.08	17.810
610.41	17.502
610.74	17.479
611.07	17.451
611.41	18.296
611.74	18.291
612.07	18.186
612.40	17.395
612.73	17.995
613.07	18.337
613.40	18.335
613.73	17.718
614.06	17.468
614.39	17.736
614.72	17.758
615.06	17.806
615.39	17.835
615.72	17.915
616.05	17.727
616.38	18.315
616.71	18.130
617.05	18.051
617.38	19.583
617.71	18.089
618.04	18.349
618.37	18.251
618.70	18.100
619.03	18.160
619.36	18.064
619.69	18.129
620.03	18.707
620.36	17.607
620.69	18.014
621.02	19.554
621.35	18.650
621.68	19.306
622.01	18.149
622.34	17.294
622.67	18.213
623.00	17.139
623.33	18.779
623.66	18.807
623.99	18.828
624.32	19.298
624.65	17.503
624.99	18.466
625.32	18.746
625.65	18.543
625.98	17.695
626.31	19.206
626.64	19.121
626.97	18.305
627.30	18.907
627.63	17.854
627.96	20.045
628.29	19.533
628.62	18.388
628.95	20.245
629.28	18.012
629.61	18.603
629.94	18.410
630.26	19.831
630.59	17.962
630.92	19.654
631.25	19.678
631.58	19.680
631.91	19.119
632.24	19.981
632.57	19.165
632.90	19.057
633.23	18.980
633.56	18.673
633.89	19.835
634.22	20.998
634.55	20.355
634.88	20.238
635.20	19.591
635.53	21.243
635.86	19.935
636.19	21.527
636.52	19.726
636.85	19.408
637.18	19.023
637.51	20.215
637.83	20.487
638.16	19.816
638.49	19.718
638.82	20.180
639.15	18.328
639.48	22.055
639.81	19.284
640.13	21.673
640.46	19.879
640.79	17.034
641.12	20.248
641.45	19.699
641.77	21.951
642.10	19.816
642.43	20.479
642.76	19.783
643.09	20.548
643.41	20.728
643.74	20.414
644.07	22.897
644.40	18.529
644.73	21.335
645.05	19.677
645.38	19.712
645.71	20.235
646.04	21.090
646.36	19.416
646.69	20.859
647.02	22.324
647.35	22.137
647.67	21.578
648.00	20.223
648.33	21.021
648.66	19.686
648.98	19.320
649.31	20.298
649.64	20.850
649.96	20.292
650.29	19.889
650.62	19.661
650.94	21.021
651.27	20.509
651.60	19.444
651.92	18.997
652.25	22.142
652.58	20.770
652.90	19.622
653.23	22.254
653.56	18.830
653.88	20.927
654.21	18.592
654.54	20.087
654.86	20.963
655.19	18.946
655.52	18.755
655.84	15.659
656.17	19.807
656.49	28.249
656.82	31.458
657.15	24.470
657.47	18.073
657.80	13.401
658.13	10.313
658.45	13.904
658.78	16.644
659.10	16.393
659.43	16.457
659.75	16.092
660.08	16.919
660.41	17.701
660.73	18.016
661.06	18.209
661.38	19.617
661.71	19.483
662.03	22.046
662.36	21.825
662.68	23.265
663.01	20.531
663.33	22.117
663.66	23.443
663.98	20.962
664.31	22.702
664.63	20.424
664.96	20.327
665.28	22.142
665.61	20.804
665.93	21.786
666.26	21.326
666.58	19.742
666.91	23.364
667.23	21.524
667.56	19.921
667.88	24.200
668.21	19.141
668.53	20.270
668.86	21.022
669.18	19.756
669.50	22.465
669.83	21.200
670.15	21.063
670.48	22.817
670.80	21.415
671.13	21.172
671.45	21.063
671.77	21.092
672.10	20.500
672.42	20.227
672.75	18.894
673.07	19.851
673.39	19.260
673.72	21.141
674.04	20.517
674.37	19.499
674.69	21.517
675.01	20.571
675.34	20.229
675.66	19.101
675.98	21.455
676.31	21.680
676.63	23.004
676.95	22.222
677.28	22.581
677.60	19.882
677.92	21.113
678.25	21.938
678.57	20.996
678.89	22.696
679.22	18.815
679.54	20.513
679.86	17.797
680.18	19.403
680.51	18.239
680.83	20.622
681.15	20.517
681.48	20.380
681.80	22.107
682.12	22.028
682.44	19.199
682.77	21.454
683.09	21.402
683.41	22.481
683.73	22.011
684.06	20.664
684.38	21.646
684.70	20.646
685.02	19.793
685.34	17.138
685.67	18.770
685.99	21.319
686.31	17.733
686.63	19.905
686.96	21.293
687.28	19.381
687.60	18.855
687.92	20.900
688.24	20.534
688.56	18.276
688.89	19.056
689.21	20.744
689.53	20.784
689.85	19.527
690.17	19.444
690.49	20.518
690.82	21.188
691.14	18.219
691.46	21.606
691.78	24.125
692.10	19.633
692.42	19.107
692.74	19.238
693.06	16.852
693.39	21.442
693.71	19.173
694.03	19.145
694.35	21.143
694.67	19.918
694.99	20.426
695.31	21.413
695.63	20.779
695.95	22.981
696.27	20.000
696.59	23.894
696.91	18.018
697.23	23.077
697.56	21.996
697.88	19.697
698.20	19.774
698.52	21.591
698.84	22.661
699.16	20.816
699.48	21.130
699.80	19.149
700.12	21.179
700.44	20.046
700.76	20.903
701.08	22.518
701.40	25.130
701.72	22.886
702.04	20.053
702.36	19.895
702.68	20.782
703.00	24.694
703.32	20.690
703.64	23.716
703.96	20.048
704.28	20.393
704.60	19.241
704.91	23.214
705.23	24.110
705.55	23.677
705.87	23.939
706.19	22.699
706.51	18.072
706.83	16.715
707.15	18.783
707.47	19.393
707.79	22.052
708.11	19.280
708.43	20.860
708.74	16.518
709.06	18.561
709.38	23.005
709.70	25.310
710.02	20.413
710.34	25.000
710.66	21.788
710.98	22.404
711.29	23.352
711.61	21.186
711.93	21.937
712.25	23.514
712.57	25.369
712.89	24.412
713.20	24.556
713.52	25.145
713.84	20.613
714.16	23.158
714.48	21.649
714.80	26.234
715.11	21.522
715.43	20.955
715.75	20.789
716.07	20.718
716.39	22.404
716.70	21.084
717.02	23.934
717.34	20.209
717.66	22.483
717.97	19.521
718.29	25.086
718.61	26.316
718.93	21.683
719.24	22.671
719.56	25.153
719.88	21.021
720.20	20.645
720.51	24.224
720.83	21.875
721.15	18.092
721.46	18.836
721.78	20.333
722.10	22.654
722.42	18.121
722.73	21.935
723.05	24.211
723.37	22.569
723.68	29.749
724.00	22.383
724.32	20.070
724.63	23.427
724.95	25.177
725.27	20.209
725.58	20.848
725.90	24.138
726.22	23.511
726.53	20.455
726.85	21.698
727.16	25.076
727.48	25.382
727.80	24.172
728.11	23.322
728.43	21.212
728.74	20.067
729.06	20.861
729.38	25.000
729.69	24.497
730.01	24.702
730.32	20.606
730.64	24.214
730.96	20.186
731.27	22.346
731.59	22.527
731.90	20.000
732.22	21.615
732.53	17.403
732.85	22.000
733.16	18.768
733.48	20.122
733.80	23.955
734.11	21.652
734.43	19.459
734.74	20.253
735.06	21.106
735.37	19.459
735.69	22.432
736.00	19.774
736.32	21.294
736.63	22.778
736.95	19.253
737.26	19.394
737.58	19.697
737.89	24.118
738.21	20.795
738.52	22.623
738.83	23.549
739.15	18.085
739.46	20.068
739.78	18.405
740.09	21.490
740.41	25.948
740.72	21.000
741.04	22.654
741.35	26.316
741.66	27.451
741.98	26.639
742.29	26.360
742.61	26.754
742.92	20.385
743.23	25.993
743.55	26.744
743.86	25.600
744.18	18.595
744.49	19.831
744.80	25.103
745.12	20.675
745.43	23.984
745.74	17.672
746.06	29.661
746.37	23.207
746.68	28.862
747.00	25.000
747.31	23.605
747.62	23.846
747.94	19.028
748.25	21.285
748.56	21.633
748.88	25.214
749.19	25.000
749.50	22.078
749.82	21.687
750.13	23.843
750.44	20.000
750.75	24.308
751.07	22.462
751.38	25.237
751.69	22.045
752.01	22.977
752.32	21.895
752.63	20.748
752.94	23.529
753.26	21.190
753.57	24.815
753.88	20.225
754.19	23.473
754.51	22.830
754.82	23.151
755.13	22.295
755.44	22.526
755.75	23.026
756.07	21.493
756.38	21.698
756.69	21.084
757.00	20.499
757.31	20.492
757.63	20.205
757.94	22.535
758.25	22.122
758.56	19.608
758.87	21.818
759.18	20.533
759.50	23.513
759.81	20.728
760.12	19.137
760.43	20.052
760.74	19.704
761.05	19.000
761.36	19.518
761.67	18.528
761.99	20.811
762.30	21.341
762.61	19.142
762.92	20.522
763.23	24.345
763.54	23.381
763.85	21.649
764.16	22.222
764.47	20.423
764.78	21.725
765.10	20.528
765.41	27.179
765.72	19.577
766.03	22.881
766.34	24.138
766.65	21.254
766.96	29.084
767.27	24.885
767.58	21.393
767.89	26.923
768.20	24.413
768.51	24.537
768.82	26.104
769.13	23.106
769.44	18.077
769.75	26.715
770.06	20.000
770.37	25.984
770.68	21.702
770.99	17.004
771.30	23.704
771.61	23.574
771.92	20.741
772.23	26.316
772.54	18.056
772.85	29.493
773.16	27.143
773.47	20.635
773.78	20.000
774.09	26.136
774.39	27.000
774.70	34.426
775.01	19.512
775.32	21.176
775.63	25.767
775.94	17.834
776.25	23.226
776.56	27.564
776.87	34.014
777.18	28.276
777.48	27.972
777.79	25.000
778.10	20.588
778.41	29.861
778.72	21.379
779.03	25.309
779.34	27.879
779.65	26.425
779.95	31.667
780.26	19.318
780.57	32.903
780.88	31.159
781.19	32.258
781.50	26.471
781.80	27.957
782.11	28.571
782.42	18.687
782.73	23.952
783.04	22.905
783.34	18.788
783.65	20.261
783.96	28.571
784.27	25.000
784.57	27.152
784.88	22.143
785.19	23.622
785.50	25.197
785.81	21.805
786.11	24.615
786.42	24.460
786.73	21.583
787.04	30.827
787.34	26.230
787.65	28.800
787.96	24.627
788.26	31.469
788.57	27.273
788.88	26.974
789.19	31.373
789.49	29.452
789.80	33.333
790.11	32.283
790.41	19.531
790.72	21.186
791.03	19.417
791.33	27.826
791.64	35.965
791.95	21.429
792.25	36.190
792.56	33.929
792.87	33.333
793.17	33.929
793.48	28.125
793.79	31.325
794.09	32.110
794.40	34.862
794.70	25.170
795.01	25.974
795.32	30.822
795.62	30.986
795.93	31.061
796.23	27.049
796.54	24.107
796.85	28.723
797.15	26.087
797.46	34.247
797.76	26.250
798.07	38.043
798.37	34.021
798.68	36.364
798.99	42.529
799.29	37.079
799.60	38.298
799.90	34.940
800.21	27.692
800.51	38.806
800.82	30.882
801.12	17.808
801.43	30.882
801.73	33.898
802.04	46.970
802.34	33.333
802.65	38.983
802.95	40.299
803.26	47.458
803.56	34.247
803.87	37.143
804.17	31.507
804.48	26.316
804.78	33.333
805.09	18.966
805.39	40.541
805.70	23.944
806.00	31.707
806.30	28.916
806.61	28.767
806.91	29.808
807.22	35.556
807.52	33.333
807.83	47.222
808.13	40.964
808.43	43.820
808.74	33.750
809.04	33.824
809.35	38.667
809.65	38.571
809.95	38.356
810.26	22.807
810.56	27.586
810.86	51.471
811.17	29.825
811.47	32.787
811.77	31.111
812.08	47.458
812.38	45.000
812.69	43.103
812.99	26.415
813.29	28.205
813.59	48.000
813.90	29.825
814.20	34.545
814.50	46.479
814.81	32.051
815.11	26.230
815.41	40.299
815.72	50.000
816.02	50.000
816.32	48.889
816.62	68.182
816.93	26.667
817.23	64.815
817.53	48.936
817.84	85.714
818.14	50.000
818.44	36.735
818.74	51.111
819.04	25.641
819.35	34.286
819.65	30.769
819.95	39.623
820.25	40.000
820.56	40.476
820.86	65.625
821.16	58.974
821.46	46.512
821.76	40.000
822.07	42.857
822.37	17.391
822.67	42.553
822.97	29.730
823.27	62.500
823.57	46.939
823.88	53.333
824.18	65.000
824.48	66.667
824.78	48.000
825.08	81.818
825.38	64.444
825.69	65.957
825.99	69.444
826.29	22.857
826.59	46.154
826.89	27.907
827.19	44.000
827.49	82.353
827.79	60.417
828.09	35.135
828.39	56.667
828.70	60.976
829.00	48.837
829.30	57.143
829.60	73.529
829.90	54.348
830.20	60.000
830.50	37.931
830.80	100.000
831.10	80.769
831.40	38.235
831.70	80.952
832.00	87.097
832.30	41.176
832.60	66.667
832.90	115.385
833.20	94.737
833.50	50.000
833.80	94.737
834.10	19.048
834.40	77.778
834.70	65.625
835.00	25.714
835.30	50.000
835.60	33.333
835.90	68.000
836.20	13.636
836.50	76.000
836.80	33.333
837.10	51.852
837.40	70.370
837.70	25.000
838.00	42.857
838.30	34.783
838.60	75.862
838.90	64.286
839.19	8.696
839.49	33.333
839.79	69.565
840.09	0.000
840.39	65.000
840.69	58.065
840.99	32.143
841.29	40.000
841.59	94.737
841.88	43.590
842.18	42.308
842.48	160.000
842.78	85.000
843.08	86.667
843.38	90.323
843.68	61.111
843.97	108.824
844.27	112.500
844.57	52.632
844.87	80.000
845.17	66.667
845.47	114.286
845.76	57.143
846.06	166.667
846.36	82.353
846.66	84.615
846.96	73.333
847.25	23.529
847.55	69.565
847.85	100.000
848.15	123.529
848.44	118.182
848.74	80.952
849.04	20.833
849.34	118.750
849.63	69.565
849.93	-650.000
850.23	160.000
850.53	115.385
850.82	18.182
851.12	72.727
851.42	118.182
851.71	223.077
852.01	45.000
852.31	169.231
852.61	94.737
852.90	183.333
853.20	83.333
853.50	144.444
853.79	57.143
854.09	59.091
854.39	58.333
854.68	58.065
854.98	61.538
855.28	122.222
855.57	57.143
855.87	68.000
856.17	81.818
856.46	55.556
856.76	55.556
857.05	100.000
857.35	91.667
857.65	130.769
857.94	90.476
858.24	70.370
858.53	86.957
858.83	64.706
859.13	70.588
859.42	129.412
859.72	107.143
860.01	75.000
860.31	166.667
860.60	110.000
860.90	140.000
861.20	66.667
861.49	69.231
861.79	86.667
862.08	38.462
862.38	87.500
862.67	135.294
862.97	137.500
863.26	177.778
863.56	190.000
863.85	163.636
864.15	127.778
864.44	600.000
864.74	135.714
865.03	31.250
865.33	100.000
865.62	38.710
865.92	118.182
866.21	91.304
866.51	121.429
866.80	160.000
867.10	100.000
867.39	83.333
867.69	200.000
867.98	171.429
868.27	123.529
868.57	800.000
868.86	0.000
869.16	47.619
869.45	70.833
869.75	154.545
870.04	285.714
870.33	125.000
870.63	100.000
870.92	425.000
871.22	112.500
871.51	200.000
871.80	200.000
872.10	350.000
>>>>>End Processed Spectral Data<<<<<
