SpectraSuite Data File
++++++++++++++++++++++++++++++++++++
Date: Thu May 14 14:38:28 PDT 2015
User: schluterlab
Dark Spectrum Present: Yes
Reference Spectrum Present: Yes
Number of Sampled Component Spectra: 1
Spectrometers: USB2E3373
Integration Time (usec): 3000 (USB2E3373)
Spectra Averaged: 3 (USB2E3373)
Boxcar Smoothing: 0 (USB2E3373)
Correct for Electrical Dark: No (USB2E3373)
Strobe/Lamp Enabled: No (USB2E3373)
Correct for Detector Non-linearity: No (USB2E3373)
Correct for Stray Light: No (USB2E3373)
Number of Pixels in Processed Spectrum: 2048
>>>>>Begin Processed Spectral Data<<<<<
178.53	0.000
178.91	-242.857
179.29	200.000
179.67	400.000
180.04	-0.000
180.42	-130.000
180.80	-160.000
181.18	1300.000
181.56	2200.000
181.94	-75.000
182.31	475.000
182.69	-266.667
183.07	450.000
183.45	-200.000
183.83	316.667
184.20	733.333
184.58	-1000.000
184.96	300.000
185.34	133.333
185.72	360.000
186.09	-66.667
186.47	-550.000
186.85	-140.000
187.23	11.111
187.61	900.000
187.98	-360.000
188.36	-300.000
188.74	200.000
189.12	633.333
189.49	156.250
189.87	200.000
190.25	222.222
190.63	240.000
191.00	155.556
191.38	0.000
191.76	200.000
192.14	250.000
192.51	-1100.000
192.89	366.667
193.27	0.000
193.65	285.714
194.02	1100.000
194.40	185.714
194.78	-71.429
195.15	0.000
195.53	181.818
195.91	0.000
196.29	225.000
196.66	176.923
197.04	1000.000
197.42	71.429
197.79	750.000
198.17	87.500
198.55	228.571
198.92	200.000
199.30	100.000
199.68	209.091
200.05	114.286
200.43	650.000
200.81	-14.286
201.18	0.000
201.56	-88.889
201.94	0.000
202.31	-33.333
202.69	22.222
203.07	-1100.000
203.44	166.667
203.82	225.000
204.19	83.333
204.57	300.000
204.95	112.500
205.32	500.000
205.70	-350.000
206.08	100.000
206.45	383.333
206.83	40.000
207.20	150.000
207.58	220.000
207.96	183.333
208.33	416.667
208.71	8.333
209.08	466.667
209.46	0.000
209.84	-116.667
210.21	-300.000
210.59	-750.000
210.96	-300.000
211.34	475.000
211.71	212.500
212.09	900.000
212.46	0.000
212.84	-300.000
213.22	160.000
213.59	500.000
213.97	130.000
214.34	266.667
214.72	-150.000
215.09	300.000
215.47	0.000
215.84	-200.000
216.22	-300.000
216.59	280.000
216.97	240.000
217.34	200.000
217.72	237.500
218.09	375.000
218.47	-25.000
218.84	0.000
219.22	-260.000
219.59	141.176
219.97	125.000
220.34	-900.000
220.72	100.000
221.09	146.154
221.47	366.667
221.84	230.000
222.22	214.286
222.59	0.000
222.97	250.000
223.34	120.000
223.72	1100.000
224.09	325.000
224.46	300.000
224.84	340.000
225.21	114.286
225.59	375.000
225.96	300.000
226.34	115.385
226.71	-300.000
227.08	1050.000
227.46	146.667
227.83	500.000
228.21	94.737
228.58	-162.500
228.95	-800.000
229.33	141.667
229.70	240.000
230.08	105.263
230.45	-80.000
230.82	666.667
231.20	107.143
231.57	125.000
231.95	81.818
232.32	72.727
232.69	50.000
233.07	375.000
233.44	82.353
233.81	80.000
234.19	100.000
234.56	72.727
234.93	62.069
235.31	136.842
235.68	111.111
236.05	50.000
236.43	103.846
236.80	100.000
237.17	70.370
237.55	57.576
237.92	60.000
238.29	29.032
238.67	36.364
239.04	47.222
239.41	19.048
239.79	10.870
240.16	33.333
240.53	36.957
240.91	37.255
241.28	32.787
241.65	29.851
242.02	21.622
242.40	13.846
242.77	14.667
243.14	12.195
243.51	14.474
243.89	17.949
244.26	22.772
244.63	15.686
245.00	15.888
245.38	12.281
245.75	4.425
246.12	9.524
246.49	12.403
246.87	16.429
247.24	13.907
247.61	11.842
247.98	9.396
248.36	8.025
248.73	4.294
249.10	6.557
249.47	17.413
249.84	15.183
250.22	5.181
250.59	7.222
250.96	8.636
251.33	2.551
251.70	7.265
252.08	6.250
252.45	7.787
252.82	4.959
253.19	4.297
253.56	6.084
253.94	2.308
254.31	6.818
254.68	12.238
255.05	7.818
255.42	6.122
255.79	3.560
256.16	2.318
256.54	0.993
256.91	4.918
257.28	3.934
257.65	5.096
258.02	1.475
258.39	6.268
258.76	5.505
259.14	6.034
259.51	5.476
259.88	2.833
260.25	2.778
260.62	4.658
260.99	7.923
261.36	6.971
261.73	5.040
262.10	3.297
262.47	4.826
262.85	7.576
263.22	2.338
263.59	1.842
263.96	3.836
264.33	2.558
264.70	5.432
265.07	7.160
265.44	6.576
265.81	2.546
266.18	3.855
266.55	3.795
266.92	1.822
267.29	3.939
267.66	3.769
268.03	2.838
268.40	3.132
268.77	0.000
269.14	1.982
269.51	3.509
269.88	3.893
270.25	6.439
270.62	4.852
270.99	5.455
271.36	4.752
271.73	4.322
272.10	3.206
272.47	5.210
272.84	4.618
273.21	4.409
273.58	4.637
273.95	1.154
274.32	3.992
274.69	2.708
275.06	3.663
275.43	3.142
275.80	5.115
276.17	2.222
276.54	3.358
276.91	2.862
277.28	4.159
277.65	2.873
278.02	3.125
278.39	3.261
278.76	2.988
279.13	3.901
279.50	4.983
279.87	3.041
280.23	2.113
280.60	3.220
280.97	2.303
281.34	2.377
281.71	5.753
282.08	2.159
282.45	2.455
282.82	2.983
283.19	1.454
283.56	2.131
283.92	3.754
284.29	4.423
284.66	4.762
285.03	1.282
285.40	4.019
285.77	1.703
286.14	5.344
286.51	3.501
286.87	3.476
287.24	3.012
287.61	2.840
287.98	3.474
288.35	2.515
288.72	2.515
289.08	4.246
289.45	3.550
289.82	2.711
290.19	2.011
290.56	4.085
290.93	3.852
291.29	3.306
291.66	2.893
292.03	1.628
292.40	4.626
292.77	4.043
293.13	3.654
293.50	0.788
293.87	2.953
294.24	4.133
294.60	4.046
294.97	1.879
295.34	3.457
295.71	2.648
296.08	3.101
296.44	2.941
296.81	3.045
297.18	2.740
297.55	2.476
297.91	2.610
298.28	2.607
298.65	2.973
299.02	2.361
299.38	3.661
299.75	3.271
300.12	2.315
300.48	2.535
300.85	3.825
301.22	2.908
301.59	3.995
301.95	3.164
302.32	4.778
302.69	2.300
303.05	3.373
303.42	2.661
303.79	3.854
304.15	4.206
304.52	2.537
304.89	3.246
305.25	3.106
305.62	3.448
305.99	3.608
306.35	2.722
306.72	3.206
307.09	2.640
307.45	3.002
307.82	2.825
308.19	1.816
308.55	3.857
308.92	4.090
309.29	4.310
309.65	3.314
310.02	4.653
310.38	5.217
310.75	4.757
311.12	5.273
311.48	3.421
311.85	5.698
312.22	3.985
312.58	5.822
312.95	4.589
313.31	5.691
313.68	5.678
314.05	6.323
314.41	6.466
314.78	6.449
315.14	7.350
315.51	7.110
315.87	7.651
316.24	8.037
316.61	8.970
316.97	8.145
317.34	7.672
317.70	9.345
318.07	8.907
318.43	9.694
318.80	11.622
319.16	9.270
319.53	9.426
319.89	8.940
320.26	11.121
320.62	10.727
320.99	10.711
321.35	11.368
321.72	13.023
322.08	12.263
322.45	11.924
322.81	13.718
323.18	13.540
323.54	13.362
323.91	13.968
324.27	15.060
324.64	15.113
325.00	14.428
325.37	15.971
325.73	16.446
326.10	17.275
326.46	16.938
326.83	17.294
327.19	17.795
327.56	18.735
327.92	18.647
328.29	18.306
328.65	18.007
329.01	19.543
329.38	19.798
329.74	20.462
330.11	20.719
330.47	20.388
330.84	20.069
331.20	21.583
331.56	22.097
331.93	20.753
332.29	20.508
332.66	22.674
333.02	21.608
333.38	21.393
333.75	21.633
334.11	21.184
334.48	22.690
334.84	22.260
335.20	21.159
335.57	24.030
335.93	23.058
336.29	21.298
336.66	21.615
337.02	21.990
337.38	23.129
337.75	22.231
338.11	22.456
338.47	22.581
338.84	21.743
339.20	20.556
339.56	21.746
339.93	23.071
340.29	23.349
340.65	22.222
341.02	23.464
341.38	23.444
341.74	22.518
342.11	22.767
342.47	22.081
342.83	23.027
343.20	22.895
343.56	23.015
343.92	21.537
344.28	22.500
344.65	24.186
345.01	22.387
345.37	22.395
345.73	22.759
346.10	22.465
346.46	21.677
346.82	23.296
347.19	22.689
347.55	23.748
347.91	21.694
348.27	22.382
348.63	21.858
349.00	22.893
349.36	22.974
349.72	21.875
350.08	22.808
350.45	22.433
350.81	22.323
351.17	22.932
351.53	23.578
351.89	23.311
352.26	23.657
352.62	23.209
352.98	22.366
353.34	22.330
353.70	23.344
354.07	23.249
354.43	22.323
354.79	22.812
355.15	23.326
355.51	23.830
355.87	22.588
356.24	23.802
356.60	22.099
356.96	22.683
357.32	22.305
357.68	23.060
358.04	22.530
358.40	23.134
358.77	23.319
359.13	21.861
359.49	22.900
359.85	23.060
360.21	22.453
360.57	21.464
360.93	23.907
361.29	23.579
361.66	23.461
362.02	23.591
362.38	23.963
362.74	23.464
363.10	23.865
363.46	23.684
363.82	23.864
364.18	24.068
364.54	23.513
364.90	23.545
365.26	23.310
365.62	22.867
365.98	24.166
366.35	23.960
366.71	24.218
367.07	23.613
367.43	23.703
367.79	24.220
368.15	24.281
368.51	25.440
368.87	23.057
369.23	24.600
369.59	24.932
369.95	24.070
370.31	23.768
370.67	23.109
371.03	24.861
371.39	24.043
371.75	24.140
372.11	24.661
372.47	25.254
372.83	25.196
373.19	24.350
373.55	24.661
373.91	23.722
374.27	24.515
374.63	24.899
374.99	24.204
375.35	24.675
375.71	25.355
376.07	25.888
376.42	24.748
376.78	24.984
377.14	24.953
377.50	25.427
377.86	25.308
378.22	26.108
378.58	25.386
378.94	25.352
379.30	26.479
379.66	26.220
380.02	25.389
380.38	25.749
380.74	25.577
381.09	25.958
381.45	25.966
381.81	27.635
382.17	26.544
382.53	25.614
382.89	25.282
383.25	26.495
383.61	26.215
383.97	24.912
384.32	25.837
384.68	25.290
385.04	26.547
385.40	27.225
385.76	26.671
386.12	26.152
386.48	26.882
386.83	27.056
387.19	26.246
387.55	26.819
387.91	26.427
388.27	27.079
388.62	26.289
388.98	26.622
389.34	27.342
389.70	27.368
390.06	27.294
390.42	26.867
390.77	27.634
391.13	27.289
391.49	27.717
391.85	28.000
392.20	27.402
392.56	28.588
392.92	27.426
393.28	27.529
393.64	27.151
393.99	28.298
394.35	27.687
394.71	29.102
395.07	27.066
395.42	27.299
395.78	28.336
396.14	28.639
396.50	28.444
396.85	27.788
397.21	28.402
397.57	27.621
397.92	28.408
398.28	28.137
398.64	27.403
399.00	27.487
399.35	28.168
399.71	28.315
400.07	28.692
400.42	28.754
400.78	29.225
401.14	28.344
401.49	29.449
401.85	28.605
402.21	28.911
402.57	28.286
402.92	29.137
403.28	28.981
403.63	28.580
403.99	28.088
404.35	28.084
404.70	28.045
405.06	28.533
405.42	28.396
405.77	29.389
406.13	28.957
406.49	28.604
406.84	29.141
407.20	29.234
407.55	28.892
407.91	29.353
408.27	29.270
408.62	29.378
408.98	28.903
409.34	29.267
409.69	29.172
410.05	29.015
410.40	29.466
410.76	29.052
411.11	29.807
411.47	30.467
411.83	29.865
412.18	29.699
412.54	30.350
412.89	29.569
413.25	30.023
413.60	29.466
413.96	29.604
414.31	29.405
414.67	30.113
415.03	30.400
415.38	30.517
415.74	30.971
416.09	30.167
416.45	29.618
416.80	29.376
417.16	29.438
417.51	30.199
417.87	29.982
418.22	30.778
418.58	30.050
418.93	31.024
419.29	30.641
419.64	30.852
420.00	30.089
420.35	30.320
420.71	30.787
421.06	30.132
421.42	30.333
421.77	31.018
422.12	30.603
422.48	30.159
422.83	30.613
423.19	30.398
423.54	31.582
423.90	30.701
424.25	30.667
424.61	30.482
424.96	31.137
425.31	32.590
425.67	30.757
426.02	31.655
426.38	32.319
426.73	30.804
427.09	31.949
427.44	32.004
427.79	31.509
428.15	32.078
428.50	32.247
428.85	31.745
429.21	32.872
429.56	31.589
429.92	31.843
430.27	32.048
430.62	32.340
430.98	31.727
431.33	32.551
431.68	31.657
432.04	32.605
432.39	32.941
432.74	32.420
433.10	33.045
433.45	32.553
433.80	32.618
434.16	33.161
434.51	33.453
434.86	33.279
435.22	33.422
435.57	34.552
435.92	34.001
436.28	34.187
436.63	34.517
436.98	32.367
437.34	34.667
437.69	33.407
438.04	33.263
438.39	34.808
438.75	33.481
439.10	35.677
439.45	34.880
439.81	35.198
440.16	34.370
440.51	35.006
440.86	35.575
441.22	35.638
441.57	35.273
441.92	35.209
442.27	35.606
442.63	34.973
442.98	35.699
443.33	35.297
443.68	36.075
444.03	37.112
444.39	35.969
444.74	35.681
445.09	36.493
445.44	36.617
445.79	37.069
446.15	36.228
446.50	36.951
446.85	35.895
447.20	36.750
447.55	36.768
447.91	36.649
448.26	37.421
448.61	36.504
448.96	36.588
449.31	36.267
449.66	37.364
450.02	37.236
450.37	37.240
450.72	36.921
451.07	37.984
451.42	37.551
451.77	36.798
452.12	38.318
452.47	37.255
452.83	38.570
453.18	37.712
453.53	37.220
453.88	37.438
454.23	37.175
454.58	36.970
454.93	37.743
455.28	38.892
455.63	38.147
455.98	37.654
456.34	37.750
456.69	36.743
457.04	38.180
457.39	38.027
457.74	38.423
458.09	37.507
458.44	37.231
458.79	37.545
459.14	37.808
459.49	38.540
459.84	38.195
460.19	36.813
460.54	37.024
460.89	38.645
461.24	38.103
461.59	37.742
461.94	36.965
462.29	37.794
462.64	37.779
462.99	37.539
463.34	38.352
463.69	37.984
464.04	38.243
464.39	37.500
464.74	37.400
465.09	38.178
465.44	37.768
465.79	38.921
466.14	37.259
466.49	37.263
466.84	38.127
467.19	37.688
467.54	37.485
467.89	36.494
468.24	37.285
468.59	35.032
468.94	35.490
469.29	37.433
469.64	37.254
469.99	37.986
470.34	37.376
470.68	38.483
471.03	38.900
471.38	37.802
471.73	36.931
472.08	38.135
472.43	38.471
472.78	39.295
473.13	37.231
473.48	38.006
473.83	38.654
474.17	36.811
474.52	38.124
474.87	36.988
475.22	37.803
475.57	36.449
475.92	36.486
476.27	37.274
476.61	36.501
476.96	36.496
477.31	36.980
477.66	37.828
478.01	36.909
478.36	36.690
478.70	36.256
479.05	37.321
479.40	36.525
479.75	36.695
480.10	36.902
480.45	36.782
480.79	37.052
481.14	36.489
481.49	36.756
481.84	36.162
482.19	36.516
482.53	36.904
482.88	36.907
483.23	36.905
483.58	36.943
483.92	35.771
484.27	36.579
484.62	35.685
484.97	36.586
485.31	35.269
485.66	34.053
486.01	33.832
486.36	34.287
486.70	34.794
487.05	34.905
487.40	35.524
487.75	35.013
488.09	35.531
488.44	35.327
488.79	35.346
489.13	36.025
489.48	34.990
489.83	35.131
490.17	34.224
490.52	34.647
490.87	35.237
491.22	35.745
491.56	35.708
491.91	35.979
492.26	35.439
492.60	34.762
492.95	34.840
493.30	35.276
493.64	34.954
493.99	34.912
494.34	34.625
494.68	34.261
495.03	35.286
495.37	34.798
495.72	34.785
496.07	34.531
496.41	34.406
496.76	35.696
497.11	34.947
497.45	34.786
497.80	34.385
498.14	34.649
498.49	34.697
498.84	34.689
499.18	34.188
499.53	34.798
499.87	34.505
500.22	33.304
500.56	33.693
500.91	34.600
501.26	33.955
501.60	33.363
501.95	34.260
502.29	34.006
502.64	33.800
502.98	33.563
503.33	33.089
503.67	33.101
504.02	33.275
504.36	34.272
504.71	33.119
505.06	34.015
505.40	33.227
505.75	33.379
506.09	33.517
506.44	33.333
506.78	33.394
507.13	33.748
507.47	33.254
507.82	33.381
508.16	32.935
508.51	32.865
508.85	33.396
509.19	33.775
509.54	34.006
509.88	33.220
510.23	33.657
510.57	33.301
510.92	33.430
511.26	32.419
511.61	31.917
511.95	32.357
512.30	33.383
512.64	32.284
512.98	32.716
513.33	32.056
513.67	33.095
514.02	33.112
514.36	32.276
514.70	32.812
515.05	32.638
515.39	32.336
515.74	34.093
516.08	32.594
516.42	33.072
516.77	31.914
517.11	31.666
517.46	32.821
517.80	31.962
518.14	33.678
518.49	32.646
518.83	31.666
519.17	32.472
519.52	30.975
519.86	31.151
520.20	31.576
520.55	31.873
520.89	31.363
521.23	30.877
521.58	31.808
521.92	31.785
522.26	29.954
522.61	30.961
522.95	32.295
523.29	31.264
523.64	31.446
523.98	32.002
524.32	31.461
524.66	32.157
525.01	30.804
525.35	29.868
525.69	31.148
526.04	30.253
526.38	30.805
526.72	31.373
527.06	30.909
527.41	30.437
527.75	31.176
528.09	30.519
528.43	29.603
528.78	30.058
529.12	29.415
529.46	30.748
529.80	30.721
530.15	30.435
530.49	29.419
530.83	30.401
531.17	29.928
531.51	29.904
531.86	30.048
532.20	30.854
532.54	30.042
532.88	28.606
533.22	29.523
533.57	28.967
533.91	28.451
534.25	29.621
534.59	29.713
534.93	28.636
535.27	29.127
535.62	29.335
535.96	29.692
536.30	28.437
536.64	29.249
536.98	29.643
537.32	29.753
537.66	29.320
538.01	27.855
538.35	27.345
538.69	28.906
539.03	27.897
539.37	28.033
539.71	26.547
540.05	28.297
540.39	28.178
540.73	27.626
541.07	27.468
541.42	27.761
541.76	27.580
542.10	27.141
542.44	27.710
542.78	27.737
543.12	27.890
543.46	25.763
543.80	25.959
544.14	27.648
544.48	27.009
544.82	27.588
545.16	27.132
545.50	27.262
545.84	26.454
546.18	27.222
546.52	26.433
546.86	26.478
547.20	27.354
547.54	26.217
547.88	25.497
548.22	26.901
548.56	26.741
548.90	25.970
549.24	26.505
549.58	25.931
549.92	26.658
550.26	26.019
550.60	24.952
550.94	25.938
551.28	25.611
551.62	26.819
551.96	25.696
552.30	26.131
552.64	25.451
552.98	25.140
553.32	26.302
553.66	25.080
554.00	26.103
554.34	25.354
554.68	25.307
555.02	25.690
555.36	26.101
555.69	23.895
556.03	24.842
556.37	25.219
556.71	25.111
557.05	25.240
557.39	25.481
557.73	25.033
558.07	23.907
558.41	25.515
558.75	24.003
559.08	25.678
559.42	24.074
559.76	25.577
560.10	24.514
560.44	23.879
560.78	25.188
561.12	24.138
561.45	23.783
561.79	24.359
562.13	23.722
562.47	23.243
562.81	24.430
563.15	24.242
563.48	24.487
563.82	22.975
564.16	23.440
564.50	23.778
564.84	23.304
565.17	23.471
565.51	22.842
565.85	22.803
566.19	22.005
566.52	22.352
566.86	22.750
567.20	22.349
567.54	22.464
567.88	22.783
568.21	23.024
568.55	22.206
568.89	21.925
569.23	22.053
569.56	21.063
569.90	21.311
570.24	21.686
570.57	21.007
570.91	20.453
571.25	20.538
571.59	20.373
571.92	20.389
572.26	20.593
572.60	20.257
572.93	20.262
573.27	20.371
573.61	20.540
573.95	20.320
574.28	19.715
574.62	20.009
574.96	19.277
575.29	19.410
575.63	19.843
575.97	20.072
576.30	19.516
576.64	19.971
576.98	19.772
577.31	19.623
577.65	19.934
577.98	19.258
578.32	19.213
578.66	19.544
578.99	19.394
579.33	19.586
579.67	19.084
580.00	19.150
580.34	19.437
580.67	19.263
581.01	19.537
581.35	18.800
581.68	18.846
582.02	18.599
582.35	19.138
582.69	19.124
583.02	19.024
583.36	19.142
583.70	18.950
584.03	19.102
584.37	19.082
584.70	18.949
585.04	19.135
585.37	18.714
585.71	18.921
586.04	18.582
586.38	18.895
586.72	18.501
587.05	18.547
587.39	19.097
587.72	19.187
588.06	18.714
588.39	18.845
588.73	18.677
589.06	19.046
589.40	18.654
589.73	18.445
590.07	18.866
590.40	19.270
590.73	18.381
591.07	19.360
591.40	18.857
591.74	18.879
592.07	19.285
592.41	18.060
592.74	18.495
593.08	18.344
593.41	18.606
593.75	18.190
594.08	18.358
594.41	18.301
594.75	18.366
595.08	18.237
595.42	18.052
595.75	18.373
596.09	18.502
596.42	18.058
596.75	19.220
597.09	18.303
597.42	18.395
597.75	17.719
598.09	19.048
598.42	18.737
598.76	17.807
599.09	17.693
599.42	17.868
599.76	17.960
600.09	17.784
600.42	17.651
600.76	17.734
601.09	17.790
601.42	17.542
601.76	17.586
602.09	17.941
602.42	17.521
602.76	17.306
603.09	17.584
603.42	17.594
603.76	17.266
604.09	18.062
604.42	18.165
604.76	17.884
605.09	17.511
605.42	18.222
605.75	17.423
606.09	16.685
606.42	17.220
606.75	16.979
607.09	17.051
607.42	17.303
607.75	17.507
608.08	17.601
608.42	17.412
608.75	17.330
609.08	17.360
609.41	17.865
609.75	17.411
610.08	17.722
610.41	16.737
610.74	17.395
611.07	16.829
611.41	17.937
611.74	17.598
612.07	17.999
612.40	17.681
612.73	17.506
613.07	17.506
613.40	17.132
613.73	17.477
614.06	17.419
614.39	16.910
614.72	18.001
615.06	16.506
615.39	16.191
615.72	17.346
616.05	17.144
616.38	16.902
616.71	17.607
617.05	17.252
617.38	17.549
617.71	17.657
618.04	16.676
618.37	17.705
618.70	18.100
619.03	16.906
619.36	16.646
619.69	17.168
620.03	17.389
620.36	17.423
620.69	17.397
621.02	17.651
621.35	18.433
621.68	17.715
622.01	17.509
622.34	17.294
622.67	17.595
623.00	15.924
623.33	17.850
623.66	17.510
623.99	16.722
624.32	17.089
624.65	16.731
624.99	16.905
625.32	17.701
625.65	17.262
625.98	16.678
626.31	17.789
626.64	17.289
626.97	16.279
627.30	17.768
627.63	16.954
627.96	18.093
628.29	17.665
628.62	16.037
628.95	17.791
629.28	17.077
629.61	16.919
629.94	15.816
630.26	17.034
630.59	17.444
630.92	16.883
631.25	18.605
631.58	19.303
631.91	17.338
632.24	16.619
632.57	16.698
632.90	17.151
633.23	17.347
633.56	17.653
633.89	17.769
634.22	18.503
634.55	18.267
634.88	18.290
635.20	17.653
635.53	18.531
635.86	16.685
636.19	18.452
636.52	18.460
636.85	17.773
637.18	17.568
637.51	16.452
637.83	17.497
638.16	17.742
638.49	16.784
638.82	17.362
639.15	18.099
639.48	17.667
639.81	17.321
640.13	18.257
640.46	17.091
640.79	16.544
641.12	18.634
641.45	17.691
641.77	19.255
642.10	17.717
642.43	19.947
642.76	17.615
643.09	18.356
643.41	18.487
643.74	17.793
644.07	18.069
644.40	18.105
644.73	17.562
645.05	17.181
645.38	18.849
645.71	17.009
646.04	19.082
646.36	17.372
646.69	18.865
647.02	19.878
647.35	18.321
647.67	17.552
648.00	17.516
648.33	16.517
648.66	17.974
648.98	15.510
649.31	17.185
649.64	17.530
649.96	18.568
650.29	14.186
650.62	18.529
650.94	17.117
651.27	15.569
651.60	17.544
651.92	18.389
652.25	17.800
652.58	19.120
652.90	15.988
653.23	16.197
653.56	17.546
653.88	17.978
654.21	17.465
654.54	16.040
654.86	16.431
655.19	15.558
655.52	14.605
655.84	11.995
656.17	14.717
656.49	21.085
656.82	23.899
657.15	18.859
657.47	14.350
657.80	10.763
658.13	8.591
658.45	11.519
658.78	14.319
659.10	14.005
659.43	14.123
659.75	14.674
660.08	14.790
660.41	15.054
660.73	15.051
661.06	14.684
661.38	16.268
661.71	17.241
662.03	16.755
662.36	20.930
662.68	17.261
663.01	16.991
663.33	17.580
663.66	19.048
663.98	19.423
664.31	17.636
664.63	15.992
664.96	17.241
665.28	16.697
665.61	20.105
665.93	17.679
666.26	17.025
666.58	16.790
666.91	16.075
667.23	17.905
667.56	16.765
667.88	18.400
668.21	15.430
668.53	14.865
668.86	18.271
669.18	19.959
669.50	18.091
669.83	16.400
670.15	16.339
670.48	18.651
670.80	16.826
671.13	15.312
671.45	17.520
671.77	20.339
672.10	15.833
672.42	16.828
672.75	15.515
673.07	15.672
673.39	15.408
673.72	19.128
674.04	16.379
674.37	15.385
674.69	18.166
675.01	16.190
675.34	14.504
675.66	17.790
675.98	19.030
676.31	17.969
676.63	18.631
676.95	17.433
677.28	18.347
677.60	14.764
677.92	16.123
678.25	17.916
678.57	15.658
678.89	16.382
679.22	14.460
679.54	15.214
679.86	13.898
680.18	15.589
680.51	15.566
680.83	17.021
681.15	14.828
681.48	16.753
681.80	16.062
682.12	15.385
682.44	16.194
682.77	17.199
683.09	16.288
683.41	16.279
683.73	15.370
684.06	16.236
684.38	16.279
684.70	17.594
685.02	17.040
685.34	13.977
685.67	15.457
685.99	15.951
686.31	14.971
686.63	13.428
686.96	16.562
687.28	14.169
687.60	15.152
687.92	15.113
688.24	16.528
688.56	13.621
688.89	15.245
689.21	17.025
689.53	13.137
689.85	13.412
690.17	17.037
690.49	13.944
690.82	15.446
691.14	14.575
691.46	16.444
691.78	15.285
692.10	14.679
692.42	13.571
692.74	13.067
693.06	12.963
693.39	18.975
693.71	13.534
694.03	14.684
694.35	15.048
694.67	14.168
694.99	14.255
695.31	15.011
695.63	17.532
695.95	15.321
696.27	13.626
696.59	15.929
696.91	14.414
697.23	17.363
697.56	15.479
697.88	12.311
698.20	15.254
698.52	17.424
698.84	16.840
699.16	16.122
699.48	16.527
699.80	17.021
700.12	14.847
700.44	15.438
700.76	19.002
701.08	15.738
701.40	18.135
701.72	14.677
702.04	15.775
702.36	15.183
702.68	16.870
703.00	16.381
703.32	17.241
703.64	17.359
703.96	14.081
704.28	15.971
704.60	18.228
704.91	16.327
705.23	14.795
705.55	16.713
705.87	16.970
706.19	19.018
706.51	13.855
706.83	14.409
707.15	10.847
707.47	13.785
707.79	13.537
708.11	11.864
708.43	15.054
708.74	11.830
709.06	12.993
709.38	17.371
709.70	17.866
710.02	14.212
710.34	16.223
710.66	14.246
710.98	13.934
711.29	12.912
711.61	16.667
711.93	15.385
712.25	15.405
712.57	19.469
712.89	18.235
713.20	11.538
713.52	16.763
713.84	16.156
714.16	15.263
714.48	13.660
714.80	17.922
715.11	14.436
715.43	14.854
715.75	17.368
716.07	17.956
716.39	16.667
716.70	17.169
717.02	17.377
717.34	16.028
717.66	17.450
717.97	16.096
718.29	14.089
718.61	14.803
718.93	14.239
719.24	16.460
719.56	14.724
719.88	14.114
720.20	15.161
720.51	14.907
720.83	14.375
721.15	13.816
721.46	8.562
721.78	14.333
722.10	12.621
722.42	14.430
722.73	15.484
723.05	15.088
723.37	18.056
723.68	18.280
724.00	14.079
724.32	16.901
724.63	11.538
724.95	19.149
725.27	16.725
725.58	12.014
725.90	20.000
726.22	18.495
726.53	17.857
726.85	16.981
727.16	18.731
727.48	15.596
727.80	14.238
728.11	12.721
728.43	19.529
728.74	13.712
729.06	14.238
729.38	19.156
729.69	16.779
730.01	12.202
730.32	9.394
730.64	16.667
730.96	13.354
731.27	14.804
731.59	14.286
731.90	12.987
732.22	13.021
732.53	11.326
732.85	13.143
733.16	12.317
733.48	13.110
733.80	13.370
734.11	11.681
734.43	12.973
734.74	15.190
735.06	12.814
735.37	11.081
735.69	15.405
736.00	14.407
736.32	14.286
736.63	13.889
736.95	12.644
737.26	12.424
737.58	13.636
737.89	14.412
738.21	13.761
738.52	11.803
738.83	15.358
739.15	13.830
739.46	16.327
739.78	16.871
740.09	14.900
740.41	16.327
740.72	14.667
741.04	14.563
741.35	17.193
741.66	15.294
741.98	17.623
742.29	18.410
742.61	14.474
742.92	18.846
743.23	18.051
743.55	13.953
743.86	16.400
744.18	11.157
744.49	15.190
744.80	18.107
745.12	16.878
745.43	21.545
745.74	12.500
746.06	13.983
746.37	14.768
746.68	18.699
747.00	13.750
747.31	15.880
747.62	17.308
747.94	15.385
748.25	13.253
748.56	15.510
748.88	16.667
749.19	18.103
749.50	17.316
749.82	14.859
750.13	14.235
750.44	11.667
750.75	10.769
751.07	14.462
751.38	12.934
751.69	13.738
752.01	13.592
752.32	15.033
752.63	11.224
752.94	15.225
753.26	10.037
753.57	11.852
753.88	9.363
754.19	11.897
754.51	12.862
754.82	15.756
755.13	18.033
755.44	14.676
755.75	11.513
756.07	17.313
756.38	13.208
756.69	15.060
757.00	10.526
757.31	12.842
757.63	11.765
757.94	11.502
758.25	13.318
758.56	10.458
758.87	14.318
759.18	12.800
759.50	13.598
759.81	15.686
760.12	11.590
760.43	13.281
760.74	10.837
761.05	12.750
761.36	11.566
761.67	12.437
761.99	12.973
762.30	13.110
762.61	10.561
762.92	11.567
763.23	14.607
763.54	14.029
763.85	15.120
764.16	13.805
764.47	16.901
764.78	15.655
765.10	11.730
765.41	15.897
765.72	7.407
766.03	17.232
766.34	10.972
766.65	12.544
766.96	14.741
767.27	14.286
767.58	12.935
767.89	21.635
768.20	15.493
768.51	13.889
768.82	14.458
769.13	11.742
769.44	11.923
769.75	15.523
770.06	14.231
770.37	19.291
770.68	8.511
770.99	10.526
771.30	21.852
771.61	13.308
771.92	10.000
772.23	16.194
772.54	12.963
772.85	14.747
773.16	17.143
773.47	12.169
773.78	11.892
774.09	19.886
774.39	20.500
774.70	13.115
775.01	16.463
775.32	10.588
775.63	14.724
775.94	10.191
776.25	21.290
776.56	23.077
776.87	18.367
777.18	19.310
777.48	13.287
777.79	20.270
778.10	15.441
778.41	18.056
778.72	23.448
779.03	17.284
779.34	18.182
779.65	17.617
779.95	19.444
780.26	10.795
780.57	16.774
780.88	21.739
781.19	25.161
781.50	21.176
781.80	19.355
782.11	16.931
782.42	7.071
782.73	8.982
783.04	11.173
783.34	12.727
783.65	15.686
783.96	14.286
784.27	14.286
784.57	14.570
784.88	16.429
785.19	18.110
785.50	19.685
785.81	18.045
786.11	13.846
786.42	10.791
786.73	20.863
787.04	19.549
787.34	15.574
787.65	8.800
787.96	17.910
788.26	19.580
788.57	27.273
788.88	15.789
789.19	25.490
789.49	20.548
789.80	20.567
790.11	19.685
790.41	19.531
790.72	20.339
791.03	13.592
791.33	22.609
791.64	28.947
791.95	16.071
792.25	24.762
792.56	25.000
792.87	12.500
793.17	13.393
793.48	17.708
793.79	15.663
794.09	16.514
794.40	13.761
794.70	22.449
795.01	16.234
795.32	18.493
795.62	21.831
795.93	12.121
796.23	19.672
796.54	18.750
796.85	22.340
797.15	17.391
797.46	8.219
797.76	23.750
798.07	26.087
798.37	9.278
798.68	14.286
798.99	20.690
799.29	22.472
799.60	26.596
799.90	25.301
800.21	32.308
800.51	40.299
800.82	35.294
801.12	9.589
801.43	2.941
801.73	32.203
802.04	22.727
802.34	10.000
802.65	32.203
802.95	20.896
803.26	37.288
803.56	34.247
803.87	34.286
804.17	24.658
804.48	28.070
804.78	37.500
805.09	17.241
805.39	29.730
805.70	16.901
806.00	25.610
806.30	24.096
806.61	19.178
806.91	20.192
807.22	21.111
807.52	13.793
807.83	30.556
808.13	34.940
808.43	16.854
808.74	15.000
809.04	8.824
809.35	30.667
809.65	25.714
809.95	30.137
810.26	31.579
810.56	29.310
810.86	38.235
811.17	29.825
811.47	32.787
811.77	31.111
812.08	30.508
812.38	40.000
812.69	39.655
812.99	28.302
813.29	25.641
813.59	16.000
813.90	40.351
814.20	47.273
814.50	33.803
814.81	38.462
815.11	37.705
815.41	29.851
815.72	53.448
816.02	46.429
816.32	53.333
816.62	61.364
816.93	42.222
817.23	62.963
817.53	34.043
817.84	50.000
818.14	44.118
818.44	42.857
818.74	51.111
819.04	28.205
819.35	34.286
819.65	23.077
819.95	20.755
820.25	37.778
820.56	47.619
820.86	28.125
821.16	38.462
821.46	32.558
821.76	26.000
822.07	50.000
822.37	45.652
822.67	23.404
822.97	13.514
823.27	30.000
823.57	63.265
823.88	53.333
824.18	45.000
824.48	26.667
824.78	56.000
825.08	30.303
825.38	64.444
825.69	31.915
825.99	38.889
826.29	22.857
826.59	51.282
826.89	46.512
827.19	40.000
827.49	67.647
827.79	41.667
828.09	32.432
828.39	53.333
828.70	39.024
829.00	44.186
829.30	21.429
829.60	47.059
829.90	50.000
830.20	14.286
830.50	27.586
830.80	83.333
831.10	19.231
831.40	44.118
831.70	80.952
832.00	64.516
832.30	5.882
832.60	41.667
832.90	7.692
833.20	36.842
833.50	75.000
833.80	94.737
834.10	-23.810
834.40	47.222
834.70	93.750
835.00	45.714
835.30	58.824
835.60	56.667
835.90	44.000
836.20	-4.545
836.50	48.000
836.80	21.212
837.10	55.556
837.40	59.259
837.70	37.500
838.00	46.429
838.30	95.652
838.60	62.069
838.90	64.286
839.19	17.391
839.49	41.667
839.79	73.913
840.09	87.500
840.39	55.000
840.69	80.645
840.99	32.143
841.29	26.667
841.59	78.947
841.88	64.103
842.18	30.769
842.48	90.000
842.78	95.000
843.08	46.667
843.38	80.645
843.68	83.333
843.97	67.647
844.27	100.000
844.57	105.263
844.87	100.000
845.17	100.000
845.47	138.095
845.76	66.667
846.06	133.333
846.36	52.941
846.66	100.000
846.96	46.667
847.25	58.824
847.55	100.000
847.85	60.000
848.15	88.235
848.44	136.364
848.74	76.190
849.04	58.333
849.34	43.750
849.63	26.087
849.93	150.000
850.23	106.667
850.53	92.308
850.82	145.455
851.12	86.364
851.42	127.273
851.71	84.615
852.01	50.000
852.31	115.385
852.61	57.895
852.90	116.667
853.20	61.111
853.50	-44.444
853.79	52.381
854.09	31.818
854.39	25.000
854.68	74.194
854.98	42.308
855.28	150.000
855.57	53.571
855.87	36.000
856.17	90.909
856.46	62.963
856.76	100.000
857.05	65.217
857.35	75.000
857.65	7.692
857.94	71.429
858.24	48.148
858.53	100.000
858.83	158.824
859.13	117.647
859.42	82.353
859.72	128.571
860.01	80.000
860.31	166.667
860.60	160.000
860.90	113.333
861.20	55.556
861.49	76.923
861.79	53.333
862.08	76.923
862.38	78.125
862.67	58.824
862.97	87.500
863.26	133.333
863.56	150.000
863.85	100.000
864.15	27.778
864.44	400.000
864.74	28.571
865.03	125.000
865.33	90.000
865.62	25.806
865.92	95.455
866.21	82.609
866.51	121.429
866.80	80.000
867.10	75.000
867.39	50.000
867.69	-200.000
867.98	285.714
868.27	135.294
868.57	-200.000
868.86	110.000
869.16	42.857
869.45	95.833
869.75	127.273
870.04	85.714
870.33	108.333
870.63	157.143
870.92	300.000
871.22	50.000
871.51	0.000
871.80	100.000
872.10	200.000
>>>>>End Processed Spectral Data<<<<<
