SpectraSuite Data File
++++++++++++++++++++++++++++++++++++
Date: Thu May 14 14:30:15 PDT 2015
User: schluterlab
Dark Spectrum Present: Yes
Reference Spectrum Present: Yes
Number of Sampled Component Spectra: 1
Spectrometers: USB2E3373
Integration Time (usec): 3000 (USB2E3373)
Spectra Averaged: 3 (USB2E3373)
Boxcar Smoothing: 0 (USB2E3373)
Correct for Electrical Dark: No (USB2E3373)
Strobe/Lamp Enabled: No (USB2E3373)
Correct for Detector Non-linearity: No (USB2E3373)
Correct for Stray Light: No (USB2E3373)
Number of Pixels in Processed Spectrum: 2048
>>>>>Begin Processed Spectral Data<<<<<
178.53	0.000
178.91	-300.000
179.29	1000.000
179.67	900.000
180.04	7.143
180.42	-90.000
180.80	-120.000
181.18	1200.000
181.56	1800.000
181.94	-200.000
182.31	175.000
182.69	-200.000
183.07	700.000
183.45	-100.000
183.83	250.000
184.20	600.000
184.58	-2300.000
184.96	225.000
185.34	266.667
185.72	540.000
186.09	22.222
186.47	-850.000
186.85	-140.000
187.23	122.222
187.61	1400.000
187.98	-160.000
188.36	-225.000
188.74	375.000
189.12	266.667
189.49	156.250
189.87	112.500
190.25	211.111
190.63	420.000
191.00	166.667
191.38	0.000
191.76	375.000
192.14	333.333
192.51	-700.000
192.89	316.667
193.27	0.000
193.65	228.571
194.02	1500.000
194.40	142.857
194.78	-271.429
195.15	0.000
195.53	181.818
195.91	0.000
196.29	300.000
196.66	138.462
197.04	1000.000
197.42	214.286
197.79	1250.000
198.17	175.000
198.55	285.714
198.92	155.556
199.30	250.000
199.68	209.091
200.05	100.000
200.43	650.000
200.81	-142.857
201.18	0.000
201.56	-44.444
201.94	0.000
202.31	-333.333
202.69	111.111
203.07	-1300.000
203.44	188.889
203.82	300.000
204.19	150.000
204.57	266.667
204.95	137.500
205.32	1800.000
205.70	-375.000
206.08	183.333
206.45	300.000
206.83	-160.000
207.20	350.000
207.58	140.000
207.96	216.667
208.33	250.000
208.71	-125.000
209.08	283.333
209.46	0.000
209.84	-216.667
210.21	-1000.000
210.59	-750.000
210.96	-66.667
211.34	575.000
211.71	287.500
212.09	1800.000
212.46	0.000
212.84	-50.000
213.22	200.000
213.59	475.000
213.97	160.000
214.34	366.667
214.72	-133.333
215.09	475.000
215.47	0.000
215.84	-200.000
216.22	-400.000
216.59	0.000
216.97	140.000
217.34	550.000
217.72	300.000
218.09	325.000
218.47	550.000
218.84	0.000
219.22	-220.000
219.59	88.235
219.97	100.000
220.34	-1050.000
220.72	211.111
221.09	115.385
221.47	566.667
221.84	200.000
222.22	128.571
222.59	0.000
222.97	237.500
223.34	280.000
223.72	1400.000
224.09	325.000
224.46	225.000
224.84	360.000
225.21	28.571
225.59	325.000
225.96	450.000
226.34	76.923
226.71	-100.000
227.08	800.000
227.46	126.667
227.83	200.000
228.21	121.053
228.58	-275.000
228.95	-50.000
229.33	166.667
229.70	110.000
230.08	136.842
230.45	-10.000
230.82	266.667
231.20	135.714
231.57	183.333
231.95	118.182
232.32	163.636
232.69	95.000
233.07	400.000
233.44	117.647
233.81	160.000
234.19	133.333
234.56	81.818
234.93	72.414
235.31	78.947
235.68	55.556
236.05	5.000
236.43	150.000
236.80	132.000
237.17	92.593
237.55	69.697
237.92	90.000
238.29	67.742
238.67	47.727
239.04	83.333
239.41	54.762
239.79	71.739
240.16	42.593
240.53	58.696
240.91	58.824
241.28	44.262
241.65	43.284
242.02	70.270
242.40	33.846
242.77	41.333
243.14	28.049
243.51	32.895
243.89	37.179
244.26	45.545
244.63	50.000
245.00	38.318
245.38	35.088
245.75	32.743
246.12	42.857
246.49	37.984
246.87	27.143
247.24	35.762
247.61	34.868
247.98	26.174
248.36	33.951
248.73	26.994
249.10	29.508
249.47	36.816
249.84	34.031
250.22	29.016
250.59	27.778
250.96	28.636
251.33	26.531
251.70	30.342
252.08	26.250
252.45	29.918
252.82	28.512
253.19	25.000
253.56	24.335
253.94	26.923
254.31	28.409
254.68	30.769
255.05	27.687
255.42	24.830
255.79	26.861
256.16	28.146
256.54	26.821
256.91	27.213
257.28	27.213
257.65	25.478
258.02	25.369
258.39	26.496
258.76	27.829
259.14	29.598
259.51	24.784
259.88	24.079
260.25	23.889
260.62	24.384
260.99	24.863
261.36	28.150
261.73	24.403
262.10	25.000
262.47	26.273
262.85	30.808
263.22	20.779
263.59	24.474
263.96	25.575
264.33	24.041
264.70	23.704
265.07	25.060
265.44	25.850
265.81	27.083
266.18	27.438
266.55	25.446
266.92	25.740
267.29	23.414
267.66	26.829
268.03	25.109
268.40	23.800
268.77	22.551
269.14	24.890
269.51	27.412
269.88	25.615
270.25	25.352
270.62	26.793
270.99	24.848
271.36	22.970
271.73	23.772
272.10	25.651
272.47	26.052
272.84	22.289
273.21	24.449
273.58	23.790
273.95	23.462
274.32	21.673
274.69	22.824
275.06	24.176
275.43	21.627
275.80	23.810
276.17	22.593
276.54	22.388
276.91	23.077
277.28	23.689
277.65	24.057
278.02	22.610
278.39	22.826
278.76	23.023
279.13	23.759
279.50	23.540
279.87	22.004
280.23	21.127
280.60	21.525
280.97	22.533
281.34	23.599
281.71	24.704
282.08	22.425
282.45	22.422
282.82	21.507
283.19	23.263
283.56	20.492
283.92	21.471
284.29	24.803
284.66	22.003
285.03	20.833
285.40	21.947
285.77	21.362
286.14	23.511
286.51	21.918
286.87	21.801
287.24	22.892
287.61	21.525
287.98	20.242
288.35	20.858
288.72	21.302
289.08	22.255
289.45	19.083
289.82	20.482
290.19	19.971
290.56	21.549
290.93	21.398
291.29	21.625
291.66	21.488
292.03	19.946
292.40	21.361
292.77	19.137
293.13	19.486
293.50	19.054
293.87	18.523
294.24	21.067
294.60	19.722
294.97	19.732
295.34	20.359
295.71	19.042
296.08	19.509
296.44	19.485
296.81	19.610
297.18	16.687
297.55	18.750
297.91	18.505
298.28	17.299
298.65	18.668
299.02	18.182
299.38	18.879
299.75	18.808
300.12	18.287
300.48	18.894
300.85	19.348
301.22	18.345
301.59	17.694
301.95	18.870
302.32	19.778
302.69	16.977
303.05	19.913
303.42	17.073
303.79	18.438
304.15	18.927
304.52	17.125
304.89	18.639
305.25	18.012
305.62	18.077
305.99	17.835
306.35	17.540
306.72	18.511
307.09	18.071
307.45	17.702
307.82	18.668
308.19	18.567
308.55	19.094
308.92	18.403
309.29	18.966
309.65	19.006
310.02	18.119
310.38	18.307
310.75	18.641
311.12	20.230
311.48	19.550
311.85	18.803
312.22	18.975
312.58	19.155
312.95	18.929
313.31	20.506
313.68	18.956
314.05	20.687
314.41	20.036
314.78	19.891
315.14	21.325
315.51	19.852
315.87	20.882
316.24	20.639
316.61	21.936
316.97	20.995
317.34	21.605
317.70	21.310
318.07	21.076
318.43	21.088
318.80	22.074
319.16	21.288
319.53	20.394
319.89	21.385
320.26	21.441
320.62	21.809
320.99	22.161
321.35	22.366
321.72	25.116
322.08	22.182
322.45	22.945
322.81	24.278
323.18	23.186
323.54	22.586
323.91	24.466
324.27	22.892
324.64	23.426
325.00	23.798
325.37	24.570
325.73	24.545
326.10	25.304
326.46	25.407
326.83	25.220
327.19	25.197
327.56	25.850
327.92	24.154
328.29	24.839
328.65	25.461
329.01	25.381
329.38	26.369
329.74	27.568
330.11	26.627
330.47	27.464
330.84	26.529
331.20	26.500
331.56	27.036
331.93	27.531
332.29	26.525
332.66	27.409
333.02	27.471
333.38	26.258
333.75	26.936
334.11	26.939
334.48	27.063
334.84	28.207
335.20	26.280
335.57	27.656
335.93	26.777
336.29	25.458
336.66	28.848
337.02	27.007
337.38	28.316
337.75	26.446
338.11	28.511
338.47	28.371
338.84	26.481
339.20	26.874
339.56	26.606
339.93	27.258
340.29	27.536
340.65	26.926
341.02	27.055
341.38	27.971
341.74	27.119
342.11	28.479
342.47	26.450
342.83	27.617
343.20	27.310
343.56	26.945
343.92	25.941
344.28	27.109
344.65	27.829
345.01	27.223
345.37	27.994
345.73	27.202
346.10	27.535
346.46	25.712
346.82	27.715
347.19	27.807
347.55	27.162
347.91	26.820
348.27	28.073
348.63	27.342
349.00	26.324
349.36	27.063
349.72	27.455
350.08	28.380
350.45	26.616
350.81	26.471
351.17	27.143
351.53	28.582
351.89	26.955
352.26	27.388
352.62	27.388
352.98	27.023
353.34	25.616
353.70	27.735
354.07	27.645
354.43	27.563
354.79	27.524
355.15	28.109
355.51	27.193
355.87	27.375
356.24	26.844
356.60	26.608
356.96	28.391
357.32	26.766
357.68	26.501
358.04	27.545
358.40	27.761
358.77	27.558
359.13	27.326
359.49	26.394
359.85	27.266
360.21	26.901
360.57	27.207
360.93	26.728
361.29	27.789
361.66	27.299
362.02	28.392
362.38	27.899
362.74	26.955
363.10	28.336
363.46	27.355
363.82	28.125
364.18	27.516
364.54	28.769
364.90	27.960
365.26	27.724
365.62	28.400
365.98	28.523
366.35	26.980
366.71	28.299
367.07	28.146
367.43	28.496
367.79	28.998
368.15	29.231
368.51	28.011
368.87	28.021
369.23	28.533
369.59	29.508
369.95	28.871
370.31	27.752
370.67	27.785
371.03	29.778
371.39	28.878
371.75	29.849
372.11	28.930
372.47	29.113
372.83	28.992
373.19	29.420
373.55	28.997
373.91	28.834
374.27	29.431
374.63	30.041
374.99	29.377
375.35	30.649
375.71	29.613
376.07	29.309
376.42	29.534
376.78	29.894
377.14	29.320
377.50	30.297
377.86	30.727
378.22	29.880
378.58	30.737
378.94	30.869
379.30	30.404
379.66	31.628
380.02	30.583
380.38	30.818
380.74	30.817
381.09	31.010
381.45	30.625
381.81	32.494
382.17	31.413
382.53	31.462
382.89	30.756
383.25	32.239
383.61	30.961
383.97	31.154
384.32	32.775
384.68	31.555
385.04	33.777
385.40	32.469
385.76	33.177
386.12	32.735
386.48	32.824
386.83	32.598
387.19	32.445
387.55	32.453
387.91	32.534
388.27	33.083
388.62	32.761
388.98	32.487
389.34	32.882
389.70	33.411
390.06	32.800
390.42	33.614
390.77	34.618
391.13	32.336
391.49	33.756
391.85	33.576
392.20	33.155
392.56	33.904
392.92	33.697
393.28	33.002
393.64	33.352
393.99	33.527
394.35	34.054
394.71	34.491
395.07	33.533
395.42	32.953
395.78	35.222
396.14	34.403
396.50	32.838
396.85	33.572
397.21	34.142
397.57	34.217
397.92	33.448
398.28	33.677
398.64	32.551
399.00	32.356
399.35	33.822
399.71	34.511
400.07	33.633
400.42	34.400
400.78	34.838
401.14	33.808
401.49	33.542
401.85	33.488
402.21	33.546
402.57	35.446
402.92	33.274
403.28	33.314
403.63	34.845
403.99	34.501
404.35	33.258
404.70	34.278
405.06	33.152
405.42	34.719
405.77	34.351
406.13	33.603
406.49	33.727
406.84	32.964
407.20	33.147
407.55	34.101
407.91	35.198
408.27	34.393
408.62	34.788
408.98	34.243
409.34	33.079
409.69	34.363
410.05	34.994
410.40	35.267
410.76	34.156
411.11	35.009
411.47	34.091
411.83	34.156
412.18	34.458
412.54	35.151
412.89	34.459
413.25	34.876
413.60	33.429
413.96	34.266
414.31	34.278
414.67	34.884
415.03	34.154
415.38	34.931
415.74	34.392
416.09	35.102
416.45	34.440
416.80	34.578
417.16	35.185
417.51	35.305
417.87	34.641
418.22	34.910
418.58	35.750
418.93	35.274
419.29	35.635
419.64	35.474
420.00	35.134
420.35	35.036
420.71	35.612
421.06	35.423
421.42	36.067
421.77	34.949
422.12	35.624
422.48	35.535
422.83	36.802
423.19	36.340
423.54	36.449
423.90	36.830
424.25	36.427
424.61	35.763
424.96	35.420
425.31	36.943
425.67	35.588
426.02	37.078
426.38	37.141
426.73	36.049
427.09	38.466
427.44	37.138
427.79	37.313
428.15	36.587
428.50	36.292
428.85	37.543
429.21	37.766
429.56	37.512
429.92	37.002
430.27	37.639
430.62	37.860
430.98	37.039
431.33	37.146
431.68	36.973
432.04	37.786
432.39	37.815
432.74	38.299
433.10	39.481
433.45	37.904
433.80	38.466
434.16	39.514
434.51	39.311
434.86	39.359
435.22	39.054
435.57	39.505
435.92	39.733
436.28	39.534
436.63	40.087
436.98	40.097
437.34	41.094
437.69	40.011
438.04	38.921
438.39	39.690
438.75	40.066
439.10	41.121
439.45	40.525
439.81	40.169
440.16	39.893
440.51	39.632
440.86	40.356
441.22	40.675
441.57	40.514
441.92	39.137
442.27	41.465
442.63	40.487
442.98	41.409
443.33	40.558
443.68	42.121
444.03	42.192
444.39	41.655
444.74	41.807
445.09	40.953
445.44	41.201
445.79	40.278
446.15	41.418
446.50	41.757
446.85	41.537
447.20	41.006
447.55	41.161
447.91	41.571
448.26	42.125
448.61	41.445
448.96	42.972
449.31	42.153
449.66	41.667
450.02	42.352
450.37	42.461
450.72	42.357
451.07	41.856
451.42	42.114
451.77	42.246
452.12	42.551
452.47	42.365
452.83	43.975
453.18	40.747
453.53	42.619
453.88	42.076
454.23	43.164
454.58	42.600
454.93	42.354
455.28	43.227
455.63	42.695
455.98	42.849
456.34	43.463
456.69	43.504
457.04	44.208
457.39	43.182
457.74	43.680
458.09	42.065
458.44	43.157
458.79	42.754
459.14	43.052
459.49	43.520
459.84	43.179
460.19	41.755
460.54	44.293
460.89	43.462
461.24	41.954
461.59	43.774
461.94	41.643
462.29	43.785
462.64	43.573
462.99	44.696
463.34	44.452
463.69	43.845
464.04	43.691
464.39	44.058
464.74	44.014
465.09	42.445
465.44	44.045
465.79	43.681
466.14	43.252
466.49	43.842
466.84	43.306
467.19	43.757
467.54	43.478
467.89	43.506
468.24	43.878
468.59	43.196
468.94	42.541
469.29	44.571
469.64	44.056
469.99	45.188
470.34	43.626
470.68	44.839
471.03	44.990
471.38	44.866
471.73	44.603
472.08	44.543
472.43	44.190
472.78	44.521
473.13	44.185
473.48	45.378
473.83	44.225
474.17	43.787
474.52	45.580
474.87	44.075
475.22	45.296
475.57	44.081
475.92	43.206
476.27	45.261
476.61	44.548
476.96	43.796
477.31	44.010
477.66	46.013
478.01	44.128
478.36	43.968
478.70	44.286
479.05	45.041
479.40	45.064
479.75	44.332
480.10	44.387
480.45	43.938
480.79	44.717
481.14	43.612
481.49	43.980
481.84	44.865
482.19	44.430
482.53	45.125
482.88	44.838
483.23	45.176
483.58	44.760
483.92	44.326
484.27	44.115
484.62	43.111
484.97	44.129
485.31	44.245
485.66	43.451
486.01	43.176
486.36	43.563
486.70	42.903
487.05	42.651
487.40	43.441
487.75	43.664
488.09	43.984
488.44	43.496
488.79	43.879
489.13	44.714
489.48	44.155
489.83	44.708
490.17	44.026
490.52	43.966
490.87	45.347
491.22	44.974
491.56	44.795
491.91	44.963
492.26	44.613
492.60	44.512
492.95	44.537
493.30	45.316
493.64	45.116
493.99	44.254
494.34	43.554
494.68	44.283
495.03	45.110
495.37	45.051
495.72	44.717
496.07	45.443
496.41	44.616
496.76	46.080
497.11	45.096
497.45	45.015
497.80	45.224
498.14	44.399
498.49	45.588
498.84	44.744
499.18	45.389
499.53	44.888
499.87	44.396
500.22	44.969
500.56	44.939
500.91	46.041
501.26	45.727
501.60	44.101
501.95	45.506
502.29	45.459
502.64	46.087
502.98	44.521
503.33	44.147
503.67	44.527
504.02	44.965
504.36	45.979
504.71	46.027
505.06	44.657
505.40	45.567
505.75	45.401
506.09	45.902
506.44	45.961
506.78	45.872
507.13	45.367
507.47	45.950
507.82	46.070
508.16	45.698
508.51	45.663
508.85	45.725
509.19	45.760
509.54	46.686
509.88	45.847
510.23	46.285
510.57	46.544
510.92	45.573
511.26	45.166
511.61	44.954
511.95	46.559
512.30	45.987
512.64	45.177
512.98	45.823
513.33	46.270
513.67	46.915
514.02	46.500
514.36	46.087
514.70	45.833
515.05	46.090
515.39	46.142
515.74	47.455
516.08	46.857
516.42	47.462
516.77	47.108
517.11	44.611
517.46	46.766
517.80	47.087
518.14	48.041
518.49	46.746
518.83	46.248
519.17	45.665
519.52	46.226
519.86	45.776
520.20	46.166
520.55	46.276
520.89	47.297
521.23	45.896
521.58	48.136
521.92	46.402
522.26	46.105
522.61	47.338
522.95	47.232
523.29	47.471
523.64	45.964
523.98	46.777
524.32	48.309
524.66	46.727
525.01	46.093
525.35	46.353
525.69	46.636
526.04	46.326
526.38	46.437
526.72	46.021
527.06	47.155
527.41	46.647
527.75	46.318
528.09	46.753
528.43	46.477
528.78	46.532
529.12	46.388
529.46	45.868
529.80	46.796
530.15	46.899
530.49	46.679
530.83	45.336
531.17	46.237
531.51	45.909
531.86	46.034
532.20	47.927
532.54	45.961
532.88	46.788
533.22	45.963
533.57	45.239
533.91	44.276
534.25	46.241
534.59	46.609
534.93	46.180
535.27	46.085
535.62	45.992
535.96	46.310
536.30	45.358
536.64	46.667
536.98	46.679
537.32	46.605
537.66	47.286
538.01	45.801
538.35	46.163
538.69	46.214
539.03	47.456
539.37	45.995
539.71	46.186
540.05	46.882
540.39	45.782
540.73	45.719
541.07	47.333
541.42	46.486
541.76	44.306
542.10	45.416
542.44	44.275
542.78	45.438
543.12	46.007
543.46	45.849
543.80	45.324
544.14	45.661
544.48	46.277
544.82	46.679
545.16	45.915
545.50	46.135
545.84	45.132
546.18	46.914
546.52	45.159
546.86	45.597
547.20	46.183
547.54	45.943
547.88	45.389
548.22	46.023
548.56	45.699
548.90	46.567
549.24	46.140
549.58	45.678
549.92	45.727
550.26	47.184
550.60	45.118
550.94	47.413
551.28	45.809
551.62	46.429
551.96	46.472
552.30	46.335
552.64	45.551
552.98	45.664
553.32	47.267
553.66	47.395
554.00	45.902
554.34	46.396
554.68	45.190
555.02	47.766
555.36	46.943
555.69	46.188
556.03	46.910
556.37	47.184
556.71	47.242
557.05	47.220
557.39	46.118
557.73	47.622
558.07	45.894
558.41	46.445
558.75	46.856
559.08	45.720
559.42	46.433
559.76	47.490
560.10	46.082
560.44	46.900
560.78	47.625
561.12	46.121
561.45	45.803
561.79	46.642
562.13	46.211
562.47	45.314
562.81	45.316
563.15	45.896
563.48	46.675
563.82	46.554
564.16	45.003
564.50	46.305
564.84	46.844
565.17	46.059
565.51	45.857
565.85	46.675
566.19	45.968
566.52	45.056
566.86	46.180
567.20	45.459
567.54	45.459
567.88	44.903
568.21	45.059
568.55	45.132
568.89	46.346
569.23	45.289
569.56	44.744
569.90	44.583
570.24	44.722
570.57	42.976
570.91	43.080
571.25	43.708
571.59	43.418
571.92	44.030
572.26	43.383
572.60	42.725
572.93	43.724
573.27	43.467
573.61	43.145
573.95	43.943
574.28	43.097
574.62	42.838
574.96	42.986
575.29	42.476
575.63	42.804
575.97	42.419
576.30	42.339
576.64	42.353
576.98	42.483
577.31	42.729
577.65	43.768
577.98	42.451
578.32	42.140
578.66	42.499
578.99	42.126
579.33	42.530
579.67	42.090
580.00	42.257
580.34	42.757
580.67	42.321
581.01	42.990
581.35	42.412
581.68	42.875
582.02	42.492
582.35	42.897
582.69	43.072
583.02	42.777
583.36	42.432
583.70	43.240
584.03	42.645
584.37	43.051
584.70	43.252
585.04	42.339
585.37	43.327
585.71	43.193
586.04	42.911
586.38	43.152
586.72	42.843
587.05	43.080
587.39	43.605
587.72	43.732
588.06	43.230
588.39	42.594
588.73	43.069
589.06	43.905
589.40	44.345
589.73	44.087
590.07	44.430
590.40	44.456
590.73	44.044
591.07	44.341
591.40	43.896
591.74	44.595
592.07	44.539
592.41	44.203
592.74	44.728
593.08	44.204
593.41	44.561
593.75	43.678
594.08	44.259
594.41	43.750
594.75	43.740
595.08	44.011
595.42	43.604
595.75	44.688
596.09	44.697
596.42	44.070
596.75	44.770
597.09	45.091
597.42	44.299
597.75	44.022
598.09	43.968
598.42	44.873
598.76	43.982
599.09	43.254
599.42	42.608
599.76	43.447
600.09	43.844
600.42	43.544
600.76	44.055
601.09	43.014
601.42	43.426
601.76	44.034
602.09	43.817
602.42	44.020
602.76	44.317
603.09	44.860
603.42	43.750
603.76	43.587
604.09	44.606
604.42	44.404
604.76	43.379
605.09	44.316
605.42	44.617
605.75	43.769
606.09	44.084
606.42	43.232
606.75	43.253
607.09	43.740
607.42	42.813
607.75	43.845
608.08	43.923
608.42	44.176
608.75	44.071
609.08	44.228
609.41	44.199
609.75	44.196
610.08	44.943
610.41	43.458
610.74	43.571
611.07	44.716
611.41	44.574
611.74	44.665
612.07	44.647
612.40	44.962
612.73	45.232
613.07	44.597
613.40	44.947
613.73	43.958
614.06	44.897
614.39	43.489
614.72	44.930
615.06	43.696
615.39	43.983
615.72	44.408
616.05	44.148
616.38	45.106
616.71	44.148
617.05	44.036
617.38	43.981
617.71	44.114
618.04	44.468
618.37	45.902
618.70	44.118
619.03	44.982
619.36	45.623
619.69	45.420
620.03	46.139
620.36	44.847
620.69	45.898
621.02	45.735
621.35	46.009
621.68	46.710
622.01	45.196
622.34	44.770
622.67	45.155
623.00	44.534
623.33	45.587
623.66	45.201
623.99	44.700
624.32	45.224
624.65	43.758
624.99	46.034
625.32	45.265
625.65	45.381
625.98	45.695
626.31	45.854
626.64	45.421
626.97	44.411
627.30	45.938
627.63	45.611
627.96	46.171
628.29	45.603
628.62	46.516
628.95	48.116
629.28	45.455
629.61	45.286
629.94	46.192
630.26	46.525
630.59	44.560
630.92	44.156
631.25	46.154
631.58	46.328
631.91	46.485
632.24	47.262
632.57	46.964
632.90	46.640
633.23	46.837
633.56	46.327
633.89	46.591
634.22	47.193
634.55	45.094
634.88	46.429
635.20	46.825
635.53	48.814
635.86	47.454
636.19	48.038
636.52	46.097
636.85	46.067
637.18	46.154
637.51	45.161
637.83	46.622
638.16	48.733
638.49	46.714
638.82	47.689
639.15	45.819
639.48	48.268
639.81	46.767
640.13	45.819
640.46	44.970
640.79	46.936
641.12	47.578
641.45	47.177
641.77	51.091
642.10	49.213
642.43	48.271
642.76	48.374
643.09	46.438
643.41	48.599
643.74	46.897
644.07	48.828
644.40	49.081
644.73	47.460
645.05	48.018
645.38	48.777
645.71	48.827
646.04	48.207
646.36	45.839
646.69	49.387
647.02	47.095
647.35	49.008
647.67	50.242
648.00	48.726
648.33	48.198
648.66	47.646
648.98	46.803
649.31	46.955
649.64	48.473
649.96	47.082
650.29	47.983
650.62	44.696
650.94	47.748
651.27	45.808
651.60	44.591
651.92	46.960
652.25	46.744
652.58	43.741
652.90	47.238
653.23	48.592
653.56	46.933
653.88	48.034
654.21	46.338
654.54	48.555
654.86	46.034
655.19	43.915
655.52	39.984
655.84	37.512
656.17	47.697
656.49	67.702
656.82	75.244
657.15	57.944
657.47	43.762
657.80	32.027
658.13	25.579
658.45	33.670
658.78	41.180
659.10	40.843
659.43	41.801
659.75	43.818
660.08	43.417
660.41	45.575
660.73	45.952
661.06	47.283
661.38	45.774
661.71	47.931
662.03	46.032
662.36	48.658
662.68	48.218
663.01	45.664
663.33	47.637
663.66	51.099
663.98	48.269
664.31	49.156
664.63	45.279
664.96	46.461
665.28	45.554
665.61	45.629
665.93	45.536
666.26	46.595
666.58	45.572
666.91	50.654
667.23	49.905
667.56	47.337
667.88	47.800
668.21	45.898
668.53	46.525
668.86	47.741
669.18	49.287
669.50	48.310
669.83	43.400
670.15	46.457
670.48	48.413
670.80	45.698
671.13	45.369
671.45	47.638
671.77	48.964
672.10	45.833
672.42	46.926
672.75	43.011
673.07	44.328
673.39	46.071
673.72	45.973
674.04	46.897
674.37	49.195
674.69	46.737
675.01	48.571
675.34	46.374
675.66	44.195
675.98	48.694
676.31	47.266
676.63	48.669
676.95	47.701
677.28	50.000
677.60	44.882
677.92	47.409
678.25	45.155
678.57	45.374
678.89	45.222
679.22	43.206
679.54	45.128
679.86	44.915
680.18	44.279
680.51	46.226
680.83	47.627
681.15	46.552
681.48	46.114
681.80	47.841
682.12	47.378
682.44	44.073
682.77	45.745
683.09	48.295
683.41	46.512
683.73	44.023
684.06	44.834
684.38	45.259
684.70	47.935
685.02	45.783
685.34	44.759
685.67	42.271
685.99	44.325
686.31	40.407
686.63	44.392
686.96	46.215
687.28	44.137
687.60	44.108
687.92	42.605
688.24	45.576
688.56	45.345
688.89	46.461
689.21	46.771
689.53	45.098
689.85	43.393
690.17	45.556
690.49	47.012
690.82	47.327
691.14	43.117
691.46	45.315
691.78	47.145
692.10	46.606
692.42	43.750
692.74	41.742
693.06	43.148
693.39	47.438
693.71	45.865
694.03	44.796
694.35	45.714
694.67	47.228
694.99	46.809
695.31	46.578
695.63	45.455
695.95	43.064
696.27	44.835
696.59	46.903
696.91	46.847
697.23	49.011
697.56	44.807
697.88	41.856
698.20	44.256
698.52	46.212
698.84	48.441
699.16	46.735
699.48	46.025
699.80	46.383
700.12	47.162
700.44	44.700
700.76	46.081
701.08	45.036
701.40	48.705
701.72	47.015
702.04	48.128
702.36	45.812
702.68	42.543
703.00	47.188
703.32	47.537
703.64	45.721
703.96	45.107
704.28	46.437
704.60	46.329
704.91	46.684
705.23	48.767
705.55	49.582
705.87	49.394
706.19	51.534
706.51	44.578
706.83	44.957
707.15	45.238
707.47	45.327
707.79	42.795
708.11	41.737
708.43	43.226
708.74	43.750
709.06	43.852
709.38	46.479
709.70	45.161
710.02	46.512
710.34	46.011
710.66	43.296
710.98	52.186
711.29	48.901
711.61	47.740
711.93	49.003
712.25	44.865
712.57	46.018
712.89	47.353
713.20	44.379
713.52	43.931
713.84	47.911
714.16	43.421
714.48	48.454
714.80	43.896
715.11	46.194
715.43	44.032
715.75	46.316
716.07	44.199
716.39	43.989
716.70	44.277
717.02	52.787
717.34	48.780
717.66	47.315
717.97	44.863
718.29	48.110
718.61	47.368
718.93	48.544
719.24	42.547
719.56	43.865
719.88	48.649
720.20	45.484
720.51	48.137
720.83	43.125
721.15	39.803
721.46	44.521
721.78	45.333
722.10	44.660
722.42	48.322
722.73	41.290
723.05	50.526
723.37	45.833
723.68	49.821
724.00	49.458
724.32	40.845
724.63	46.154
724.95	43.972
725.27	47.038
725.58	46.643
725.90	46.897
726.22	45.455
726.53	48.701
726.85	44.654
727.16	45.015
727.48	46.789
727.80	48.675
728.11	45.583
728.43	45.118
728.74	46.823
729.06	46.689
729.38	44.481
729.69	46.644
730.01	44.643
730.32	43.030
730.64	44.025
730.96	44.099
731.27	45.251
731.59	45.055
731.90	43.636
732.22	41.406
732.53	42.818
732.85	42.286
733.16	44.868
733.48	44.207
733.80	42.897
734.11	41.595
734.43	43.243
734.74	42.785
735.06	45.477
735.37	46.486
735.69	45.405
736.00	42.090
736.32	39.084
736.63	42.500
736.95	42.241
737.26	47.273
737.58	41.212
737.89	46.176
738.21	43.731
738.52	40.656
738.83	47.440
739.15	45.035
739.46	42.857
739.78	43.558
740.09	40.688
740.41	45.481
740.72	44.333
741.04	42.718
741.35	43.860
741.66	41.176
741.98	47.951
742.29	43.933
742.61	51.754
742.92	48.462
743.23	44.404
743.55	46.512
743.86	49.600
744.18	42.149
744.49	45.570
744.80	42.387
745.12	45.148
745.43	51.220
745.74	48.707
746.06	43.644
746.37	45.992
746.68	51.220
747.00	43.750
747.31	45.494
747.62	46.538
747.94	44.130
748.25	44.177
748.56	47.347
748.88	43.590
749.19	55.172
749.50	42.857
749.82	51.807
750.13	42.705
750.44	42.000
750.75	44.923
751.07	44.308
751.38	47.319
751.69	43.770
752.01	41.424
752.32	43.464
752.63	44.898
752.94	43.945
753.26	44.610
753.57	42.593
753.88	48.315
754.19	40.836
754.51	46.624
754.82	46.302
755.13	47.213
755.44	43.003
755.75	43.421
756.07	44.179
756.38	42.138
756.69	45.783
757.00	42.105
757.31	38.525
757.63	37.084
757.94	37.559
758.25	41.761
758.56	38.780
758.87	40.455
759.18	40.000
759.50	41.926
759.81	43.978
760.12	39.623
760.43	39.323
760.74	40.640
761.05	41.750
761.36	40.723
761.67	42.132
761.99	45.405
762.30	42.073
762.61	40.264
762.92	41.418
763.23	43.820
763.54	43.525
763.85	40.206
764.16	37.374
764.47	48.592
764.78	41.534
765.10	38.710
765.41	40.000
765.72	38.095
766.03	42.655
766.34	40.439
766.65	42.509
766.96	43.028
767.27	47.465
767.58	47.761
767.89	51.923
768.20	46.009
768.51	43.519
768.82	40.161
769.13	40.909
769.44	40.000
769.75	45.126
770.06	44.231
770.37	46.457
770.68	42.979
770.99	40.081
771.30	50.741
771.61	43.346
771.92	43.333
772.23	49.798
772.54	42.593
772.85	49.770
773.16	40.000
773.47	45.503
773.78	42.162
774.09	50.568
774.39	47.500
774.70	45.902
775.01	49.390
775.32	41.765
775.63	50.307
775.94	41.401
776.25	54.839
776.56	51.282
776.87	47.619
777.18	50.345
777.48	46.154
777.79	43.243
778.10	50.735
778.41	47.917
778.72	46.897
779.03	38.889
779.34	45.455
779.65	41.451
779.95	47.778
780.26	49.432
780.57	47.097
780.88	57.971
781.19	44.516
781.50	48.824
781.80	45.699
782.11	40.212
782.42	39.899
782.73	37.725
783.04	45.810
783.34	46.667
783.65	39.216
783.96	46.584
784.27	42.262
784.57	44.371
784.88	50.714
785.19	51.181
785.50	52.756
785.81	48.120
786.11	49.231
786.42	44.604
786.73	43.885
787.04	54.135
787.34	48.361
787.65	48.000
787.96	46.269
788.26	54.545
788.57	51.748
788.88	55.263
789.19	48.366
789.49	45.205
789.80	51.773
790.11	54.331
790.41	42.969
790.72	45.763
791.03	40.777
791.33	46.087
791.64	49.123
791.95	41.964
792.25	49.524
792.56	52.679
792.87	40.625
793.17	45.536
793.48	48.958
793.79	48.193
794.09	44.037
794.40	45.872
794.70	38.095
795.01	37.662
795.32	52.055
795.62	43.662
795.93	43.182
796.23	48.361
796.54	47.321
796.85	50.000
797.15	48.913
797.46	50.685
797.76	48.750
798.07	47.826
798.37	40.206
798.68	57.143
798.99	47.126
799.29	53.933
799.60	43.617
799.90	45.783
800.21	58.462
800.51	43.284
800.82	60.294
801.12	49.315
801.43	44.118
801.73	50.847
802.04	53.030
802.34	48.333
802.65	62.712
802.95	55.224
803.26	50.847
803.56	49.315
803.87	55.714
804.17	63.014
804.48	45.614
804.78	50.000
805.09	58.621
805.39	55.405
805.70	45.070
806.00	46.341
806.30	54.217
806.61	45.205
806.91	46.154
807.22	56.667
807.52	43.678
807.83	65.278
808.13	51.807
808.43	53.933
808.74	50.000
809.04	41.176
809.35	53.333
809.65	48.571
809.95	56.164
810.26	43.860
810.56	68.966
810.86	60.294
811.17	54.386
811.47	59.016
811.77	44.444
812.08	55.932
812.38	51.667
812.69	60.345
812.99	56.604
813.29	48.718
813.59	64.000
813.90	70.175
814.20	50.909
814.50	64.789
814.81	57.692
815.11	68.852
815.41	49.254
815.72	68.966
816.02	71.429
816.32	84.444
816.62	72.727
816.93	53.333
817.23	72.222
817.53	65.957
817.84	73.810
818.14	97.059
818.44	59.184
818.74	66.667
819.04	58.974
819.35	80.000
819.65	96.154
819.95	56.604
820.25	66.667
820.56	52.381
820.86	59.375
821.16	53.846
821.46	44.186
821.76	40.000
822.07	66.071
822.37	65.217
822.67	72.340
822.97	40.541
823.27	82.500
823.57	67.347
823.88	60.000
824.18	70.000
824.48	90.000
824.78	128.000
825.08	87.879
825.38	71.111
825.69	72.340
825.99	69.444
826.29	45.714
826.59	56.410
826.89	41.860
827.19	38.000
827.49	94.118
827.79	60.417
828.09	40.541
828.39	113.333
828.70	48.780
829.00	55.814
829.30	85.714
829.60	97.059
829.90	45.652
830.20	80.000
830.50	93.103
830.80	105.556
831.10	84.615
831.40	73.529
831.70	109.524
832.00	93.548
832.30	41.176
832.60	75.000
832.90	123.077
833.20	68.421
833.50	125.000
833.80	94.737
834.10	90.476
834.40	55.556
834.70	103.125
835.00	65.714
835.30	85.294
835.60	60.000
835.90	112.000
836.20	90.909
836.50	116.000
836.80	54.545
837.10	88.889
837.40	62.963
837.70	137.500
838.00	78.571
838.30	52.174
838.60	100.000
838.90	100.000
839.19	34.783
839.49	91.667
839.79	86.957
840.09	81.250
840.39	115.000
840.69	70.968
840.99	82.143
841.29	126.667
841.59	78.947
841.88	82.051
842.18	53.846
842.48	0.000
842.78	80.000
843.08	83.333
843.38	119.355
843.68	88.889
843.97	79.412
844.27	112.500
844.57	84.211
844.87	180.000
845.17	66.667
845.47	123.810
845.76	85.714
846.06	166.667
846.36	64.706
846.66	88.462
846.96	120.000
847.25	117.647
847.55	134.783
847.85	110.000
848.15	94.118
848.44	109.091
848.74	95.238
849.04	50.000
849.34	87.500
849.63	43.478
849.93	-600.000
850.23	153.333
850.53	92.308
850.82	181.818
851.12	145.455
851.42	145.455
851.71	192.308
852.01	75.000
852.31	169.231
852.61	94.737
852.90	183.333
853.20	127.778
853.50	155.556
853.79	47.619
854.09	63.636
854.39	125.000
854.68	87.097
854.98	88.462
855.28	172.222
855.57	78.571
855.87	92.000
856.17	109.091
856.46	100.000
856.76	100.000
857.05	95.652
857.35	58.333
857.65	138.462
857.94	119.048
858.24	74.074
858.53	100.000
858.83	123.529
859.13	70.588
859.42	135.294
859.72	150.000
860.01	95.000
860.31	122.222
860.60	250.000
860.90	140.000
861.20	116.667
861.49	161.538
861.79	100.000
862.08	107.692
862.38	65.625
862.67	152.941
862.97	100.000
863.26	133.333
863.56	210.000
863.85	218.182
864.15	72.222
864.44	533.333
864.74	100.000
865.03	125.000
865.33	60.000
865.62	54.839
865.92	131.818
866.21	126.087
866.51	121.429
866.80	120.000
867.10	158.333
867.39	91.667
867.69	-900.000
867.98	171.429
868.27	147.059
868.57	700.000
868.86	70.000
869.16	61.905
869.45	116.667
869.75	118.182
870.04	128.571
870.33	66.667
870.63	0.000
870.92	300.000
871.22	37.500
871.51	154.545
871.80	133.333
872.10	700.000
>>>>>End Processed Spectral Data<<<<<
