SpectraSuite Data File
++++++++++++++++++++++++++++++++++++
Date: Thu May 14 15:17:44 PDT 2015
User: schluterlab
Dark Spectrum Present: Yes
Reference Spectrum Present: Yes
Number of Sampled Component Spectra: 1
Spectrometers: USB2E3373
Integration Time (usec): 3000 (USB2E3373)
Spectra Averaged: 3 (USB2E3373)
Boxcar Smoothing: 0 (USB2E3373)
Correct for Electrical Dark: No (USB2E3373)
Strobe/Lamp Enabled: No (USB2E3373)
Correct for Detector Non-linearity: No (USB2E3373)
Correct for Stray Light: No (USB2E3373)
Number of Pixels in Processed Spectrum: 2048
>>>>>Begin Processed Spectral Data<<<<<
178.53	0.000
178.91	528.571
179.29	-4400.000
179.67	-4800.000
180.04	428.571
180.42	420.000
180.80	940.000
181.18	-4200.000
181.56	-3200.000
181.94	1175.000
182.31	-900.000
182.69	1266.667
183.07	-1750.000
183.45	1075.000
183.83	-483.333
184.20	-1466.667
184.58	4100.000
184.96	-1100.000
185.34	-433.333
185.72	-760.000
186.09	544.444
186.47	2150.000
186.85	820.000
187.23	-455.556
187.61	-4200.000
187.98	900.000
188.36	1150.000
188.74	-1150.000
189.12	-1500.000
189.49	-212.500
189.87	-575.000
190.25	-388.889
190.63	-900.000
191.00	-444.444
191.38	0.000
191.76	-1125.000
192.14	-650.000
192.51	1900.000
192.89	-566.667
193.27	0.000
193.65	-485.714
194.02	-4900.000
194.40	-542.857
194.78	514.286
195.15	0.000
195.53	-336.364
195.91	0.000
196.29	-775.000
196.66	-300.000
197.04	-5000.000
197.42	-728.571
197.79	-2550.000
198.17	-537.500
198.55	-528.571
198.92	-344.444
199.30	-550.000
199.68	-318.182
200.05	-200.000
200.43	-1850.000
200.81	657.143
201.18	0.000
201.56	555.556
201.94	0.000
202.31	1400.000
202.69	-444.444
203.07	3800.000
203.44	-400.000
203.82	-1025.000
204.19	-258.333
204.57	-650.000
204.95	-562.500
205.32	-3700.000
205.70	825.000
206.08	-800.000
206.45	-616.667
206.83	1080.000
207.20	-633.333
207.58	-1020.000
207.96	-800.000
208.33	-566.667
208.71	275.000
209.08	-650.000
209.46	0.000
209.84	700.000
210.21	1800.000
210.59	1950.000
210.96	1433.333
211.34	-900.000
211.71	-537.500
212.09	-4600.000
212.46	0.000
212.84	2500.000
213.22	-880.000
213.59	-1050.000
213.97	-380.000
214.34	-1233.333
214.72	800.000
215.09	-1000.000
215.47	0.000
215.84	642.857
216.22	2650.000
216.59	-680.000
216.97	-900.000
217.34	-1000.000
217.72	-550.000
218.09	-1025.000
218.47	-1175.000
218.84	0.000
219.22	760.000
219.59	-205.882
219.97	-170.000
220.34	2200.000
220.72	-400.000
221.09	-207.692
221.47	-1166.667
221.84	-440.000
222.22	-657.143
222.59	0.000
222.97	-475.000
223.34	-860.000
223.72	-4800.000
224.09	-1025.000
224.46	-850.000
224.84	-580.000
225.21	-600.000
225.59	-1075.000
225.96	-950.000
226.34	-146.154
226.71	783.333
227.08	-2200.000
227.46	-266.667
227.83	-975.000
228.21	-173.684
228.58	525.000
228.95	2300.000
229.33	-300.000
229.70	-360.000
230.08	-147.368
230.45	470.000
230.82	-1100.000
231.20	-228.571
231.57	-283.333
231.95	-372.727
232.32	-281.818
232.69	-165.000
233.07	-1100.000
233.44	-229.412
233.81	-480.000
234.19	-144.444
234.56	-136.364
234.93	-100.000
235.31	-189.474
235.68	-222.222
236.05	-265.000
236.43	-146.154
236.80	-156.000
237.17	-122.222
237.55	-100.000
237.92	-500.000
238.29	-109.677
238.67	-86.364
239.04	-108.333
239.41	-95.238
239.79	-67.391
240.16	-51.852
240.53	-91.304
240.91	-86.275
241.28	-60.656
241.65	-46.269
242.02	-40.541
242.40	-67.692
242.77	-53.333
243.14	-50.000
243.51	-51.316
243.89	-53.846
244.26	-22.772
244.63	-35.294
245.00	-28.037
245.38	-29.825
245.75	-42.478
246.12	-19.841
246.49	-27.132
246.87	-13.571
247.24	-9.934
247.61	-10.526
247.98	-18.792
248.36	-18.519
248.73	-22.699
249.10	-13.115
249.47	-3.980
249.84	-6.283
250.22	-13.472
250.59	-11.667
250.96	-2.727
251.33	-10.204
251.70	-6.410
252.08	-8.333
252.45	-5.328
252.82	-10.331
253.19	-7.031
253.56	-5.703
253.94	-6.923
254.31	-6.439
254.68	-2.448
255.05	-6.515
255.42	-6.803
255.79	-5.502
256.16	-6.291
256.54	-10.596
256.91	-7.213
257.28	-5.246
257.65	-5.414
258.02	-5.015
258.39	-5.413
258.76	-0.612
259.14	-3.161
259.51	-4.323
259.88	-5.666
260.25	-3.333
260.62	-0.822
260.99	-2.186
261.36	-0.268
261.73	-3.714
262.10	-7.143
262.47	-1.877
262.85	-0.253
263.22	-3.117
263.59	-5.526
263.96	-2.046
264.33	-2.046
264.70	-1.728
265.07	0.716
265.44	1.587
265.81	-2.315
266.18	-0.680
266.55	-0.446
266.92	-3.872
267.29	-0.219
267.66	-1.109
268.03	-1.965
268.40	-0.835
268.77	-0.911
269.14	-2.863
269.51	-0.219
269.88	2.254
270.25	0.402
270.62	0.422
270.99	2.424
271.36	1.584
271.73	-1.179
272.10	3.607
272.47	1.002
272.84	-0.201
273.21	-0.200
273.58	1.210
273.95	1.346
274.32	-1.521
274.69	-1.161
275.06	0.549
275.43	0.185
275.80	2.646
276.17	-0.370
276.54	-0.373
276.91	0.179
277.28	0.000
277.65	1.975
278.02	0.919
278.39	-0.181
278.76	-1.230
279.13	-0.709
279.50	1.718
279.87	1.252
280.23	-1.232
280.60	2.203
280.97	1.151
281.34	-1.358
281.71	2.200
282.08	0.498
282.45	0.000
282.82	-1.099
283.19	-1.777
283.56	-0.328
283.92	2.553
284.29	1.580
284.66	0.985
285.03	-0.641
285.40	1.391
285.77	0.774
286.14	1.527
286.51	0.152
286.87	0.474
287.24	0.904
287.61	0.747
287.98	1.511
288.35	1.036
288.72	1.036
289.08	2.343
289.45	0.592
289.82	0.602
290.19	0.431
290.56	1.549
290.93	1.569
291.29	1.928
291.66	0.964
292.03	-0.136
292.40	1.088
292.77	0.809
293.13	0.812
293.50	0.131
293.87	-0.268
294.24	2.267
294.60	2.908
294.97	0.000
295.34	1.536
295.71	1.892
296.08	0.517
296.44	1.103
296.81	1.583
297.18	1.619
297.55	1.415
297.91	1.068
298.28	0.118
298.65	1.665
299.02	1.181
299.38	2.975
299.75	2.336
300.12	1.736
300.48	0.922
300.85	2.250
301.22	0.783
301.59	0.457
301.95	1.469
302.32	2.778
302.69	1.972
303.05	1.197
303.42	2.439
303.79	1.562
304.15	1.052
304.52	2.114
304.89	1.885
305.25	1.760
305.62	1.149
305.99	1.134
306.35	1.310
306.72	1.965
307.09	1.827
307.45	2.277
307.82	1.312
308.19	1.615
308.55	2.797
308.92	1.071
309.29	3.065
309.65	0.975
310.02	1.287
310.38	0.984
310.75	1.262
311.12	2.780
311.48	0.880
311.85	1.709
312.22	1.898
312.58	1.127
312.95	2.199
313.31	1.807
313.68	2.015
314.05	2.529
314.41	3.005
314.78	2.725
315.14	2.722
315.51	2.678
315.87	3.240
316.24	2.283
316.61	3.286
316.97	2.081
317.34	1.587
317.70	3.493
318.07	2.293
318.43	3.061
318.80	4.097
319.16	2.918
319.53	2.656
319.89	2.892
320.26	3.470
320.62	3.280
320.99	3.693
321.35	2.865
321.72	4.465
322.08	2.525
322.45	5.059
322.81	4.242
323.18	4.248
323.54	4.397
323.91	5.605
324.27	4.733
324.64	5.793
325.00	5.556
325.37	5.487
325.73	5.620
326.10	6.407
326.46	7.248
326.83	7.126
327.19	6.929
327.56	6.561
327.92	6.058
328.29	6.935
328.65	7.538
329.01	7.191
329.38	7.414
329.74	8.647
330.11	8.219
330.47	7.582
330.84	8.355
331.20	8.667
331.56	9.012
331.93	9.791
332.29	8.390
332.66	9.551
333.02	9.631
333.38	9.312
333.75	9.091
334.11	10.175
334.48	9.818
334.84	11.725
335.20	9.404
335.57	10.624
335.93	11.322
336.29	10.233
336.66	10.008
337.02	11.204
337.38	9.949
337.75	11.653
338.11	11.606
338.47	11.414
338.84	10.575
339.20	10.615
339.56	10.791
339.93	11.576
340.29	11.997
340.65	11.922
341.02	11.333
341.38	12.369
341.74	10.734
342.11	10.941
342.47	10.802
342.83	12.560
343.20	12.919
343.56	12.109
343.92	12.170
344.28	11.250
344.65	12.248
345.01	11.856
345.37	12.364
345.73	11.769
346.10	13.027
346.46	11.788
346.82	12.285
347.19	12.529
347.55	13.354
347.91	11.813
348.27	12.291
348.63	13.328
349.00	11.782
349.36	12.491
349.72	12.872
350.08	12.630
350.45	12.548
350.81	12.368
351.17	12.256
351.53	12.206
351.89	13.440
352.26	12.090
352.62	12.612
352.98	12.672
353.34	11.949
353.70	12.789
354.07	13.860
354.43	13.060
354.79	13.239
355.15	13.392
355.51	14.035
355.87	12.939
356.24	13.384
356.60	13.230
356.96	13.343
357.32	13.532
357.68	12.811
358.04	12.650
358.40	12.537
358.77	14.327
359.13	14.106
359.49	12.491
359.85	13.706
360.21	13.128
360.57	12.132
360.93	13.963
361.29	14.175
361.66	13.686
362.02	15.031
362.38	14.406
362.74	14.316
363.10	14.718
363.46	14.058
363.82	14.063
364.18	14.286
364.54	14.246
364.90	14.381
365.26	13.793
365.62	16.133
365.98	14.568
366.35	15.235
366.71	14.694
367.07	15.426
367.43	14.970
367.79	14.798
368.15	15.452
368.51	15.156
368.87	15.023
369.23	15.667
369.59	14.822
369.95	15.686
370.31	15.800
370.67	15.475
371.03	15.859
371.39	15.379
371.75	15.543
372.11	15.921
372.47	15.775
372.83	16.492
373.19	15.544
373.55	16.531
373.91	15.269
374.27	15.977
374.63	17.321
374.99	15.782
375.35	16.494
375.71	16.258
376.07	17.237
376.42	16.814
376.78	16.843
377.14	16.968
377.50	17.457
377.86	17.303
378.22	17.545
378.58	17.895
378.94	17.899
379.30	17.750
379.66	17.637
380.02	18.292
380.38	18.894
380.74	18.028
381.09	18.235
381.45	18.977
381.81	20.141
382.17	18.409
382.53	18.304
382.89	18.679
383.25	18.933
383.61	18.808
383.97	18.787
384.32	19.199
384.68	18.619
385.04	19.954
385.40	20.389
385.76	20.106
386.12	19.090
386.48	20.294
386.83	20.262
387.19	19.930
387.55	19.425
387.91	20.548
388.27	20.670
388.62	20.676
388.98	19.797
389.34	20.566
389.70	19.814
390.06	19.538
390.42	20.783
390.77	20.891
391.13	21.127
391.49	20.954
391.85	20.909
392.20	21.293
392.56	21.500
392.92	20.992
393.28	21.780
393.64	22.067
393.99	21.034
394.35	21.554
394.71	21.078
395.07	20.479
395.42	21.017
395.78	22.730
396.14	21.747
396.50	21.021
396.85	21.765
397.21	21.243
397.57	21.437
397.92	21.649
398.28	20.369
398.64	20.824
399.00	21.047
399.35	21.204
399.71	21.141
400.07	21.168
400.42	21.886
400.78	22.164
401.14	22.425
401.49	21.944
401.85	21.570
402.21	21.784
402.57	21.948
402.92	21.809
403.28	21.897
403.63	21.599
403.99	21.675
404.35	21.205
404.70	21.360
405.06	21.739
405.42	21.136
405.77	22.301
406.13	21.934
406.49	21.509
406.84	22.271
407.20	21.688
407.55	21.623
407.91	21.433
408.27	21.084
408.62	21.524
408.98	21.997
409.34	20.704
409.69	21.323
410.05	21.864
410.40	22.100
410.76	21.705
411.11	21.683
411.47	21.437
411.83	21.634
412.18	22.651
412.54	21.873
412.89	22.701
413.25	21.275
413.60	21.712
413.96	22.494
414.31	21.076
414.67	23.256
415.03	21.908
415.38	22.951
415.74	22.236
416.09	22.949
416.45	22.229
416.80	21.848
417.16	22.222
417.51	21.980
417.87	21.827
418.22	22.335
418.58	22.491
418.93	23.166
419.29	22.688
419.64	23.289
420.00	23.145
420.35	22.740
420.71	22.343
421.06	22.082
421.42	23.165
421.77	22.833
422.12	23.520
422.48	23.400
422.83	24.808
423.19	24.562
423.54	24.004
423.90	24.130
424.25	25.760
424.61	25.144
424.96	24.382
425.31	25.159
425.67	24.584
426.02	24.958
426.38	24.971
426.73	25.614
427.09	25.663
427.44	24.631
427.79	25.484
428.15	25.913
428.50	25.843
428.85	25.201
429.21	26.489
429.56	25.222
429.92	26.388
430.27	26.554
430.62	26.527
430.98	26.955
431.33	26.344
431.68	27.203
432.04	26.866
432.39	27.638
432.74	27.683
433.10	27.366
433.45	27.035
433.80	27.951
434.16	27.738
434.51	28.006
434.86	29.045
435.22	28.693
435.57	28.833
435.92	27.769
436.28	28.783
436.63	29.110
436.98	28.127
437.34	27.959
437.69	29.279
438.04	28.926
438.39	29.006
438.75	28.500
439.10	29.070
439.45	29.514
439.81	29.718
440.16	30.027
440.51	29.320
440.86	29.461
441.22	29.314
441.57	29.350
441.92	29.680
442.27	30.455
442.63	29.309
442.98	31.537
443.33	30.984
443.68	31.764
444.03	31.138
444.39	31.438
444.74	31.649
445.09	30.917
445.44	30.875
445.79	30.939
446.15	32.066
446.50	30.853
446.85	31.858
447.20	31.480
447.55	31.590
447.91	31.466
448.26	31.078
448.61	31.828
448.96	32.242
449.31	31.654
449.66	31.481
450.02	32.226
450.37	32.552
450.72	32.508
451.07	32.175
451.42	32.062
451.77	31.406
452.12	33.239
452.47	31.491
452.83	32.432
453.18	31.524
453.53	32.395
453.88	31.253
454.23	33.390
454.58	33.546
454.93	32.585
455.28	33.654
455.63	32.689
455.98	32.291
456.34	31.743
456.69	33.392
457.04	32.506
457.39	32.927
457.74	34.452
458.09	32.784
458.44	33.405
458.79	32.697
459.14	33.141
459.49	33.447
459.84	33.368
460.19	33.981
460.54	34.355
460.89	33.563
461.24	33.276
461.59	33.758
461.94	32.687
462.29	35.050
462.64	34.218
462.99	34.777
463.34	35.107
463.69	33.411
464.04	34.130
464.39	33.913
464.74	32.668
465.09	34.256
465.44	33.155
465.79	34.268
466.14	33.872
466.49	34.211
466.84	34.490
467.19	33.815
467.54	33.960
467.89	34.368
468.24	34.681
468.59	34.105
468.94	35.023
469.29	34.493
469.64	33.948
469.99	33.907
470.34	34.035
470.68	34.792
471.03	35.887
471.38	35.186
471.73	34.980
472.08	35.406
472.43	35.039
472.78	35.202
473.13	35.082
473.48	35.891
473.83	35.810
474.17	35.053
474.52	35.719
474.87	34.773
475.22	35.775
475.57	34.735
475.92	35.241
476.27	36.315
476.61	35.826
476.96	35.923
477.31	35.347
477.66	37.146
478.01	36.045
478.36	35.494
478.70	35.961
479.05	36.656
479.40	36.624
479.75	36.695
480.10	36.191
480.45	36.418
480.79	35.964
481.14	36.581
481.49	36.165
481.84	36.684
482.19	37.075
482.53	36.380
482.88	37.794
483.23	36.639
483.58	36.332
483.92	35.771
484.27	36.791
484.62	35.726
484.97	36.198
485.31	35.164
485.66	33.081
486.01	33.019
486.36	34.333
486.70	36.898
487.05	38.352
487.40	38.263
487.75	37.812
488.09	37.532
488.44	36.221
488.79	36.358
489.13	35.554
489.48	37.087
489.83	35.815
490.17	36.412
490.52	36.535
490.87	36.760
491.22	37.045
491.56	37.244
491.91	36.459
492.26	36.910
492.60	36.686
492.95	36.771
493.30	37.158
493.64	36.881
493.99	37.895
494.34	36.629
494.68	36.660
495.03	37.401
495.37	37.062
495.72	36.961
496.07	36.854
496.41	36.765
496.76	37.740
497.11	37.452
497.45	38.066
497.80	37.450
498.14	38.141
498.49	37.868
498.84	37.751
499.18	36.977
499.53	37.937
499.87	37.890
500.22	37.711
500.56	37.877
500.91	37.162
501.26	38.091
501.60	38.003
501.95	37.212
502.29	38.306
502.64	38.610
502.98	37.101
503.33	37.495
503.67	37.244
504.02	37.434
504.36	38.919
504.71	38.907
505.06	38.336
505.40	38.026
505.75	38.115
506.09	38.536
506.44	38.301
506.78	39.679
507.13	39.096
507.47	38.749
507.82	38.494
508.16	38.289
508.51	38.115
508.85	38.781
509.19	38.465
509.54	38.761
509.88	38.757
510.23	39.437
510.57	39.439
510.92	38.703
511.26	38.865
511.61	37.373
511.95	38.555
512.30	39.586
512.64	37.681
512.98	38.069
513.33	40.121
513.67	39.266
514.02	39.908
514.36	39.591
514.70	39.844
515.05	40.615
515.39	40.262
515.74	40.880
516.08	40.306
516.42	40.136
516.77	40.431
517.11	39.608
517.46	40.403
517.80	40.620
518.14	40.588
518.49	39.751
518.83	39.276
519.17	39.634
519.52	41.038
519.86	38.912
520.20	40.415
520.55	40.471
520.89	40.935
521.23	39.810
521.58	41.073
521.92	41.473
522.26	39.805
522.61	39.815
522.95	40.600
523.29	40.230
523.64	39.910
523.98	41.529
524.32	41.261
524.66	40.694
525.01	39.468
525.35	40.207
525.69	41.357
526.04	40.815
526.38	40.690
526.72	40.254
527.06	40.938
527.41	41.399
527.75	41.093
528.09	41.381
528.43	40.438
528.78	39.249
529.12	40.596
529.46	39.292
529.80	41.304
530.15	41.043
530.49	40.807
530.83	40.378
531.17	40.562
531.51	40.674
531.86	41.767
532.20	41.951
532.54	40.575
532.88	40.606
533.22	40.306
533.57	39.354
533.91	40.292
534.25	40.927
534.59	40.920
534.93	40.804
535.27	40.620
535.62	41.046
535.96	41.546
536.30	40.776
536.64	40.781
536.98	40.221
537.32	41.420
537.66	41.984
538.01	39.154
538.35	41.291
538.69	41.046
539.03	41.876
539.37	40.577
539.71	40.661
540.05	39.688
540.39	40.770
540.73	39.709
541.07	41.754
541.42	40.047
541.76	40.154
542.10	40.410
542.44	39.464
542.78	40.815
543.12	40.822
543.46	39.927
543.80	37.950
544.14	39.617
544.48	40.662
544.82	41.053
545.16	40.310
545.50	41.043
545.84	40.539
546.18	41.296
546.52	42.102
546.86	40.692
547.20	41.158
547.54	40.949
547.88	40.567
548.22	41.170
548.56	40.667
548.90	41.970
549.24	39.939
549.58	41.451
549.92	40.753
550.26	40.583
550.60	41.608
550.94	42.626
551.28	41.452
551.62	41.981
551.96	40.065
552.30	40.408
552.64	40.261
552.98	41.485
553.32	41.350
553.66	41.093
554.00	41.866
554.34	42.021
554.68	40.671
555.02	40.670
555.36	42.341
555.69	41.063
556.03	40.668
556.37	42.804
556.71	42.295
557.05	41.661
557.39	42.402
557.73	40.819
558.07	41.126
558.41	42.525
558.75	41.988
559.08	41.614
559.42	41.015
559.76	42.537
560.10	42.398
560.44	42.282
560.78	41.875
561.12	42.057
561.45	41.727
561.79	42.063
562.13	43.068
562.47	40.691
562.81	42.152
563.15	43.182
563.48	41.889
563.82	42.563
564.16	41.490
564.50	41.299
564.84	41.121
565.17	42.118
565.51	40.794
565.85	42.458
566.19	41.071
566.52	41.077
566.86	41.483
567.20	41.001
567.54	41.954
567.88	42.508
568.21	41.551
568.55	40.432
568.89	41.489
569.23	40.938
569.56	40.758
569.90	40.378
570.24	40.169
570.57	39.609
570.91	39.406
571.25	39.861
571.59	39.326
571.92	39.312
572.26	39.121
572.60	39.312
572.93	39.048
573.27	39.421
573.61	39.121
573.95	39.281
574.28	38.893
574.62	38.654
574.96	38.311
575.29	38.445
575.63	38.231
575.97	38.611
576.30	38.786
576.64	38.440
576.98	37.836
577.31	37.976
577.65	38.444
577.98	38.272
578.32	38.536
578.66	38.485
578.99	38.685
579.33	39.395
579.67	38.917
580.00	38.323
580.34	38.591
580.67	38.394
581.01	38.468
581.35	37.970
581.68	38.012
582.02	38.274
582.35	39.132
582.69	39.583
583.02	39.955
583.36	39.269
583.70	39.923
584.03	39.381
584.37	39.620
584.70	38.460
585.04	39.014
585.37	38.268
585.71	39.029
586.04	38.639
586.38	39.624
586.72	39.809
587.05	39.754
587.39	39.317
587.72	39.904
588.06	39.724
588.39	39.258
588.73	39.630
589.06	40.181
589.40	40.934
589.73	40.488
590.07	40.351
590.40	40.568
590.73	40.332
591.07	41.586
591.40	40.630
591.74	40.103
592.07	41.454
592.41	41.640
592.74	40.575
593.08	40.955
593.41	40.478
593.75	39.655
594.08	40.745
594.41	41.474
594.75	40.551
595.08	40.646
595.42	40.779
595.75	40.685
596.09	41.342
596.42	40.917
596.75	41.220
597.09	42.020
597.42	41.200
597.75	40.337
598.09	42.143
598.42	41.697
598.76	41.039
599.09	40.584
599.42	40.127
599.76	40.740
600.09	40.107
600.42	41.308
600.76	40.423
601.09	40.259
601.42	40.989
601.76	40.724
602.09	41.637
602.42	40.131
602.76	40.738
603.09	41.630
603.42	40.318
603.76	40.698
604.09	41.767
604.42	41.468
604.76	41.210
605.09	42.321
605.42	41.467
605.75	41.615
606.09	41.247
606.42	40.131
606.75	40.780
607.09	39.977
607.42	41.426
607.75	41.462
608.08	41.042
608.42	41.798
608.75	41.708
609.08	41.129
609.41	42.479
609.75	42.232
610.08	42.788
610.41	40.952
610.74	41.513
611.07	41.874
611.41	42.197
611.74	43.095
612.07	41.608
612.40	42.348
612.73	42.983
613.07	42.005
613.40	42.541
613.73	42.561
614.06	42.787
614.39	41.448
614.72	43.037
615.06	41.675
615.39	40.744
615.72	42.701
616.05	42.351
616.38	43.794
616.71	43.260
617.05	42.918
617.38	41.948
617.71	43.413
618.04	42.742
618.37	43.934
618.70	43.439
619.03	43.548
619.36	43.650
619.69	42.921
620.03	43.566
620.36	44.601
620.69	44.355
621.02	44.160
621.35	45.864
621.68	45.119
622.01	44.555
622.34	44.700
622.67	44.674
623.00	43.117
623.33	45.322
623.66	45.525
623.99	44.766
624.32	46.134
624.65	42.600
624.99	43.693
625.32	44.938
625.65	45.111
625.98	43.593
626.31	45.571
626.64	44.689
626.97	44.261
627.30	44.799
627.63	44.936
627.96	46.847
628.29	45.292
628.62	45.928
628.95	48.028
629.28	45.200
629.61	45.707
629.94	45.607
630.26	44.915
630.59	45.855
630.92	45.801
631.25	46.333
631.58	47.834
631.91	46.860
632.24	47.358
632.57	45.731
632.90	46.841
633.23	47.755
633.56	47.959
633.89	46.178
634.22	48.129
634.55	47.182
634.88	48.485
635.20	49.193
635.53	50.282
635.86	46.912
636.19	48.462
636.52	47.257
636.85	47.293
637.18	46.362
637.51	46.989
637.83	49.280
638.16	48.618
638.49	48.709
638.82	49.267
639.15	47.308
639.48	48.961
639.81	46.189
640.13	46.643
640.46	46.424
640.79	50.368
641.12	48.323
641.45	47.428
641.77	50.064
642.10	48.425
642.43	49.202
642.76	50.949
643.09	48.904
643.41	50.280
643.74	48.966
644.07	47.586
644.40	48.656
644.73	49.927
645.05	49.780
645.38	51.799
645.71	50.000
646.04	51.220
646.36	47.299
646.69	50.153
647.02	50.765
647.35	51.298
647.67	52.174
648.00	50.637
648.33	50.150
648.66	49.501
648.98	46.803
649.31	48.173
649.64	48.871
649.96	47.480
650.29	45.341
650.62	48.232
650.94	48.799
651.27	48.503
651.60	46.930
651.92	49.848
652.25	48.046
652.58	47.043
652.90	47.384
653.23	48.873
653.56	47.076
653.88	51.545
654.21	47.887
654.54	46.676
654.86	49.292
655.19	45.169
655.52	47.566
655.84	44.578
656.17	48.130
656.49	66.599
656.82	71.503
657.15	57.138
657.47	44.254
657.80	33.036
658.13	26.088
658.45	33.874
658.78	40.652
659.10	38.923
659.43	37.104
659.75	36.684
660.08	35.238
660.41	36.559
660.73	38.997
661.06	43.612
661.38	47.528
661.71	48.621
662.03	50.265
662.36	49.016
662.68	49.906
663.01	47.434
663.33	50.662
663.66	49.084
663.98	52.500
664.31	50.281
664.63	47.399
664.96	47.550
665.28	49.002
665.61	51.049
665.93	48.750
666.26	46.416
666.58	46.125
666.91	51.776
667.23	49.333
667.56	48.323
667.88	51.800
668.21	48.633
668.53	43.822
668.86	49.705
669.18	51.527
669.50	52.485
669.83	48.200
670.15	51.575
670.48	47.024
670.80	49.522
671.13	47.448
671.45	49.606
671.77	50.471
672.10	47.667
672.42	47.087
672.75	45.315
673.07	46.716
673.39	45.609
673.72	48.490
674.04	48.621
674.37	47.585
674.69	47.090
675.01	48.762
675.34	47.519
675.66	45.318
675.98	47.761
676.31	48.828
676.63	49.430
676.95	50.575
677.28	47.984
677.60	48.425
677.92	50.096
678.25	49.177
678.57	50.356
678.89	48.464
679.22	44.425
679.54	45.641
679.86	45.424
680.18	46.269
680.51	47.956
680.83	45.499
681.15	48.621
681.48	48.877
681.80	47.150
682.12	46.678
682.44	46.077
682.77	48.227
683.09	48.485
683.41	48.450
683.73	49.146
684.06	44.834
684.38	44.723
684.70	50.269
685.02	46.299
685.34	47.255
685.67	44.953
685.99	46.472
686.31	44.477
686.63	45.182
686.96	44.637
687.28	46.091
687.60	45.960
687.92	43.891
688.24	46.411
688.56	42.759
688.89	44.283
689.21	48.337
689.53	44.118
689.85	48.126
690.17	43.704
690.49	46.614
690.82	45.347
691.14	45.951
691.46	46.845
691.78	46.961
692.10	43.670
692.42	41.429
692.74	46.642
693.06	43.519
693.39	47.059
693.71	45.677
694.03	44.796
694.35	46.286
694.67	44.148
694.99	46.383
695.31	45.916
695.63	46.320
695.95	42.650
696.27	46.374
696.59	46.460
696.91	43.694
697.23	48.352
697.56	45.418
697.88	46.591
698.20	45.009
698.52	47.348
698.84	44.491
699.16	47.347
699.48	44.142
699.80	42.340
700.12	44.978
700.44	47.235
700.76	46.081
701.08	43.341
701.40	48.964
701.72	48.507
702.04	48.396
702.36	44.503
702.68	43.765
703.00	45.477
703.32	40.887
703.64	46.210
703.96	44.630
704.28	43.489
704.60	46.329
704.91	41.582
705.23	45.753
705.55	46.797
705.87	47.879
706.19	47.853
706.51	40.060
706.83	47.262
707.15	44.709
707.47	44.393
707.79	43.013
708.11	39.195
708.43	43.441
708.74	42.411
709.06	40.139
709.38	44.836
709.70	45.906
710.02	45.478
710.34	44.149
710.66	41.341
710.98	46.995
711.29	43.681
711.61	41.808
711.93	41.880
712.25	40.270
712.57	47.493
712.89	42.941
713.20	46.746
713.52	43.064
713.84	44.568
714.16	42.632
714.48	41.495
714.80	43.896
715.11	42.782
715.43	41.645
715.75	44.211
716.07	39.779
716.39	42.350
716.70	40.361
717.02	45.902
717.34	42.857
717.66	45.638
717.97	40.068
718.29	42.955
718.61	40.132
718.93	44.337
719.24	42.547
719.56	44.172
719.88	38.739
720.20	46.452
720.51	41.925
720.83	38.750
721.15	39.803
721.46	40.753
721.78	41.333
722.10	44.013
722.42	41.275
722.73	39.032
723.05	44.912
723.37	42.014
723.68	40.860
724.00	41.516
724.32	39.085
724.63	43.357
724.95	45.390
725.27	35.540
725.58	38.163
725.90	42.414
726.22	38.558
726.53	40.909
726.85	39.308
727.16	40.483
727.48	43.119
727.80	42.715
728.11	38.516
728.43	42.424
728.74	39.465
729.06	37.417
729.38	38.961
729.69	38.926
730.01	37.202
730.32	35.758
730.64	45.912
730.96	40.373
731.27	41.341
731.59	42.033
731.90	36.623
732.22	36.979
732.53	33.702
732.85	41.143
733.16	40.469
733.48	39.634
733.80	38.997
734.11	37.037
734.43	40.541
734.74	43.544
735.06	38.442
735.37	40.000
735.69	37.838
736.00	40.113
736.32	36.388
736.63	37.222
736.95	40.230
737.26	42.727
737.58	37.576
737.89	39.706
738.21	36.697
738.52	38.033
738.83	39.932
739.15	39.007
739.46	43.197
739.78	40.798
740.09	34.957
740.41	39.650
740.72	39.333
741.04	39.482
741.35	38.947
741.66	41.961
741.98	43.443
742.29	43.096
742.61	42.105
742.92	36.923
743.23	38.267
743.55	39.535
743.86	41.600
744.18	34.711
744.49	35.865
744.80	39.095
745.12	37.975
745.43	44.309
745.74	42.241
746.06	39.831
746.37	38.397
746.68	42.276
747.00	34.167
747.31	41.202
747.62	36.154
747.94	38.866
748.25	38.956
748.56	35.102
748.88	40.171
749.19	42.241
749.50	37.662
749.82	43.775
750.13	39.502
750.44	37.667
750.75	35.692
751.07	39.692
751.38	37.224
751.69	36.741
752.01	36.570
752.32	34.641
752.63	38.095
752.94	40.830
753.26	34.572
753.57	38.889
753.88	37.453
754.19	39.871
754.51	38.264
754.82	36.656
755.13	37.705
755.44	40.956
755.75	41.776
756.07	41.194
756.38	34.906
756.69	39.157
757.00	34.349
757.31	36.339
757.63	34.783
757.94	34.507
758.25	36.343
758.56	33.551
758.87	31.818
759.18	36.533
759.50	37.960
759.81	37.815
760.12	34.501
760.43	39.323
760.74	35.714
761.05	36.000
761.36	34.458
761.67	29.949
761.99	33.784
762.30	38.415
762.61	35.644
762.92	32.463
763.23	37.079
763.54	37.050
763.85	35.739
764.16	34.343
764.47	34.507
764.78	40.256
765.10	36.364
765.41	39.487
765.72	33.069
766.03	36.158
766.34	33.856
766.65	32.404
766.96	33.466
767.27	36.406
767.58	31.343
767.89	35.577
768.20	30.516
768.51	35.185
768.82	33.333
769.13	29.924
769.44	28.462
769.75	34.296
770.06	31.538
770.37	40.551
770.68	28.936
770.99	22.672
771.30	40.000
771.61	34.981
771.92	30.741
772.23	30.769
772.54	25.000
772.85	33.641
773.16	32.857
773.47	26.984
773.78	25.405
774.09	28.977
774.39	31.500
774.70	26.776
775.01	29.268
775.32	25.882
775.63	30.675
775.94	27.389
776.25	32.903
776.56	25.641
776.87	27.211
777.18	25.517
777.48	24.476
777.79	24.324
778.10	19.853
778.41	29.861
778.72	28.276
779.03	23.457
779.34	23.636
779.65	19.689
779.95	30.556
780.26	25.000
780.57	28.387
780.88	26.087
781.19	22.581
781.50	32.353
781.80	28.495
782.11	32.275
782.42	24.242
782.73	21.557
783.04	22.905
783.34	19.394
783.65	23.529
783.96	24.224
784.27	23.810
784.57	17.881
784.88	25.000
785.19	19.685
785.50	21.260
785.81	21.805
786.11	20.769
786.42	15.108
786.73	19.424
787.04	20.301
787.34	16.393
787.65	10.400
787.96	18.657
788.26	28.671
788.57	21.678
788.88	26.974
789.19	28.105
789.49	21.233
789.80	25.532
790.11	22.047
790.41	16.406
790.72	12.712
791.03	13.592
791.33	16.522
791.64	16.667
791.95	10.714
792.25	13.333
792.56	8.929
792.87	0.000
793.17	10.714
793.48	7.292
793.79	-7.229
794.09	14.679
794.40	18.349
794.70	14.286
795.01	18.831
795.32	21.918
795.62	14.085
795.93	10.606
796.23	9.836
796.54	8.929
796.85	-2.128
797.15	5.435
797.46	4.110
797.76	-1.250
798.07	6.522
798.37	1.031
798.68	-10.390
798.99	-1.149
799.29	3.371
799.60	8.511
799.90	12.048
800.21	-1.538
800.51	-1.493
800.82	-20.588
801.12	-6.849
801.43	-13.235
801.73	-1.695
802.04	-15.152
802.34	-16.667
802.65	-3.390
802.95	-1.493
803.26	3.390
803.56	0.000
803.87	10.000
804.17	15.068
804.48	-12.281
804.78	-6.944
805.09	-31.034
805.39	-6.757
805.70	-15.493
806.00	-1.220
806.30	-8.434
806.61	1.370
806.91	8.654
807.22	-4.444
807.52	-8.046
807.83	-8.333
808.13	-3.614
808.43	-10.112
808.74	1.250
809.04	-16.176
809.35	5.333
809.65	-11.429
809.95	-10.959
810.26	-43.860
810.56	-32.759
810.86	4.412
811.17	-14.035
811.47	-18.033
811.77	-26.667
812.08	-11.864
812.38	-13.333
812.69	-8.621
812.99	-28.302
813.29	-66.667
813.59	-16.000
813.90	-21.053
814.20	-21.818
814.50	-2.817
814.81	-11.538
815.11	-19.672
815.41	-20.896
815.72	-5.172
816.02	-28.571
816.32	-2.222
816.62	-29.545
816.93	-28.889
817.23	-16.667
817.53	-27.660
817.84	-26.190
818.14	-61.765
818.44	-20.408
818.74	-37.778
819.04	-61.538
819.35	-85.714
819.65	-123.077
819.95	-37.736
820.25	-20.000
820.56	-45.238
820.86	-62.500
821.16	-71.795
821.46	-48.837
821.76	-42.000
822.07	-17.857
822.37	-63.043
822.67	-42.553
822.97	-62.162
823.27	-57.500
823.57	-34.694
823.88	-37.778
824.18	-42.500
824.48	-53.333
824.78	-76.000
825.08	-69.697
825.38	-24.444
825.69	-31.915
825.99	-27.778
826.29	-100.000
826.59	-61.538
826.89	-58.140
827.19	-48.000
827.49	-82.353
827.79	-37.500
828.09	-108.108
828.39	-73.333
828.70	-70.732
829.00	-27.907
829.30	-78.571
829.60	-55.882
829.90	-54.348
830.20	-68.571
830.50	-110.345
830.80	-155.556
831.10	-84.615
831.40	-58.824
831.70	-142.857
832.00	-67.742
832.30	-194.118
832.60	-145.833
832.90	-292.308
833.20	-136.842
833.50	-140.000
833.80	-126.316
834.10	-152.381
834.40	-61.111
834.70	-62.500
835.00	-97.143
835.30	-70.588
835.60	-96.667
835.90	-100.000
836.20	-159.091
836.50	-64.000
836.80	-100.000
837.10	-107.407
837.40	-92.593
837.70	-181.250
838.00	-92.857
838.30	-169.565
838.60	-93.103
838.90	-250.000
839.19	-160.870
839.49	-266.667
839.79	-104.348
840.09	-181.250
840.39	-155.000
840.69	-77.419
840.99	-117.857
841.29	-213.333
841.59	-168.421
841.88	-25.641
842.18	-92.308
842.48	-360.000
842.78	-175.000
843.08	-90.000
843.38	-67.742
843.68	-244.444
843.97	-64.706
844.27	-131.250
844.57	-184.211
844.87	-370.000
845.17	-173.333
845.47	-90.476
845.76	-133.333
846.06	-333.333
846.36	-217.647
846.66	-119.231
846.96	-220.000
847.25	-200.000
847.55	-117.391
847.85	-120.000
848.15	-164.706
848.44	-236.364
848.74	-119.048
849.04	-145.833
849.34	-256.250
849.63	-117.391
849.93	1850.000
850.23	-180.000
850.53	-107.692
850.82	-345.455
851.12	-136.364
851.42	-427.273
851.71	-261.538
852.01	-185.000
852.31	-192.308
852.61	-157.895
852.90	-250.000
853.20	-166.667
853.50	-400.000
853.79	-123.810
854.09	-131.818
854.39	-358.333
854.68	-70.968
854.98	-103.846
855.28	-177.778
855.57	-103.571
855.87	-132.000
856.17	-163.636
856.46	-111.111
856.76	-233.333
857.05	-117.391
857.35	-158.333
857.65	-269.231
857.94	-95.238
858.24	-77.778
858.53	-139.130
858.83	-176.471
859.13	-188.235
859.42	-176.471
859.72	-207.143
860.01	-185.000
860.31	-355.556
860.60	-420.000
860.90	-226.667
861.20	-194.444
861.49	-207.692
861.79	-110.000
862.08	-261.538
862.38	-56.250
862.67	-152.941
862.97	-225.000
863.26	-455.556
863.56	-300.000
863.85	-309.091
864.15	-177.778
864.44	-1166.667
864.74	-214.286
865.03	-212.500
865.33	-420.000
865.62	-119.355
865.92	-127.273
866.21	-134.783
866.51	-250.000
866.80	-800.000
867.10	-316.667
867.39	-350.000
867.69	5000.000
867.98	-528.571
868.27	-223.529
868.57	-4900.000
868.86	-410.000
869.16	-166.667
869.45	-104.167
869.75	-309.091
870.04	-485.714
870.33	-283.333
870.63	-628.571
870.92	-1050.000
871.22	-662.500
871.51	-354.545
871.80	-1666.667
872.10	-2400.000
>>>>>End Processed Spectral Data<<<<<
