SpectraSuite Data File
++++++++++++++++++++++++++++++++++++
Date: Thu May 14 14:49:14 PDT 2015
User: schluterlab
Dark Spectrum Present: Yes
Reference Spectrum Present: Yes
Number of Sampled Component Spectra: 1
Spectrometers: USB2E3373
Integration Time (usec): 3000 (USB2E3373)
Spectra Averaged: 3 (USB2E3373)
Boxcar Smoothing: 0 (USB2E3373)
Correct for Electrical Dark: No (USB2E3373)
Strobe/Lamp Enabled: No (USB2E3373)
Correct for Detector Non-linearity: No (USB2E3373)
Correct for Stray Light: No (USB2E3373)
Number of Pixels in Processed Spectrum: 2048
>>>>>Begin Processed Spectral Data<<<<<
178.53	0.000
178.91	71.429
179.29	-1800.000
179.67	-500.000
180.04	185.714
180.42	120.000
180.80	180.000
181.18	-600.000
181.56	0.000
181.94	75.000
182.31	-200.000
182.69	233.333
183.07	-100.000
183.45	225.000
183.83	33.333
184.20	-100.000
184.58	800.000
184.96	-375.000
185.34	-122.222
185.72	140.000
186.09	66.667
186.47	750.000
186.85	280.000
187.23	-77.778
187.61	-900.000
187.98	40.000
188.36	200.000
188.74	-150.000
189.12	-66.667
189.49	37.500
189.87	37.500
190.25	0.000
190.63	-180.000
191.00	-188.889
191.38	0.000
191.76	-475.000
192.14	-66.667
192.51	100.000
192.89	83.333
193.27	0.000
193.65	-85.714
194.02	-1000.000
194.40	-14.286
194.78	200.000
195.15	0.000
195.53	63.636
195.91	0.000
196.29	50.000
196.66	15.385
197.04	-1500.000
197.42	-114.286
197.79	-200.000
198.17	-125.000
198.55	-100.000
198.92	111.111
199.30	-112.500
199.68	-54.545
200.05	50.000
200.43	-400.000
200.81	171.429
201.18	0.000
201.56	188.889
201.94	0.000
202.31	266.667
202.69	-11.111
203.07	300.000
203.44	-33.333
203.82	-150.000
204.19	-8.333
204.57	-200.000
204.95	-25.000
205.32	-300.000
205.70	225.000
206.08	-133.333
206.45	66.667
206.83	240.000
207.20	-150.000
207.58	-300.000
207.96	-116.667
208.33	33.333
208.71	158.333
209.08	83.333
209.46	0.000
209.84	183.333
210.21	50.000
210.59	150.000
210.96	433.333
211.34	-175.000
211.71	-150.000
212.09	-1400.000
212.46	0.000
212.84	800.000
213.22	-220.000
213.59	-125.000
213.97	-20.000
214.34	-166.667
214.72	-50.000
215.09	-150.000
215.47	0.000
215.84	142.857
216.22	500.000
216.59	-80.000
216.97	-240.000
217.34	-100.000
217.72	112.500
218.09	-225.000
218.47	-175.000
218.84	0.000
219.22	40.000
219.59	23.529
219.97	10.000
220.34	50.000
220.72	-11.111
221.09	69.231
221.47	-66.667
221.84	-80.000
222.22	-42.857
222.59	0.000
222.97	100.000
223.34	-20.000
223.72	-600.000
224.09	-100.000
224.46	-175.000
224.84	40.000
225.21	-114.286
225.59	-300.000
225.96	25.000
226.34	50.000
226.71	183.333
227.08	-350.000
227.46	13.333
227.83	0.000
228.21	42.105
228.58	-50.000
228.95	350.000
229.33	66.667
229.70	60.000
230.08	36.842
230.45	100.000
230.82	-166.667
231.20	-42.857
231.57	-33.333
231.95	9.091
232.32	0.000
232.69	45.000
233.07	-125.000
233.44	-11.765
233.81	-50.000
234.19	-5.556
234.56	31.818
234.93	-20.690
235.31	-10.526
235.68	50.000
236.05	-10.000
236.43	50.000
236.80	32.000
237.17	22.222
237.55	0.000
237.92	-10.000
238.29	22.581
238.67	11.364
239.04	11.111
239.41	19.048
239.79	23.913
240.16	27.778
240.53	8.696
240.91	13.725
241.28	18.033
241.65	29.851
242.02	22.973
242.40	21.538
242.77	21.333
243.14	8.537
243.51	10.526
243.89	2.564
244.26	19.802
244.63	21.569
245.00	21.495
245.38	13.158
245.75	11.504
246.12	23.016
246.49	23.256
246.87	21.429
247.24	23.179
247.61	23.684
247.98	24.832
248.36	22.222
248.73	19.018
249.10	11.475
249.47	26.368
249.84	24.607
250.22	21.762
250.59	23.889
250.96	20.455
251.33	20.408
251.70	23.932
252.08	19.167
252.45	19.672
252.82	16.942
253.19	21.094
253.56	25.856
253.94	18.462
254.31	24.242
254.68	23.427
255.05	22.476
255.42	18.027
255.79	20.712
256.16	22.517
256.54	18.543
256.91	24.262
257.28	21.639
257.65	20.382
258.02	16.814
258.39	20.798
258.76	24.465
259.14	22.414
259.51	21.902
259.88	22.946
260.25	20.556
260.62	21.370
260.99	24.590
261.36	23.324
261.73	23.077
262.10	20.879
262.47	20.107
262.85	23.737
263.22	19.740
263.59	16.316
263.96	21.739
264.33	19.182
264.70	21.975
265.07	22.673
265.44	21.542
265.81	19.907
266.18	22.449
266.55	23.884
266.92	22.779
267.29	22.757
267.66	18.847
268.03	20.524
268.40	21.712
268.77	19.590
269.14	20.264
269.51	20.614
269.88	20.492
270.25	22.334
270.62	21.097
270.99	23.636
271.36	21.584
271.73	21.022
272.10	23.647
272.47	20.641
272.84	21.486
273.21	19.439
273.58	21.774
273.95	20.577
274.32	20.532
274.69	19.923
275.06	20.513
275.43	19.963
275.80	22.751
276.17	20.000
276.54	20.896
276.91	18.605
277.28	20.976
277.65	21.185
278.02	23.529
278.39	21.377
278.76	19.684
279.13	21.099
279.50	23.024
279.87	19.141
280.23	19.014
280.60	22.373
280.97	20.230
281.34	19.015
281.71	22.335
282.08	20.100
282.45	20.295
282.82	19.937
283.19	18.255
283.56	18.689
283.92	20.420
284.29	21.169
284.66	20.361
285.03	16.667
285.40	21.020
285.77	21.053
286.14	21.374
286.51	21.005
286.87	17.694
287.24	19.277
287.61	17.788
287.98	19.789
288.35	19.083
288.72	19.970
289.08	20.205
289.45	17.308
289.82	19.428
290.19	20.402
290.56	20.141
290.93	19.686
291.29	17.906
291.66	18.044
292.03	16.418
292.40	20.272
292.77	16.846
293.13	18.539
293.50	17.083
293.87	17.315
294.24	18.400
294.60	18.331
294.97	17.450
295.34	16.389
295.71	15.006
296.08	15.633
296.44	16.667
296.81	16.322
297.18	16.314
297.55	15.684
297.91	15.540
298.28	15.166
298.65	16.409
299.02	16.293
299.38	17.277
299.75	15.537
300.12	16.319
300.48	16.935
300.85	16.085
301.22	17.450
301.59	15.868
301.95	14.124
302.32	15.333
302.69	15.444
303.05	15.887
303.42	15.854
303.79	15.729
304.15	16.193
304.52	15.645
304.89	16.230
305.25	16.046
305.62	14.943
305.99	16.186
306.35	15.020
306.72	14.995
307.09	14.213
307.45	15.010
307.82	16.044
308.19	16.347
308.55	15.526
308.92	14.508
309.29	14.847
309.65	16.569
310.02	14.455
310.38	14.961
310.75	15.243
311.12	16.587
311.48	15.738
311.85	15.385
312.22	15.180
312.58	15.493
312.95	14.914
313.31	15.628
313.68	15.385
314.05	16.712
314.41	15.574
314.78	16.349
315.14	16.697
315.51	15.974
315.87	16.922
316.24	16.712
316.61	17.673
316.97	17.014
317.34	16.843
317.70	18.253
318.07	18.607
318.43	17.432
318.80	19.231
319.16	17.425
319.53	17.224
319.89	17.616
320.26	18.772
320.62	17.021
320.99	18.652
321.35	18.299
321.72	20.651
322.08	19.297
322.45	21.138
322.81	20.758
323.18	20.442
323.54	22.328
323.91	21.797
324.27	21.256
324.64	21.914
325.00	21.891
325.37	23.669
325.73	23.058
326.10	24.169
326.46	25.407
326.83	24.900
327.19	24.488
327.56	26.166
327.92	25.334
328.29	25.242
328.65	26.047
329.01	26.311
329.38	28.644
329.74	27.740
330.11	28.510
330.47	28.138
330.84	28.768
331.20	30.500
331.56	30.069
331.93	30.209
332.29	29.661
332.66	30.482
333.02	29.732
333.38	30.117
333.75	30.808
334.11	30.776
334.48	31.023
334.84	31.776
335.20	31.402
335.57	31.535
335.93	31.901
336.29	30.283
336.66	32.128
337.02	31.856
337.38	32.398
337.75	31.322
338.11	31.371
338.47	31.100
338.84	31.726
339.20	31.676
339.56	31.549
339.93	31.363
340.29	31.804
340.65	31.468
341.02	32.003
341.38	33.226
341.74	32.123
342.11	32.582
342.47	30.739
342.83	33.092
343.20	33.442
343.56	31.836
343.92	33.787
344.28	31.641
344.65	31.395
345.01	31.981
345.37	32.426
345.73	31.800
346.10	31.825
346.46	32.358
346.82	32.135
347.19	33.995
347.55	33.005
347.91	31.501
348.27	32.322
348.63	32.445
349.00	32.737
349.36	32.639
349.72	31.920
350.08	32.467
350.45	34.068
350.81	31.825
351.17	32.406
351.53	33.889
351.89	33.789
352.26	32.015
352.62	32.612
352.98	32.901
353.34	32.562
353.70	33.205
354.07	33.607
354.43	33.030
354.79	32.610
355.15	32.303
355.51	33.553
355.87	33.134
356.24	34.905
356.60	33.333
356.96	33.284
357.32	33.011
357.68	32.504
358.04	32.784
358.40	33.582
358.77	32.968
359.13	33.604
359.49	32.788
359.85	34.300
360.21	34.362
360.57	34.243
360.93	33.921
361.29	34.105
361.66	33.599
362.02	34.586
362.38	33.942
362.74	34.427
363.10	34.938
363.46	34.488
363.82	34.020
364.18	35.327
364.54	34.163
364.90	34.783
365.26	35.034
365.62	35.333
365.98	35.466
366.35	34.295
366.71	34.490
367.07	34.980
367.43	34.865
367.79	34.771
368.15	35.518
368.51	36.265
368.87	34.683
369.23	35.267
369.59	35.246
369.95	35.565
370.31	35.517
370.67	36.314
371.03	35.180
371.39	35.124
371.75	36.039
372.11	35.501
372.47	36.019
372.83	37.631
373.19	36.024
373.55	36.111
373.91	35.787
374.27	35.770
374.63	37.618
374.99	37.202
375.35	36.299
375.71	37.355
376.07	36.862
376.42	38.098
376.78	37.539
377.14	36.681
377.50	37.508
377.86	37.931
378.22	38.563
378.58	38.585
378.94	37.852
379.30	37.786
379.66	38.683
380.02	38.892
380.38	39.631
380.74	39.718
381.09	39.663
381.45	39.091
381.81	39.930
382.17	38.955
382.53	40.234
382.89	40.688
383.25	40.797
383.61	39.873
383.97	40.695
384.32	40.849
384.68	40.081
385.04	41.238
385.40	41.014
385.76	41.735
386.12	40.874
386.48	41.235
386.83	43.087
387.19	41.425
387.55	41.667
387.91	41.781
388.27	41.917
388.62	42.440
388.98	42.245
389.34	42.781
389.70	43.405
390.06	42.866
390.42	42.771
390.77	43.167
391.13	42.488
391.49	44.505
391.85	42.788
392.20	42.823
392.56	43.237
392.92	43.621
393.28	43.615
393.64	43.352
393.99	44.451
394.35	45.386
394.71	45.449
395.07	43.413
395.42	43.746
395.78	44.607
396.14	45.098
396.50	44.656
396.85	44.246
397.21	44.497
397.57	44.523
397.92	45.590
398.28	42.803
398.64	43.078
399.00	42.723
399.35	43.455
399.71	43.641
400.07	45.199
400.42	44.354
400.78	44.387
401.14	44.166
401.49	44.684
401.85	45.233
402.21	44.844
402.57	44.660
402.92	45.154
403.28	42.564
403.63	44.630
403.99	44.774
404.35	43.547
404.70	43.853
405.06	43.641
405.42	45.082
405.77	45.638
406.13	44.949
406.49	44.482
406.84	44.155
407.20	44.774
407.55	44.640
407.91	44.312
408.27	43.581
408.62	45.201
408.98	43.935
409.34	43.930
409.69	44.994
410.05	44.900
410.40	44.258
410.76	44.868
411.11	45.178
411.47	44.656
411.83	44.621
412.18	45.723
412.54	45.643
412.89	43.888
413.25	43.623
413.60	46.065
413.96	45.396
414.31	44.136
414.67	45.021
415.03	44.000
415.38	45.082
415.74	43.800
416.09	44.849
416.45	43.394
416.80	43.696
417.16	44.891
417.51	45.143
417.87	43.716
418.22	44.431
418.58	44.672
418.93	44.412
419.29	44.020
419.64	44.658
420.00	43.501
420.35	45.368
420.71	43.711
421.06	43.761
421.42	44.094
421.77	44.426
422.12	44.292
422.48	44.035
422.83	44.907
423.19	44.721
423.54	45.243
423.90	44.837
424.25	45.547
424.61	44.259
424.96	44.261
425.31	43.790
425.67	44.874
426.02	43.387
426.38	43.628
426.73	44.531
427.09	45.790
427.44	44.948
427.79	44.500
428.15	44.521
428.50	44.775
428.85	44.432
429.21	44.468
429.56	44.028
429.92	44.668
430.27	44.386
430.62	44.993
430.98	44.122
431.33	45.357
431.68	44.013
432.04	44.286
432.39	44.671
432.74	44.863
433.10	45.538
433.45	44.370
433.80	44.957
434.16	44.628
434.51	45.324
434.86	46.091
435.22	45.377
435.57	45.696
435.92	45.075
436.28	45.620
436.63	45.276
436.98	44.015
437.34	46.110
437.69	44.634
438.04	44.157
438.39	44.285
438.75	45.213
439.10	44.767
439.45	45.500
439.81	44.068
440.16	43.968
440.51	44.928
440.86	44.858
441.22	45.177
441.57	46.122
441.92	44.471
442.27	45.960
442.63	45.554
442.98	46.105
443.33	45.608
443.68	45.391
444.03	45.955
444.39	45.446
444.74	45.584
445.09	45.362
445.44	46.207
445.79	45.642
446.15	46.249
446.50	45.685
446.85	45.574
447.20	45.406
447.55	46.339
447.91	45.079
448.26	44.979
448.61	45.590
448.96	46.191
449.31	44.910
449.66	45.752
450.02	45.517
450.37	44.752
450.72	46.233
451.07	46.128
451.42	44.714
451.77	44.302
452.12	45.485
452.47	44.920
452.83	45.664
453.18	45.884
453.53	45.261
453.88	44.782
454.23	44.972
454.58	46.082
454.93	44.964
455.28	45.756
455.63	45.480
455.98	45.866
456.34	44.935
456.69	44.738
457.04	46.927
457.39	46.009
457.74	46.029
458.09	45.634
458.44	45.366
458.79	44.353
459.14	44.835
459.49	44.822
459.84	46.800
460.19	45.530
460.54	46.508
460.89	45.633
461.24	44.080
461.59	45.490
461.94	44.894
462.29	45.801
462.64	44.599
462.99	44.758
463.34	45.360
463.69	43.962
464.04	45.081
464.39	45.291
464.74	44.584
465.09	45.559
465.44	45.440
465.79	44.950
466.14	43.981
466.49	44.947
466.84	46.061
467.19	44.913
467.54	43.596
467.89	43.851
468.24	45.042
468.59	43.196
468.94	44.347
469.29	44.511
469.64	44.056
469.99	44.487
470.34	44.307
470.68	45.044
471.03	45.056
471.38	44.343
471.73	44.668
472.08	44.226
472.43	43.889
472.78	46.411
473.13	45.133
473.48	44.230
473.83	44.748
474.17	44.725
474.52	44.558
474.87	44.684
475.22	44.901
475.57	43.977
475.92	44.699
476.27	44.089
476.61	44.444
476.96	44.734
477.31	44.307
477.66	45.331
478.01	43.976
478.36	44.915
478.70	44.039
479.05	45.757
479.40	44.176
479.75	44.813
480.10	44.576
480.45	44.303
480.79	44.082
481.14	43.382
481.49	44.798
481.84	44.865
482.19	44.473
482.53	44.687
482.88	44.838
483.23	44.064
483.58	43.755
483.92	44.282
484.27	43.692
484.62	43.771
484.97	43.429
485.31	43.259
485.66	41.372
486.01	42.678
486.36	44.099
486.70	46.034
487.05	47.108
487.40	45.484
487.75	45.064
488.09	44.999
488.44	43.958
488.79	43.642
489.13	43.447
489.48	43.029
489.83	43.541
490.17	42.973
490.52	42.816
490.87	44.543
491.22	43.977
491.56	43.729
491.91	43.262
492.26	43.012
492.60	43.201
492.95	44.142
493.30	43.792
493.64	43.057
493.99	44.123
494.34	42.814
494.68	42.998
495.03	43.612
495.37	43.941
495.72	43.265
496.07	43.777
496.41	42.943
496.76	43.203
497.11	43.779
497.45	43.073
497.80	43.270
498.14	43.265
498.49	43.244
498.84	43.099
499.18	42.960
499.53	42.780
499.87	43.297
500.22	43.010
500.56	43.320
500.91	44.256
501.26	43.455
501.60	43.305
501.95	42.857
502.29	43.484
502.64	43.113
502.98	43.184
503.33	42.894
503.67	42.346
504.02	42.863
504.36	44.236
504.71	43.041
505.06	42.792
505.40	43.419
505.75	42.668
506.09	43.370
506.44	44.336
506.78	44.725
507.13	44.168
507.47	44.008
507.82	43.040
508.16	43.212
508.51	43.038
508.85	43.977
509.19	43.629
509.54	43.468
509.88	44.148
510.23	44.196
510.57	42.968
510.92	43.590
511.26	43.579
511.61	41.719
511.95	43.094
512.30	43.673
512.64	43.678
512.98	44.172
513.33	42.440
513.67	43.345
514.02	43.740
514.36	43.018
514.70	43.229
515.05	44.734
515.39	43.990
515.74	43.637
516.08	44.480
516.42	44.008
516.77	42.850
517.11	43.063
517.46	43.584
517.80	44.041
518.14	44.178
518.49	44.360
518.83	42.523
519.17	42.488
519.52	43.449
519.86	44.456
520.20	44.622
520.55	43.045
520.89	44.369
521.23	43.551
521.58	43.672
521.92	43.909
522.26	44.044
522.61	43.981
522.95	44.752
523.29	45.172
523.64	43.217
523.98	44.666
524.32	45.444
524.66	43.654
525.01	43.884
525.35	42.504
525.69	43.155
526.04	42.480
526.38	42.874
526.72	44.694
527.06	44.927
527.41	43.440
527.75	45.368
528.09	43.447
528.43	43.754
528.78	43.006
529.12	43.922
529.46	42.945
529.80	44.622
530.15	43.652
530.49	44.247
530.83	43.743
531.17	43.787
531.51	44.164
531.86	44.231
532.20	44.390
532.54	43.447
532.88	43.212
533.22	43.017
533.57	44.085
533.91	43.659
534.25	43.697
534.59	45.172
534.93	44.029
535.27	42.817
535.62	44.230
535.96	44.451
536.30	43.772
536.64	45.165
536.98	42.804
537.32	43.827
537.66	44.354
538.01	42.840
538.35	44.458
538.69	43.870
539.03	44.819
539.37	43.463
539.71	44.745
540.05	43.825
540.39	43.399
540.73	42.016
541.07	44.022
541.42	43.060
541.76	43.298
542.10	44.029
542.44	43.301
542.78	44.343
543.12	43.862
543.46	43.162
543.80	42.626
544.14	43.567
544.48	43.913
544.82	44.584
545.16	44.186
545.50	44.578
545.84	42.805
546.18	45.185
546.52	44.140
546.86	43.711
547.20	44.529
547.54	43.633
547.88	42.857
548.22	43.041
548.56	43.593
548.90	44.657
549.24	44.802
549.58	43.533
549.92	43.495
550.26	44.919
550.60	43.714
550.94	43.726
551.28	43.102
551.62	45.148
551.96	43.236
552.30	43.850
552.64	44.244
552.98	43.481
553.32	44.244
553.66	44.244
554.00	44.578
554.34	44.080
554.68	43.060
555.02	43.167
555.36	45.891
555.69	42.601
556.03	43.380
556.37	43.930
556.71	45.466
557.05	44.217
557.39	44.592
557.73	42.999
558.07	44.371
558.41	43.854
558.75	43.813
559.08	43.981
559.42	43.278
559.76	43.623
560.10	43.135
560.44	43.997
560.78	44.187
561.12	43.719
561.45	43.917
561.79	44.750
562.13	44.486
562.47	42.972
562.81	43.038
563.15	44.003
563.48	43.816
563.82	43.168
564.16	43.731
564.50	43.743
564.84	42.655
565.17	43.529
565.51	42.635
565.85	44.299
566.19	43.721
566.52	44.295
566.86	44.029
567.20	43.121
567.54	43.441
567.88	44.393
568.21	44.664
568.55	44.365
568.89	44.848
569.23	44.994
569.56	43.923
569.90	44.833
570.24	44.992
570.57	44.195
570.91	44.182
571.25	43.969
571.59	44.559
571.92	44.323
572.26	44.468
572.60	44.936
572.93	44.002
573.27	44.254
573.61	44.362
573.95	44.283
574.28	44.826
574.62	44.566
574.96	43.846
575.29	43.203
575.63	44.190
575.97	44.479
576.30	43.597
576.64	44.333
576.98	43.895
577.31	44.547
577.65	45.460
577.98	44.804
578.32	44.310
578.66	44.497
578.99	44.419
579.33	44.598
579.67	44.424
580.00	44.032
580.34	44.110
580.67	43.954
581.01	43.704
581.35	44.107
581.68	44.206
582.02	44.821
582.35	45.199
582.69	45.074
583.02	45.300
583.36	44.444
583.70	44.990
584.03	44.252
584.37	43.940
584.70	44.328
585.04	44.176
585.37	44.233
585.71	43.754
586.04	44.342
586.38	44.731
586.72	44.046
587.05	44.589
587.39	44.453
587.72	44.426
588.06	45.068
588.39	44.710
588.73	44.101
589.06	44.695
589.40	44.960
589.73	44.698
590.07	45.126
590.40	44.895
590.73	44.998
591.07	44.527
591.40	43.740
591.74	44.754
592.07	44.661
592.41	43.770
592.74	43.663
593.08	44.841
593.41	44.882
593.75	45.115
594.08	45.804
594.41	44.904
594.75	45.035
595.08	44.751
595.42	44.610
595.75	44.979
596.09	44.900
596.42	43.999
596.75	45.156
597.09	45.010
597.42	44.259
597.75	43.708
598.09	44.802
598.42	44.069
598.76	43.561
599.09	44.535
599.42	43.815
599.76	44.635
600.09	45.379
600.42	44.912
600.76	44.551
601.09	43.810
601.42	43.941
601.76	44.069
602.09	43.853
602.42	44.711
602.76	44.428
603.09	45.191
603.42	44.653
603.76	44.468
604.09	46.451
604.42	44.771
604.76	44.597
605.09	45.154
605.42	43.541
605.75	44.654
606.09	44.420
606.42	43.999
606.75	44.003
607.09	43.702
607.42	44.470
607.75	44.783
608.08	44.515
608.42	44.418
608.75	44.486
609.08	44.228
609.41	45.302
609.75	44.598
610.08	45.295
610.41	44.690
610.74	44.706
611.07	45.160
611.41	44.664
611.74	45.358
612.07	44.787
612.40	44.487
612.73	45.232
613.07	44.939
613.40	44.755
613.73	44.391
614.06	45.339
614.39	44.752
614.72	44.541
615.06	44.321
615.39	44.804
615.72	44.313
616.05	45.313
616.38	45.610
616.71	44.619
617.05	44.995
617.38	45.051
617.71	45.032
618.04	44.199
618.37	44.481
618.70	45.249
619.03	44.385
619.36	44.205
619.69	45.356
620.03	44.256
620.36	43.252
620.69	44.602
621.02	44.882
621.35	45.936
621.68	45.047
622.01	44.342
622.34	42.887
622.67	45.430
623.00	44.062
623.33	45.587
623.66	45.914
623.99	44.503
624.32	44.704
624.65	43.565
624.99	44.798
625.32	45.591
625.65	44.842
625.98	44.203
626.31	43.444
626.64	45.055
626.97	43.661
627.30	43.356
627.63	43.286
627.96	45.345
628.29	42.412
628.62	44.332
628.95	44.172
629.28	44.180
629.61	44.529
629.94	43.431
630.26	43.983
630.59	45.423
630.92	43.377
631.25	44.186
631.58	44.633
631.91	44.424
632.24	44.669
632.57	42.884
632.90	46.038
633.23	43.878
633.56	43.367
633.89	44.318
634.22	44.906
634.55	44.259
634.88	43.939
635.20	44.349
635.53	46.441
635.86	44.312
636.19	45.175
636.52	43.460
636.85	43.820
637.18	43.867
637.51	44.086
637.83	44.629
638.16	44.585
638.49	43.897
638.82	43.517
639.15	42.726
639.48	44.457
639.81	43.418
640.13	44.759
640.46	41.818
640.79	44.363
641.12	43.602
641.45	43.915
641.77	45.828
642.10	43.832
642.43	44.814
642.76	43.631
643.09	41.096
643.41	43.557
643.74	42.069
644.07	44.828
644.40	43.140
644.73	43.832
645.05	45.081
645.38	45.324
645.71	42.815
646.04	44.620
646.36	41.460
646.69	43.712
647.02	45.566
647.35	44.122
647.67	46.377
648.00	43.153
648.33	43.093
648.66	42.225
648.98	43.265
649.31	44.655
649.64	43.825
649.96	44.164
650.29	44.089
650.62	43.423
650.94	42.943
651.27	40.419
651.60	42.398
651.92	45.289
652.25	43.705
652.58	40.990
652.90	42.878
653.23	43.662
653.56	44.080
653.88	43.820
654.21	43.099
654.54	43.497
654.86	43.059
655.19	41.782
655.52	44.294
655.84	44.841
656.17	54.042
656.49	75.664
656.82	82.201
657.15	64.548
657.47	49.063
657.80	35.708
658.13	27.920
658.45	36.478
658.78	44.345
659.10	42.553
659.43	42.250
659.75	41.184
660.08	39.160
660.41	40.116
660.73	41.049
661.06	37.592
661.38	41.308
661.71	41.897
662.03	43.210
662.36	41.682
662.68	44.090
663.01	42.301
663.33	44.234
663.66	45.238
663.98	42.115
664.31	45.403
664.63	44.123
664.96	43.194
665.28	42.105
665.61	42.483
665.93	44.643
666.26	42.652
666.58	40.590
666.91	43.925
667.23	41.333
667.56	43.393
667.88	43.600
668.21	42.383
668.53	40.541
668.86	42.436
669.18	42.363
669.50	43.738
669.83	43.400
670.15	42.520
670.48	45.238
670.80	39.771
671.13	40.643
671.45	44.291
671.77	43.126
672.10	39.333
672.42	41.424
672.75	42.704
673.07	41.940
673.39	41.294
673.72	43.624
674.04	43.793
674.37	42.576
674.69	42.681
675.01	43.810
675.34	43.702
675.66	41.386
675.98	41.791
676.31	43.555
676.63	43.346
676.95	46.552
677.28	42.540
677.60	40.945
677.92	43.570
678.25	41.499
678.57	43.772
678.89	42.321
679.22	41.638
679.54	41.197
679.86	41.017
680.18	41.294
680.51	41.352
680.83	43.372
681.15	41.207
681.48	43.351
681.80	46.978
682.12	43.706
682.44	39.900
682.77	42.021
683.09	42.803
683.41	46.318
683.73	39.089
684.06	41.697
684.38	40.608
684.70	43.986
685.02	44.750
685.34	39.933
685.67	43.375
685.99	43.098
686.31	38.227
686.63	43.444
686.96	41.009
687.28	41.368
687.60	42.424
687.92	39.550
688.24	41.736
688.56	39.828
688.89	40.653
689.21	42.466
689.53	41.569
689.85	41.617
690.17	41.296
690.49	42.430
690.82	41.584
691.14	41.498
691.46	39.579
691.78	43.646
692.10	43.119
692.42	41.071
692.74	40.290
693.06	39.259
693.39	39.469
693.71	40.038
694.03	39.591
694.35	41.143
694.67	41.684
694.99	38.298
695.31	40.177
695.63	41.558
695.95	40.787
696.27	41.319
696.59	40.929
696.91	41.216
697.23	41.099
697.56	40.122
697.88	42.045
698.20	40.301
698.52	45.455
698.84	42.620
699.16	39.184
699.48	42.887
699.80	41.064
700.12	42.140
700.44	36.406
700.76	40.618
701.08	39.467
701.40	43.782
701.72	38.308
702.04	44.118
702.36	41.361
702.68	41.565
703.00	40.098
703.32	38.916
703.64	42.054
703.96	40.095
704.28	39.803
704.60	40.253
704.91	42.347
705.23	40.822
705.55	38.719
705.87	44.545
706.19	40.491
706.51	37.651
706.83	36.599
707.15	38.095
707.47	41.589
707.79	42.576
708.11	34.958
708.43	40.860
708.74	36.607
709.06	42.227
709.38	38.732
709.70	41.687
710.02	39.535
710.34	37.766
710.66	39.665
710.98	45.082
711.29	39.560
711.61	41.243
711.93	42.735
712.25	36.216
712.57	43.068
712.89	42.353
713.20	38.757
713.52	36.127
713.84	41.504
714.16	40.263
714.48	39.691
714.80	39.481
715.11	39.895
715.43	39.523
715.75	41.316
716.07	41.160
716.39	39.617
716.70	38.554
717.02	43.279
717.34	37.631
717.66	38.591
717.97	39.041
718.29	42.612
718.61	39.474
718.93	40.453
719.24	40.062
719.56	38.650
719.88	35.736
720.20	40.968
720.51	38.509
720.83	38.125
721.15	37.829
721.46	33.562
721.78	39.333
722.10	34.628
722.42	41.946
722.73	36.774
723.05	39.298
723.37	38.889
723.68	44.086
724.00	40.433
724.32	38.028
724.63	37.063
724.95	42.553
725.27	37.282
725.58	39.576
725.90	39.655
726.22	39.498
726.53	39.610
726.85	43.082
727.16	40.181
727.48	37.615
727.80	39.073
728.11	36.749
728.43	34.007
728.74	38.127
729.06	38.079
729.38	39.935
729.69	42.953
730.01	34.226
730.32	35.455
730.64	40.881
730.96	35.714
731.27	40.782
731.59	37.363
731.90	36.883
732.22	37.760
732.53	34.807
732.85	38.857
733.16	38.416
733.48	35.061
733.80	36.212
734.11	36.182
734.43	37.838
734.74	39.494
735.06	39.950
735.37	38.919
735.69	38.919
736.00	35.593
736.32	36.388
736.63	36.667
736.95	37.069
737.26	41.818
737.58	35.758
737.89	38.824
738.21	36.697
738.52	39.672
738.83	39.249
739.15	38.298
739.46	37.075
739.78	37.117
740.09	34.097
740.41	33.819
740.72	37.667
741.04	38.511
741.35	42.105
741.66	36.078
741.98	42.623
742.29	36.820
742.61	38.596
742.92	34.231
743.23	37.545
743.55	37.984
743.86	37.600
744.18	32.231
744.49	31.224
744.80	41.152
745.12	33.333
745.43	36.585
745.74	40.086
746.06	36.017
746.37	37.975
746.68	40.650
747.00	39.583
747.31	35.622
747.62	37.308
747.94	34.818
748.25	33.735
748.56	39.592
748.88	30.769
749.19	39.224
749.50	36.364
749.82	40.562
750.13	41.993
750.44	33.667
750.75	37.231
751.07	34.462
751.38	38.801
751.69	37.380
752.01	35.275
752.32	37.908
752.63	38.435
752.94	40.484
753.26	28.253
753.57	36.296
753.88	40.824
754.19	36.977
754.51	36.656
754.82	40.514
755.13	40.000
755.44	36.177
755.75	36.842
756.07	37.612
756.38	38.365
756.69	40.060
757.00	33.795
757.31	35.519
757.63	34.015
757.94	34.272
758.25	37.923
758.56	36.383
758.87	35.227
759.18	36.533
759.50	38.527
759.81	39.496
760.12	35.040
760.43	38.542
760.74	36.946
761.05	35.500
761.36	34.940
761.67	36.041
761.99	41.351
762.30	38.415
762.61	31.023
762.92	38.806
763.23	37.828
763.54	34.892
763.85	34.021
764.16	40.741
764.47	40.845
764.78	38.019
765.10	36.070
765.41	39.487
765.72	33.862
766.03	36.441
766.34	37.618
766.65	32.753
766.96	34.661
767.27	37.327
767.58	34.826
767.89	37.981
768.20	37.089
768.51	40.278
768.82	30.120
769.13	34.470
769.44	30.000
769.75	39.350
770.06	38.077
770.37	37.008
770.68	34.468
770.99	29.150
771.30	42.963
771.61	34.981
771.92	33.333
772.23	33.603
772.54	23.148
772.85	41.935
773.16	38.571
773.47	37.566
773.78	32.432
774.09	34.659
774.39	36.000
774.70	33.333
775.01	31.707
775.32	22.941
775.63	29.448
775.94	24.841
776.25	37.419
776.56	32.692
776.87	30.612
777.18	35.862
777.48	40.559
777.79	35.135
778.10	29.412
778.41	30.556
778.72	37.931
779.03	30.247
779.34	34.545
779.65	31.606
779.95	30.556
780.26	32.955
780.57	39.355
780.88	34.783
781.19	43.226
781.50	38.235
781.80	37.634
782.11	33.333
782.42	30.303
782.73	27.545
783.04	31.285
783.34	27.273
783.65	28.758
783.96	32.919
784.27	33.929
784.57	31.788
784.88	35.000
785.19	38.583
785.50	32.283
785.81	28.571
786.11	37.692
786.42	28.777
786.73	29.496
787.04	33.835
787.34	32.787
787.65	25.600
787.96	27.612
788.26	37.063
788.57	37.762
788.88	32.237
789.19	33.333
789.49	31.507
789.80	36.170
790.11	29.134
790.41	24.219
790.72	30.508
791.03	23.301
791.33	34.783
791.64	35.965
791.95	25.000
792.25	34.286
792.56	21.429
792.87	34.375
793.17	33.036
793.48	25.000
793.79	32.530
794.09	25.688
794.40	30.275
794.70	34.014
795.01	25.325
795.32	32.192
795.62	35.211
795.93	28.788
796.23	29.508
796.54	34.821
796.85	30.851
797.15	27.174
797.46	23.288
797.76	32.500
798.07	31.522
798.37	15.464
798.68	10.390
798.99	16.092
799.29	20.225
799.60	35.106
799.90	21.687
800.21	6.154
800.51	31.343
800.82	38.235
801.12	5.479
801.43	11.765
801.73	18.644
802.04	34.848
802.34	28.333
802.65	38.983
802.95	28.358
803.26	11.864
803.56	35.616
803.87	40.000
804.17	28.767
804.48	22.807
804.78	11.111
805.09	15.517
805.39	36.486
805.70	18.310
806.00	29.268
806.30	30.120
806.61	8.219
806.91	37.500
807.22	15.556
807.52	24.138
807.83	25.000
808.13	28.916
808.43	12.360
808.74	20.000
809.04	16.176
809.35	20.000
809.65	24.286
809.95	28.767
810.26	10.526
810.56	22.414
810.86	30.882
811.17	22.807
811.47	9.836
811.77	4.444
812.08	30.508
812.38	23.333
812.69	18.966
812.99	15.094
813.29	-2.564
813.59	32.000
813.90	33.333
814.20	27.273
814.50	30.986
814.81	24.359
815.11	31.148
815.41	37.313
815.72	25.862
816.02	21.429
816.32	33.333
816.62	50.000
816.93	8.889
817.23	14.815
817.53	8.511
817.84	42.857
818.14	17.647
818.44	28.571
818.74	22.222
819.04	15.385
819.35	17.143
819.65	11.538
819.95	13.208
820.25	20.000
820.56	19.048
820.86	6.250
821.16	25.641
821.46	34.884
821.76	30.000
822.07	12.500
822.37	30.435
822.67	4.255
822.97	24.324
823.27	-2.500
823.57	30.612
823.88	33.333
824.18	25.000
824.48	10.000
824.78	44.000
825.08	39.394
825.38	48.889
825.69	40.426
825.99	27.778
826.29	-22.857
826.59	12.821
826.89	16.279
827.19	12.000
827.49	2.941
827.79	31.250
828.09	0.000
828.39	3.333
828.70	26.829
829.00	4.651
829.30	3.571
829.60	11.765
829.90	-23.913
830.20	17.143
830.50	-3.448
830.80	33.333
831.10	-19.231
831.40	-2.941
831.70	0.000
832.00	51.613
832.30	-23.529
832.60	-12.500
832.90	23.077
833.20	-10.526
833.50	10.000
833.80	15.789
834.10	14.286
834.40	11.111
834.70	34.375
835.00	-17.143
835.30	26.471
835.60	-3.333
835.90	12.000
836.20	-31.818
836.50	-4.000
836.80	-33.333
837.10	-14.815
837.40	0.000
837.70	-68.750
838.00	7.143
838.30	-8.696
838.60	34.483
838.90	42.857
839.19	-30.435
839.49	-108.333
839.79	26.087
840.09	0.000
840.39	-15.000
840.69	32.258
840.99	0.000
841.29	33.333
841.59	31.579
841.88	25.641
842.18	-11.538
842.48	-70.000
842.78	-40.000
843.08	13.333
843.38	16.129
843.68	-11.111
843.97	11.765
844.27	12.500
844.57	5.263
844.87	-90.000
845.17	-6.667
845.47	61.905
845.76	-4.762
846.06	-55.556
846.36	-47.059
846.66	-23.077
846.96	-46.667
847.25	-47.059
847.55	17.391
847.85	15.000
848.15	0.000
848.44	9.091
848.74	19.048
849.04	-16.667
849.34	-37.500
849.63	8.696
849.93	600.000
850.23	13.333
850.53	30.769
850.82	63.636
851.12	9.091
851.42	-36.364
851.71	38.462
852.01	-45.000
852.31	23.077
852.61	21.053
852.90	16.667
853.20	5.556
853.50	-144.444
853.79	0.000
854.09	-45.455
854.39	-50.000
854.68	25.806
854.98	15.385
855.28	44.444
855.57	14.286
855.87	-4.000
856.17	9.091
856.46	11.111
856.76	27.778
857.05	17.391
857.35	-12.500
857.65	-76.923
857.94	28.571
858.24	-3.704
858.53	43.478
858.83	29.412
859.13	-41.176
859.42	-41.176
859.72	7.143
860.01	-10.000
860.31	-66.667
860.60	-60.000
860.90	13.333
861.20	-11.111
861.49	23.077
861.79	-10.000
862.08	-46.154
862.38	31.250
862.67	47.059
862.97	31.250
863.26	11.111
863.56	-10.000
863.85	-9.091
864.15	27.778
864.44	33.333
864.74	35.714
865.03	-12.500
865.33	-20.000
865.62	-3.226
865.92	18.182
866.21	-4.348
866.51	28.571
866.80	60.000
867.10	-8.333
867.39	-25.000
867.69	1100.000
867.98	71.429
868.27	-17.647
868.57	-2100.000
868.86	-90.000
869.16	-23.810
869.45	25.000
869.75	-9.091
870.04	-142.857
870.33	-16.667
870.63	-128.571
870.92	-225.000
871.22	-187.500
871.51	-36.364
871.80	-266.667
872.10	-450.000
>>>>>End Processed Spectral Data<<<<<
