SpectraSuite Data File
++++++++++++++++++++++++++++++++++++
Date: Thu May 14 14:52:01 PDT 2015
User: schluterlab
Dark Spectrum Present: Yes
Reference Spectrum Present: Yes
Number of Sampled Component Spectra: 1
Spectrometers: USB2E3373
Integration Time (usec): 3000 (USB2E3373)
Spectra Averaged: 3 (USB2E3373)
Boxcar Smoothing: 0 (USB2E3373)
Correct for Electrical Dark: No (USB2E3373)
Strobe/Lamp Enabled: No (USB2E3373)
Correct for Detector Non-linearity: No (USB2E3373)
Correct for Stray Light: No (USB2E3373)
Number of Pixels in Processed Spectrum: 2048
>>>>>Begin Processed Spectral Data<<<<<
178.53	0.000
178.91	57.143
179.29	-1600.000
179.67	-1900.000
180.04	221.429
180.42	180.000
180.80	360.000
181.18	-300.000
181.56	-800.000
181.94	300.000
182.31	-100.000
182.69	266.667
183.07	-100.000
183.45	275.000
183.83	-266.667
184.20	-266.667
184.58	500.000
184.96	-150.000
185.34	-111.111
185.72	-60.000
186.09	244.444
186.47	800.000
186.85	440.000
187.23	-177.778
187.61	-1700.000
187.98	320.000
188.36	525.000
188.74	-300.000
189.12	-100.000
189.49	-50.000
189.87	-137.500
190.25	-122.222
190.63	-40.000
191.00	-111.111
191.38	0.000
191.76	-200.000
192.14	-200.000
192.51	300.000
192.89	83.333
193.27	0.000
193.65	-71.429
194.02	-1200.000
194.40	-57.143
194.78	-14.286
195.15	0.000
195.53	-36.364
195.91	0.000
196.29	-200.000
196.66	-61.538
197.04	-1400.000
197.42	-171.429
197.79	-300.000
198.17	-150.000
198.55	-157.143
198.92	-11.111
199.30	-100.000
199.68	-54.545
200.05	35.714
200.43	-500.000
200.81	185.714
201.18	0.000
201.56	266.667
201.94	0.000
202.31	433.333
202.69	-222.222
203.07	600.000
203.44	-88.889
203.82	-400.000
204.19	-58.333
204.57	-183.333
204.95	-187.500
205.32	-1700.000
205.70	225.000
206.08	-216.667
206.45	-33.333
206.83	460.000
207.20	-33.333
207.58	-260.000
207.96	-233.333
208.33	-83.333
208.71	133.333
209.08	-50.000
209.46	0.000
209.84	333.333
210.21	750.000
210.59	200.000
210.96	400.000
211.34	-400.000
211.71	-12.500
212.09	-1300.000
212.46	0.000
212.84	1450.000
213.22	-240.000
213.59	-225.000
213.97	-30.000
214.34	-333.333
214.72	83.333
215.09	-375.000
215.47	0.000
215.84	257.143
216.22	450.000
216.59	-60.000
216.97	0.000
217.34	-25.000
217.72	-75.000
218.09	-175.000
218.47	-325.000
218.84	0.000
219.22	160.000
219.59	-70.588
219.97	-55.000
220.34	750.000
220.72	-155.556
221.09	15.385
221.47	-400.000
221.84	-120.000
222.22	-157.143
222.59	0.000
222.97	-37.500
223.34	-380.000
223.72	-500.000
224.09	-250.000
224.46	-375.000
224.84	-240.000
225.21	-228.571
225.59	-500.000
225.96	-350.000
226.34	7.692
226.71	283.333
227.08	-800.000
227.46	-6.667
227.83	-175.000
228.21	-15.789
228.58	162.500
228.95	750.000
229.33	-8.333
229.70	-60.000
230.08	31.579
230.45	100.000
230.82	-166.667
231.20	-7.143
231.57	16.667
231.95	-18.182
232.32	0.000
232.69	-40.000
233.07	-325.000
233.44	-105.882
233.81	-140.000
234.19	-11.111
234.56	-13.636
234.93	3.448
235.31	-42.105
235.68	0.000
236.05	-25.000
236.43	0.000
236.80	-28.000
237.17	-59.259
237.55	-36.364
237.92	-140.000
238.29	-45.161
238.67	-20.455
239.04	-8.333
239.41	-16.667
239.79	-34.783
240.16	-11.111
240.53	-36.957
240.91	-19.608
241.28	-19.672
241.65	0.000
242.02	2.703
242.40	-21.538
242.77	-1.333
243.14	-13.415
243.51	-11.842
243.89	-20.513
244.26	-4.950
244.63	-0.980
245.00	-5.607
245.38	-4.386
245.75	-13.274
246.12	-1.587
246.49	-3.876
246.87	7.143
247.24	4.636
247.61	1.974
247.98	-6.040
248.36	1.235
248.73	-2.454
249.10	1.639
249.47	3.483
249.84	5.759
250.22	-6.736
250.59	-2.222
250.96	0.909
251.33	-5.102
251.70	0.855
252.08	1.667
252.45	2.869
252.82	0.000
253.19	1.953
253.56	4.943
253.94	0.769
254.31	4.167
254.68	5.245
255.05	1.954
255.42	4.422
255.79	0.971
256.16	0.331
256.54	0.000
256.91	1.967
257.28	1.639
257.65	-0.318
258.02	0.000
258.39	1.140
258.76	5.199
259.14	3.448
259.51	2.594
259.88	2.266
260.25	3.333
260.62	3.836
260.99	6.011
261.36	4.290
261.73	1.061
262.10	0.275
262.47	4.290
262.85	7.323
263.22	0.779
263.59	-1.842
263.96	4.604
264.33	1.535
264.70	3.704
265.07	5.489
265.44	8.390
265.81	3.704
266.18	4.535
266.55	5.357
266.92	0.911
267.29	5.689
267.66	1.996
268.03	3.493
268.40	3.967
268.77	0.456
269.14	-0.441
269.51	4.386
269.88	5.943
270.25	4.225
270.62	4.008
270.99	6.061
271.36	4.356
271.73	2.947
272.10	5.010
272.47	3.006
272.84	2.811
273.21	4.409
273.58	2.016
273.95	2.115
274.32	3.612
274.69	4.449
275.06	3.846
275.43	3.697
275.80	4.409
276.17	1.852
276.54	1.866
276.91	3.936
277.28	2.712
277.65	2.334
278.02	1.838
278.39	3.804
278.76	2.812
279.13	4.255
279.50	4.811
279.87	4.651
280.23	0.528
280.60	4.068
280.97	4.770
281.34	1.868
281.71	5.584
282.08	2.990
282.45	3.764
282.82	4.710
283.19	1.777
283.56	4.262
283.92	6.006
284.29	4.897
284.66	3.941
285.03	2.564
285.40	4.019
285.77	4.644
286.14	5.954
286.51	4.110
286.87	3.476
287.24	4.819
287.61	2.840
287.98	2.417
288.35	4.142
288.72	2.811
289.08	4.685
289.45	3.254
289.82	3.012
290.19	3.305
290.56	6.338
290.93	2.282
291.29	3.581
291.66	3.994
292.03	3.528
292.40	5.850
292.77	3.774
293.13	3.248
293.50	2.628
293.87	2.685
294.24	5.600
294.60	5.310
294.97	1.745
295.34	3.713
295.71	4.161
296.08	4.005
296.44	4.412
296.81	3.167
297.18	3.985
297.55	3.774
297.91	4.033
298.28	2.844
298.65	4.281
299.02	3.896
299.38	5.492
299.75	5.023
300.12	3.241
300.48	4.954
300.85	5.512
301.22	4.474
301.59	3.311
301.95	5.989
302.32	6.333
302.69	4.819
303.05	4.788
303.42	5.765
303.79	4.375
304.15	5.047
304.52	4.334
304.89	5.236
305.25	4.865
305.62	4.911
305.99	5.361
306.35	4.839
306.72	5.274
307.09	5.076
307.45	5.797
307.82	5.954
308.19	5.045
308.55	6.943
308.92	6.037
309.29	7.280
309.65	6.238
310.02	5.446
310.38	6.398
310.75	6.699
311.12	7.478
311.48	6.549
311.85	6.648
312.22	7.211
312.58	7.512
312.95	7.266
313.31	6.594
313.68	8.242
314.05	8.401
314.41	9.016
314.78	8.447
315.14	9.982
315.51	8.957
315.87	10.261
316.24	9.041
316.61	9.503
316.97	8.688
317.34	10.670
317.70	10.742
318.07	10.406
318.43	10.969
318.80	12.291
319.16	11.245
319.53	9.597
319.89	9.991
320.26	12.633
320.62	11.879
320.99	11.727
321.35	12.754
321.72	13.674
322.08	12.353
322.45	13.821
322.81	13.177
323.18	12.920
323.54	14.569
323.91	14.057
324.27	14.888
324.64	14.694
325.00	13.930
325.37	15.807
325.73	16.694
326.10	15.977
326.46	17.590
326.83	18.014
327.19	17.717
327.56	18.024
327.92	18.411
328.29	18.548
328.65	17.755
329.01	19.120
329.38	19.292
329.74	20.462
330.11	21.233
330.47	20.388
330.84	21.619
331.20	21.000
331.56	20.884
331.93	21.506
332.29	21.695
332.66	22.841
333.02	21.357
333.38	21.728
333.75	21.549
334.11	22.602
334.48	22.607
334.84	21.920
335.20	22.082
335.57	22.681
335.93	22.975
336.29	21.464
336.66	21.783
337.02	24.164
337.38	23.724
337.75	23.554
338.11	23.213
338.47	23.573
338.84	22.843
339.20	21.567
339.56	21.829
339.93	22.496
340.29	21.981
340.65	22.790
341.02	23.384
341.38	22.878
341.74	21.953
342.11	23.411
342.47	22.399
342.83	24.316
343.20	23.794
343.56	23.015
343.92	24.500
344.28	23.984
344.65	23.488
345.01	22.933
345.37	23.328
345.73	22.759
346.10	24.493
346.46	22.706
346.82	23.221
347.19	23.300
347.55	22.686
347.91	22.585
348.27	22.079
348.63	23.839
349.00	23.341
349.36	23.346
349.72	23.586
350.08	23.774
350.45	22.966
350.81	23.379
351.17	24.135
351.53	24.033
351.89	23.994
352.26	22.836
352.62	23.657
352.98	23.206
353.34	23.376
353.70	23.035
354.07	23.621
354.43	23.235
354.79	21.915
355.15	23.547
355.51	23.319
355.87	21.915
356.24	24.106
356.60	22.986
356.96	23.647
357.32	22.677
357.68	23.353
358.04	22.829
358.40	22.910
358.77	23.684
359.13	22.452
359.49	23.494
359.85	23.350
360.21	23.888
360.57	23.475
360.93	23.202
361.29	23.228
361.66	21.868
362.02	24.078
362.38	24.104
362.74	23.534
363.10	24.415
363.46	24.030
363.82	23.295
364.18	23.927
364.54	23.306
364.90	23.077
365.26	23.172
365.62	23.933
365.98	22.873
366.35	23.221
366.71	24.150
367.07	22.936
367.43	23.309
367.79	25.547
368.15	24.482
368.51	24.560
368.87	24.690
369.23	24.267
369.59	25.000
369.95	24.544
370.31	24.308
370.67	24.278
371.03	24.030
371.39	22.767
371.75	23.796
372.11	23.984
372.47	24.848
372.83	24.346
373.19	23.682
373.55	24.458
373.91	23.926
374.27	24.127
374.63	24.425
374.99	23.939
375.35	25.455
375.71	24.129
376.07	25.113
376.42	24.811
376.78	25.047
377.14	24.392
377.50	24.731
377.86	25.123
378.22	24.371
378.58	24.257
378.94	25.352
379.30	24.370
379.66	25.867
380.02	24.812
380.38	25.576
380.74	25.465
381.09	25.668
381.45	25.455
381.81	25.703
382.17	25.713
382.53	25.497
382.89	25.959
383.25	26.143
383.61	25.289
383.97	25.147
384.32	25.598
384.68	25.232
385.04	25.795
385.40	26.871
385.76	26.436
386.12	25.194
386.48	26.000
386.83	26.162
387.19	26.014
387.55	25.000
387.91	25.571
388.27	26.039
388.62	26.060
388.98	25.945
389.34	26.400
389.70	26.787
390.06	25.222
390.42	25.301
390.77	26.370
391.13	25.235
391.49	26.147
391.85	25.879
392.20	25.445
392.56	27.112
392.92	25.518
393.28	26.258
393.64	26.536
393.99	26.206
394.35	26.519
394.71	25.090
395.07	25.210
395.42	25.585
395.78	26.447
396.14	26.084
396.50	26.366
396.85	26.357
397.21	25.621
397.57	25.854
397.92	25.888
398.28	24.226
398.64	24.943
399.00	24.450
399.35	25.393
399.71	24.728
400.07	25.098
400.42	25.320
400.78	25.116
401.14	25.327
401.49	25.469
401.85	25.058
402.21	25.550
402.57	25.822
402.92	25.532
403.28	24.063
403.63	24.821
403.99	25.653
404.35	24.901
404.70	24.363
405.06	23.967
405.42	24.473
405.77	24.318
406.13	24.743
406.49	25.338
406.84	24.488
407.20	24.036
407.55	24.288
407.91	23.444
408.27	24.735
408.62	23.967
408.98	24.144
409.34	23.636
409.69	24.784
410.05	24.619
410.40	23.666
410.76	23.892
411.11	24.196
411.47	23.956
411.83	23.810
412.18	24.639
412.54	23.355
412.89	23.923
413.25	23.815
413.60	23.665
413.96	23.543
414.31	24.249
414.67	23.912
415.03	24.123
415.38	24.086
415.74	23.885
416.09	24.676
416.45	23.732
416.80	23.011
417.16	24.074
417.51	24.658
417.87	23.789
418.22	24.012
418.58	23.668
418.93	25.262
419.29	24.291
419.64	23.529
420.00	24.095
420.35	24.705
420.71	23.665
421.06	24.612
421.42	24.656
421.77	24.017
422.12	25.000
422.48	23.963
422.83	24.754
423.19	24.244
423.54	24.502
423.90	24.186
424.25	24.533
424.61	23.651
424.96	24.547
425.31	25.531
425.67	24.047
426.02	25.235
426.38	25.201
426.73	24.275
427.09	26.298
427.44	23.812
427.79	24.931
428.15	24.658
428.50	24.663
428.85	24.856
429.21	25.532
429.56	24.877
429.92	25.160
430.27	25.446
430.62	25.403
430.98	24.939
431.33	25.562
431.68	24.521
432.04	25.038
432.39	25.335
432.74	25.400
433.10	25.690
433.45	24.025
433.80	26.019
434.16	25.413
434.51	26.465
434.86	25.841
435.22	26.621
435.57	26.002
435.92	26.099
436.28	25.768
436.63	25.451
436.98	25.926
437.34	24.972
437.69	25.867
438.04	24.696
438.39	25.790
438.75	25.014
439.10	26.268
439.45	25.489
439.81	24.972
440.16	25.898
440.51	25.697
440.86	25.403
441.22	25.402
441.57	26.520
441.92	25.800
442.27	27.222
442.63	27.223
442.98	26.521
443.33	26.407
443.68	26.511
444.03	27.187
444.39	27.046
444.74	26.799
445.09	25.393
445.44	26.712
445.79	26.006
446.15	26.670
446.50	26.563
446.85	26.167
447.20	26.741
447.55	27.301
447.91	26.597
448.26	27.008
448.61	26.461
448.96	27.200
449.31	26.511
449.66	26.307
450.02	26.688
450.37	26.692
450.72	25.888
451.07	26.196
451.42	26.748
451.77	25.737
452.12	26.806
452.47	26.857
452.83	26.914
453.18	25.861
453.53	26.881
453.88	26.726
454.23	27.006
454.58	27.046
454.93	27.002
455.28	27.213
455.63	26.492
455.98	27.542
456.34	26.148
456.69	26.573
457.04	27.009
457.39	26.829
457.74	27.405
458.09	26.304
458.44	27.478
458.79	26.663
459.14	26.377
459.49	26.882
459.84	27.650
460.19	26.707
460.54	27.882
460.89	27.528
461.24	26.552
461.59	26.674
461.94	25.898
462.29	27.716
462.64	26.554
462.99	26.428
463.34	27.579
463.69	26.612
464.04	27.571
464.39	26.794
464.74	26.796
465.09	27.105
465.44	26.717
465.79	27.129
466.14	27.202
466.49	27.421
466.84	27.934
467.19	26.647
467.54	26.028
467.89	27.126
468.24	27.701
468.59	27.041
468.94	26.690
469.29	26.695
469.64	26.319
469.99	26.769
470.34	27.599
470.68	26.999
471.03	27.308
471.38	26.750
471.73	26.138
472.08	27.157
472.43	26.972
472.78	27.330
473.13	26.485
473.48	27.190
473.83	27.510
474.17	25.791
474.52	28.142
474.87	27.630
475.22	27.606
475.57	26.480
475.92	27.626
476.27	27.689
476.61	27.155
476.96	27.477
477.31	27.030
477.66	26.967
478.01	27.097
478.36	27.019
478.70	26.798
479.05	28.119
479.40	26.802
479.75	27.810
480.10	26.907
480.45	26.937
480.79	27.029
481.14	26.241
481.49	27.079
481.84	28.155
482.19	26.882
482.53	27.984
482.88	27.514
483.23	27.257
483.58	27.031
483.92	26.995
484.27	27.138
484.62	27.310
484.97	27.061
485.31	27.385
485.66	26.924
486.01	27.184
486.36	28.287
486.70	29.110
487.05	30.230
487.40	28.535
487.75	29.313
488.09	27.501
488.44	27.312
488.79	27.487
489.13	27.371
489.48	26.718
489.83	26.479
490.17	26.893
490.52	27.217
490.87	27.453
491.22	26.863
491.56	27.560
491.91	27.300
492.26	27.131
492.60	27.022
492.95	26.678
493.30	26.939
493.64	27.026
493.99	26.974
494.34	27.134
494.68	26.724
495.03	27.357
495.37	27.386
495.72	26.712
496.07	26.424
496.41	26.727
496.76	27.440
497.11	26.794
497.45	26.931
497.80	27.499
498.14	26.939
498.49	27.482
498.84	26.874
499.18	26.766
499.53	27.399
499.87	27.560
500.22	27.293
500.56	27.081
500.91	27.689
501.26	28.364
501.60	27.176
501.95	27.139
502.29	26.678
502.64	28.072
502.98	28.128
503.33	26.782
503.67	27.344
504.02	27.145
504.36	27.748
504.71	27.147
505.06	26.876
505.40	27.285
505.75	26.776
506.09	28.729
506.44	27.902
506.78	27.110
507.13	27.109
507.47	27.665
507.82	27.983
508.16	27.533
508.51	26.817
508.85	27.208
509.19	26.907
509.54	28.194
509.88	27.295
510.23	27.586
510.57	28.371
510.92	28.157
511.26	26.792
511.61	27.088
511.95	27.086
512.30	27.080
512.64	27.036
512.98	27.264
513.33	27.772
513.67	27.384
514.02	27.338
514.36	27.417
514.70	27.917
515.05	28.050
515.39	26.772
515.74	28.208
516.08	26.360
516.42	28.205
516.77	27.077
517.11	27.282
517.46	27.359
517.80	28.167
518.14	27.693
518.49	27.386
518.83	27.089
519.17	26.871
519.52	27.358
519.86	27.878
520.20	27.636
520.55	27.108
520.89	27.365
521.23	26.857
521.58	27.740
521.92	27.025
522.26	26.289
522.61	26.910
522.95	27.220
523.29	27.241
523.64	26.738
523.98	27.039
524.32	28.023
524.66	27.092
525.01	27.123
525.35	27.053
525.69	27.320
526.04	26.636
526.38	27.126
526.72	27.393
527.06	27.449
527.41	27.347
527.75	27.850
528.09	28.099
528.43	27.413
528.78	26.127
529.12	27.122
529.46	27.150
529.80	27.346
530.15	26.957
530.49	27.046
530.83	27.981
531.17	27.300
531.51	27.256
531.86	27.524
532.20	28.232
532.54	26.571
532.88	26.606
533.22	26.989
533.57	26.717
533.91	28.563
534.25	27.530
534.59	27.414
534.93	27.957
535.27	27.042
535.62	28.994
535.96	26.903
536.30	27.850
536.64	28.228
536.98	28.598
537.32	27.407
537.66	27.074
538.01	27.674
538.35	27.527
538.69	27.584
539.03	27.529
539.37	26.796
539.71	28.228
540.05	28.897
540.39	27.139
540.73	28.719
541.07	27.223
541.42	26.816
541.76	27.580
542.10	27.201
542.44	27.345
542.78	28.102
543.12	28.367
543.46	27.595
543.80	27.218
544.14	28.127
544.48	28.723
544.82	29.084
545.16	27.907
545.50	28.280
545.84	28.536
546.18	29.136
546.52	27.261
546.86	27.736
547.20	29.326
547.54	27.715
547.88	28.270
548.22	27.953
548.56	27.326
548.90	28.657
549.24	28.389
549.58	28.013
549.92	27.997
550.26	28.997
550.60	28.143
550.94	27.814
551.28	28.383
551.62	28.639
551.96	27.184
552.30	29.254
552.64	27.816
552.98	29.008
553.32	29.196
553.66	28.103
554.00	28.373
554.34	28.378
554.68	27.760
555.02	27.858
555.36	28.402
555.69	27.226
556.03	28.373
556.37	28.411
556.71	28.535
557.05	27.732
557.39	28.600
557.73	28.732
558.07	27.881
558.41	28.970
558.75	28.059
559.08	26.931
559.42	27.435
559.76	28.223
560.10	27.528
560.44	28.562
560.78	28.438
561.12	29.310
561.45	29.501
561.79	29.121
562.13	29.575
562.47	28.298
562.81	28.481
563.15	28.725
563.48	28.527
563.82	28.960
564.16	28.952
564.50	28.903
564.84	28.968
565.17	29.000
565.51	28.999
565.85	29.513
566.19	28.859
566.52	28.964
566.86	29.145
567.20	27.569
567.54	29.527
567.88	29.969
568.21	29.397
568.55	29.305
568.89	30.413
569.23	29.447
569.56	30.051
569.90	30.613
570.24	31.298
570.57	31.206
570.91	30.649
571.25	30.402
571.59	30.893
571.92	30.757
572.26	30.545
572.60	30.385
572.93	30.281
573.27	31.245
573.61	30.466
573.95	30.978
574.28	30.974
574.62	31.196
574.96	30.150
575.29	30.359
575.63	31.462
575.97	30.467
576.30	30.076
576.64	30.923
576.98	30.957
577.31	30.990
577.65	31.531
577.98	31.363
578.32	31.384
578.66	31.153
578.99	31.354
579.33	30.969
579.67	31.006
580.00	31.108
580.34	30.519
580.67	31.443
581.01	31.026
581.35	31.171
581.68	31.571
582.02	32.182
582.35	32.785
582.69	32.552
583.02	32.424
583.36	32.081
583.70	31.084
584.03	31.317
584.37	30.585
584.70	30.685
585.04	30.226
585.37	31.882
585.71	32.233
586.04	31.836
586.38	31.500
586.72	31.562
587.05	31.671
587.39	31.663
587.72	32.105
588.06	32.060
588.39	31.491
588.73	31.561
589.06	31.772
589.40	31.746
589.73	32.037
590.07	31.565
590.40	32.184
590.73	31.495
591.07	31.124
591.40	31.104
591.74	30.644
592.07	31.466
592.41	31.230
592.74	31.274
593.08	31.879
593.41	32.750
593.75	32.845
594.08	32.505
594.41	31.891
594.75	32.215
595.08	32.369
595.42	31.851
595.75	32.483
596.09	32.057
596.42	31.960
596.75	32.188
597.09	32.242
597.42	31.307
597.75	31.282
598.09	31.468
598.42	32.006
598.76	31.601
599.09	32.040
599.42	31.780
599.76	31.430
600.09	31.565
600.42	32.599
600.76	32.100
601.09	32.327
601.42	31.514
601.76	32.552
602.09	31.344
602.42	31.952
602.76	31.328
603.09	32.342
603.42	32.370
603.76	32.382
604.09	32.328
604.42	32.514
604.76	31.202
605.09	32.070
605.42	31.260
605.75	31.923
606.09	32.139
606.42	31.667
606.75	31.859
607.09	30.453
607.42	32.216
607.75	32.395
608.08	31.452
608.42	31.802
608.75	31.551
609.08	31.452
609.41	31.672
609.75	31.696
610.08	32.630
610.41	31.818
610.74	31.807
611.07	31.572
611.41	32.691
611.74	32.794
612.07	33.146
612.40	32.605
612.73	31.687
613.07	32.127
613.40	31.809
613.73	31.728
614.06	31.894
614.39	31.730
614.72	31.538
615.06	31.328
615.39	31.174
615.72	32.322
616.05	31.617
616.38	32.038
616.71	32.027
617.05	31.416
617.38	31.086
617.71	31.587
618.04	30.383
618.37	31.202
618.70	31.957
619.03	31.123
619.36	30.641
619.69	31.326
620.03	30.697
620.36	31.840
620.69	30.722
621.02	30.971
621.35	31.567
621.68	30.658
622.01	29.964
622.34	30.265
622.67	30.103
623.00	29.825
623.33	30.657
623.66	31.712
623.99	31.073
624.32	31.059
624.65	30.051
624.99	32.640
625.32	32.136
625.65	32.232
625.98	29.695
626.31	29.908
626.64	29.963
626.97	31.208
627.30	30.068
627.63	30.383
627.96	31.456
628.29	30.428
628.62	29.639
628.95	30.237
629.28	29.567
629.61	30.135
629.94	29.623
630.26	30.085
630.59	30.743
630.92	28.831
631.25	31.753
631.58	31.262
631.91	30.647
632.24	30.355
632.57	30.455
632.90	30.191
633.23	30.102
633.56	29.082
633.89	28.616
634.22	28.482
634.55	29.854
634.88	28.571
635.20	29.602
635.53	29.266
635.86	30.119
636.19	29.480
636.52	32.068
636.85	28.907
637.18	30.146
637.51	29.140
637.83	28.904
638.16	28.571
638.49	28.404
638.82	28.636
639.15	29.095
639.48	30.716
639.81	27.714
640.13	29.093
640.46	26.788
640.79	29.167
641.12	28.323
641.45	29.360
641.77	30.167
642.10	27.559
642.43	27.660
642.76	28.997
643.09	28.356
643.41	27.731
643.74	28.414
644.07	29.517
644.40	28.147
644.73	27.721
645.05	27.900
645.38	28.777
645.71	28.299
646.04	27.403
646.36	27.299
646.69	27.761
647.02	29.205
647.35	28.092
647.67	28.663
648.00	26.752
648.33	27.027
648.66	29.101
648.98	26.531
649.31	27.740
649.64	31.341
649.96	28.515
650.29	26.982
650.62	28.854
650.94	27.928
651.27	25.599
651.60	27.339
651.92	28.419
652.25	29.667
652.58	27.235
652.90	28.779
653.23	28.451
653.56	26.819
653.88	30.899
654.21	28.310
654.54	28.035
654.86	29.887
655.19	26.851
655.52	31.684
655.84	36.083
656.17	43.286
656.49	60.334
656.82	65.360
657.15	49.856
657.47	36.791
657.80	26.692
658.13	20.388
658.45	26.227
658.78	30.592
659.10	29.297
659.43	28.396
659.75	26.956
660.08	25.994
660.41	26.137
660.73	24.971
661.06	23.348
661.38	26.316
661.71	27.586
662.03	25.220
662.36	27.549
662.68	26.454
663.01	25.664
663.33	30.246
663.66	30.220
663.98	27.308
664.31	28.518
664.63	24.663
664.96	25.227
665.28	27.042
665.61	29.021
665.93	27.857
666.26	29.032
666.58	25.646
666.91	28.224
667.23	29.524
667.56	26.627
667.88	27.800
668.21	24.805
668.53	24.903
668.86	26.523
669.18	24.644
669.50	24.652
669.83	26.000
670.15	25.787
670.48	27.976
670.80	23.901
671.13	26.843
671.45	25.394
671.77	30.132
672.10	26.833
672.42	29.126
672.75	26.882
673.07	26.716
673.39	26.810
673.72	28.020
674.04	27.069
674.37	26.655
674.69	28.395
675.01	26.476
675.34	24.809
675.66	24.532
675.98	26.306
676.31	25.977
676.63	28.707
676.95	27.778
677.28	27.218
677.60	25.197
677.92	27.255
678.25	26.874
678.57	26.157
678.89	27.645
679.22	26.132
679.54	27.863
679.86	26.780
680.18	28.027
680.51	28.616
680.83	27.169
681.15	28.448
681.48	28.670
681.80	27.634
682.12	28.322
682.44	25.543
682.77	27.837
683.09	27.652
683.41	28.682
683.73	26.565
684.06	24.170
684.38	25.939
684.70	27.828
685.02	29.432
685.34	26.789
685.67	26.341
685.99	26.840
686.31	26.017
686.63	28.436
686.96	24.763
687.28	28.664
687.60	26.431
687.92	24.437
688.24	28.548
688.56	23.103
688.89	27.768
689.21	25.636
689.53	25.490
689.85	26.036
690.17	26.111
690.49	26.295
690.82	25.347
691.14	28.340
691.46	28.681
691.78	28.177
692.10	27.339
692.42	24.464
692.74	26.497
693.06	25.000
693.39	25.806
693.71	23.308
694.03	26.208
694.35	23.238
694.67	27.515
694.99	27.447
695.31	25.386
695.63	25.541
695.95	25.880
696.27	25.495
696.59	27.876
696.91	22.072
697.23	26.374
697.56	24.644
697.88	26.894
698.20	27.495
698.52	31.061
698.84	27.859
699.16	25.918
699.48	24.477
699.80	25.745
700.12	25.764
700.44	26.267
700.76	26.366
701.08	26.634
701.40	27.461
701.72	25.871
702.04	23.797
702.36	18.325
702.68	26.406
703.00	26.650
703.32	26.355
703.64	24.939
703.96	25.537
704.28	22.359
704.60	24.810
704.91	26.276
705.23	25.479
705.55	22.841
705.87	21.515
706.19	24.233
706.51	25.301
706.83	23.631
707.15	21.429
707.47	25.935
707.79	24.891
708.11	21.398
708.43	25.806
708.74	22.321
709.06	22.042
709.38	27.230
709.70	25.062
710.02	25.323
710.34	26.596
710.66	22.067
710.98	23.224
711.29	25.275
711.61	24.011
711.93	24.501
712.25	22.703
712.57	26.549
712.89	26.765
713.20	21.598
713.52	26.301
713.84	24.234
714.16	27.368
714.48	24.485
714.80	28.571
715.11	24.147
715.43	25.995
715.75	26.316
716.07	20.718
716.39	24.590
716.70	19.880
717.02	25.574
717.34	20.906
717.66	24.497
717.97	18.836
718.29	20.275
718.61	25.658
718.93	22.654
719.24	23.292
719.56	24.540
719.88	21.321
720.20	20.968
720.51	23.913
720.83	24.375
721.15	23.355
721.46	22.945
721.78	24.667
722.10	22.977
722.42	22.483
722.73	25.161
723.05	26.667
723.37	25.000
723.68	19.713
724.00	22.022
724.32	23.592
724.63	21.678
724.95	24.113
725.27	22.648
725.58	20.495
725.90	26.207
726.22	20.063
726.53	25.000
726.85	26.415
727.16	25.982
727.48	25.076
727.80	21.854
728.11	21.908
728.43	22.896
728.74	21.070
729.06	22.848
729.38	26.623
729.69	22.483
730.01	25.000
730.32	22.727
730.64	22.013
730.96	25.466
731.27	24.581
731.59	24.176
731.90	22.338
732.22	23.177
732.53	21.271
732.85	22.857
733.16	23.460
733.48	20.732
733.80	18.942
734.11	23.362
734.43	26.757
734.74	28.608
735.06	25.126
735.37	23.784
735.69	24.324
736.00	24.294
736.32	25.606
736.63	21.944
736.95	24.138
737.26	26.061
737.58	20.909
737.89	21.176
738.21	20.183
738.52	20.328
738.83	24.232
739.15	22.340
739.46	23.469
739.78	23.620
740.09	21.203
740.41	22.741
740.72	21.667
741.04	23.625
741.35	22.456
741.66	20.000
741.98	20.492
742.29	21.339
742.61	22.807
742.92	24.231
743.23	25.632
743.55	22.093
743.86	23.200
744.18	13.223
744.49	18.987
744.80	20.988
745.12	25.316
745.43	25.610
745.74	20.259
746.06	19.915
746.37	26.160
746.68	23.171
747.00	22.917
747.31	23.605
747.62	24.615
747.94	20.243
748.25	21.687
748.56	19.592
748.88	20.085
749.19	25.862
749.50	21.212
749.82	20.884
750.13	24.199
750.44	18.000
750.75	23.077
751.07	22.769
751.38	22.397
751.69	23.642
752.01	20.065
752.32	21.569
752.63	24.150
752.94	22.145
753.26	20.446
753.57	20.370
753.88	23.970
754.19	20.579
754.51	19.293
754.82	20.900
755.13	21.311
755.44	23.208
755.75	21.382
756.07	22.388
756.38	23.585
756.69	25.301
757.00	20.222
757.31	23.497
757.63	21.995
757.94	24.413
758.25	25.056
758.56	25.272
758.87	22.500
759.18	20.800
759.50	22.663
759.81	24.930
760.12	25.067
760.43	24.219
760.74	20.443
761.05	23.500
761.36	21.928
761.67	20.812
761.99	20.811
762.30	22.561
762.61	21.452
762.92	18.657
763.23	28.090
763.54	20.504
763.85	21.649
764.16	20.875
764.47	25.000
764.78	25.559
765.10	23.167
765.41	24.615
765.72	19.841
766.03	25.424
766.34	18.809
766.65	20.557
766.96	21.116
767.27	20.276
767.58	14.925
767.89	19.712
768.20	14.554
768.51	17.130
768.82	20.884
769.13	19.318
769.44	16.923
769.75	21.661
770.06	20.769
770.37	23.622
770.68	17.021
770.99	15.789
771.30	28.519
771.61	18.251
771.92	22.963
772.23	26.721
772.54	12.963
772.85	21.198
773.16	23.333
773.47	15.344
773.78	14.595
774.09	17.045
774.39	24.000
774.70	21.311
775.01	15.244
775.32	16.471
775.63	13.497
775.94	9.554
776.25	21.290
776.56	26.282
776.87	21.088
777.18	15.172
777.48	15.385
777.79	14.865
778.10	13.971
778.41	19.444
778.72	8.966
779.03	18.519
779.34	22.424
779.65	16.062
779.95	21.111
780.26	14.205
780.57	14.839
780.88	22.464
781.19	20.645
781.50	24.118
781.80	26.882
782.11	14.815
782.42	18.182
782.73	14.371
783.04	18.994
783.34	18.788
783.65	10.458
783.96	19.876
784.27	18.452
784.57	15.894
784.88	15.000
785.19	14.173
785.50	14.961
785.81	15.038
786.11	23.077
786.42	11.511
786.73	12.950
787.04	27.068
787.34	11.475
787.65	22.400
787.96	20.896
788.26	18.182
788.57	15.385
788.88	18.421
789.19	22.876
789.49	18.493
789.80	14.894
790.11	14.961
790.41	7.813
790.72	11.864
791.03	11.650
791.33	14.783
791.64	18.421
791.95	17.857
792.25	12.381
792.56	12.500
792.87	2.083
793.17	19.643
793.48	9.375
793.79	-2.410
794.09	10.092
794.40	7.339
794.70	14.286
795.01	14.286
795.32	10.959
795.62	24.648
795.93	17.424
796.23	10.656
796.54	8.929
796.85	9.574
797.15	8.696
797.46	4.110
797.76	2.500
798.07	5.435
798.37	-1.031
798.68	7.792
798.99	3.448
799.29	8.989
799.60	19.149
799.90	3.614
800.21	12.308
800.51	-2.985
800.82	5.882
801.12	-5.479
801.43	-8.824
801.73	8.475
802.04	3.030
802.34	5.000
802.65	3.390
802.95	10.448
803.26	-8.475
803.56	15.068
803.87	8.571
804.17	15.068
804.48	-7.018
804.78	12.500
805.09	-6.897
805.39	5.405
805.70	-18.310
806.00	4.878
806.30	-2.410
806.61	4.110
806.91	9.615
807.22	7.778
807.52	3.448
807.83	13.889
808.13	26.506
808.43	16.854
808.74	5.000
809.04	-2.941
809.35	2.667
809.65	0.000
809.95	-6.849
810.26	0.000
810.56	-1.724
810.86	5.882
811.17	-8.772
811.47	-3.279
811.77	-24.444
812.08	-1.695
812.38	21.667
812.69	3.448
812.99	-18.868
813.29	-30.769
813.59	-6.000
813.90	-1.754
814.20	7.273
814.50	12.676
814.81	1.282
815.11	4.918
815.41	2.985
815.72	13.793
816.02	23.214
816.32	0.000
816.62	-6.818
816.93	-4.444
817.23	22.222
817.53	-4.255
817.84	-2.381
818.14	-14.706
818.44	14.286
818.74	8.889
819.04	-23.077
819.35	-37.143
819.65	-7.692
819.95	-16.981
820.25	0.000
820.56	-2.381
820.86	12.500
821.16	-5.128
821.46	-18.605
821.76	-30.000
822.07	0.000
822.37	2.174
822.67	-14.894
822.97	-13.514
823.27	-10.000
823.57	0.000
823.88	22.222
824.18	0.000
824.48	-23.333
824.78	0.000
825.08	-27.273
825.38	0.000
825.69	-4.255
825.99	-5.556
826.29	-31.429
826.59	-15.385
826.89	0.000
827.19	-10.000
827.49	-5.882
827.79	-2.083
828.09	-5.405
828.39	-26.667
828.70	-14.634
829.00	9.302
829.30	-28.571
829.60	-5.882
829.90	-6.522
830.20	-25.714
830.50	-20.690
830.80	-33.333
831.10	-23.077
831.40	-2.941
831.70	-33.333
832.00	35.484
832.30	-100.000
832.60	-58.333
832.90	-130.769
833.20	-115.789
833.50	-50.000
833.80	31.579
834.10	-80.952
834.40	0.000
834.70	12.500
835.00	-31.429
835.30	-20.588
835.60	-10.000
835.90	-8.000
836.20	-77.273
836.50	12.000
836.80	-36.364
837.10	-7.407
837.40	-37.037
837.70	-87.500
838.00	7.143
838.30	8.696
838.60	-31.034
838.90	-21.429
839.19	-78.261
839.49	-116.667
839.79	-43.478
840.09	-56.250
840.39	-30.000
840.69	3.226
840.99	-35.714
841.29	-60.000
841.59	-31.579
841.88	0.000
842.18	-42.308
842.48	-10.000
842.78	10.000
843.08	-30.000
843.38	0.000
843.68	-61.111
843.97	11.765
844.27	6.250
844.57	-21.053
844.87	-100.000
845.17	-106.667
845.47	57.143
845.76	0.000
846.06	-66.667
846.36	-70.588
846.66	-15.385
846.96	-46.667
847.25	-17.647
847.55	-52.174
847.85	-10.000
848.15	-23.529
848.44	-54.545
848.74	0.000
849.04	-8.333
849.34	-37.500
849.63	-21.739
849.93	600.000
850.23	-60.000
850.53	-11.538
850.82	-63.636
851.12	-4.545
851.42	-36.364
851.71	-15.385
852.01	-95.000
852.31	-38.462
852.61	-57.895
852.90	-58.333
853.20	-27.778
853.50	-177.778
853.79	-61.905
854.09	-72.727
854.39	-108.333
854.68	-32.258
854.98	-38.462
855.28	-44.444
855.57	-17.857
855.87	4.000
856.17	-36.364
856.46	14.815
856.76	-11.111
857.05	-82.609
857.35	-50.000
857.65	-53.846
857.94	-23.810
858.24	18.519
858.53	-30.435
858.83	29.412
859.13	-11.765
859.42	-29.412
859.72	-21.429
860.01	-75.000
860.31	-100.000
860.60	-50.000
860.90	-106.667
861.20	-33.333
861.49	-53.846
861.79	-36.667
862.08	-92.308
862.38	9.375
862.67	-11.765
862.97	0.000
863.26	-66.667
863.56	-70.000
863.85	9.091
864.15	-33.333
864.44	-266.667
864.74	7.143
865.03	-50.000
865.33	-150.000
865.62	-38.710
865.92	-9.091
866.21	-34.783
866.51	-14.286
866.80	-180.000
867.10	-58.333
867.39	-175.000
867.69	2400.000
867.98	-142.857
868.27	-17.647
868.57	-2800.000
868.86	-120.000
869.16	-23.810
869.45	0.000
869.75	-136.364
870.04	-200.000
870.33	-8.333
870.63	-271.429
870.92	-25.000
871.22	-162.500
871.51	-54.545
871.80	-700.000
872.10	-700.000
>>>>>End Processed Spectral Data<<<<<
