SpectraSuite Data File
++++++++++++++++++++++++++++++++++++
Date: Thu May 14 15:25:19 PDT 2015
User: schluterlab
Dark Spectrum Present: Yes
Reference Spectrum Present: Yes
Number of Sampled Component Spectra: 1
Spectrometers: USB2E3373
Integration Time (usec): 3000 (USB2E3373)
Spectra Averaged: 3 (USB2E3373)
Boxcar Smoothing: 0 (USB2E3373)
Correct for Electrical Dark: No (USB2E3373)
Strobe/Lamp Enabled: No (USB2E3373)
Correct for Detector Non-linearity: No (USB2E3373)
Correct for Stray Light: No (USB2E3373)
Number of Pixels in Processed Spectrum: 2048
>>>>>Begin Processed Spectral Data<<<<<
178.53	0.000
178.91	771.429
179.29	-6100.000
179.67	-5200.000
180.04	471.429
180.42	450.000
180.80	1020.000
181.18	-5000.000
181.56	-3800.000
181.94	1075.000
182.31	-1175.000
182.69	1866.667
183.07	-2750.000
183.45	1375.000
183.83	-783.333
184.20	-1466.667
184.58	3800.000
184.96	-1075.000
185.34	-522.222
185.72	-840.000
186.09	688.889
186.47	2700.000
186.85	980.000
187.23	-522.222
187.61	-4900.000
187.98	960.000
188.36	1250.000
188.74	-1300.000
189.12	-1266.667
189.49	-268.750
189.87	-587.500
190.25	-500.000
190.63	-720.000
191.00	-544.444
191.38	0.000
191.76	-1375.000
192.14	-600.000
192.51	2050.000
192.89	-733.333
193.27	0.000
193.65	-528.571
194.02	-5400.000
194.40	-657.143
194.78	657.143
195.15	0.000
195.53	-418.182
195.91	0.000
196.29	-900.000
196.66	-284.615
197.04	-4900.000
197.42	-642.857
197.79	-2350.000
198.17	-575.000
198.55	-728.571
198.92	-444.444
199.30	-675.000
199.68	-400.000
200.05	-307.143
200.43	-2650.000
200.81	785.714
201.18	0.000
201.56	744.444
201.94	0.000
202.31	1633.333
202.69	-588.889
203.07	4100.000
203.44	-444.444
203.82	-1100.000
204.19	-308.333
204.57	-733.333
204.95	-612.500
205.32	-4800.000
205.70	1425.000
206.08	-866.667
206.45	-750.000
206.83	1280.000
207.20	-850.000
207.58	-1100.000
207.96	-883.333
208.33	-700.000
208.71	475.000
209.08	-716.667
209.46	0.000
209.84	916.667
210.21	2300.000
210.59	2100.000
210.96	1766.667
211.34	-1025.000
211.71	-525.000
212.09	-4800.000
212.46	0.000
212.84	2750.000
213.22	-940.000
213.59	-1000.000
213.97	-400.000
214.34	-1566.667
214.72	866.667
215.09	-1100.000
215.47	0.000
215.84	685.714
216.22	2200.000
216.59	-960.000
216.97	-900.000
217.34	-1075.000
217.72	-450.000
218.09	-1175.000
218.47	-1225.000
218.84	0.000
219.22	840.000
219.59	-252.941
219.97	-215.000
220.34	2850.000
220.72	-555.556
221.09	-300.000
221.47	-1366.667
221.84	-470.000
222.22	-585.714
222.59	0.000
222.97	-525.000
223.34	-1140.000
223.72	-5500.000
224.09	-1100.000
224.46	-1425.000
224.84	-840.000
225.21	-685.714
225.59	-1400.000
225.96	-1000.000
226.34	-146.154
226.71	1016.667
227.08	-2400.000
227.46	-286.667
227.83	-975.000
228.21	-210.526
228.58	587.500
228.95	2350.000
229.33	-325.000
229.70	-370.000
230.08	-194.737
230.45	540.000
230.82	-1500.000
231.20	-328.571
231.57	-325.000
231.95	-445.455
232.32	-463.636
232.69	-210.000
233.07	-1000.000
233.44	-241.176
233.81	-420.000
234.19	-211.111
234.56	-186.364
234.93	-144.828
235.31	-226.316
235.68	-261.111
236.05	-255.000
236.43	-111.538
236.80	-116.000
237.17	-133.333
237.55	-142.424
237.92	-470.000
238.29	-132.258
238.67	-90.909
239.04	-111.111
239.41	-95.238
239.79	-80.435
240.16	-70.370
240.53	-95.652
240.91	-94.118
241.28	-77.049
241.65	-38.806
242.02	-36.486
242.40	-66.154
242.77	-57.333
243.14	-60.976
243.51	-56.579
243.89	-42.308
244.26	-26.733
244.63	-24.510
245.00	-29.907
245.38	-35.088
245.75	-38.053
246.12	-24.603
246.49	-26.357
246.87	-22.857
247.24	-19.205
247.61	-26.316
247.98	-23.490
248.36	-16.667
248.73	-22.699
249.10	-15.847
249.47	-9.453
249.84	-7.853
250.22	-18.653
250.59	-16.667
250.96	-8.182
251.33	-15.816
251.70	-6.838
252.08	-7.917
252.45	-4.918
252.82	-9.504
253.19	-10.938
253.56	-6.084
253.94	-7.692
254.31	-4.545
254.68	-1.399
255.05	-2.280
255.42	-4.762
255.79	-4.531
256.16	-4.305
256.54	-8.609
256.91	-5.574
257.28	-5.246
257.65	-5.732
258.02	-5.605
258.39	-2.564
258.76	0.612
259.14	-1.724
259.51	-1.153
259.88	-3.966
260.25	-3.056
260.62	0.548
260.99	0.820
261.36	0.536
261.73	-2.918
262.10	-5.769
262.47	-3.753
262.85	0.505
263.22	-1.558
263.59	-0.526
263.96	-0.767
264.33	-1.790
264.70	-0.494
265.07	1.193
265.44	2.041
265.81	0.463
266.18	0.907
266.55	1.339
266.92	-2.506
267.29	2.188
267.66	0.222
268.03	-0.873
268.40	-1.461
268.77	-0.456
269.14	-1.542
269.51	0.000
269.88	-0.205
270.25	1.408
270.62	2.110
270.99	3.434
271.36	3.366
271.73	2.161
272.10	3.206
272.47	0.802
272.84	1.606
273.21	2.004
273.58	2.016
273.95	-0.192
274.32	-1.711
274.69	0.774
275.06	1.648
275.43	1.479
275.80	2.822
276.17	0.926
276.54	1.866
276.91	1.252
277.28	0.362
277.65	3.052
278.02	2.390
278.39	3.986
278.76	1.582
279.13	0.000
279.50	1.718
279.87	1.431
280.23	-0.352
280.60	2.542
280.97	3.618
281.34	1.868
281.71	3.046
282.08	2.326
282.45	1.146
282.82	2.041
283.19	-0.969
283.56	1.639
283.92	2.703
284.29	4.107
284.66	3.941
285.03	-0.481
285.40	3.709
285.77	3.870
286.14	2.595
286.51	1.370
286.87	1.738
287.24	2.861
287.61	3.587
287.98	1.662
288.35	3.107
288.72	2.071
289.08	3.807
289.45	3.107
289.82	1.355
290.19	2.299
290.56	3.521
290.93	3.138
291.29	2.893
291.66	2.893
292.03	3.121
292.40	3.673
292.77	0.943
293.13	2.436
293.50	2.891
293.87	3.356
294.24	5.200
294.60	3.540
294.97	0.134
295.34	2.689
295.71	2.522
296.08	2.972
296.44	2.328
296.81	3.776
297.18	3.611
297.55	2.476
297.91	2.728
298.28	2.488
298.65	3.924
299.02	2.361
299.38	4.462
299.75	2.804
300.12	2.546
300.48	3.111
300.85	3.262
301.22	2.796
301.59	1.598
301.95	2.712
302.32	6.000
302.69	4.600
303.05	4.679
303.42	4.213
303.79	4.167
304.15	3.785
304.52	4.440
304.89	4.503
305.25	3.209
305.62	3.866
305.99	4.227
306.35	4.133
306.72	4.033
307.09	4.670
307.45	4.141
307.82	3.935
308.19	4.339
308.55	5.400
308.92	4.382
309.29	5.939
309.65	3.899
310.02	4.752
310.38	6.496
310.75	5.243
311.12	5.465
311.48	6.256
311.85	5.318
312.22	6.072
312.58	5.728
312.95	5.641
313.31	6.685
313.68	7.143
314.05	6.414
314.41	7.468
314.78	7.175
315.14	7.169
315.51	7.295
315.87	8.551
316.24	8.584
316.61	8.259
316.97	7.421
317.34	7.937
317.70	9.170
318.07	9.259
318.43	9.184
318.80	10.284
319.16	9.442
319.53	8.740
319.89	8.940
320.26	10.320
320.62	9.663
320.99	10.249
321.35	10.721
321.72	11.442
322.08	11.181
322.45	11.834
322.81	12.184
323.18	12.124
323.54	12.931
323.91	12.544
324.27	13.081
324.64	14.442
325.00	15.174
325.37	15.479
325.73	16.364
326.10	16.383
326.46	17.182
326.83	18.094
327.19	17.874
327.56	18.656
327.92	18.725
328.29	17.903
328.65	18.760
329.01	19.966
329.38	19.714
329.74	20.890
330.11	20.291
330.47	20.893
330.84	21.102
331.20	22.750
331.56	22.184
331.93	23.264
332.29	21.610
332.66	22.508
333.02	22.362
333.38	22.064
333.75	23.822
334.11	23.269
334.48	23.515
334.84	23.280
335.20	22.586
335.57	23.356
335.93	23.802
336.29	22.962
336.66	24.979
337.02	24.749
337.38	24.575
337.75	23.719
338.11	23.297
338.47	24.566
338.84	24.365
339.20	24.516
339.56	24.217
339.93	24.795
340.29	24.557
340.65	24.899
341.02	24.900
341.38	24.980
341.74	23.648
342.11	25.422
342.47	23.352
342.83	26.329
343.20	23.957
343.56	25.180
343.92	25.140
344.28	25.391
344.65	25.736
345.01	26.209
345.37	25.117
345.73	24.474
346.10	25.741
346.46	24.842
346.82	24.569
347.19	24.523
347.55	25.948
347.91	26.152
348.27	25.645
348.63	26.047
349.00	25.652
349.36	25.874
349.72	25.521
350.08	25.632
350.45	26.540
350.81	26.018
351.17	25.714
351.53	27.142
351.89	26.879
352.26	26.418
352.62	25.597
352.98	26.336
353.34	25.317
353.70	26.965
354.07	26.602
354.43	26.651
354.79	26.851
355.15	26.784
355.51	27.851
355.87	27.076
356.24	27.681
356.60	25.129
356.96	27.279
357.32	26.691
357.68	26.647
358.04	27.470
358.40	27.313
358.77	27.997
359.13	27.253
359.49	26.989
359.85	27.919
360.21	28.623
360.57	28.643
360.93	28.561
361.29	28.561
361.66	28.168
362.02	29.158
362.38	28.742
362.74	29.609
363.10	28.336
363.46	29.917
363.82	28.835
364.18	29.416
364.54	29.461
364.90	29.365
365.26	29.862
365.62	30.133
365.98	30.088
366.35	29.799
366.71	31.429
367.07	30.379
367.43	29.941
367.79	31.387
368.15	30.836
368.51	30.717
368.87	31.025
369.23	30.867
369.59	31.489
369.95	31.102
370.31	32.140
370.67	31.774
371.03	30.471
371.39	32.505
371.75	32.737
372.11	31.640
372.47	31.347
372.83	34.097
373.19	32.422
373.55	33.604
373.91	31.766
374.27	32.083
374.63	34.303
374.99	33.422
375.35	33.442
375.71	33.935
376.07	33.957
376.42	34.824
376.78	34.307
377.14	34.810
377.50	36.306
377.86	35.345
378.22	36.347
378.58	36.088
378.94	36.326
379.30	37.141
379.66	36.214
380.02	37.623
380.38	37.961
380.74	37.465
381.09	38.966
381.45	38.693
381.81	39.578
382.17	39.133
382.53	39.357
382.89	39.108
383.25	41.442
383.61	40.046
383.97	40.459
384.32	41.447
384.68	40.139
385.04	41.006
385.40	42.251
385.76	41.794
386.12	41.891
386.48	43.647
386.83	43.147
387.19	42.410
387.55	43.251
387.91	43.436
388.27	43.476
388.62	42.153
388.98	42.470
389.34	45.433
389.70	45.962
390.06	43.813
390.42	44.398
390.77	45.936
391.13	44.131
391.49	44.988
391.85	45.394
392.20	45.136
392.56	46.958
392.92	45.202
393.28	46.877
393.64	46.089
393.99	47.647
394.35	48.832
394.71	46.647
395.07	46.766
395.42	47.858
395.78	48.873
396.14	47.356
396.50	47.328
396.85	47.823
397.21	47.278
397.57	47.998
397.92	48.225
398.28	47.583
398.64	47.941
399.00	47.696
399.35	47.801
399.71	48.370
400.07	49.467
400.42	48.778
400.78	47.743
401.14	48.492
401.49	49.744
401.85	48.895
402.21	49.305
402.57	50.763
402.92	49.054
403.28	48.770
403.63	50.477
403.99	46.853
404.35	48.721
404.70	49.065
405.06	48.478
405.42	48.712
405.77	49.945
406.13	48.730
406.49	49.437
406.84	49.086
407.20	48.966
407.55	48.940
407.91	49.654
408.27	48.881
408.62	48.807
408.98	48.810
409.34	49.677
409.69	50.371
410.05	49.590
410.40	49.246
410.76	49.748
411.11	49.562
411.47	50.184
411.83	49.442
412.18	50.723
412.54	48.429
412.89	49.593
413.25	49.266
413.60	50.373
413.96	50.991
414.31	49.405
414.67	50.686
415.03	49.723
415.38	50.504
415.74	50.031
416.09	49.907
416.45	50.157
416.80	49.143
417.16	50.830
417.51	49.315
417.87	50.889
418.22	50.180
418.58	50.805
418.93	51.339
419.29	51.480
419.64	50.780
420.00	52.463
420.35	49.972
420.71	51.637
421.06	49.741
421.42	50.975
421.77	51.158
422.12	50.317
422.48	51.920
422.83	53.012
423.19	52.520
423.54	53.374
423.90	51.353
424.25	52.213
424.61	52.813
424.96	52.334
425.31	53.450
425.67	52.013
426.02	53.901
426.38	53.157
426.73	52.455
427.09	54.844
427.44	52.430
427.79	52.626
428.15	52.683
428.50	52.921
428.85	53.731
429.21	52.606
429.56	53.504
429.92	53.415
430.27	54.506
430.62	54.812
430.98	54.206
431.33	53.715
431.68	55.220
432.04	55.053
432.39	55.544
432.74	54.966
433.10	55.165
433.45	54.571
433.80	53.594
434.16	54.236
434.51	55.396
434.86	57.763
435.22	55.951
435.57	56.604
435.92	54.758
436.28	54.551
436.63	57.073
436.98	55.233
437.34	56.032
437.69	56.907
438.04	56.108
438.39	55.830
438.75	56.226
439.10	55.708
439.45	55.562
439.81	55.198
440.16	55.550
440.51	56.299
440.86	55.142
441.22	55.788
441.57	56.761
441.92	56.499
442.27	57.879
442.63	56.433
442.98	56.243
443.33	55.813
443.68	56.492
444.03	57.667
444.39	57.189
444.74	57.478
445.09	56.716
445.44	58.588
445.79	57.567
446.15	57.760
446.50	55.814
446.85	57.977
447.20	57.447
447.55	57.531
447.91	57.068
448.26	56.660
448.61	56.801
448.96	57.833
449.31	57.794
449.66	55.664
450.02	57.648
450.37	57.965
450.72	57.643
451.07	58.257
451.42	57.481
451.77	57.810
452.12	58.634
452.47	57.695
452.83	59.516
453.18	57.793
453.53	57.783
453.88	56.654
454.23	57.740
454.58	58.270
454.93	57.160
455.28	58.880
455.63	58.556
455.98	58.827
456.34	57.951
456.69	59.024
457.04	59.693
457.39	58.315
457.74	59.564
458.09	58.210
458.44	57.328
458.79	58.484
459.14	57.944
459.49	58.178
459.84	58.762
460.19	57.690
460.54	58.489
460.89	57.755
461.24	57.414
461.59	59.878
461.94	56.874
462.29	58.399
462.64	57.876
462.99	58.506
463.34	58.144
463.69	55.862
464.04	58.810
464.39	57.904
464.74	57.241
465.09	58.478
465.44	57.403
465.79	57.536
466.14	57.843
466.49	58.105
466.84	59.614
467.19	58.960
467.54	57.462
467.89	57.759
468.24	57.230
468.59	57.499
468.94	57.343
469.29	57.648
469.64	58.741
469.99	57.935
470.34	58.168
470.68	59.877
471.03	59.528
471.38	58.273
471.73	57.932
472.08	57.614
472.43	58.399
472.78	57.746
473.13	57.965
473.48	58.369
473.83	58.561
474.17	59.261
474.52	60.072
474.87	57.807
475.22	57.803
475.57	56.594
475.92	57.043
476.27	57.401
476.61	57.580
476.96	56.934
477.31	57.327
477.66	58.972
478.01	57.346
478.36	57.228
478.70	56.798
479.05	59.356
479.40	58.786
479.75	57.637
480.10	58.456
480.45	57.794
480.79	57.460
481.14	57.904
481.49	57.519
481.84	58.703
482.19	58.323
482.53	58.286
482.88	58.972
483.23	59.627
483.58	57.991
483.92	57.358
484.27	57.367
484.62	57.096
484.97	56.843
485.31	55.262
485.66	51.364
486.01	51.911
486.36	54.676
486.70	58.365
487.05	60.935
487.40	58.881
487.75	57.455
488.09	56.044
488.44	55.055
488.79	55.143
489.13	54.707
489.48	55.806
489.83	56.579
490.17	56.825
490.52	57.184
490.87	57.572
491.22	58.925
491.56	56.997
491.91	57.610
492.26	57.551
492.60	56.930
492.95	57.701
493.30	58.180
493.64	57.249
493.99	57.412
494.34	57.274
494.68	57.516
495.03	57.841
495.37	58.944
495.72	57.914
496.07	56.661
496.41	57.186
496.76	57.756
497.11	58.599
497.45	57.833
497.80	57.885
498.14	56.916
498.49	56.985
498.84	56.490
499.18	56.905
499.53	57.489
499.87	58.418
500.22	57.168
500.56	58.030
500.91	58.078
501.26	57.182
501.60	56.606
501.95	57.403
502.29	57.394
502.64	58.155
502.98	56.126
503.33	55.551
503.67	56.127
504.02	55.867
504.36	58.132
504.71	56.959
505.06	56.389
505.40	56.490
505.75	56.330
506.09	56.860
506.44	57.335
506.78	57.202
507.13	56.893
507.47	57.745
507.82	57.292
508.16	57.170
508.51	57.103
508.85	57.204
509.19	56.940
509.54	58.501
509.88	57.746
510.23	57.504
510.57	57.322
510.92	57.523
511.26	56.614
511.61	56.253
511.95	56.418
512.30	57.361
512.64	56.722
512.98	58.179
513.33	58.115
513.67	58.236
514.02	57.588
514.36	57.289
514.70	58.958
515.05	57.664
515.39	59.108
515.74	58.749
516.08	58.109
516.42	57.143
516.77	58.360
517.11	56.782
517.46	58.006
517.80	56.708
518.14	58.923
518.49	57.104
518.83	56.839
519.17	56.920
519.52	56.604
519.86	57.233
520.20	57.401
520.55	57.722
520.89	58.221
521.23	56.784
521.58	58.531
521.92	57.507
522.26	56.529
522.61	58.507
522.95	57.036
523.29	58.506
523.64	57.960
523.98	59.042
524.32	57.937
524.66	58.566
525.01	56.569
525.35	58.070
525.69	57.251
526.04	57.577
526.38	57.069
526.72	56.805
527.06	57.889
527.41	57.259
527.75	58.670
528.09	57.792
528.43	56.069
528.78	56.185
529.12	57.225
529.46	56.773
529.80	57.208
530.15	57.565
530.49	58.304
530.83	57.143
531.17	57.467
531.51	57.521
531.86	56.971
532.20	58.049
532.54	56.613
532.88	55.939
533.22	56.276
533.57	54.876
533.91	56.341
534.25	56.303
534.59	56.667
534.93	54.726
535.27	56.789
535.62	57.078
535.96	55.956
536.30	55.758
536.64	56.396
536.98	56.888
537.32	55.494
537.66	56.457
538.01	55.045
538.35	56.151
538.69	56.190
539.03	55.487
539.37	55.771
539.71	55.976
540.05	55.815
540.39	56.174
540.73	55.191
541.07	55.733
541.42	53.987
541.76	54.389
542.10	56.333
542.44	55.786
542.78	55.292
543.12	54.291
543.46	55.250
543.80	53.957
544.14	55.416
544.48	54.433
544.82	54.698
545.16	55.456
545.50	53.865
545.84	54.133
546.18	56.420
546.52	54.713
546.86	54.340
547.20	55.025
547.54	53.995
547.88	54.370
548.22	53.626
548.56	54.476
548.90	54.149
549.24	53.374
549.58	54.322
549.92	55.166
550.26	54.498
550.60	53.989
550.94	55.110
551.28	54.983
551.62	54.717
551.96	53.463
552.30	55.386
552.64	54.200
552.98	53.961
553.32	55.820
553.66	54.727
554.00	55.612
554.34	54.955
554.68	53.841
555.02	54.008
555.36	54.898
555.69	52.018
556.03	53.468
556.37	53.379
556.71	53.773
557.05	54.377
557.39	55.143
557.73	55.945
558.07	53.444
558.41	55.482
558.75	55.375
559.08	55.184
559.42	52.675
559.76	53.731
560.10	54.387
560.44	53.892
560.78	53.750
561.12	54.002
561.45	55.109
561.79	53.907
562.13	54.775
562.47	54.007
562.81	54.177
563.15	53.788
563.48	53.076
563.82	53.023
564.16	53.180
564.50	53.516
564.84	53.097
565.17	53.000
565.51	52.992
565.85	53.504
566.19	52.938
566.52	52.545
566.86	52.688
567.20	51.659
567.54	52.841
567.88	52.141
568.21	53.113
568.55	52.182
568.89	51.067
569.23	51.542
569.56	50.215
569.90	49.786
570.24	51.029
570.57	50.417
570.91	50.031
571.25	49.147
571.59	48.650
571.92	48.881
572.26	48.782
572.60	48.321
572.93	47.927
573.27	48.750
573.61	47.618
573.95	47.512
574.28	47.722
574.62	47.362
574.96	46.581
575.29	47.081
575.63	46.570
575.97	47.305
576.30	46.657
576.64	47.053
576.98	47.130
577.31	46.890
577.65	47.565
577.98	46.423
578.32	46.424
578.66	46.570
578.99	46.856
579.33	47.132
579.67	46.646
580.00	46.033
580.34	46.313
580.67	45.940
581.01	45.695
581.35	46.035
581.68	46.211
582.02	45.928
582.35	47.221
582.69	47.571
583.02	47.318
583.36	46.663
583.70	47.035
584.03	46.340
584.37	46.433
584.70	45.648
585.04	45.292
585.37	46.023
585.71	45.739
586.04	46.367
586.38	47.284
586.72	46.152
587.05	45.843
587.39	45.949
587.72	47.225
588.06	46.204
588.39	46.652
588.73	45.926
589.06	46.670
589.40	47.326
589.73	46.819
590.07	47.248
590.40	47.262
590.73	46.978
591.07	47.059
591.40	46.579
591.74	47.973
592.07	47.950
592.41	47.200
592.74	46.539
593.08	46.975
593.41	47.565
593.75	46.954
594.08	47.713
594.41	47.853
594.75	47.625
595.08	46.568
595.42	47.305
595.75	46.755
596.09	46.798
596.42	47.582
596.75	46.854
597.09	48.081
597.42	47.437
597.75	47.158
598.09	47.222
598.42	48.211
598.76	46.695
599.09	46.636
599.42	46.195
599.76	46.418
600.09	47.414
600.42	46.713
600.76	46.400
601.09	45.901
601.42	46.928
601.76	46.552
602.09	45.533
602.42	45.983
602.76	46.531
603.09	46.439
603.42	47.110
603.76	46.230
604.09	47.551
604.42	46.385
604.76	46.804
605.09	47.507
605.42	46.292
605.75	46.038
606.09	45.838
606.42	46.188
606.75	46.514
607.09	45.776
607.42	46.628
607.75	46.932
608.08	46.448
608.42	46.634
608.75	46.600
609.08	46.477
609.41	46.670
609.75	47.098
610.08	47.054
610.41	46.559
610.74	46.471
611.07	47.380
611.41	46.637
611.74	47.483
612.07	47.452
612.40	47.719
612.73	47.139
613.07	47.042
613.40	47.931
613.73	46.172
614.06	47.252
614.39	46.550
614.72	45.172
615.06	46.631
615.39	45.674
615.72	47.867
616.05	46.722
616.38	48.537
616.71	48.015
617.05	46.273
617.38	46.816
617.71	47.354
618.04	47.167
618.37	47.869
618.70	50.283
619.03	48.088
619.36	47.411
619.69	47.918
620.03	48.023
620.36	47.730
620.69	47.933
621.02	48.425
621.35	49.637
621.68	50.615
622.01	48.683
622.34	48.117
622.67	47.560
623.00	47.368
623.33	50.033
623.66	49.157
623.99	49.506
624.32	49.643
624.65	48.777
624.99	49.350
625.32	49.706
625.65	49.157
625.98	48.475
626.31	48.618
626.64	49.231
626.97	50.488
627.30	48.064
627.63	49.062
627.96	49.249
628.29	48.093
628.62	50.798
628.95	51.534
629.28	50.212
629.61	50.589
629.94	49.623
630.26	50.508
630.59	50.432
630.92	49.784
631.25	52.147
631.58	52.448
631.91	50.984
632.24	52.930
632.57	50.285
632.90	50.953
633.23	51.633
633.56	51.531
633.89	51.343
634.22	52.079
634.55	51.044
634.88	52.814
635.20	53.606
635.53	52.542
635.86	50.596
636.19	51.432
636.52	51.371
636.85	51.277
637.18	50.728
637.51	51.613
637.83	54.042
638.16	53.917
638.49	51.643
638.82	51.860
639.15	49.828
639.48	52.656
639.81	52.771
640.13	51.472
640.46	49.697
640.79	52.083
641.12	52.422
641.45	50.690
641.77	53.145
642.10	53.675
642.43	53.723
642.76	51.762
643.09	49.863
643.41	51.120
643.74	52.552
644.07	54.069
644.40	50.354
644.73	54.282
645.05	53.451
645.38	50.791
645.71	52.639
646.04	52.224
646.36	49.781
646.69	51.380
647.02	52.752
647.35	53.740
647.67	51.530
648.00	52.229
648.33	53.453
648.66	50.642
648.98	50.476
649.31	52.233
649.64	52.058
649.96	51.061
650.29	47.844
650.62	49.646
650.94	51.051
651.27	50.000
651.60	48.392
651.92	50.760
652.25	50.507
652.58	49.656
652.90	50.000
653.23	50.704
653.56	51.641
653.88	50.562
654.21	50.845
654.54	48.121
654.86	50.000
655.19	46.299
655.52	50.838
655.84	47.568
656.17	51.735
656.49	70.826
656.82	74.540
657.15	57.766
657.47	43.881
657.80	32.434
658.13	24.875
658.45	32.075
658.78	36.824
659.10	34.684
659.43	33.902
659.75	32.671
660.08	32.549
660.41	36.559
660.73	38.883
661.06	45.374
661.38	48.166
661.71	49.483
662.03	49.383
662.36	50.984
662.68	51.970
663.01	50.442
663.33	50.473
663.66	52.198
663.98	49.038
664.31	49.531
664.63	50.867
664.96	51.724
665.28	50.454
665.61	50.175
665.93	49.643
666.26	47.491
666.58	49.077
666.91	49.159
667.23	50.476
667.56	49.901
667.88	54.000
668.21	48.242
668.53	49.421
668.86	48.723
669.18	49.084
669.50	53.082
669.83	50.800
670.15	49.409
670.48	51.786
670.80	48.566
671.13	50.473
671.45	49.016
671.77	50.659
672.10	45.000
672.42	47.573
672.75	46.697
673.07	47.463
673.39	44.068
673.72	48.993
674.04	49.310
674.37	46.333
674.69	48.501
675.01	47.619
675.34	47.328
675.66	46.255
675.98	48.881
676.31	44.336
676.63	49.810
676.95	48.467
677.28	49.395
677.60	48.031
677.92	49.904
678.25	48.080
678.57	49.288
678.89	48.123
679.22	44.774
679.54	49.402
679.86	44.068
680.18	44.279
680.51	47.484
680.83	45.827
681.15	45.862
681.48	46.287
681.80	47.841
682.12	47.028
682.44	42.404
682.77	44.326
683.09	44.129
683.41	48.450
683.73	47.059
684.06	46.310
684.38	44.723
684.70	49.910
685.02	46.472
685.34	42.928
685.67	44.953
685.99	44.632
686.31	41.279
686.63	43.918
686.96	44.953
687.28	45.928
687.60	44.781
687.92	41.961
688.24	45.242
688.56	43.276
688.89	42.831
689.21	47.162
689.53	43.333
689.85	45.759
690.17	45.926
690.49	45.817
690.82	44.158
691.14	43.927
691.46	45.315
691.78	44.383
692.10	44.220
692.42	41.607
692.74	43.194
693.06	40.926
693.39	44.023
693.71	44.173
694.03	44.052
694.35	41.524
694.67	44.559
694.99	42.128
695.31	45.475
695.63	44.805
695.95	43.478
696.27	42.637
696.59	44.690
696.91	44.595
697.23	44.396
697.56	42.159
697.88	41.477
698.20	43.503
698.52	42.235
698.84	43.867
699.16	46.531
699.48	42.887
699.80	43.830
700.12	40.175
700.44	40.783
700.76	42.755
701.08	44.310
701.40	40.674
701.72	44.030
702.04	48.930
702.36	41.099
702.68	43.032
703.00	42.787
703.32	42.611
703.64	40.098
703.96	40.095
704.28	39.558
704.60	42.785
704.91	41.071
705.23	42.466
705.55	40.390
705.87	43.636
706.19	45.399
706.51	39.759
706.83	39.769
707.15	41.534
707.47	41.355
707.79	41.703
708.11	38.983
708.43	36.559
708.74	36.607
709.06	39.443
709.38	38.498
709.70	41.935
710.02	40.568
710.34	39.628
710.66	38.268
710.98	40.437
711.29	37.363
711.61	40.113
711.93	39.601
712.25	35.676
712.57	39.528
712.89	39.412
713.20	39.053
713.52	35.549
713.84	35.097
714.16	40.789
714.48	37.887
714.80	40.000
715.11	40.420
715.43	35.809
715.75	38.684
716.07	39.227
716.39	34.153
716.70	35.542
717.02	41.967
717.34	37.979
717.66	38.926
717.97	37.329
718.29	36.082
718.61	35.197
718.93	37.864
719.24	37.267
719.56	36.196
719.88	35.736
720.20	36.452
720.51	39.441
720.83	31.563
721.15	37.171
721.46	32.877
721.78	37.000
722.10	33.333
722.42	36.913
722.73	34.839
723.05	36.842
723.37	37.847
723.68	40.502
724.00	35.379
724.32	34.859
724.63	34.615
724.95	39.362
725.27	33.798
725.58	35.336
725.90	37.241
726.22	34.796
726.53	37.987
726.85	38.050
727.16	32.326
727.48	38.532
727.80	36.424
728.11	33.922
728.43	33.333
728.74	34.114
729.06	31.788
729.38	36.688
729.69	36.242
730.01	32.738
730.32	34.545
730.64	35.849
730.96	35.404
731.27	34.078
731.59	33.791
731.90	32.987
732.22	33.073
732.53	35.912
732.85	34.286
733.16	34.897
733.48	31.098
733.80	33.983
734.11	32.764
734.43	32.432
734.74	39.241
735.06	32.412
735.37	31.892
735.69	30.541
736.00	28.814
736.32	29.111
736.63	31.944
736.95	34.195
737.26	32.727
737.58	29.394
737.89	34.706
738.21	24.159
738.52	29.508
738.83	39.590
739.15	33.688
739.46	34.694
739.78	35.276
740.09	30.372
740.41	31.778
740.72	31.667
741.04	30.097
741.35	30.526
741.66	27.059
741.98	28.689
742.29	28.870
742.61	29.386
742.92	33.846
743.23	32.130
743.55	35.659
743.86	32.400
744.18	20.248
744.49	27.004
744.80	27.984
745.12	32.068
745.43	28.862
745.74	31.466
746.06	32.627
746.37	31.646
746.68	28.455
747.00	31.250
747.31	31.760
747.62	36.538
747.94	26.721
748.25	31.325
748.56	31.020
748.88	28.632
749.19	30.603
749.50	25.541
749.82	30.120
750.13	35.231
750.44	26.667
750.75	31.077
751.07	34.154
751.38	29.022
751.69	29.073
752.01	28.479
752.32	28.758
752.63	29.932
752.94	30.796
753.26	29.740
753.57	28.148
753.88	30.337
754.19	30.547
754.51	29.904
754.82	26.045
755.13	33.770
755.44	32.082
755.75	28.289
756.07	30.746
756.38	29.874
756.69	30.723
757.00	29.363
757.31	29.781
757.63	28.645
757.94	29.108
758.25	29.120
758.56	26.144
758.87	30.909
759.18	27.733
759.50	30.312
759.81	34.174
760.12	32.075
760.43	30.729
760.74	29.310
761.05	28.250
761.36	31.325
761.67	26.904
761.99	27.297
762.30	26.524
762.61	24.752
762.92	22.761
763.23	30.712
763.54	25.180
763.85	24.055
764.16	29.293
764.47	28.521
764.78	28.754
765.10	26.100
765.41	31.282
765.72	28.571
766.03	25.424
766.34	23.197
766.65	25.784
766.96	23.108
767.27	27.650
767.58	28.856
767.89	25.000
768.20	24.883
768.51	28.241
768.82	22.490
769.13	25.000
769.44	16.923
769.75	26.715
770.06	26.154
770.37	24.409
770.68	25.532
770.99	22.267
771.30	30.000
771.61	25.095
771.92	22.222
772.23	21.457
772.54	14.352
772.85	30.876
773.16	20.000
773.47	13.757
773.78	17.838
774.09	18.182
774.39	25.000
774.70	18.579
775.01	16.463
775.32	8.824
775.63	12.270
775.94	5.096
776.25	16.774
776.56	22.436
776.87	19.728
777.18	13.793
777.48	16.783
777.79	8.108
778.10	11.029
778.41	12.500
778.72	18.621
779.03	20.370
779.34	15.152
779.65	17.098
779.95	22.222
780.26	20.455
780.57	16.129
780.88	13.043
781.19	16.774
781.50	22.941
781.80	20.430
782.11	16.402
782.42	14.141
782.73	10.180
783.04	17.318
783.34	13.939
783.65	7.843
783.96	11.801
784.27	12.500
784.57	9.934
784.88	5.714
785.19	6.299
785.50	14.961
785.81	9.023
786.11	11.538
786.42	9.353
786.73	8.633
787.04	6.767
787.34	-2.459
787.65	10.400
787.96	11.940
788.26	14.685
788.57	11.189
788.88	9.211
789.19	10.458
789.49	5.479
789.80	5.674
790.11	11.811
790.41	-3.125
790.72	-0.847
791.03	-18.447
791.33	-2.609
791.64	0.000
791.95	-1.786
792.25	0.000
792.56	7.143
792.87	-11.458
793.17	-1.786
793.48	-5.208
793.79	-20.482
794.09	-0.917
794.40	3.670
794.70	8.163
795.01	7.143
795.32	4.795
795.62	-2.113
795.93	0.758
796.23	8.197
796.54	-5.357
796.85	-5.319
797.15	-8.696
797.46	-13.699
797.76	-10.000
798.07	-13.043
798.37	-16.495
798.68	-24.675
798.99	-6.897
799.29	-8.989
799.60	-14.894
799.90	-12.048
800.21	-21.538
800.51	-29.851
800.82	-32.353
801.12	-34.247
801.43	-36.765
801.73	-37.288
802.04	-21.212
802.34	-35.000
802.65	-20.339
802.95	-10.448
803.26	-32.203
803.56	-16.438
803.87	-17.143
804.17	-17.808
804.48	-45.614
804.78	-23.611
805.09	-56.897
805.39	-28.378
805.70	-23.944
806.00	-9.756
806.30	-8.434
806.61	-24.658
806.91	-7.692
807.22	-18.889
807.52	-14.943
807.83	-20.833
808.13	-26.506
808.43	-13.483
808.74	-22.500
809.04	-33.824
809.35	-17.333
809.65	-27.143
809.95	-23.288
810.26	-50.877
810.56	-43.103
810.86	-32.353
811.17	-40.351
811.47	-45.902
811.77	-71.111
812.08	-40.678
812.38	-46.667
812.69	-34.483
812.99	-49.057
813.29	-87.179
813.59	-50.000
813.90	-36.842
814.20	-49.091
814.50	-28.169
814.81	-17.949
815.11	-16.393
815.41	-26.866
815.72	-27.586
816.02	-25.000
816.32	-53.333
816.62	-70.455
816.93	-60.000
817.23	-33.333
817.53	-61.702
817.84	-26.190
818.14	-67.647
818.44	-42.857
818.74	-51.111
819.04	-82.051
819.35	-91.429
819.65	-142.308
819.95	-45.283
820.25	-40.000
820.56	-69.048
820.86	-125.000
821.16	-84.615
821.46	-67.442
821.76	-64.000
822.07	-46.429
822.37	-76.087
822.67	-63.830
822.97	-121.622
823.27	-92.500
823.57	-38.776
823.88	-53.333
824.18	-62.500
824.48	-120.000
824.78	-100.000
825.08	-100.000
825.38	-57.778
825.69	-51.064
825.99	-80.556
826.29	-105.714
826.59	-82.051
826.89	-86.047
827.19	-70.000
827.49	-88.235
827.79	-58.333
828.09	-105.405
828.39	-96.667
828.70	-87.805
829.00	-83.721
829.30	-139.286
829.60	-82.353
829.90	-47.826
830.20	-91.429
830.50	-137.931
830.80	-211.111
831.10	-142.308
831.40	-111.765
831.70	-147.619
832.00	-80.645
832.30	-317.647
832.60	-183.333
832.90	-330.769
833.20	-226.316
833.50	-205.000
833.80	-257.895
834.10	-223.810
834.40	-58.333
834.70	-56.250
835.00	-117.143
835.30	-108.824
835.60	-130.000
835.90	-168.000
836.20	-209.091
836.50	-132.000
836.80	-124.242
837.10	-137.037
837.40	-118.519
837.70	-268.750
838.00	-117.857
838.30	-178.261
838.60	-103.448
838.90	-292.857
839.19	-186.957
839.49	-391.667
839.79	-191.304
840.09	-300.000
840.39	-205.000
840.69	-96.774
840.99	-128.571
841.29	-273.333
841.59	-200.000
841.88	-56.410
842.18	-157.692
842.48	-430.000
842.78	-185.000
843.08	-96.667
843.38	-87.097
843.68	-261.111
843.97	-108.824
844.27	-212.500
844.57	-221.053
844.87	-410.000
845.17	-246.667
845.47	-171.429
845.76	-190.476
846.06	-500.000
846.36	-200.000
846.66	-134.615
846.96	-346.667
847.25	-235.294
847.55	-182.609
847.85	-195.000
848.15	-200.000
848.44	-400.000
848.74	-171.429
849.04	-175.000
849.34	-331.250
849.63	-182.609
849.93	2450.000
850.23	-293.333
850.53	-138.462
850.82	-409.091
851.12	-172.727
851.42	-390.909
851.71	-238.462
852.01	-240.000
852.31	-223.077
852.61	-210.526
852.90	-275.000
853.20	-222.222
853.50	-544.444
853.79	-233.333
854.09	-213.636
854.39	-400.000
854.68	-129.032
854.98	-192.308
855.28	-244.444
855.57	-139.286
855.87	-176.000
856.17	-200.000
856.46	-144.444
856.76	-233.333
857.05	-213.043
857.35	-170.833
857.65	-407.692
857.94	-200.000
858.24	-122.222
858.53	-147.826
858.83	-205.882
859.13	-252.941
859.42	-252.941
859.72	-328.571
860.01	-185.000
860.31	-433.333
860.60	-470.000
860.90	-286.667
861.20	-194.444
861.49	-261.538
861.79	-110.000
862.08	-338.462
862.38	-90.625
862.67	-205.882
862.97	-237.500
863.26	-500.000
863.56	-410.000
863.85	-427.273
864.15	-205.556
864.44	-1433.333
864.74	-378.571
865.03	-325.000
865.33	-510.000
865.62	-125.806
865.92	-168.182
866.21	-160.870
866.51	-314.286
866.80	-860.000
867.10	-366.667
867.39	-416.667
867.69	5000.000
867.98	-671.429
868.27	-200.000
868.57	-5400.000
868.86	-500.000
869.16	-219.048
869.45	-154.167
869.75	-400.000
870.04	-600.000
870.33	-300.000
870.63	-685.714
870.92	-1075.000
871.22	-625.000
871.51	-372.727
871.80	-1733.333
872.10	-2450.000
>>>>>End Processed Spectral Data<<<<<
