SpectraSuite Data File
++++++++++++++++++++++++++++++++++++
Date: Thu May 14 14:39:20 PDT 2015
User: schluterlab
Dark Spectrum Present: Yes
Reference Spectrum Present: Yes
Number of Sampled Component Spectra: 1
Spectrometers: USB2E3373
Integration Time (usec): 3000 (USB2E3373)
Spectra Averaged: 3 (USB2E3373)
Boxcar Smoothing: 0 (USB2E3373)
Correct for Electrical Dark: No (USB2E3373)
Strobe/Lamp Enabled: No (USB2E3373)
Correct for Detector Non-linearity: No (USB2E3373)
Correct for Stray Light: No (USB2E3373)
Number of Pixels in Processed Spectrum: 2048
>>>>>Begin Processed Spectral Data<<<<<
178.53	0.000
178.91	-100.000
179.29	0.000
179.67	600.000
180.04	57.143
180.42	-50.000
180.80	-260.000
181.18	1600.000
181.56	1900.000
181.94	-425.000
182.31	300.000
182.69	-400.000
183.07	700.000
183.45	-375.000
183.83	183.333
184.20	500.000
184.58	-1000.000
184.96	300.000
185.34	144.444
185.72	380.000
186.09	-22.222
186.47	-50.000
186.85	-120.000
187.23	144.444
187.61	1100.000
187.98	-80.000
188.36	-225.000
188.74	175.000
189.12	500.000
189.49	112.500
189.87	162.500
190.25	211.111
190.63	300.000
191.00	66.667
191.38	0.000
191.76	100.000
192.14	150.000
192.51	-550.000
192.89	366.667
193.27	0.000
193.65	171.429
194.02	500.000
194.40	128.571
194.78	-128.571
195.15	0.000
195.53	154.545
195.91	0.000
196.29	325.000
196.66	138.462
197.04	600.000
197.42	42.857
197.79	650.000
198.17	250.000
198.55	228.571
198.92	200.000
199.30	162.500
199.68	118.182
200.05	150.000
200.43	550.000
200.81	-185.714
201.18	0.000
201.56	66.667
201.94	0.000
202.31	-266.667
202.69	88.889
203.07	-1300.000
203.44	177.778
203.82	200.000
204.19	141.667
204.57	116.667
204.95	112.500
205.32	1800.000
205.70	-250.000
206.08	216.667
206.45	50.000
206.83	80.000
207.20	316.667
207.58	180.000
207.96	166.667
208.33	316.667
208.71	-75.000
209.08	316.667
209.46	0.000
209.84	-50.000
210.21	-550.000
210.59	-500.000
210.96	-433.333
211.34	400.000
211.71	100.000
212.09	300.000
212.46	0.000
212.84	-150.000
213.22	320.000
213.59	325.000
213.97	140.000
214.34	500.000
214.72	-166.667
215.09	200.000
215.47	0.000
215.84	-214.286
216.22	-250.000
216.59	220.000
216.97	160.000
217.34	300.000
217.72	262.500
218.09	175.000
218.47	300.000
218.84	0.000
219.22	-40.000
219.59	52.941
219.97	110.000
220.34	-300.000
220.72	0.000
221.09	130.769
221.47	433.333
221.84	130.000
222.22	85.714
222.59	0.000
222.97	200.000
223.34	100.000
223.72	1400.000
224.09	275.000
224.46	200.000
224.84	320.000
225.21	157.143
225.59	50.000
225.96	125.000
226.34	88.462
226.71	66.667
227.08	400.000
227.46	160.000
227.83	425.000
228.21	136.842
228.58	-150.000
228.95	-450.000
229.33	175.000
229.70	210.000
230.08	136.842
230.45	-60.000
230.82	533.333
231.20	85.714
231.57	191.667
231.95	127.273
232.32	145.455
232.69	95.000
233.07	425.000
233.44	100.000
233.81	40.000
234.19	144.444
234.56	81.818
234.93	89.655
235.31	78.947
235.68	100.000
236.05	45.000
236.43	126.923
236.80	108.000
237.17	66.667
237.55	75.758
237.92	130.000
238.29	35.484
238.67	40.909
239.04	72.222
239.41	50.000
239.79	58.696
240.16	37.037
240.53	47.826
240.91	52.941
241.28	37.705
241.65	64.179
242.02	58.108
242.40	43.077
242.77	45.333
243.14	47.561
243.51	43.421
243.89	53.846
244.26	37.624
244.63	49.020
245.00	45.794
245.38	31.579
245.75	25.664
246.12	41.270
246.49	31.783
246.87	42.143
247.24	38.411
247.61	44.079
247.98	34.228
248.36	33.951
248.73	28.221
249.10	39.344
249.47	40.796
249.84	43.455
250.22	33.679
250.59	40.556
250.96	32.727
251.33	34.184
251.70	37.179
252.08	33.750
252.45	37.295
252.82	36.777
253.19	31.250
253.56	34.601
253.94	35.769
254.31	36.364
254.68	35.315
255.05	36.156
255.42	34.014
255.79	32.362
256.16	32.119
256.54	34.106
256.91	33.115
257.28	32.131
257.65	33.439
258.02	30.088
258.39	33.048
258.76	37.003
259.14	32.759
259.51	34.582
259.88	30.595
260.25	31.944
260.62	32.329
260.99	33.880
261.36	32.708
261.73	33.422
262.10	35.714
262.47	34.048
262.85	35.354
263.22	34.286
263.59	30.000
263.96	31.714
264.33	31.458
264.70	32.593
265.07	36.516
265.44	34.014
265.81	32.176
266.18	34.240
266.55	31.696
266.92	30.296
267.29	33.479
267.66	34.146
268.03	34.934
268.40	30.898
268.77	33.257
269.14	34.581
269.51	28.728
269.88	35.451
270.25	30.584
270.62	35.654
270.99	35.556
271.36	34.059
271.73	32.809
272.10	33.267
272.47	32.265
272.84	33.333
273.21	31.864
273.58	33.065
273.95	29.808
274.32	29.848
274.69	29.594
275.06	30.952
275.43	31.793
275.80	33.333
276.17	31.667
276.54	29.851
276.91	30.948
277.28	30.018
277.65	30.880
278.02	32.169
278.39	30.072
278.76	29.877
279.13	32.624
279.50	32.990
279.87	30.054
280.23	29.930
280.60	32.373
280.97	28.783
281.34	30.900
281.71	32.318
282.08	28.738
282.45	29.133
282.82	30.769
283.19	28.918
283.56	30.820
283.92	29.880
284.29	32.227
284.66	31.856
285.03	29.006
285.40	29.675
285.77	30.495
286.14	29.008
286.51	30.137
286.87	30.806
287.24	28.313
287.61	30.045
287.98	27.946
288.35	27.071
288.72	28.698
289.08	30.307
289.45	27.663
289.82	26.807
290.19	28.305
290.56	29.296
290.93	27.817
291.29	26.033
291.66	27.273
292.03	26.730
292.40	27.347
292.77	26.550
293.13	26.116
293.50	25.756
293.87	25.638
294.24	27.600
294.60	25.664
294.97	23.490
295.34	24.840
295.71	24.968
296.08	25.840
296.44	25.490
296.81	23.873
297.18	24.658
297.55	23.585
297.91	24.674
298.28	23.104
298.65	23.781
299.02	22.196
299.38	23.341
299.75	22.897
300.12	22.801
300.48	24.309
300.85	22.160
301.22	23.714
301.59	22.831
301.95	23.842
302.32	24.222
302.69	23.439
303.05	23.613
303.42	23.503
303.79	22.188
304.15	22.608
304.52	21.882
304.89	21.990
305.25	21.014
305.62	21.212
305.99	22.165
306.35	21.774
306.72	21.510
307.09	21.320
307.45	21.325
307.82	21.393
308.19	22.603
308.55	23.240
308.92	21.616
309.29	21.743
309.65	19.981
310.02	20.297
310.38	22.047
310.75	21.748
311.12	22.148
311.48	20.528
311.85	21.652
312.22	21.537
312.58	20.188
312.95	21.033
313.31	21.590
313.68	22.253
314.05	20.867
314.41	21.311
314.78	19.164
315.14	22.414
315.51	21.145
315.87	21.602
316.24	21.826
316.61	22.291
316.97	21.267
317.34	20.018
317.70	20.873
318.07	20.194
318.43	21.684
318.80	21.237
319.16	21.373
319.53	19.366
319.89	19.720
320.26	20.907
320.62	19.415
320.99	20.868
321.35	21.627
321.72	22.605
322.08	21.010
322.45	19.512
322.81	22.022
323.18	20.354
323.54	20.517
323.91	21.263
324.27	21.773
324.64	23.342
325.00	20.978
325.37	22.031
325.73	21.570
326.10	21.411
326.46	22.150
326.83	21.938
327.19	21.811
327.56	22.055
327.92	20.456
328.29	20.645
328.65	21.106
329.01	21.151
329.38	21.735
329.74	21.661
330.11	22.089
330.47	21.904
330.84	21.533
331.20	22.250
331.56	21.577
331.93	22.259
332.29	20.932
332.66	22.342
333.02	21.357
333.38	21.309
333.75	21.633
334.11	21.935
334.48	21.535
334.84	21.665
335.20	19.060
335.57	20.995
335.93	21.653
336.29	20.383
336.66	21.447
337.02	21.405
337.38	20.833
337.75	20.496
338.11	20.606
338.47	22.581
338.84	20.305
339.20	20.388
339.56	20.346
339.93	20.690
340.29	19.968
340.65	21.492
341.02	21.628
341.38	20.857
341.74	20.581
342.11	20.837
342.47	21.048
342.83	21.900
343.20	20.196
343.56	21.010
343.92	21.297
344.28	20.781
344.65	20.775
345.01	21.295
345.37	20.295
345.73	19.564
346.10	21.451
346.46	20.253
346.82	21.348
347.19	21.161
347.55	20.637
347.91	20.654
348.27	19.423
348.63	21.630
349.00	21.029
349.36	20.743
349.72	19.568
350.08	21.620
350.45	19.544
350.81	19.985
351.17	20.000
351.53	20.470
351.89	21.336
352.26	20.075
352.62	19.851
352.98	20.458
353.34	19.492
353.70	19.646
354.07	20.641
354.43	19.134
354.79	21.242
355.15	19.868
355.51	20.906
355.87	20.643
356.24	21.065
356.60	19.808
356.96	19.792
357.32	19.331
357.68	20.059
358.04	19.012
358.40	19.104
358.77	20.322
359.13	19.645
359.49	18.736
359.85	20.450
360.21	19.799
360.57	19.167
360.93	20.028
361.29	20.000
361.66	19.696
362.02	20.529
362.38	19.958
362.74	19.413
363.10	19.395
363.46	19.668
363.82	19.176
364.18	19.212
364.54	19.156
364.90	19.264
365.26	18.138
365.62	20.133
365.98	20.490
366.35	18.725
366.71	20.136
367.07	19.080
367.43	19.698
367.79	20.305
368.15	19.732
368.51	19.959
368.87	19.138
369.23	19.200
369.59	19.262
369.95	18.932
370.31	19.649
370.67	19.257
371.03	19.668
371.39	18.536
371.75	19.257
372.11	18.699
372.47	19.838
372.83	20.288
373.19	19.280
373.55	19.715
373.91	18.814
374.27	19.599
374.63	18.742
374.99	18.236
375.35	20.195
375.71	19.806
376.07	19.367
376.42	19.332
376.78	19.702
377.14	19.214
377.50	19.418
377.86	20.135
378.22	19.521
378.58	20.452
378.94	19.073
379.30	19.859
379.66	18.930
380.02	19.504
380.38	19.931
380.74	18.817
381.09	19.106
381.45	19.091
381.81	20.726
382.17	19.418
382.53	19.532
382.89	19.413
383.25	19.402
383.61	19.097
383.97	19.847
384.32	19.139
384.68	19.490
385.04	20.301
385.40	18.857
385.76	20.106
386.12	19.031
386.48	20.176
386.83	20.560
387.19	19.467
387.55	18.955
387.91	19.521
388.27	19.457
388.62	19.416
388.98	19.007
389.34	19.564
389.70	20.395
390.06	18.946
390.42	19.940
390.77	19.928
391.13	19.366
391.49	20.411
391.85	18.364
392.20	20.285
392.56	20.201
392.92	19.520
393.28	19.900
393.64	18.994
393.99	20.105
394.35	20.152
394.71	20.419
395.07	18.503
395.42	19.760
395.78	20.293
396.14	19.727
396.50	19.715
396.85	20.632
397.21	19.822
397.57	20.024
397.92	20.332
398.28	19.283
398.64	18.650
399.00	19.215
399.35	19.372
399.71	19.402
400.07	19.483
400.42	19.732
400.78	19.907
401.14	20.489
401.49	20.011
401.85	20.291
402.21	20.394
402.57	19.894
402.92	20.035
403.28	18.970
403.63	19.869
403.99	19.299
404.35	20.637
404.70	20.793
405.06	19.239
405.42	19.848
405.77	20.284
406.13	19.881
406.49	19.144
406.84	20.055
407.20	18.949
407.55	20.109
407.91	19.673
408.27	19.847
408.62	19.953
408.98	19.791
409.34	19.062
409.69	20.334
410.05	20.281
410.40	20.302
410.76	19.630
411.11	19.287
411.47	19.840
411.83	19.400
412.18	19.759
412.54	19.798
412.89	18.976
413.25	19.582
413.60	19.070
413.96	19.406
414.31	19.490
414.67	19.618
415.03	18.892
415.38	19.231
415.74	18.937
416.09	19.864
416.45	19.662
416.80	19.584
417.16	19.987
417.51	19.925
417.87	19.375
418.22	19.940
418.58	19.517
418.93	20.547
419.29	19.667
419.64	19.388
420.00	19.110
420.35	19.090
420.71	19.644
421.06	19.264
421.42	19.438
421.77	19.817
422.12	19.450
422.48	19.969
422.83	19.989
423.19	18.833
423.54	19.690
423.90	18.940
424.25	19.467
424.61	19.977
424.96	19.550
425.31	19.480
425.67	19.592
426.02	19.646
426.38	19.575
426.73	20.033
427.09	19.839
427.44	19.061
427.79	19.845
428.15	18.950
428.50	19.270
428.85	19.059
429.21	20.266
429.56	19.299
429.92	19.558
430.27	19.277
430.62	18.906
430.98	19.528
431.33	18.964
431.68	19.349
432.04	19.604
432.39	19.336
432.74	19.406
433.10	19.308
433.45	19.175
433.80	19.689
434.16	20.351
434.51	19.424
434.86	19.761
435.22	20.563
435.57	20.224
435.92	18.865
436.28	20.307
436.63	20.371
436.98	19.699
437.34	20.180
437.69	19.318
438.04	19.143
438.39	19.586
438.75	19.258
439.10	20.877
439.45	19.005
439.81	19.435
440.16	18.874
440.51	20.457
440.86	19.622
441.22	20.364
441.57	20.283
441.92	19.932
442.27	20.051
442.63	19.275
442.98	20.384
443.33	19.358
443.68	20.020
444.03	20.555
444.39	20.758
444.74	19.959
445.09	19.260
445.44	20.126
445.79	20.211
446.15	19.990
446.50	20.362
446.85	20.623
447.20	19.826
447.55	20.241
447.91	19.476
448.26	19.503
448.61	19.926
448.96	20.386
449.31	19.724
449.66	19.608
450.02	19.462
450.37	20.778
450.72	19.752
451.07	20.273
451.42	19.700
451.77	19.066
452.12	19.865
452.47	19.727
452.83	19.932
453.18	19.965
453.53	19.816
453.88	19.713
454.23	21.130
454.58	19.733
454.93	20.570
455.28	20.169
455.63	20.011
455.98	20.223
456.34	20.554
456.69	20.694
457.04	19.976
457.39	20.011
457.74	19.575
458.09	19.495
458.44	20.043
458.79	19.598
459.14	20.189
459.49	20.317
459.84	20.619
460.19	18.767
460.54	19.875
460.89	19.693
461.24	20.287
461.59	19.867
461.94	19.338
462.29	19.933
462.64	19.372
462.99	19.586
463.34	20.571
463.69	20.223
464.04	20.734
464.39	19.619
464.74	20.239
465.09	20.012
465.44	20.494
465.79	19.725
466.14	20.010
466.49	20.789
466.84	19.669
467.19	20.173
467.54	18.743
467.89	19.368
468.24	20.443
468.59	19.282
468.94	20.047
469.29	20.156
469.64	19.898
469.99	19.758
470.34	19.926
470.68	20.779
471.03	19.974
471.38	20.536
471.73	19.831
472.08	20.749
472.43	19.687
472.78	20.466
473.13	20.038
473.48	20.665
473.83	20.836
474.17	20.047
474.52	20.024
474.87	19.767
475.22	20.451
475.57	20.145
475.92	19.910
476.27	20.394
476.61	20.353
476.96	19.343
477.31	19.802
477.66	20.514
478.01	19.725
478.36	19.541
478.70	19.212
479.05	20.757
479.40	19.497
479.75	20.365
480.10	20.227
480.45	19.736
480.79	20.317
481.14	19.853
481.49	19.855
481.84	20.279
482.19	19.441
482.53	20.551
482.88	20.558
483.23	19.653
483.58	19.432
483.92	19.371
484.27	19.475
484.62	19.802
484.97	19.596
485.31	19.289
485.66	19.066
486.01	19.298
486.36	19.547
486.70	20.006
487.05	20.008
487.40	19.875
487.75	19.720
488.09	19.217
488.44	18.835
488.79	19.258
489.13	19.008
489.48	18.874
489.83	19.437
490.17	19.522
490.52	19.745
490.87	20.008
491.22	19.671
491.56	19.838
491.91	20.061
492.26	19.515
492.60	19.939
492.95	19.570
493.30	19.632
493.64	19.799
493.99	19.868
494.34	19.512
494.68	19.572
495.03	19.912
495.37	20.018
495.72	19.229
496.07	19.676
496.41	19.434
496.76	20.225
497.11	19.618
497.45	19.465
497.80	19.547
498.14	19.546
498.49	19.347
498.84	20.064
499.18	20.108
499.53	19.865
499.87	19.956
500.22	19.368
500.56	19.388
500.91	19.863
501.26	20.182
501.60	19.708
501.95	20.234
502.29	20.404
502.64	19.895
502.98	19.758
503.33	20.043
503.67	19.581
504.02	19.483
504.36	19.214
504.71	20.211
505.06	19.736
505.40	19.881
505.75	19.536
506.09	19.936
506.44	20.474
506.78	20.092
507.13	19.410
507.47	20.891
507.82	20.407
508.16	19.694
508.51	19.878
508.85	19.509
509.19	19.801
509.54	20.461
509.88	20.155
510.23	20.350
510.57	20.203
510.92	20.223
511.26	19.817
511.61	19.797
511.95	19.717
512.30	20.039
512.64	20.290
512.98	19.610
513.33	21.069
513.67	20.245
514.02	19.366
514.36	19.949
514.70	20.052
515.05	20.855
515.39	20.000
515.74	20.626
516.08	20.285
516.42	20.984
516.77	20.557
517.11	20.113
517.46	20.255
517.80	20.738
518.14	20.892
518.49	20.879
518.83	19.425
519.17	20.032
519.52	20.126
519.86	19.799
520.20	21.193
520.55	20.427
520.89	19.989
521.23	20.436
521.58	21.130
521.92	20.567
522.26	19.759
522.61	20.197
522.95	19.723
523.29	20.172
523.64	19.787
523.98	20.993
524.32	20.917
524.66	20.546
525.01	19.875
525.35	20.161
525.69	20.882
526.04	19.977
526.38	20.057
526.72	20.185
527.06	19.413
527.41	20.408
527.75	20.665
528.09	21.192
528.43	20.663
528.78	20.231
529.12	20.872
529.46	19.280
529.80	19.794
530.15	19.942
530.49	19.870
530.83	19.835
531.17	20.311
531.51	20.517
531.86	20.312
532.20	21.402
532.54	21.185
532.88	19.758
533.22	20.919
533.57	20.138
533.91	20.595
534.25	21.198
534.59	21.322
534.93	19.977
535.27	21.014
535.62	20.239
535.96	20.628
536.30	19.683
536.64	20.420
536.98	20.664
537.32	21.049
537.66	20.961
538.01	20.483
538.35	19.854
538.69	19.832
539.03	21.888
539.37	19.729
539.71	19.880
540.05	20.863
540.39	19.621
540.73	20.158
541.07	20.172
541.42	20.614
541.76	19.395
542.10	21.291
542.44	20.646
542.78	20.377
543.12	20.381
543.46	20.024
543.80	19.484
544.14	20.407
544.48	20.213
544.82	20.766
545.16	20.811
545.50	20.012
545.84	19.841
546.18	20.802
546.52	20.318
546.86	19.748
547.20	20.293
547.54	20.162
547.88	20.494
548.22	20.058
548.56	20.772
548.90	20.776
549.24	20.122
549.58	20.063
549.92	19.898
550.26	20.647
550.60	20.230
550.94	20.957
551.28	20.528
551.62	21.294
551.96	21.036
552.30	21.670
552.64	20.597
552.98	20.087
553.32	20.965
553.66	21.158
554.00	20.681
554.34	20.399
554.68	19.755
555.02	20.434
555.36	21.762
555.69	19.218
556.03	19.672
556.37	21.277
556.71	20.482
557.05	20.319
557.39	20.239
557.73	20.343
558.07	19.801
558.41	21.130
558.75	19.946
559.08	20.807
559.42	20.439
559.76	20.556
560.10	19.692
560.44	21.702
560.78	20.937
561.12	20.443
561.45	20.012
561.79	20.757
562.13	20.333
562.47	21.085
562.81	20.949
563.15	20.076
563.48	20.447
563.82	20.677
564.16	20.351
564.50	20.620
564.84	20.354
565.17	20.294
565.51	20.829
565.85	20.606
566.19	19.873
566.52	19.778
566.86	20.543
567.20	19.467
567.54	20.499
567.88	20.948
568.21	20.800
568.55	20.576
568.89	20.336
569.23	20.279
569.56	20.164
569.90	20.492
570.24	20.000
570.57	20.462
570.91	20.086
571.25	19.988
571.59	20.317
571.92	20.203
572.26	20.143
572.60	19.847
572.93	20.262
573.27	19.865
573.61	19.878
573.95	20.151
574.28	20.042
574.62	19.850
574.96	19.519
575.29	19.850
575.63	19.843
575.97	19.832
576.30	19.640
576.64	19.995
576.98	19.886
577.31	19.996
577.65	19.748
577.98	19.936
578.32	19.985
578.66	19.695
578.99	19.394
579.33	19.253
579.67	19.832
580.00	19.622
580.34	19.939
580.67	19.616
581.01	19.342
581.35	20.086
581.68	19.858
582.02	20.033
582.35	20.174
582.69	20.082
583.02	19.959
583.36	19.593
583.70	19.791
584.03	19.702
584.37	19.526
584.70	19.071
585.04	19.577
585.37	19.797
585.71	19.525
586.04	19.837
586.38	20.102
586.72	19.529
587.05	19.468
587.39	19.820
587.72	20.167
588.06	20.092
588.39	20.040
588.73	19.762
589.06	19.554
589.40	19.453
589.73	19.762
590.07	19.993
590.40	20.284
590.73	20.255
591.07	19.955
591.40	20.257
591.74	19.754
592.07	20.666
592.41	19.558
592.74	19.737
593.08	20.382
593.41	21.493
593.75	20.546
594.08	20.267
594.41	20.032
594.75	19.993
595.08	19.886
595.42	20.487
595.75	19.696
596.09	19.993
596.42	19.778
596.75	20.378
597.09	19.919
597.42	19.468
597.75	19.992
598.09	20.397
598.42	20.386
598.76	20.061
599.09	19.687
599.42	19.444
599.76	19.676
600.09	19.853
600.42	19.920
600.76	20.046
601.09	20.080
601.42	19.705
601.76	19.828
602.09	19.550
602.42	20.029
602.76	19.889
603.09	19.897
603.42	20.340
603.76	19.626
604.09	20.369
604.42	20.000
604.76	20.434
605.09	19.426
605.42	20.295
605.75	19.846
606.09	20.007
606.42	19.993
606.75	19.453
607.09	19.662
607.42	20.385
607.75	20.360
608.08	20.324
608.42	19.669
608.75	20.149
609.08	19.525
609.41	20.071
609.75	19.821
610.08	19.833
610.41	19.924
610.74	19.832
611.07	19.671
611.41	20.628
611.74	20.416
612.07	20.617
612.40	20.105
612.73	20.000
613.07	20.293
613.40	20.500
613.73	19.547
614.06	19.529
614.39	20.651
614.72	19.893
615.06	20.164
615.39	19.961
615.72	20.095
616.05	20.447
616.38	20.030
616.71	19.958
617.05	20.288
617.38	20.011
617.71	20.572
618.04	19.860
618.37	20.383
618.70	20.419
619.03	19.773
619.36	20.345
619.69	19.090
620.03	19.962
620.36	19.448
620.69	20.358
621.02	20.472
621.35	20.537
621.68	20.246
622.01	19.786
622.34	20.363
622.67	19.656
623.00	19.231
623.33	20.836
623.66	20.558
623.99	20.342
624.32	20.858
624.65	20.142
624.99	20.546
625.32	21.032
625.65	20.904
625.98	19.593
626.31	19.135
626.64	19.634
626.97	19.355
627.30	18.679
627.63	20.405
627.96	19.895
628.29	20.856
628.62	20.067
628.95	19.457
629.28	19.966
629.61	20.202
629.94	18.996
630.26	18.983
630.59	20.121
630.92	19.654
631.25	19.410
631.58	19.962
631.91	19.681
632.24	20.365
632.57	20.778
632.90	20.160
633.23	19.898
633.56	19.592
633.89	19.525
634.22	19.023
634.55	20.981
634.88	19.372
635.20	20.129
635.53	20.226
635.86	21.127
636.19	20.891
636.52	20.570
636.85	19.305
637.18	19.439
637.51	19.570
637.83	20.266
638.16	20.046
638.49	19.014
638.82	20.857
639.15	19.702
639.48	20.092
639.81	19.169
640.13	20.377
640.46	18.788
640.79	19.975
641.12	20.497
641.45	19.699
641.77	22.080
642.10	20.341
642.43	21.676
642.76	21.680
643.09	21.370
643.41	19.328
643.74	19.448
644.07	20.552
644.40	19.378
644.73	20.174
645.05	20.117
645.38	21.583
645.71	20.235
646.04	22.238
646.36	20.000
646.69	20.399
647.02	20.031
647.35	21.679
647.67	20.451
648.00	20.541
648.33	21.922
648.66	19.401
648.98	19.320
649.31	20.568
649.64	22.576
649.96	20.557
650.29	20.306
650.62	20.934
650.94	18.919
651.27	18.862
651.60	19.444
651.92	19.453
652.25	20.116
652.58	19.807
652.90	18.459
653.23	20.986
653.56	19.829
653.88	21.348
654.21	22.394
654.54	20.376
654.86	20.255
655.19	17.817
655.52	19.633
655.84	19.717
656.17	24.998
656.49	34.505
656.82	37.643
657.15	28.399
657.47	20.380
657.80	14.640
658.13	11.153
658.45	14.572
658.78	17.699
659.10	16.557
659.43	16.846
659.75	16.538
660.08	16.415
660.41	17.039
660.73	17.902
661.06	19.824
661.38	19.617
661.71	18.621
662.03	19.929
662.36	20.215
662.68	20.450
663.01	19.292
663.33	21.739
663.66	21.612
663.98	20.000
664.31	21.576
664.63	19.653
664.96	20.871
665.28	18.149
665.61	21.503
665.93	19.464
666.26	21.685
666.58	17.897
666.91	22.056
667.23	19.238
667.56	20.118
667.88	20.400
668.21	16.211
668.53	16.216
668.86	20.432
669.18	21.996
669.50	19.284
669.83	20.200
670.15	18.701
670.48	21.429
670.80	19.885
671.13	20.227
671.45	17.323
671.77	21.281
672.10	20.333
672.42	18.123
672.75	18.587
673.07	19.254
673.39	19.723
673.72	19.799
674.04	20.000
674.37	18.962
674.69	19.400
675.01	18.095
675.34	20.420
675.66	20.037
675.98	20.896
676.31	21.094
676.63	21.863
676.95	20.881
677.28	19.960
677.60	18.307
677.92	20.537
678.25	20.293
678.57	22.064
678.89	22.526
679.22	19.512
679.54	18.803
679.86	19.831
680.18	19.900
680.51	19.340
680.83	18.331
681.15	20.690
681.48	18.998
681.80	21.762
682.12	19.930
682.44	19.533
682.77	21.099
683.09	17.424
683.41	20.736
683.73	18.596
684.06	19.742
684.38	20.572
684.70	19.569
685.02	21.343
685.34	19.301
685.67	19.401
685.99	19.172
686.31	20.058
686.63	17.694
686.96	20.032
687.28	18.893
687.60	18.855
687.92	19.293
688.24	21.035
688.56	17.069
688.89	18.149
689.21	20.548
689.53	16.078
689.85	19.724
690.17	17.778
690.49	19.522
690.82	19.604
691.14	18.016
691.46	22.180
691.78	19.521
692.10	20.917
692.42	18.036
692.74	18.512
693.06	15.926
693.39	20.304
693.71	19.925
694.03	18.030
694.35	20.571
694.67	20.123
694.99	20.213
695.31	19.426
695.63	17.749
695.95	19.255
696.27	18.681
696.59	20.354
696.91	21.847
697.23	21.319
697.56	17.515
697.88	20.644
698.20	19.774
698.52	21.402
698.84	19.958
699.16	22.857
699.48	20.711
699.80	17.872
700.12	19.214
700.44	22.811
700.76	18.765
701.08	22.760
701.40	21.503
701.72	20.398
702.04	23.529
702.36	18.586
702.68	20.293
703.00	21.271
703.32	18.473
703.64	20.538
703.96	21.957
704.28	20.147
704.60	20.000
704.91	21.173
705.23	20.548
705.55	19.499
705.87	20.000
706.19	19.018
706.51	15.361
706.83	17.579
707.15	17.989
707.47	19.393
707.79	20.524
708.11	16.737
708.43	18.495
708.74	14.732
709.06	18.561
709.38	20.423
709.70	24.814
710.02	19.897
710.34	22.606
710.66	15.922
710.98	18.033
711.29	21.154
711.61	20.621
711.93	18.519
712.25	18.919
712.57	21.534
712.89	22.059
713.20	19.822
713.52	19.075
713.84	22.563
714.16	23.158
714.48	17.010
714.80	22.597
715.11	18.898
715.43	17.507
715.75	19.737
716.07	18.785
716.39	21.858
716.70	20.783
717.02	21.311
717.34	18.467
717.66	20.805
717.97	17.466
718.29	18.900
718.61	19.737
718.93	20.065
719.24	20.807
719.56	22.699
719.88	21.922
720.20	20.968
720.51	18.323
720.83	18.125
721.15	17.763
721.46	17.466
721.78	20.667
722.10	18.447
722.42	18.792
722.73	21.290
723.05	21.404
723.37	19.097
723.68	21.864
724.00	20.939
724.32	18.310
724.63	21.329
724.95	21.631
725.27	20.906
725.58	19.081
725.90	18.966
726.22	20.690
726.53	19.481
726.85	22.956
727.16	21.450
727.48	21.407
727.80	22.185
728.11	17.668
728.43	22.222
728.74	24.415
729.06	19.205
729.38	18.506
729.69	17.114
730.01	21.429
730.32	19.394
730.64	17.610
730.96	16.149
731.27	22.346
731.59	22.527
731.90	16.623
732.22	20.573
732.53	15.470
732.85	21.143
733.16	20.235
733.48	15.244
733.80	19.499
734.11	20.228
734.43	19.189
734.74	21.266
735.06	17.839
735.37	20.811
735.69	17.297
736.00	19.492
736.32	16.442
736.63	18.889
736.95	22.414
737.26	19.697
737.58	16.364
737.89	22.647
738.21	17.431
738.52	20.984
738.83	19.795
739.15	19.504
739.46	19.388
739.78	20.552
740.09	17.192
740.41	20.408
740.72	19.667
741.04	23.301
741.35	22.456
741.66	16.471
741.98	25.820
742.29	20.084
742.61	24.561
742.92	23.846
743.23	20.217
743.55	18.605
743.86	20.800
744.18	13.223
744.49	19.831
744.80	22.634
745.12	19.831
745.43	22.358
745.74	21.552
746.06	21.610
746.37	22.785
746.68	29.268
747.00	22.500
747.31	23.176
747.62	24.231
747.94	18.623
748.25	16.466
748.56	19.592
748.88	25.214
749.19	22.414
749.50	27.273
749.82	20.884
750.13	23.488
750.44	16.333
750.75	23.077
751.07	22.154
751.38	19.558
751.69	20.767
752.01	18.447
752.32	22.549
752.63	18.367
752.94	17.647
753.26	17.472
753.57	17.037
753.88	16.854
754.19	18.971
754.51	19.293
754.82	18.650
755.13	22.295
755.44	20.478
755.75	21.711
756.07	22.687
756.38	21.069
756.69	23.494
757.00	17.452
757.31	18.579
757.63	20.716
757.94	20.892
758.25	20.316
758.56	22.222
758.87	17.045
759.18	20.533
759.50	17.280
759.81	19.328
760.12	20.755
760.43	20.312
760.74	21.921
761.05	21.000
761.36	18.554
761.67	21.574
761.99	19.189
762.30	18.902
762.61	15.842
762.92	21.269
763.23	23.596
763.54	22.662
763.85	24.055
764.16	21.549
764.47	22.887
764.78	21.086
765.10	18.768
765.41	23.333
765.72	20.635
766.03	19.774
766.34	19.436
766.65	16.376
766.96	21.912
767.27	24.424
767.58	19.403
767.89	27.404
768.20	21.127
768.51	23.611
768.82	24.900
769.13	21.212
769.44	18.462
769.75	23.466
770.06	23.077
770.37	25.197
770.68	20.426
770.99	19.433
771.30	25.185
771.61	20.532
771.92	22.963
772.23	22.672
772.54	18.519
772.85	28.111
773.16	29.524
773.47	17.460
773.78	18.378
774.09	19.886
774.39	26.500
774.70	30.055
775.01	25.610
775.32	26.471
775.63	16.564
775.94	15.924
776.25	23.226
776.56	32.692
776.87	26.531
777.18	20.000
777.48	25.175
777.79	25.000
778.10	19.118
778.41	30.556
778.72	26.207
779.03	22.222
779.34	21.818
779.65	24.870
779.95	27.222
780.26	26.136
780.57	21.935
780.88	25.362
781.19	27.097
781.50	30.000
781.80	23.118
782.11	19.577
782.42	16.162
782.73	22.754
783.04	20.670
783.34	21.818
783.65	20.261
783.96	24.224
784.27	25.000
784.57	21.192
784.88	17.143
785.19	21.260
785.50	27.559
785.81	27.820
786.11	32.308
786.42	23.022
786.73	23.022
787.04	29.323
787.34	33.607
787.65	24.800
787.96	18.657
788.26	37.762
788.57	36.364
788.88	17.105
789.19	32.680
789.49	24.658
789.80	24.823
790.11	24.409
790.41	25.781
790.72	17.797
791.03	25.243
791.33	22.609
791.64	27.193
791.95	31.250
792.25	22.857
792.56	25.000
792.87	29.167
793.17	25.000
793.48	30.208
793.79	16.867
794.09	19.266
794.40	24.771
794.70	25.170
795.01	18.182
795.32	21.918
795.62	25.352
795.93	18.182
796.23	14.754
796.54	27.679
796.85	23.404
797.15	26.087
797.46	19.178
797.76	20.000
798.07	28.261
798.37	25.773
798.68	14.286
798.99	21.839
799.29	29.213
799.60	29.787
799.90	37.349
800.21	26.154
800.51	17.910
800.82	17.647
801.12	4.110
801.43	22.059
801.73	25.424
802.04	27.273
802.34	25.000
802.65	28.814
802.95	35.821
803.26	32.203
803.56	34.247
803.87	31.429
804.17	30.137
804.48	1.754
804.78	31.944
805.09	20.690
805.39	31.081
805.70	22.535
806.00	35.366
806.30	33.735
806.61	38.356
806.91	23.077
807.22	31.111
807.52	27.586
807.83	41.667
808.13	21.687
808.43	33.708
808.74	30.000
809.04	27.941
809.35	33.333
809.65	41.429
809.95	35.616
810.26	12.281
810.56	36.207
810.86	36.765
811.17	47.368
811.47	18.033
811.77	24.444
812.08	23.729
812.38	35.000
812.69	34.483
812.99	30.189
813.29	43.590
813.59	32.000
813.90	40.351
814.20	41.818
814.50	47.887
814.81	33.333
815.11	31.148
815.41	31.343
815.72	46.552
816.02	55.357
816.32	53.333
816.62	56.818
816.93	33.333
817.23	61.111
817.53	12.766
817.84	66.667
818.14	55.882
818.44	42.857
818.74	42.222
819.04	15.385
819.35	11.429
819.65	23.077
819.95	41.509
820.25	55.556
820.56	26.190
820.86	31.250
821.16	53.846
821.46	16.279
821.76	24.000
822.07	35.714
822.37	23.913
822.67	40.426
822.97	18.919
823.27	45.000
823.57	46.939
823.88	60.000
824.18	47.500
824.48	56.667
824.78	32.000
825.08	63.636
825.38	88.889
825.69	44.681
825.99	55.556
826.29	17.143
826.59	48.718
826.89	37.209
827.19	38.000
827.49	55.882
827.79	43.750
828.09	43.243
828.39	43.333
828.70	48.780
829.00	37.209
829.30	28.571
829.60	55.882
829.90	30.435
830.20	34.286
830.50	55.172
830.80	94.444
831.10	30.769
831.40	29.412
831.70	104.762
832.00	54.839
832.30	-41.176
832.60	16.667
832.90	100.000
833.20	89.474
833.50	30.000
833.80	47.368
834.10	23.810
834.40	36.111
834.70	53.125
835.00	8.571
835.30	50.000
835.60	46.667
835.90	48.000
836.20	40.909
836.50	76.000
836.80	42.424
837.10	33.333
837.40	40.741
837.70	12.500
838.00	57.143
838.30	56.522
838.60	89.655
838.90	114.286
839.19	4.348
839.49	66.667
839.79	56.522
840.09	43.750
840.39	90.000
840.69	35.484
840.99	10.714
841.29	86.667
841.59	52.632
841.88	46.154
842.18	-3.846
842.48	150.000
842.78	75.000
843.08	76.667
843.38	64.516
843.68	66.667
843.97	73.529
844.27	50.000
844.57	10.526
844.87	30.000
845.17	26.667
845.47	100.000
845.76	23.810
846.06	155.556
846.36	47.059
846.66	23.077
846.96	13.333
847.25	76.471
847.55	86.957
847.85	110.000
848.15	100.000
848.44	27.273
848.74	95.238
849.04	41.667
849.34	56.250
849.63	47.826
849.93	-50.000
850.23	113.333
850.53	53.846
850.82	27.273
851.12	109.091
851.42	109.091
851.71	161.538
852.01	100.000
852.31	161.538
852.61	73.684
852.90	125.000
853.20	116.667
853.50	100.000
853.79	66.667
854.09	13.636
854.39	50.000
854.68	87.097
854.98	53.846
855.28	116.667
855.57	21.429
855.87	64.000
856.17	90.909
856.46	70.370
856.76	83.333
857.05	56.522
857.35	54.167
857.65	38.462
857.94	71.429
858.24	77.778
858.53	86.957
858.83	64.706
859.13	70.588
859.42	111.765
859.72	85.714
860.01	90.000
860.31	133.333
860.60	90.000
860.90	93.333
861.20	111.111
861.49	123.077
861.79	60.000
862.08	69.231
862.38	65.625
862.67	47.059
862.97	87.500
863.26	44.444
863.56	110.000
863.85	81.818
864.15	44.444
864.44	300.000
864.74	121.429
865.03	118.750
865.33	50.000
865.62	19.355
865.92	77.273
866.21	86.957
866.51	135.714
866.80	160.000
867.10	33.333
867.39	108.333
867.69	-500.000
867.98	114.286
868.27	52.941
868.57	0.000
868.86	10.000
869.16	85.714
869.45	66.667
869.75	100.000
870.04	214.286
870.33	141.667
870.63	142.857
870.92	275.000
871.22	0.000
871.51	109.091
871.80	-33.333
872.10	200.000
>>>>>End Processed Spectral Data<<<<<
