SpectraSuite Data File
++++++++++++++++++++++++++++++++++++
Date: Thu May 14 15:25:29 PDT 2015
User: schluterlab
Dark Spectrum Present: Yes
Reference Spectrum Present: Yes
Number of Sampled Component Spectra: 1
Spectrometers: USB2E3373
Integration Time (usec): 3000 (USB2E3373)
Spectra Averaged: 3 (USB2E3373)
Boxcar Smoothing: 0 (USB2E3373)
Correct for Electrical Dark: No (USB2E3373)
Strobe/Lamp Enabled: No (USB2E3373)
Correct for Detector Non-linearity: No (USB2E3373)
Correct for Stray Light: No (USB2E3373)
Number of Pixels in Processed Spectrum: 2048
>>>>>Begin Processed Spectral Data<<<<<
178.53	0.000
178.91	685.714
179.29	-5500.000
179.67	-5400.000
180.04	500.000
180.42	520.000
180.80	1040.000
181.18	-5000.000
181.56	-4200.000
181.94	1275.000
182.31	-1075.000
182.69	1600.000
183.07	-2000.000
183.45	1100.000
183.83	-883.333
184.20	-1766.667
184.58	4700.000
184.96	-1300.000
185.34	-466.667
185.72	-840.000
186.09	600.000
186.47	2500.000
186.85	1080.000
187.23	-544.444
187.61	-3900.000
187.98	880.000
188.36	1325.000
188.74	-1275.000
189.12	-1566.667
189.49	-300.000
189.87	-625.000
190.25	-455.556
190.63	-900.000
191.00	-444.444
191.38	0.000
191.76	-1325.000
192.14	-683.333
192.51	2300.000
192.89	-550.000
193.27	0.000
193.65	-600.000
194.02	-5100.000
194.40	-571.429
194.78	714.286
195.15	0.000
195.53	-454.545
195.91	0.000
196.29	-1225.000
196.66	-407.692
197.04	-5100.000
197.42	-700.000
197.79	-2300.000
198.17	-637.500
198.55	-742.857
198.92	-511.111
199.30	-675.000
199.68	-454.545
200.05	-264.286
200.43	-2700.000
200.81	814.286
201.18	0.000
201.56	611.111
201.94	0.000
202.31	1566.667
202.69	-588.889
203.07	4200.000
203.44	-544.444
203.82	-1025.000
204.19	-416.667
204.57	-783.333
204.95	-562.500
205.32	-4500.000
205.70	975.000
206.08	-716.667
206.45	-683.333
206.83	1080.000
207.20	-766.667
207.58	-1060.000
207.96	-933.333
208.33	-666.667
208.71	416.667
209.08	-633.333
209.46	0.000
209.84	866.667
210.21	2200.000
210.59	2250.000
210.96	1633.333
211.34	-1075.000
211.71	-625.000
212.09	-4500.000
212.46	0.000
212.84	2550.000
213.22	-1020.000
213.59	-1125.000
213.97	-410.000
214.34	-1533.333
214.72	866.667
215.09	-1325.000
215.47	0.000
215.84	800.000
216.22	2750.000
216.59	-920.000
216.97	-1000.000
217.34	-1250.000
217.72	-650.000
218.09	-1225.000
218.47	-1125.000
218.84	0.000
219.22	880.000
219.59	-252.941
219.97	-205.000
220.34	2250.000
220.72	-611.111
221.09	-230.769
221.47	-1400.000
221.84	-420.000
222.22	-657.143
222.59	0.000
222.97	-575.000
223.34	-1060.000
223.72	-4800.000
224.09	-1050.000
224.46	-1075.000
224.84	-780.000
225.21	-671.429
225.59	-1275.000
225.96	-1150.000
226.34	-161.538
226.71	833.333
227.08	-2550.000
227.46	-273.333
227.83	-1125.000
228.21	-189.474
228.58	687.500
228.95	2600.000
229.33	-408.333
229.70	-390.000
230.08	-178.947
230.45	530.000
230.82	-1433.333
231.20	-300.000
231.57	-350.000
231.95	-363.636
232.32	-363.636
232.69	-225.000
233.07	-1275.000
233.44	-217.647
233.81	-530.000
234.19	-261.111
234.56	-227.273
234.93	-134.483
235.31	-221.053
235.68	-255.556
236.05	-285.000
236.43	-103.846
236.80	-144.000
237.17	-137.037
237.55	-121.212
237.92	-430.000
238.29	-132.258
238.67	-109.091
239.04	-130.556
239.41	-111.905
239.79	-102.174
240.16	-79.630
240.53	-89.130
240.91	-100.000
241.28	-73.770
241.65	-49.254
242.02	-51.351
242.40	-86.154
242.77	-60.000
243.14	-67.073
243.51	-78.947
243.89	-70.513
244.26	-41.584
244.63	-42.157
245.00	-41.121
245.38	-33.333
245.75	-51.327
246.12	-34.127
246.49	-37.209
246.87	-27.857
247.24	-28.477
247.61	-25.658
247.98	-28.859
248.36	-25.309
248.73	-31.288
249.10	-25.137
249.47	-17.413
249.84	-18.848
250.22	-23.316
250.59	-24.444
250.96	-13.636
251.33	-25.000
251.70	-14.530
252.08	-12.500
252.45	-16.803
252.82	-16.529
253.19	-13.672
253.56	-13.308
253.94	-16.154
254.31	-11.364
254.68	-8.741
255.05	-8.143
255.42	-11.905
255.79	-13.916
256.16	-12.252
256.54	-12.583
256.91	-12.787
257.28	-10.820
257.65	-16.242
258.02	-13.569
258.39	-8.832
258.76	-9.786
259.14	-8.333
259.51	-9.510
259.88	-10.765
260.25	-7.500
260.62	-7.671
260.99	-4.645
261.36	-6.971
261.73	-10.875
262.10	-12.637
262.47	-8.043
262.85	-2.525
263.22	-9.610
263.59	-12.105
263.96	-9.974
264.33	-9.463
264.70	-7.654
265.07	-4.773
265.44	-3.855
265.81	-6.713
266.18	-6.576
266.55	-6.920
266.92	-7.062
267.29	-4.814
267.66	-5.987
268.03	-5.459
268.40	-5.428
268.77	-9.112
269.14	-11.013
269.51	-9.649
269.88	-5.943
270.25	-3.018
270.62	-3.586
270.99	-2.626
271.36	-2.178
271.73	-4.322
272.10	-5.411
272.47	-7.014
272.84	-6.827
273.21	-4.810
273.58	-5.040
273.95	-5.192
274.32	-5.703
274.69	-4.449
275.06	-2.747
275.43	-4.251
275.80	-2.822
276.17	-6.852
276.54	-6.343
276.91	-5.188
277.28	-3.978
277.65	-3.950
278.02	-3.676
278.39	-4.529
278.76	-4.569
279.13	-4.078
279.50	-3.265
279.87	-3.220
280.23	-7.570
280.60	-5.085
280.97	-3.125
281.34	-3.735
281.71	-1.861
282.08	-4.485
282.45	-4.092
282.82	-3.454
283.19	-5.816
283.56	-5.082
283.92	-1.051
284.29	-3.476
284.66	-4.762
285.03	-6.090
285.40	-2.628
285.77	-4.799
286.14	-1.679
286.51	-3.196
286.87	-4.739
287.24	-2.560
287.61	-4.335
287.98	-4.381
288.35	-2.219
288.72	-3.402
289.08	-2.635
289.45	-3.402
289.82	-1.958
290.19	-3.592
290.56	-1.549
290.93	-3.566
291.29	-1.102
291.66	-3.168
292.03	-3.392
292.40	-2.177
292.77	-3.639
293.13	-2.436
293.50	-3.811
293.87	-3.356
294.24	-0.933
294.60	-2.402
294.97	-5.369
295.34	-0.768
295.71	-2.774
296.08	-3.747
296.44	-3.064
296.81	-4.263
297.18	-2.864
297.55	-1.651
297.91	-2.135
298.28	-3.910
298.65	-2.140
299.02	-2.715
299.38	-1.831
299.75	-1.402
300.12	-3.125
300.48	-0.922
300.85	-1.462
301.22	-2.237
301.59	-3.082
301.95	-2.486
302.32	-0.889
302.69	-2.300
303.05	-0.762
303.42	-1.663
303.79	-2.083
304.15	-1.472
304.52	-2.114
304.89	-1.257
305.25	-1.242
305.62	-0.940
305.99	-0.825
306.35	-2.823
306.72	-0.724
307.09	-1.523
307.45	-1.139
307.82	-0.908
308.19	-1.715
308.55	-0.096
308.92	-1.071
309.29	-0.383
309.65	-1.267
310.02	-1.485
310.38	-1.673
310.75	-0.583
311.12	-0.671
311.48	-1.564
311.85	-0.855
312.22	-0.949
312.58	0.188
312.95	-1.147
313.31	-0.181
313.68	0.275
314.05	0.903
314.41	1.730
314.78	0.817
315.14	0.454
315.51	0.923
315.87	0.990
316.24	0.731
316.61	2.131
316.97	0.271
317.34	0.265
317.70	2.445
318.07	1.499
318.43	2.296
318.80	3.177
319.16	1.459
319.53	1.285
319.89	0.789
320.26	2.847
320.62	2.216
320.99	2.308
321.35	2.957
321.72	3.628
322.08	2.164
322.45	2.529
322.81	2.527
323.18	2.212
323.54	4.483
323.91	4.537
324.27	4.389
324.64	5.038
325.00	3.731
325.37	4.914
325.73	5.868
326.10	5.758
326.46	6.515
326.83	6.485
327.19	6.535
327.56	6.166
327.92	5.665
328.29	6.532
328.65	6.449
329.01	6.007
329.38	7.414
329.74	7.791
330.11	7.705
330.47	7.245
330.84	7.838
331.20	8.417
331.56	7.712
331.93	7.615
332.29	7.797
332.66	8.389
333.02	7.119
333.38	7.718
333.75	8.418
334.11	7.089
334.48	8.498
334.84	9.176
335.20	8.060
335.57	10.118
335.93	9.174
336.29	9.068
336.66	7.569
337.02	8.445
337.38	7.908
337.75	7.355
338.11	9.167
338.47	9.429
338.84	7.868
339.20	7.919
339.56	8.567
339.93	8.128
340.29	8.937
340.65	8.354
341.02	9.816
341.38	9.378
341.74	8.636
342.11	8.447
342.47	8.022
342.83	8.132
343.20	9.321
343.56	8.982
343.92	8.407
344.28	8.594
344.65	9.147
345.01	8.970
345.37	9.565
345.73	8.574
346.10	9.048
346.46	8.544
346.82	9.213
347.19	9.015
347.55	9.939
347.91	8.321
348.27	8.877
348.63	9.444
349.00	8.874
349.36	9.963
349.72	9.152
350.08	9.435
350.45	9.278
350.81	9.578
351.17	9.323
351.53	8.264
351.89	8.960
352.26	9.179
352.62	9.851
352.98	7.328
353.34	8.140
353.70	9.091
354.07	9.463
354.43	9.491
354.79	10.097
355.15	9.198
355.51	10.307
355.87	9.125
356.24	9.658
356.60	8.500
356.96	9.489
357.32	9.591
357.68	9.517
358.04	9.805
358.40	9.851
358.77	9.942
359.13	9.601
359.49	8.848
359.85	9.282
360.21	9.756
360.57	10.122
360.93	9.803
361.29	9.684
361.66	10.355
362.02	11.134
362.38	9.909
362.74	9.707
363.10	10.591
363.46	10.803
363.82	9.304
364.18	11.049
364.54	10.927
364.90	10.635
365.26	9.517
365.62	11.467
365.98	10.551
366.35	11.544
366.71	11.224
367.07	11.367
367.43	11.556
367.79	12.210
368.15	11.438
368.51	11.637
368.87	11.039
369.23	11.067
369.59	11.885
369.95	11.629
370.31	11.951
370.67	11.279
371.03	12.119
371.39	10.813
371.75	11.554
372.11	11.924
372.47	11.645
372.83	12.696
373.19	12.608
373.55	12.669
373.91	11.179
374.27	11.578
374.63	13.396
374.99	13.329
375.35	13.377
375.71	12.710
376.07	12.847
376.42	13.602
376.78	13.984
377.14	13.288
377.50	14.864
377.86	14.594
378.22	14.790
378.58	13.912
378.94	14.554
379.30	15.231
379.66	14.697
380.02	14.599
380.38	16.071
380.74	15.831
381.09	15.447
381.45	15.739
381.81	16.452
382.17	16.746
382.53	16.842
382.89	16.027
383.25	16.882
383.61	16.840
383.97	16.667
384.32	17.105
384.68	16.009
385.04	18.334
385.40	17.325
385.76	17.644
386.12	17.594
386.48	17.941
386.83	18.772
387.19	18.134
387.55	17.782
387.91	18.779
388.27	20.035
388.62	19.530
388.98	19.007
389.34	19.446
389.70	19.640
390.06	19.479
390.42	19.398
390.77	20.169
391.13	19.777
391.49	20.894
391.85	19.879
392.20	20.403
392.56	21.087
392.92	20.883
393.28	21.614
393.64	21.397
393.99	21.325
394.35	21.963
394.71	21.437
395.07	21.018
395.42	21.302
395.78	21.755
396.14	22.044
396.50	21.853
396.85	22.182
397.21	21.598
397.57	22.792
397.92	22.394
398.28	21.510
398.64	21.682
399.00	22.565
399.35	22.984
399.71	22.826
400.07	23.133
400.42	23.458
400.78	22.859
401.14	22.482
401.49	22.513
401.85	23.488
402.21	22.885
402.57	24.531
402.92	22.695
403.28	22.834
403.63	22.673
403.99	22.981
404.35	22.285
404.70	23.343
405.06	22.772
405.42	23.361
405.77	24.264
406.13	23.825
406.49	24.268
406.84	23.823
407.20	23.253
407.55	23.137
407.91	23.696
408.27	23.263
408.62	24.258
408.98	24.666
409.34	23.167
409.69	23.362
410.05	23.916
410.40	24.942
410.76	24.509
411.11	24.372
411.47	24.693
411.83	24.985
412.18	24.759
412.54	24.185
412.89	25.029
413.25	24.097
413.60	24.756
413.96	25.000
414.31	24.476
414.67	24.687
415.03	24.062
415.38	24.086
415.74	23.519
416.09	24.244
416.45	24.045
416.80	24.725
417.16	25.990
417.51	24.035
417.87	24.464
418.22	24.910
418.58	24.473
418.93	25.320
419.29	25.277
419.64	24.250
420.00	25.519
420.35	25.660
420.71	24.584
421.06	24.899
421.42	24.369
421.77	25.094
422.12	25.793
422.48	26.165
422.83	26.780
423.19	25.464
423.54	26.438
423.90	26.118
424.25	26.827
424.61	25.431
424.96	26.085
425.31	26.752
425.67	25.443
426.02	26.951
426.38	26.636
426.73	25.725
427.09	27.566
427.44	25.341
427.79	26.202
428.15	25.514
428.50	26.067
428.85	26.005
429.21	27.021
429.56	26.209
429.92	25.946
430.27	26.554
430.62	27.308
430.98	26.611
431.33	27.175
431.68	25.814
432.04	27.476
432.39	27.906
432.74	26.826
433.10	27.474
433.45	26.366
433.80	26.341
434.16	27.531
434.51	27.955
434.86	27.959
435.22	27.843
435.57	27.712
435.92	26.600
436.28	27.019
436.63	27.526
436.98	27.536
437.34	27.734
437.69	27.848
438.04	26.864
438.39	27.053
438.75	27.449
439.10	28.700
439.45	27.725
439.81	27.740
440.16	27.775
440.51	27.926
440.86	27.793
441.22	28.832
441.57	27.778
441.92	28.468
442.27	28.485
442.63	28.316
442.98	29.402
443.33	28.353
443.68	28.642
444.03	28.928
444.39	27.739
444.74	29.250
445.09	28.485
445.44	28.609
445.79	29.741
446.15	28.571
446.50	27.907
446.85	28.648
447.20	29.255
447.55	30.282
447.91	28.639
448.26	29.281
448.61	28.002
448.96	29.292
449.31	28.685
449.66	28.649
450.02	28.797
450.37	28.609
450.72	28.687
451.07	29.157
451.42	28.827
451.77	28.571
452.12	29.458
452.47	28.461
452.83	29.505
453.18	29.072
453.53	29.064
453.88	27.775
454.23	29.096
454.58	29.019
454.93	28.762
455.28	29.259
455.63	28.482
455.98	29.274
456.34	28.386
456.69	29.101
457.04	29.137
457.39	29.157
457.74	29.978
458.09	28.940
458.44	28.772
458.79	29.345
459.14	29.523
459.49	28.919
459.84	28.174
460.19	28.151
460.54	29.756
460.89	29.698
461.24	29.138
461.59	29.773
461.94	28.523
462.29	29.283
462.64	28.485
462.99	29.881
463.34	29.137
463.69	28.839
464.04	28.571
464.39	27.915
464.74	28.791
465.09	28.950
465.44	29.131
465.79	29.455
466.14	28.921
466.49	28.316
466.84	29.311
467.19	28.671
467.54	28.261
467.89	28.391
468.24	28.643
468.59	28.489
468.94	27.914
469.29	27.894
469.64	27.082
469.99	27.916
470.34	28.713
470.68	29.187
471.03	27.898
471.38	28.385
471.73	27.503
472.08	28.997
472.43	28.055
472.78	28.275
473.13	28.129
473.48	28.218
473.83	28.671
474.17	28.253
474.52	29.164
474.87	28.848
475.22	28.958
475.57	28.920
475.92	28.870
476.27	28.115
476.61	28.557
476.96	29.197
477.31	27.970
477.66	28.646
478.01	29.080
478.36	28.016
478.70	28.522
479.05	28.425
479.40	28.727
479.75	28.578
480.10	28.802
480.45	28.806
480.79	28.753
481.14	28.263
481.49	28.396
481.84	29.896
482.19	28.430
482.53	28.990
482.88	29.287
483.23	29.524
483.58	28.996
483.92	28.191
484.27	28.281
484.62	28.548
484.97	29.082
485.31	27.526
485.66	26.465
486.01	27.627
486.36	29.007
486.70	31.342
487.05	32.290
487.40	30.300
487.75	29.695
488.09	28.515
488.44	27.312
488.79	27.251
489.13	27.444
489.48	27.767
489.83	27.525
490.17	27.947
490.52	28.284
490.87	28.173
491.22	28.336
491.56	27.858
491.91	27.998
492.26	28.299
492.60	27.897
492.95	28.346
493.30	27.925
493.64	28.208
493.99	27.982
494.34	27.744
494.68	28.437
495.03	28.458
495.37	28.407
495.72	28.118
496.07	27.914
496.41	27.113
496.76	27.940
497.11	28.535
497.45	27.924
497.80	28.121
498.14	27.891
498.49	27.390
498.84	27.468
499.18	27.126
499.53	28.386
499.87	28.352
500.22	26.759
500.56	27.485
500.91	27.323
501.26	27.955
501.60	27.707
501.95	28.658
502.29	28.785
502.64	28.859
502.98	26.790
503.33	27.343
503.67	27.126
504.02	27.583
504.36	28.105
504.71	27.331
505.06	26.739
505.40	27.742
505.75	27.049
506.09	27.624
506.44	28.366
506.78	27.936
507.13	27.616
507.47	27.996
507.82	27.794
508.16	26.864
508.51	26.770
508.85	27.586
509.19	28.091
509.54	27.474
509.88	28.266
510.23	27.683
510.57	27.453
510.92	28.399
511.26	27.321
511.61	26.847
511.95	27.818
512.30	26.834
512.64	27.436
512.98	28.614
513.33	27.268
513.67	27.537
514.02	27.951
514.36	27.877
514.70	27.552
515.05	27.477
515.39	27.979
515.74	27.784
516.08	27.575
516.42	27.786
516.77	28.023
517.11	27.024
517.46	27.731
517.80	28.113
518.14	27.639
518.49	27.169
518.83	27.302
519.17	27.033
519.52	27.621
519.86	27.930
520.20	28.594
520.55	27.492
520.89	28.266
521.23	26.410
521.58	27.175
521.92	27.422
522.26	26.690
522.61	27.951
522.95	27.278
523.29	27.759
523.64	27.803
523.98	27.895
524.32	28.138
524.66	27.832
525.01	26.727
525.35	26.881
525.69	26.972
526.04	26.406
526.38	27.644
526.72	27.336
527.06	27.390
527.41	27.405
527.75	27.910
528.09	27.686
528.43	27.353
528.78	26.590
529.12	27.752
529.46	26.869
529.80	27.231
530.15	27.536
530.49	26.690
530.83	26.682
531.17	25.926
531.51	26.895
531.86	26.803
532.20	27.988
532.54	26.511
532.88	27.212
533.22	26.341
533.57	26.659
533.91	27.048
534.25	27.869
534.59	27.529
534.93	26.486
535.27	26.310
535.62	27.118
535.96	27.310
536.30	27.203
536.64	27.447
536.98	26.753
537.32	27.531
537.66	27.324
538.01	26.103
538.35	26.553
538.69	25.841
539.03	27.345
539.37	26.973
539.71	26.306
540.05	26.918
540.39	26.222
540.73	25.683
541.07	27.284
541.42	27.112
541.76	26.216
542.10	26.357
542.44	26.309
542.78	26.095
543.12	26.937
543.46	25.580
543.80	25.779
544.14	26.152
544.48	26.359
544.82	26.451
545.16	25.999
545.50	26.603
545.84	25.230
546.18	27.099
546.52	25.478
546.86	25.157
547.20	25.573
547.54	25.218
547.88	25.799
548.22	24.737
548.56	25.453
548.90	25.970
549.24	26.322
549.58	25.615
549.92	26.403
550.26	25.307
550.60	25.590
550.94	26.649
551.28	25.941
551.62	26.415
551.96	24.531
552.30	26.259
552.64	25.513
552.98	25.827
553.32	26.174
553.66	25.981
554.00	25.851
554.34	25.290
554.68	26.017
555.02	24.507
555.36	25.838
555.69	25.689
556.03	26.293
556.37	26.783
556.71	25.111
557.05	25.431
557.39	26.277
557.73	26.354
558.07	24.834
558.41	26.910
558.75	25.558
559.08	25.609
559.42	25.514
559.76	25.441
560.10	25.452
560.44	25.264
560.78	26.375
561.12	26.355
561.45	26.277
561.79	25.824
562.13	26.802
562.47	25.524
562.81	25.633
563.15	25.568
563.48	26.041
563.82	25.514
564.16	25.863
564.50	26.043
564.84	25.841
565.17	27.000
565.51	25.374
565.85	25.831
566.19	25.230
566.52	25.395
566.86	25.580
567.20	25.394
567.54	25.279
567.88	25.841
568.21	26.532
568.55	25.947
568.89	26.101
569.23	25.940
569.56	25.987
569.90	26.479
570.24	27.015
570.57	26.523
570.91	26.179
571.25	26.121
571.59	26.746
571.92	25.959
572.26	26.787
572.60	26.181
572.93	25.967
573.27	25.962
573.61	26.046
573.95	26.147
574.28	26.583
574.62	26.239
574.96	26.092
575.29	25.733
575.63	26.219
575.97	25.988
576.30	25.537
576.64	26.032
576.98	25.604
577.31	26.062
577.65	26.104
577.98	26.205
578.32	26.236
578.66	26.291
578.99	26.275
579.33	26.078
579.67	25.476
580.00	25.849
580.34	25.589
580.67	25.309
581.01	25.617
581.35	25.716
581.68	26.176
582.02	26.026
582.35	26.883
582.69	27.095
583.02	26.574
583.36	26.289
583.70	25.653
584.03	25.870
584.37	25.352
584.70	25.037
585.04	25.343
585.37	26.027
585.71	26.149
586.04	26.288
586.38	26.370
586.72	25.746
587.05	25.582
587.39	25.679
587.72	26.316
588.06	26.064
588.39	25.990
588.73	25.820
589.06	26.185
589.40	25.845
589.73	25.514
590.07	25.365
590.40	25.828
590.73	25.981
591.07	25.428
591.40	24.844
591.74	24.722
592.07	25.741
592.41	25.039
592.74	25.453
593.08	26.051
593.41	26.451
593.75	26.121
594.08	26.325
594.41	26.186
594.75	25.075
595.08	25.774
595.42	25.779
595.75	25.831
596.09	25.856
596.42	25.905
596.75	25.434
597.09	25.495
597.42	25.268
597.75	25.010
598.09	25.675
598.42	26.377
598.76	25.067
599.09	26.095
599.42	24.908
599.76	26.444
600.09	25.792
600.42	25.492
600.76	25.892
601.09	25.821
601.42	26.021
601.76	25.379
602.09	26.305
602.42	24.755
602.76	25.129
603.09	25.184
603.42	25.217
603.76	25.934
604.09	26.260
604.42	25.835
604.76	25.381
605.09	25.130
605.42	25.638
605.75	24.808
606.09	25.308
606.42	24.845
606.75	24.625
607.09	24.078
607.42	25.356
607.75	25.635
608.08	25.059
608.42	25.393
608.75	25.083
609.08	25.255
609.41	25.673
609.75	25.134
610.08	25.330
610.41	25.191
610.74	25.084
611.07	24.867
611.41	25.471
611.74	25.173
612.07	25.432
612.40	24.667
612.73	24.988
613.07	25.037
613.40	25.265
613.73	25.566
614.06	24.779
614.39	25.121
614.72	25.376
615.06	24.543
615.39	25.036
615.72	24.834
616.05	25.206
616.38	26.387
616.71	24.922
617.05	24.441
617.38	25.254
617.71	24.784
618.04	24.609
618.37	25.355
618.70	25.113
619.03	25.090
619.36	23.674
619.69	24.664
620.03	24.670
620.36	24.908
620.69	24.491
621.02	24.803
621.35	25.327
621.68	24.584
622.01	24.342
622.34	23.710
622.67	24.467
623.00	24.089
623.33	24.884
623.66	25.551
623.99	24.358
624.32	26.511
624.65	23.359
624.99	25.228
625.32	27.106
625.65	24.477
625.98	23.661
626.31	23.742
626.64	24.542
626.97	23.556
627.30	25.513
627.63	23.406
627.96	24.174
628.29	23.502
628.62	24.097
628.95	24.628
629.28	22.515
629.61	24.495
629.94	23.515
630.26	23.814
630.59	23.834
630.92	23.723
631.25	24.240
631.58	24.388
631.91	23.805
632.24	24.496
632.57	22.865
632.90	22.969
633.23	23.878
633.56	22.143
633.89	23.347
634.22	23.493
634.55	22.547
634.88	24.134
635.20	24.327
635.53	25.198
635.86	24.377
636.19	23.436
636.52	23.101
636.85	23.902
637.18	23.077
637.51	23.441
637.83	23.588
638.16	25.230
638.49	22.887
638.82	22.210
639.15	23.139
639.48	24.711
639.81	23.672
640.13	23.557
640.46	22.424
640.79	21.569
641.12	22.733
641.45	21.581
641.77	25.289
642.10	21.260
642.43	24.335
642.76	22.222
643.09	21.370
643.41	23.529
643.74	22.207
644.07	23.862
644.40	21.358
644.73	20.029
645.05	23.348
645.38	21.439
645.71	22.287
646.04	24.390
646.36	23.066
646.69	23.466
647.02	25.382
647.35	24.427
647.67	22.866
648.00	21.656
648.33	22.523
648.66	22.397
648.98	22.449
649.31	22.869
649.64	23.506
649.96	21.088
650.29	19.193
650.62	22.772
650.94	22.072
651.27	21.108
651.60	20.614
651.92	21.733
652.25	21.129
652.58	21.183
652.90	20.494
653.23	21.549
653.56	20.685
653.88	23.736
654.21	21.690
654.54	22.399
654.86	22.521
655.19	20.703
655.52	26.097
655.84	29.576
656.17	33.175
656.49	45.845
656.82	48.774
657.15	37.014
657.47	28.013
657.80	20.102
658.13	15.334
658.45	19.425
658.78	22.446
659.10	20.679
659.43	19.509
659.75	18.849
660.08	16.134
660.41	16.873
660.73	16.876
661.06	17.768
661.38	18.182
661.71	18.793
662.03	19.577
662.36	20.930
662.68	20.826
663.01	20.531
663.33	22.306
663.66	23.260
663.98	22.500
664.31	21.576
664.63	19.846
664.96	19.964
665.28	17.060
665.61	19.580
665.93	22.679
666.26	17.384
666.58	18.266
666.91	20.748
667.23	19.619
667.56	17.949
667.88	20.600
668.21	16.992
668.53	19.884
668.86	20.039
669.18	18.330
669.50	20.278
669.83	18.400
670.15	17.913
670.48	20.833
670.80	20.076
671.13	20.038
671.45	18.701
671.77	22.222
672.10	20.167
672.42	21.036
672.75	19.201
673.07	19.104
673.39	19.106
673.72	19.966
674.04	20.862
674.37	19.857
674.69	21.164
675.01	16.571
675.34	19.275
675.66	18.727
675.98	21.455
676.31	16.602
676.63	19.392
676.95	20.690
677.28	19.960
677.60	17.913
677.92	21.113
678.25	19.744
678.57	19.395
678.89	21.160
679.22	18.293
679.54	21.538
679.86	18.136
680.18	19.900
680.51	17.767
680.83	20.131
681.15	20.345
681.48	19.689
681.80	19.171
682.12	19.930
682.44	19.866
682.77	18.972
683.09	19.508
683.41	19.380
683.73	18.216
684.06	17.712
684.38	19.141
684.70	20.646
685.02	21.859
685.34	18.636
685.67	18.927
685.99	18.865
686.31	19.477
686.63	18.641
686.96	19.874
687.28	19.870
687.60	19.865
687.92	18.328
688.24	17.696
688.56	18.103
688.89	19.964
689.21	20.157
689.53	13.922
689.85	16.371
690.17	20.556
690.49	16.335
690.82	15.842
691.14	15.587
691.46	19.503
691.78	20.258
692.10	20.550
692.42	17.143
692.74	17.786
693.06	15.370
693.39	20.114
693.71	18.797
694.03	19.145
694.35	21.143
694.67	15.811
694.99	18.723
695.31	17.660
695.63	16.450
695.95	15.528
696.27	16.484
696.59	17.920
696.91	15.315
697.23	18.022
697.56	18.941
697.88	17.045
698.20	18.079
698.52	18.750
698.84	16.008
699.16	17.347
699.48	15.900
699.80	15.106
700.12	16.376
700.44	14.977
700.76	15.202
701.08	15.012
701.40	13.731
701.72	15.423
702.04	17.647
702.36	14.398
702.68	14.181
703.00	14.181
703.32	13.547
703.64	14.914
703.96	16.468
704.28	14.988
704.60	13.165
704.91	14.796
705.23	18.356
705.55	10.585
705.87	15.758
706.19	12.883
706.51	13.554
706.83	13.545
707.15	12.434
707.47	14.486
707.79	15.066
708.11	14.831
708.43	14.839
708.74	12.946
709.06	15.545
709.38	13.850
709.70	17.618
710.02	13.695
710.34	11.702
710.66	12.291
710.98	12.842
711.29	9.066
711.61	11.017
711.93	13.390
712.25	11.892
712.57	16.814
712.89	11.765
713.20	11.538
713.52	13.006
713.84	15.599
714.16	13.684
714.48	11.856
714.80	17.403
715.11	13.911
715.43	14.058
715.75	14.737
716.07	10.773
716.39	14.481
716.70	10.241
717.02	11.148
717.34	6.969
717.66	11.745
717.97	7.192
718.29	7.904
718.61	7.895
718.93	8.414
719.24	11.491
719.56	10.429
719.88	9.009
720.20	9.677
720.51	15.217
720.83	11.875
721.15	10.526
721.46	7.534
721.78	12.000
722.10	6.796
722.42	11.074
722.73	8.387
723.05	14.386
723.37	10.764
723.68	14.695
724.00	9.386
724.32	6.690
724.63	8.392
724.95	9.574
725.27	8.362
725.58	5.654
725.90	11.034
726.22	10.658
726.53	9.740
726.85	12.579
727.16	9.063
727.48	10.092
727.80	11.589
728.11	6.007
728.43	9.764
728.74	8.027
729.06	10.265
729.38	10.714
729.69	11.409
730.01	11.607
730.32	9.697
730.64	13.836
730.96	13.975
731.27	10.894
731.59	11.538
731.90	9.091
732.22	10.156
732.53	12.155
732.85	10.000
733.16	9.971
733.48	9.756
733.80	11.699
734.11	12.536
734.43	15.405
734.74	11.899
735.06	12.312
735.37	10.811
735.69	9.189
736.00	12.429
736.32	11.590
736.63	13.889
736.95	11.782
737.26	10.909
737.58	10.000
737.89	12.059
738.21	9.480
738.52	11.803
738.83	7.850
739.15	11.348
739.46	9.524
739.78	11.350
740.09	10.315
740.41	9.329
740.72	7.333
741.04	9.709
741.35	7.719
741.66	6.275
741.98	9.426
742.29	4.603
742.61	7.456
742.92	9.231
743.23	11.191
743.55	8.140
743.86	4.800
744.18	2.893
744.49	5.063
744.80	6.584
745.12	5.063
745.43	2.033
745.74	4.310
746.06	2.542
746.37	11.392
746.68	6.098
747.00	7.917
747.31	7.296
747.62	9.231
747.94	3.239
748.25	6.024
748.56	2.041
748.88	0.855
749.19	7.328
749.50	1.732
749.82	10.843
750.13	10.320
750.44	7.667
750.75	12.308
751.07	8.000
751.38	13.249
751.69	7.029
752.01	8.738
752.32	11.438
752.63	8.844
752.94	9.689
753.26	4.833
753.57	3.704
753.88	5.243
754.19	12.862
754.51	9.968
754.82	9.003
755.13	9.508
755.44	10.239
755.75	6.250
756.07	11.642
756.38	9.119
756.69	13.253
757.00	8.864
757.31	8.470
757.63	10.997
757.94	12.207
758.25	15.576
758.56	10.675
758.87	13.409
759.18	9.867
759.50	11.048
759.81	6.443
760.12	12.129
760.43	11.979
760.74	12.808
761.05	12.750
761.36	13.012
761.67	8.376
761.99	9.189
762.30	6.402
762.61	4.290
762.92	6.716
763.23	8.240
763.54	7.194
763.85	9.278
764.16	7.407
764.47	7.746
764.78	8.946
765.10	10.264
765.41	14.359
765.72	9.524
766.03	11.017
766.34	7.837
766.65	4.878
766.96	4.382
767.27	5.069
767.58	1.493
767.89	8.654
768.20	7.042
768.51	3.241
768.82	6.024
769.13	8.712
769.44	2.308
769.75	9.747
770.06	5.000
770.37	7.087
770.68	2.979
770.99	2.834
771.30	11.852
771.61	3.802
771.92	2.222
772.23	4.858
772.54	0.463
772.85	10.599
773.16	4.286
773.47	-5.820
773.78	-6.486
774.09	-2.841
774.39	2.000
774.70	0.000
775.01	-8.537
775.32	-7.647
775.63	-4.294
775.94	-12.102
776.25	-4.516
776.56	-3.205
776.87	-8.163
777.18	-8.276
777.48	-7.692
777.79	-7.432
778.10	-18.382
778.41	-4.167
778.72	-7.586
779.03	-3.086
779.34	0.000
779.65	-5.181
779.95	-3.333
780.26	-6.818
780.57	-10.323
780.88	-11.594
781.19	-5.161
781.50	2.353
781.80	3.226
782.11	-1.587
782.42	-6.566
782.73	-13.174
783.04	-5.028
783.34	-11.515
783.65	-20.261
783.96	-6.211
784.27	-7.738
784.57	-5.298
784.88	-8.571
785.19	-11.024
785.50	-11.811
785.81	-15.038
786.11	-11.538
786.42	-18.705
786.73	-14.388
787.04	-12.030
787.34	-22.131
787.65	-11.200
787.96	-4.478
788.26	-5.594
788.57	-10.490
788.88	-4.605
789.19	-9.804
789.49	-10.274
789.80	-9.220
790.11	-9.449
790.41	-12.500
790.72	-20.339
791.03	-34.951
791.33	-26.087
791.64	-10.526
791.95	-25.000
792.25	-20.952
792.56	-11.607
792.87	-36.458
793.17	-22.321
793.48	-28.125
793.79	-39.759
794.09	-23.853
794.40	-19.266
794.70	-4.082
795.01	-12.338
795.32	-11.644
795.62	-11.268
795.93	-16.667
796.23	-18.033
796.54	-19.643
796.85	-25.532
797.15	-38.043
797.46	-41.096
797.76	-38.750
798.07	-31.522
798.37	-36.082
798.68	-44.156
798.99	-40.230
799.29	-35.955
799.60	-29.787
799.90	-31.325
800.21	-49.231
800.51	-40.299
800.82	-44.118
801.12	-64.384
801.43	-60.294
801.73	-71.186
802.04	-69.697
802.34	-73.333
802.65	-61.017
802.95	-32.836
803.26	-67.797
803.56	-54.795
803.87	-38.571
804.17	-53.425
804.48	-64.912
804.78	-48.611
805.09	-74.138
805.39	-37.838
805.70	-54.930
806.00	-23.171
806.30	-39.759
806.61	-54.795
806.91	-24.038
807.22	-28.889
807.52	-39.080
807.83	-30.556
808.13	-34.940
808.43	-32.584
808.74	-35.000
809.04	-44.118
809.35	-38.667
809.65	-34.286
809.95	-38.356
810.26	-75.439
810.56	-53.448
810.86	-48.529
811.17	-59.649
811.47	-62.295
811.77	-93.333
812.08	-59.322
812.38	-55.000
812.69	-62.069
812.99	-96.226
813.29	-117.949
813.59	-62.000
813.90	-49.123
814.20	-63.636
814.50	-29.577
814.81	-39.744
815.11	-44.262
815.41	-52.239
815.72	-50.000
816.02	-64.286
816.32	-68.889
816.62	-79.545
816.93	-95.556
817.23	-53.704
817.53	-93.617
817.84	-71.429
818.14	-111.765
818.44	-75.510
818.74	-91.111
819.04	-117.949
819.35	-157.143
819.65	-153.846
819.95	-58.491
820.25	-80.000
820.56	-104.762
820.86	-125.000
821.16	-89.744
821.46	-106.977
821.76	-92.000
822.07	-60.714
822.37	-91.304
822.67	-93.617
822.97	-121.622
823.27	-100.000
823.57	-63.265
823.88	-84.444
824.18	-107.500
824.48	-160.000
824.78	-176.000
825.08	-109.091
825.38	-71.111
825.69	-61.702
825.99	-97.222
826.29	-148.571
826.59	-112.821
826.89	-95.349
827.19	-68.000
827.49	-111.765
827.79	-54.167
828.09	-121.622
828.39	-146.667
828.70	-107.317
829.00	-95.349
829.30	-182.143
829.60	-132.353
829.90	-91.304
830.20	-142.857
830.50	-144.828
830.80	-266.667
831.10	-150.000
831.40	-147.059
831.70	-166.667
832.00	-100.000
832.30	-341.176
832.60	-216.667
832.90	-323.077
833.20	-210.526
833.50	-245.000
833.80	-231.579
834.10	-242.857
834.40	-102.778
834.70	-106.250
835.00	-154.286
835.30	-102.941
835.60	-146.667
835.90	-188.000
836.20	-259.091
836.50	-168.000
836.80	-124.242
837.10	-162.963
837.40	-162.963
837.70	-306.250
838.00	-139.286
838.30	-195.652
838.60	-137.931
838.90	-350.000
839.19	-256.522
839.49	-466.667
839.79	-191.304
840.09	-325.000
840.39	-225.000
840.69	-122.581
840.99	-153.571
841.29	-286.667
841.59	-252.632
841.88	-82.051
842.18	-157.692
842.48	-530.000
842.78	-240.000
843.08	-143.333
843.38	-129.032
843.68	-294.444
843.97	-123.529
844.27	-287.500
844.57	-252.632
844.87	-540.000
845.17	-266.667
845.47	-195.238
845.76	-195.238
846.06	-433.333
846.36	-335.294
846.66	-142.308
846.96	-386.667
847.25	-329.412
847.55	-200.000
847.85	-225.000
848.15	-241.176
848.44	-436.364
848.74	-219.048
849.04	-208.333
849.34	-318.750
849.63	-173.913
849.93	2600.000
850.23	-300.000
850.53	-165.385
850.82	-409.091
851.12	-200.000
851.42	-500.000
851.71	-300.000
852.01	-235.000
852.31	-369.231
852.61	-252.632
852.90	-400.000
853.20	-255.556
853.50	-644.444
853.79	-238.095
854.09	-186.364
854.39	-441.667
854.68	-141.935
854.98	-173.077
855.28	-261.111
855.57	-160.714
855.87	-172.000
856.17	-227.273
856.46	-133.333
856.76	-255.556
857.05	-186.957
857.35	-187.500
857.65	-369.231
857.94	-171.429
858.24	-133.333
858.53	-147.826
858.83	-294.118
859.13	-241.176
859.42	-264.706
859.72	-307.143
860.01	-205.000
860.31	-555.556
860.60	-380.000
860.90	-280.000
861.20	-222.222
861.49	-323.077
861.79	-126.667
862.08	-346.154
862.38	-93.750
862.67	-258.824
862.97	-300.000
863.26	-555.556
863.56	-390.000
863.85	-327.273
864.15	-200.000
864.44	-1500.000
864.74	-307.143
865.03	-243.750
865.33	-530.000
865.62	-145.161
865.92	-181.818
866.21	-160.870
866.51	-292.857
866.80	-1160.000
867.10	-408.333
867.39	-433.333
867.69	5300.000
867.98	-542.857
868.27	-264.706
868.57	-6200.000
868.86	-470.000
869.16	-219.048
869.45	-158.333
869.75	-318.182
870.04	-671.429
870.33	-350.000
870.63	-685.714
870.92	-1000.000
871.22	-700.000
871.51	-490.909
871.80	-2000.000
872.10	-2750.000
>>>>>End Processed Spectral Data<<<<<
