SpectraSuite Data File
++++++++++++++++++++++++++++++++++++
Date: Thu May 14 14:44:59 PDT 2015
User: schluterlab
Dark Spectrum Present: Yes
Reference Spectrum Present: Yes
Number of Sampled Component Spectra: 1
Spectrometers: USB2E3373
Integration Time (usec): 3000 (USB2E3373)
Spectra Averaged: 3 (USB2E3373)
Boxcar Smoothing: 0 (USB2E3373)
Correct for Electrical Dark: No (USB2E3373)
Strobe/Lamp Enabled: No (USB2E3373)
Correct for Detector Non-linearity: No (USB2E3373)
Correct for Stray Light: No (USB2E3373)
Number of Pixels in Processed Spectrum: 2048
>>>>>Begin Processed Spectral Data<<<<<
178.53	0.000
178.91	71.429
179.29	-100.000
179.67	900.000
180.04	100.000
180.42	30.000
180.80	120.000
181.18	-700.000
181.56	400.000
181.94	-75.000
182.31	25.000
182.69	166.667
183.07	50.000
183.45	-0.000
183.83	50.000
184.20	233.333
184.58	-500.000
184.96	-275.000
185.34	44.444
185.72	120.000
186.09	166.667
186.47	250.000
186.85	100.000
187.23	-55.556
187.61	-400.000
187.98	120.000
188.36	100.000
188.74	100.000
189.12	-133.333
189.49	-6.250
189.87	-125.000
190.25	-44.444
190.63	0.000
191.00	0.000
191.38	0.000
191.76	0.000
192.14	-33.333
192.51	200.000
192.89	100.000
193.27	0.000
193.65	-57.143
194.02	-700.000
194.40	-57.143
194.78	28.571
195.15	0.000
195.53	45.455
195.91	0.000
196.29	175.000
196.66	38.462
197.04	-400.000
197.42	-14.286
197.79	-50.000
198.17	37.500
198.55	-57.143
198.92	44.444
199.30	-37.500
199.68	54.545
200.05	85.714
200.43	-400.000
200.81	200.000
201.18	0.000
201.56	88.889
201.94	0.000
202.31	166.667
202.69	-33.333
203.07	-1300.000
203.44	166.667
203.82	175.000
204.19	8.333
204.57	-33.333
204.95	-12.500
205.32	-200.000
205.70	25.000
206.08	-166.667
206.45	16.667
206.83	60.000
207.20	0.000
207.58	-20.000
207.96	-66.667
208.33	66.667
208.71	58.333
209.08	66.667
209.46	0.000
209.84	200.000
210.21	-50.000
210.59	-350.000
210.96	-33.333
211.34	350.000
211.71	-37.500
212.09	-600.000
212.46	0.000
212.84	50.000
213.22	-120.000
213.59	125.000
213.97	60.000
214.34	-133.333
214.72	66.667
215.09	-75.000
215.47	0.000
215.84	-71.429
216.22	250.000
216.59	-120.000
216.97	20.000
217.34	75.000
217.72	50.000
218.09	25.000
218.47	-75.000
218.84	0.000
219.22	-60.000
219.59	0.000
219.97	-15.000
220.34	300.000
220.72	11.111
221.09	84.615
221.47	133.333
221.84	0.000
222.22	-142.857
222.59	0.000
222.97	62.500
223.34	-20.000
223.72	-600.000
224.09	125.000
224.46	-150.000
224.84	-20.000
225.21	-42.857
225.59	-100.000
225.96	-25.000
226.34	3.846
226.71	233.333
227.08	-100.000
227.46	53.333
227.83	150.000
228.21	36.842
228.58	100.000
228.95	350.000
229.33	16.667
229.70	-10.000
230.08	89.474
230.45	-30.000
230.82	266.667
231.20	92.857
231.57	58.333
231.95	27.273
232.32	63.636
232.69	15.000
233.07	0.000
233.44	-5.882
233.81	90.000
234.19	100.000
234.56	36.364
234.93	58.621
235.31	100.000
235.68	44.444
236.05	25.000
236.43	96.154
236.80	100.000
237.17	29.630
237.55	-3.030
237.92	40.000
238.29	41.935
238.67	22.727
239.04	41.667
239.41	54.762
239.79	32.609
240.16	40.741
240.53	43.478
240.91	45.098
241.28	32.787
241.65	40.299
242.02	41.892
242.40	36.923
242.77	46.667
243.14	41.463
243.51	22.368
243.89	26.923
244.26	42.574
244.63	47.059
245.00	46.729
245.38	34.211
245.75	30.088
246.12	47.619
246.49	33.333
246.87	44.286
247.24	44.371
247.61	43.421
247.98	42.953
248.36	37.037
248.73	33.129
249.10	42.623
249.47	42.786
249.84	45.026
250.22	39.896
250.59	43.333
250.96	46.818
251.33	42.347
251.70	38.034
252.08	39.167
252.45	44.672
252.82	40.909
253.19	39.844
253.56	44.106
253.94	42.308
254.31	44.318
254.68	44.406
255.05	43.648
255.42	37.075
255.79	40.129
256.16	42.053
256.54	42.053
256.91	44.262
257.28	43.934
257.65	43.949
258.02	38.643
258.39	41.026
258.76	44.648
259.14	42.241
259.51	41.499
259.88	40.793
260.25	40.278
260.62	44.384
260.99	43.716
261.36	42.359
261.73	40.849
262.10	43.681
262.47	41.555
262.85	44.192
263.22	39.481
263.59	42.105
263.96	40.921
264.33	42.455
264.70	45.679
265.07	41.050
265.44	47.846
265.81	40.046
266.18	44.671
266.55	40.402
266.92	42.597
267.29	44.420
267.66	42.794
268.03	44.541
268.40	43.424
268.77	42.825
269.14	40.088
269.51	43.421
269.88	42.623
270.25	40.241
270.62	43.882
270.99	42.020
271.36	39.604
271.73	40.472
272.10	44.489
272.47	40.882
272.84	41.165
273.21	42.084
273.58	40.323
273.95	37.115
274.32	41.255
274.69	40.426
275.06	39.744
275.43	37.708
275.80	39.506
276.17	39.259
276.54	40.485
276.91	39.535
277.28	40.868
277.65	41.831
278.02	40.257
278.39	41.486
278.76	38.489
279.13	40.957
279.50	40.722
279.87	38.998
280.23	38.204
280.60	39.661
280.97	40.132
281.34	41.596
281.71	42.809
282.08	39.369
282.45	38.625
282.82	39.717
283.19	37.803
283.56	39.836
283.92	40.090
284.29	41.864
284.66	38.588
285.03	38.141
285.40	38.176
285.77	38.854
286.14	38.473
286.51	38.052
286.87	38.073
287.24	39.157
287.61	38.416
287.98	37.160
288.35	37.722
288.72	35.503
289.08	37.042
289.45	34.320
289.82	35.693
290.19	35.489
290.56	36.620
290.93	35.521
291.29	35.262
291.66	36.777
292.03	33.921
292.40	35.510
292.77	33.962
293.13	33.153
293.50	31.932
293.87	32.483
294.24	35.467
294.60	31.226
294.97	32.752
295.34	33.419
295.71	30.265
296.08	32.946
296.44	31.005
296.81	31.669
297.18	32.254
297.55	30.778
297.91	30.249
298.28	31.280
298.65	30.083
299.02	30.460
299.38	29.748
299.75	29.439
300.12	29.514
300.48	31.336
300.85	28.571
301.22	29.978
301.59	29.110
301.95	29.605
302.32	30.000
302.69	28.806
303.05	29.489
303.42	29.823
303.79	29.688
304.15	29.863
304.52	29.175
304.89	28.586
305.25	26.190
305.62	29.049
305.99	27.938
306.35	28.730
306.72	29.473
307.09	28.325
307.45	28.468
307.82	28.254
308.19	27.649
308.55	28.737
308.92	27.751
309.29	27.969
309.65	27.096
310.02	27.030
310.38	27.067
310.75	28.252
311.12	28.859
311.48	29.912
311.85	27.255
312.22	28.748
312.58	27.230
312.95	27.916
313.31	27.823
313.68	28.480
314.05	28.004
314.41	28.142
314.78	27.157
315.14	27.858
315.51	28.070
315.87	26.823
316.24	29.498
316.61	26.465
316.97	27.511
317.34	26.984
317.70	28.035
318.07	28.131
318.43	27.891
318.80	27.676
319.16	26.781
319.53	25.107
319.89	27.958
320.26	27.135
320.62	25.532
320.99	26.500
321.35	26.617
321.72	27.070
322.08	27.412
322.45	27.371
322.81	27.617
323.18	26.903
323.54	28.362
323.91	29.626
324.27	25.904
324.64	28.715
325.00	25.373
325.37	26.699
325.73	27.025
326.10	27.737
326.46	27.117
326.83	28.263
327.19	26.929
327.56	26.008
327.92	26.751
328.29	26.613
328.65	25.628
329.01	26.734
329.38	26.116
329.74	27.055
330.11	28.253
330.47	25.779
330.84	26.615
331.20	27.167
331.56	26.170
331.93	27.197
332.29	26.610
332.66	26.578
333.02	26.214
333.38	25.419
333.75	26.347
334.11	25.521
334.48	26.403
334.84	27.443
335.20	26.280
335.57	27.234
335.93	26.281
336.29	25.957
336.66	26.241
337.02	27.090
337.38	27.126
337.75	26.116
338.11	26.409
338.47	25.393
338.84	26.819
339.20	25.442
339.56	25.947
339.93	26.355
340.29	26.329
340.65	25.142
341.02	26.736
341.38	27.567
341.74	25.343
342.11	26.066
342.47	25.814
342.83	25.040
343.20	26.247
343.56	25.662
343.92	25.620
344.28	24.766
344.65	26.744
345.01	25.741
345.37	26.594
345.73	25.331
346.10	25.351
346.46	24.921
346.82	25.543
347.19	25.821
347.55	25.797
347.91	26.077
348.27	24.962
348.63	25.362
349.00	24.758
349.36	24.758
349.72	25.521
350.08	25.483
350.45	24.715
350.81	25.490
351.17	25.789
351.53	25.246
351.89	25.285
352.26	24.478
352.62	24.701
352.98	25.191
353.34	24.122
353.70	24.114
354.07	24.069
354.43	25.588
354.79	24.308
355.15	23.400
355.51	24.635
355.87	23.710
356.24	25.323
356.60	24.612
356.96	24.388
357.32	24.535
357.68	23.426
358.04	24.251
358.40	24.254
358.77	24.561
359.13	23.929
359.49	24.164
359.85	24.148
360.21	25.179
360.57	23.690
360.93	23.695
361.29	24.000
361.66	23.389
362.02	25.122
362.38	23.331
362.74	23.953
363.10	24.003
363.46	23.961
363.82	22.940
364.18	23.786
364.54	23.790
364.90	23.411
365.26	24.690
365.62	24.067
365.98	24.370
366.35	23.289
366.71	24.014
367.07	24.290
367.43	24.228
367.79	23.822
368.15	24.883
368.51	24.222
368.87	23.906
369.23	23.867
369.59	23.907
369.95	23.529
370.31	23.903
370.67	23.728
371.03	24.100
371.39	23.439
371.75	23.796
372.11	23.780
372.47	24.103
372.83	23.757
373.19	25.150
373.55	23.848
373.91	23.108
374.27	23.997
374.63	24.019
374.99	23.939
375.35	23.766
375.71	23.935
376.07	23.886
376.42	23.741
376.78	23.679
377.14	23.331
377.50	23.593
377.86	24.323
378.22	23.772
378.58	23.722
378.94	23.063
379.30	23.023
379.66	23.633
380.02	23.370
380.38	23.963
380.74	22.817
381.09	23.810
381.45	23.693
381.81	24.766
382.17	23.872
382.53	23.392
382.89	23.984
383.25	24.326
383.61	23.090
383.97	23.852
384.32	24.163
384.68	23.840
385.04	24.349
385.40	25.162
385.76	24.091
386.12	23.758
386.48	24.353
386.83	24.195
387.19	23.696
387.55	23.298
387.91	23.002
388.27	24.249
388.62	24.284
388.98	24.422
389.34	24.632
389.70	24.463
390.06	24.038
390.42	24.157
390.77	24.383
391.13	24.883
391.49	24.758
391.85	24.606
392.20	24.259
392.56	24.867
392.92	24.373
393.28	24.157
393.64	23.408
393.99	24.521
394.35	25.117
394.71	24.551
395.07	23.293
395.42	24.557
395.78	24.741
396.14	24.421
396.50	23.575
396.85	24.150
397.21	24.438
397.57	23.852
397.92	24.170
398.28	23.846
398.64	23.913
399.00	23.298
399.35	23.822
399.71	24.076
400.07	24.481
400.42	24.622
400.78	24.306
401.14	24.417
401.49	24.446
401.85	24.186
402.21	24.855
402.57	24.765
402.92	24.882
403.28	23.829
403.63	23.329
403.99	23.397
404.35	24.332
404.70	24.023
405.06	23.533
405.42	24.063
405.77	23.882
406.13	23.339
406.49	24.437
406.84	23.546
407.20	23.756
407.55	23.985
407.91	23.947
408.27	25.029
408.62	24.607
408.98	24.376
409.34	22.522
409.69	24.166
410.05	23.681
410.40	25.000
410.76	24.397
411.11	24.138
411.47	24.079
411.83	24.162
412.18	24.096
412.54	23.711
412.89	24.505
413.25	24.492
413.60	23.894
413.96	23.193
414.31	23.399
414.67	24.270
415.03	24.123
415.38	24.086
415.74	24.130
416.09	24.676
416.45	23.982
416.80	24.113
417.16	23.691
417.51	23.973
417.87	24.157
418.22	24.371
418.58	23.730
418.93	24.680
419.29	24.353
419.64	23.349
420.00	23.561
420.35	23.807
420.71	23.837
421.06	23.922
421.42	23.796
421.77	23.802
422.12	23.784
422.48	23.349
422.83	25.082
423.19	23.448
423.54	24.170
423.90	23.523
424.25	23.893
424.61	23.020
424.96	23.943
425.31	24.257
425.67	23.994
426.02	23.575
426.38	23.307
426.73	23.940
427.09	24.683
427.44	23.648
427.79	24.268
428.15	22.774
428.50	24.101
428.85	23.708
429.21	23.617
429.56	22.952
429.92	23.096
430.27	23.759
430.62	23.742
430.98	24.004
431.33	23.900
431.68	23.420
432.04	23.870
432.39	24.049
432.74	23.858
433.10	23.148
433.45	22.631
433.80	23.391
434.16	23.037
434.51	23.792
434.86	23.290
435.22	23.273
435.57	24.233
435.92	23.873
436.28	23.322
436.63	24.358
436.98	23.403
437.34	23.168
437.69	23.005
438.04	23.691
438.39	23.665
438.75	22.800
439.10	24.524
439.45	23.533
439.81	24.068
440.16	23.217
440.51	24.192
440.86	23.513
441.22	23.044
441.57	23.480
441.92	23.618
442.27	23.434
442.63	24.044
442.98	23.639
443.33	23.567
443.68	23.935
444.03	24.882
444.39	23.578
444.74	24.043
445.09	23.923
445.44	24.236
445.79	23.420
446.15	23.381
446.50	23.618
446.85	23.249
447.20	23.839
447.55	22.856
447.91	23.298
448.26	23.256
448.61	23.964
448.96	24.893
449.31	23.224
449.66	22.658
450.02	23.365
450.37	24.134
450.72	22.659
451.07	23.462
451.42	22.877
451.77	22.679
452.12	23.758
452.47	22.816
452.83	23.986
453.18	23.176
453.53	23.607
453.88	22.971
454.23	23.672
454.58	23.331
454.93	22.755
455.28	23.239
455.63	22.854
455.98	23.631
456.34	23.204
456.69	23.222
457.04	22.813
457.39	22.783
457.74	23.714
458.09	22.900
458.44	23.599
458.79	22.537
459.14	23.440
459.49	22.920
459.84	23.085
460.19	22.821
460.54	23.737
460.89	22.975
461.24	22.989
461.59	23.243
461.94	22.362
462.29	23.348
462.64	22.993
462.99	22.850
463.34	23.621
463.69	23.036
464.04	24.180
464.39	22.982
464.74	22.748
465.09	23.068
465.44	22.854
465.79	22.845
466.14	22.199
466.49	23.368
466.84	22.700
467.19	22.775
467.54	22.797
467.89	22.989
468.24	23.102
468.59	22.235
468.94	21.853
469.29	22.376
469.64	22.950
469.99	22.626
470.34	22.215
470.68	22.761
471.03	23.445
471.38	22.695
471.73	22.497
472.08	23.160
472.43	22.155
472.78	22.670
473.13	22.250
473.48	22.840
473.83	23.215
474.17	23.154
474.52	23.211
474.87	21.429
475.22	22.648
475.57	21.963
475.92	21.354
476.27	22.790
476.61	22.326
476.96	22.993
477.31	22.426
477.66	23.400
478.01	22.064
478.36	22.283
478.70	23.005
479.05	22.290
479.40	22.952
479.75	22.863
480.10	22.928
480.45	21.878
480.79	22.313
481.14	22.656
481.49	22.535
481.84	22.672
482.19	22.667
482.53	22.562
482.88	22.109
483.23	22.543
483.58	22.751
483.92	22.385
484.27	22.269
484.62	21.865
484.97	22.434
485.31	22.034
485.66	21.685
486.01	21.071
486.36	22.287
486.70	23.298
487.05	24.624
487.40	24.379
487.75	24.377
488.09	24.148
488.44	23.551
488.79	23.170
489.13	23.027
489.48	22.524
489.83	21.650
490.17	21.750
490.52	21.921
490.87	22.420
491.22	21.794
491.56	22.782
491.91	22.372
492.26	22.155
492.60	21.600
492.95	22.115
493.30	21.739
493.64	22.076
493.99	22.105
494.34	21.864
494.68	21.927
495.03	22.819
495.37	21.926
495.72	22.404
496.07	21.823
496.41	21.879
496.76	21.852
497.11	21.529
497.45	21.752
497.80	22.790
498.14	22.268
498.49	22.105
498.84	22.486
499.18	22.447
499.53	22.780
499.87	22.374
500.22	20.926
500.56	21.952
500.91	21.739
501.26	21.909
501.60	21.608
501.95	22.579
502.29	21.413
502.64	22.650
502.98	22.994
503.33	21.425
503.67	21.675
504.02	22.373
504.36	22.297
504.71	22.049
505.06	21.464
505.40	22.349
505.75	22.268
506.09	21.823
506.44	22.563
506.78	21.927
507.13	21.807
507.47	21.791
507.82	22.064
508.16	22.180
508.51	22.082
508.85	21.540
509.19	21.743
509.54	21.854
509.88	22.390
510.23	22.001
510.57	22.958
510.92	22.254
511.26	21.260
511.61	21.101
511.95	22.401
512.30	22.403
512.64	21.189
512.98	22.011
513.33	22.228
513.67	21.469
514.02	22.228
514.36	22.558
514.70	22.135
515.05	22.315
515.39	22.572
515.74	22.004
516.08	21.342
516.42	22.344
516.77	21.451
517.11	21.506
517.46	21.951
517.80	22.822
518.14	22.797
518.49	22.017
518.83	21.714
519.17	21.217
519.52	22.065
519.86	21.489
520.20	21.353
520.55	20.865
520.89	22.072
521.23	21.776
521.58	22.203
521.92	21.190
522.26	21.191
522.61	21.354
522.95	22.030
523.29	22.356
523.64	21.805
523.98	22.875
524.32	23.152
524.66	22.709
525.01	22.367
525.35	20.850
525.69	20.824
526.04	21.412
526.38	22.069
526.72	21.799
527.06	22.639
527.41	22.041
527.75	22.565
528.09	21.901
528.43	21.966
528.78	21.850
529.12	22.362
529.46	22.035
529.80	22.140
530.15	22.261
530.49	21.352
530.83	22.668
531.17	23.059
531.51	21.841
531.86	22.716
532.20	22.317
532.54	22.023
532.88	21.818
533.22	22.098
533.57	22.331
533.91	22.615
534.25	22.612
534.59	22.471
534.93	22.128
535.27	22.310
535.62	23.479
535.96	23.242
536.30	22.855
536.64	23.183
536.98	22.694
537.32	22.531
537.66	22.146
538.01	21.813
538.35	22.533
538.69	22.296
539.03	23.728
539.37	23.145
539.71	22.402
540.05	22.302
540.39	22.005
540.73	21.858
541.07	22.931
541.42	22.327
541.76	22.954
542.10	22.738
542.44	22.229
542.78	22.080
543.12	22.467
543.46	22.039
543.80	21.942
544.14	22.322
544.48	23.759
544.82	23.339
545.16	22.302
545.50	22.349
545.84	21.862
546.18	24.012
546.52	22.866
546.86	23.082
547.20	23.219
547.54	22.659
547.88	22.483
548.22	22.339
548.56	23.230
548.90	22.925
549.24	23.222
549.58	22.524
549.92	22.513
550.26	23.236
550.60	22.272
550.94	23.027
551.28	23.564
551.62	23.585
551.96	22.848
552.30	24.028
552.64	22.464
552.98	23.768
553.32	23.280
553.66	23.215
554.00	23.140
554.34	23.616
554.68	22.208
555.02	22.865
555.36	23.340
555.69	23.318
556.03	22.825
556.37	23.717
556.71	22.765
557.05	22.812
557.39	23.291
557.73	23.382
558.07	23.510
558.41	23.588
558.75	23.124
559.08	22.547
559.42	23.045
559.76	23.541
560.10	23.510
560.44	23.483
560.78	23.063
561.12	22.845
561.45	24.027
561.79	23.626
562.13	23.352
562.47	23.058
562.81	22.658
563.15	22.727
563.48	23.369
563.82	23.700
564.16	22.895
564.50	23.123
564.84	22.537
565.17	23.588
565.51	23.072
565.85	24.406
566.19	23.272
566.52	23.757
566.86	23.656
567.20	22.730
567.54	22.464
567.88	24.006
568.21	24.061
568.55	24.029
568.89	24.921
569.23	24.292
569.56	23.955
569.90	24.198
570.24	24.115
570.57	24.695
570.91	24.189
571.25	24.559
571.59	24.436
571.92	25.107
572.26	24.537
572.60	25.198
572.93	25.160
573.27	24.867
573.61	24.934
573.95	24.690
574.28	25.088
574.62	24.920
574.96	24.107
575.29	24.807
575.63	24.717
575.97	24.982
576.30	24.599
576.64	24.529
576.98	24.875
577.31	24.726
577.65	25.196
577.98	24.699
578.32	24.453
578.66	24.896
578.99	24.903
579.33	24.967
579.67	25.657
580.00	25.017
580.34	25.131
580.67	24.823
581.01	24.816
581.35	24.235
581.68	23.904
582.02	24.788
582.35	25.173
582.69	25.385
583.02	25.565
583.36	25.775
583.70	25.494
584.03	25.702
584.37	25.500
584.70	25.134
585.04	24.483
585.37	24.591
585.71	24.315
586.04	24.659
586.38	25.023
586.72	24.517
587.05	24.610
587.39	24.832
587.72	25.191
588.06	25.508
588.39	25.716
588.73	25.079
589.06	25.198
589.40	24.954
589.73	24.775
590.07	24.934
590.40	25.321
590.73	24.708
591.07	24.832
591.40	24.495
591.74	24.722
592.07	25.173
592.41	23.856
592.74	24.104
593.08	24.522
593.41	24.934
593.75	25.115
594.08	25.568
594.41	24.904
594.75	24.776
595.08	24.764
595.42	25.130
595.75	24.701
596.09	25.246
596.42	25.188
596.75	25.203
597.09	24.970
597.42	23.917
597.75	24.500
598.09	24.603
598.42	24.648
598.76	23.691
599.09	24.101
599.42	23.969
599.76	24.298
600.09	24.958
600.42	24.191
600.76	25.000
601.09	24.129
601.42	24.545
601.76	24.724
602.09	24.339
602.42	24.100
602.76	24.834
603.09	25.110
603.42	24.783
603.76	24.524
604.09	24.947
604.42	24.147
604.76	24.353
605.09	24.132
605.42	24.482
605.75	23.962
606.09	24.449
606.42	23.677
606.75	23.838
607.09	23.810
607.42	25.202
607.75	24.033
608.08	23.994
608.42	24.869
608.75	24.378
609.08	23.727
609.41	24.349
609.75	24.330
610.08	25.022
610.41	24.129
610.74	24.664
611.07	24.600
611.41	24.170
611.74	24.573
612.07	24.404
612.40	23.337
612.73	24.694
613.07	24.010
613.40	24.302
613.73	24.218
614.06	24.239
614.39	23.129
614.72	24.260
615.06	22.859
615.39	23.828
615.72	23.697
616.05	23.458
616.38	24.319
616.71	23.668
617.05	23.003
617.38	24.559
617.71	25.216
618.04	24.015
618.37	25.027
618.70	23.812
619.03	23.716
619.36	23.921
619.69	23.511
620.03	23.289
620.36	23.374
620.69	23.196
621.02	25.656
621.35	24.528
621.68	24.729
622.01	23.203
622.34	22.803
622.67	23.230
623.00	22.672
623.33	22.960
623.66	23.541
623.99	23.502
624.32	24.431
624.65	23.359
624.99	24.317
625.32	23.645
625.65	23.938
625.98	23.254
626.31	23.600
626.64	23.883
626.97	23.331
627.30	23.235
627.63	23.931
627.96	23.724
628.29	23.191
628.62	23.342
628.95	23.839
629.28	21.920
629.61	23.316
629.94	22.176
630.26	21.441
630.59	21.330
630.92	21.645
631.25	23.077
631.58	22.222
631.91	22.587
632.24	22.382
632.57	21.632
632.90	22.467
633.23	21.939
633.56	22.041
633.89	22.624
634.22	22.973
634.55	21.712
634.88	23.268
635.20	22.497
635.53	23.616
635.86	24.377
636.19	23.118
636.52	22.996
636.85	21.348
637.18	21.310
637.51	23.118
637.83	23.477
638.16	22.235
638.49	21.244
638.82	22.097
639.15	21.535
639.48	22.864
639.81	23.672
640.13	22.497
640.46	21.455
640.79	20.343
641.12	21.988
641.45	22.710
641.77	24.775
642.10	21.391
642.43	23.005
642.76	22.629
643.09	21.370
643.41	21.429
643.74	21.655
644.07	24.000
644.40	21.924
644.73	22.206
645.05	20.411
645.38	21.151
645.71	22.287
646.04	22.238
646.36	20.584
646.69	20.706
647.02	24.006
647.35	21.832
647.67	21.578
648.00	21.497
648.33	22.673
648.66	19.686
648.98	20.272
649.31	20.568
649.64	23.506
649.96	20.690
650.29	21.558
650.62	21.216
650.94	21.321
651.27	22.156
651.60	19.883
651.92	20.213
652.25	23.878
652.58	22.146
652.90	20.640
653.23	22.535
653.56	20.399
653.88	22.612
654.21	21.408
654.54	22.832
654.86	22.521
655.19	20.954
655.52	22.745
655.84	21.722
656.17	27.364
656.49	39.564
656.82	45.287
657.15	37.175
657.47	28.590
657.80	21.679
658.13	17.123
658.45	22.846
658.78	27.290
659.10	26.838
659.43	25.853
659.75	24.767
660.08	23.417
660.41	22.250
660.73	22.007
661.06	19.383
661.38	21.691
661.71	21.379
662.03	20.635
662.36	24.508
662.68	20.263
663.01	20.354
663.33	22.495
663.66	23.993
663.98	20.962
664.31	21.201
664.63	21.580
664.96	21.779
665.28	18.875
665.61	22.552
665.93	18.571
666.26	20.789
666.58	20.480
666.91	23.925
667.23	22.667
667.56	20.118
667.88	20.600
668.21	18.359
668.53	20.463
668.86	21.611
669.18	19.756
669.50	19.682
669.83	20.600
670.15	21.654
670.48	21.429
670.80	20.076
671.13	18.904
671.45	20.079
671.77	22.034
672.10	19.000
672.42	20.874
672.75	22.734
673.07	20.896
673.39	20.493
673.72	22.987
674.04	23.448
674.37	23.971
674.69	23.104
675.01	21.905
675.34	22.137
675.66	20.787
675.98	21.269
676.31	20.898
676.63	22.053
676.95	20.881
677.28	22.379
677.60	20.866
677.92	19.962
678.25	20.841
678.57	21.530
678.89	22.355
679.22	19.861
679.54	20.171
679.86	20.678
680.18	20.398
680.51	20.912
680.83	20.786
681.15	22.241
681.48	23.489
681.80	22.625
682.12	20.280
682.44	20.367
682.77	22.340
683.09	20.265
683.41	24.806
683.73	24.478
684.06	21.587
684.38	18.962
684.70	22.801
685.02	21.343
685.34	20.466
685.67	21.451
685.99	20.092
686.31	20.349
686.63	21.169
686.96	21.451
687.28	19.870
687.60	20.875
687.92	19.293
688.24	22.538
688.56	18.621
688.89	21.597
689.21	22.896
689.53	19.804
689.85	19.527
690.17	20.185
690.49	19.721
690.82	21.386
691.14	19.231
691.46	22.371
691.78	19.337
692.10	20.917
692.42	20.714
692.74	19.782
693.06	19.815
693.39	22.391
693.71	22.180
694.03	20.818
694.35	21.333
694.67	19.713
694.99	21.064
695.31	18.985
695.63	20.130
695.95	19.669
696.27	22.637
696.59	22.124
696.91	18.694
697.23	23.736
697.56	19.552
697.88	22.159
698.20	21.092
698.52	23.295
698.84	20.166
699.16	21.837
699.48	20.293
699.80	20.213
700.12	22.271
700.44	22.120
700.76	18.527
701.08	19.370
701.40	20.207
701.72	21.144
702.04	21.658
702.36	16.230
702.68	21.027
703.00	18.093
703.32	16.256
703.64	21.027
703.96	20.286
704.28	19.902
704.60	20.000
704.91	21.429
705.23	20.000
705.55	18.384
705.87	18.788
706.19	23.006
706.51	16.265
706.83	17.579
707.15	15.079
707.47	20.093
707.79	20.742
708.11	18.432
708.43	19.570
708.74	20.536
709.06	20.186
709.38	19.953
709.70	22.829
710.02	19.897
710.34	19.947
710.66	15.922
710.98	20.219
711.29	18.681
711.61	18.362
711.93	20.228
712.25	18.649
712.57	24.779
712.89	22.941
713.20	18.343
713.52	22.543
713.84	19.499
714.16	20.000
714.48	20.619
714.80	21.558
715.11	17.323
715.43	21.751
715.75	20.526
716.07	19.061
716.39	21.038
716.70	15.060
717.02	19.672
717.34	18.118
717.66	21.141
717.97	18.493
718.29	17.182
718.61	17.105
718.93	18.123
719.24	16.770
719.56	18.405
719.88	17.718
720.20	21.935
720.51	19.876
720.83	18.750
721.15	14.803
721.46	16.096
721.78	21.333
722.10	20.065
722.42	17.450
722.73	16.129
723.05	23.860
723.37	21.528
723.68	22.222
724.00	21.300
724.32	16.901
724.63	18.531
724.95	21.277
725.27	20.557
725.58	21.201
725.90	20.690
726.22	19.749
726.53	20.455
726.85	23.270
727.16	23.867
727.48	20.795
727.80	19.205
728.11	14.841
728.43	17.845
728.74	19.064
729.06	20.530
729.38	18.831
729.69	19.463
730.01	18.750
730.32	18.182
730.64	20.126
730.96	18.323
731.27	19.553
731.59	20.055
731.90	21.039
732.22	19.531
732.53	16.022
732.85	15.429
733.16	21.994
733.48	15.549
733.80	20.613
734.11	19.943
734.43	22.432
734.74	23.797
735.06	17.085
735.37	22.162
735.69	19.730
736.00	19.209
736.32	18.598
736.63	21.667
736.95	23.563
737.26	20.303
737.58	19.394
737.89	20.882
738.21	13.150
738.52	18.033
738.83	20.137
739.15	24.113
739.46	19.048
739.78	19.939
740.09	19.198
740.41	21.283
740.72	20.000
741.04	19.741
741.35	23.860
741.66	18.431
741.98	24.180
742.29	22.594
742.61	17.982
742.92	18.462
743.23	20.939
743.55	17.442
743.86	18.000
744.18	16.116
744.49	17.300
744.80	18.930
745.12	17.722
745.43	19.919
745.74	16.810
746.06	22.034
746.37	25.316
746.68	20.325
747.00	19.167
747.31	20.172
747.62	23.077
747.94	15.385
748.25	17.671
748.56	17.959
748.88	13.248
749.19	21.552
749.50	14.719
749.82	24.498
750.13	23.843
750.44	17.000
750.75	21.231
751.07	19.385
751.38	19.874
751.69	19.169
752.01	17.152
752.32	19.608
752.63	18.707
752.94	19.723
753.26	18.959
753.57	17.037
753.88	17.978
754.19	17.042
754.51	18.971
754.82	19.293
755.13	22.623
755.44	19.113
755.75	19.079
756.07	20.299
756.38	21.069
756.69	22.892
757.00	15.789
757.31	19.399
757.63	19.949
757.94	18.310
758.25	21.219
758.56	20.915
758.87	22.500
759.18	17.867
759.50	24.079
759.81	19.328
760.12	19.946
760.43	21.875
760.74	20.443
761.05	18.500
761.36	21.205
761.67	19.797
761.99	21.081
762.30	21.037
762.61	17.822
762.92	20.149
763.23	20.974
763.54	21.583
763.85	15.120
764.16	21.212
764.47	22.887
764.78	20.767
765.10	16.422
765.41	21.795
765.72	19.841
766.03	21.751
766.34	21.630
766.65	19.164
766.96	17.131
767.27	20.737
767.58	15.920
767.89	26.923
768.20	24.413
768.51	16.204
768.82	21.285
769.13	21.212
769.44	15.000
769.75	18.773
770.06	21.538
770.37	21.260
770.68	17.447
770.99	13.765
771.30	25.185
771.61	19.392
771.92	17.778
772.23	20.648
772.54	10.648
772.85	22.581
773.16	20.000
773.47	18.519
773.78	17.838
774.09	21.591
774.39	22.500
774.70	24.044
775.01	12.805
775.32	18.824
775.63	20.245
775.94	10.191
776.25	21.290
776.56	15.385
776.87	29.932
777.18	16.552
777.48	16.783
777.79	18.243
778.10	11.029
778.41	21.528
778.72	20.690
779.03	9.877
779.34	16.970
779.65	18.135
779.95	24.444
780.26	18.182
780.57	21.290
780.88	23.188
781.19	23.226
781.50	24.706
781.80	23.118
782.11	20.106
782.42	17.172
782.73	10.778
783.04	21.788
783.34	23.030
783.65	15.686
783.96	24.224
784.27	16.667
784.57	19.868
784.88	23.571
785.19	21.260
785.50	14.961
785.81	13.534
786.11	17.692
786.42	19.424
786.73	12.950
787.04	25.564
787.34	19.672
787.65	16.000
787.96	21.642
788.26	16.783
788.57	25.874
788.88	23.684
789.19	23.529
789.49	21.918
789.80	15.603
790.11	16.535
790.41	12.500
790.72	11.017
791.03	-3.883
791.33	14.783
791.64	31.579
791.95	14.286
792.25	20.000
792.56	16.071
792.87	20.833
793.17	16.071
793.48	6.250
793.79	9.639
794.09	13.761
794.40	18.349
794.70	17.007
795.01	26.623
795.32	15.753
795.62	24.648
795.93	26.515
796.23	20.492
796.54	17.857
796.85	14.894
797.15	9.783
797.46	6.849
797.76	21.250
798.07	28.261
798.37	14.433
798.68	10.390
798.99	19.540
799.29	11.236
799.60	14.894
799.90	26.506
800.21	12.308
800.51	10.448
800.82	10.294
801.12	1.370
801.43	2.941
801.73	16.949
802.04	25.758
802.34	26.667
802.65	0.000
802.95	14.925
803.26	18.644
803.56	15.068
803.87	8.571
804.17	21.918
804.48	7.018
804.78	31.944
805.09	6.897
805.39	21.622
805.70	7.042
806.00	13.415
806.30	12.048
806.61	16.438
806.91	24.038
807.22	15.556
807.52	5.747
807.83	26.389
808.13	28.916
808.43	24.719
808.74	13.750
809.04	16.176
809.35	18.667
809.65	12.857
809.95	12.329
810.26	15.789
810.56	25.862
810.86	29.412
811.17	12.281
811.47	19.672
811.77	-11.111
812.08	23.729
812.38	6.667
812.69	17.241
812.99	7.547
813.29	5.128
813.59	44.000
813.90	24.561
814.20	5.455
814.50	23.944
814.81	28.205
815.11	18.033
815.41	16.418
815.72	15.517
816.02	14.286
816.32	37.778
816.62	27.273
816.93	15.556
817.23	20.370
817.53	17.021
817.84	45.238
818.14	23.529
818.44	14.286
818.74	11.111
819.04	-2.564
819.35	22.857
819.65	15.385
819.95	15.094
820.25	33.333
820.56	7.143
820.86	31.250
821.16	15.385
821.46	-2.326
821.76	2.000
822.07	30.357
822.37	-2.174
822.67	21.277
822.97	-16.216
823.27	10.000
823.57	24.490
823.88	35.556
824.18	22.500
824.48	13.333
824.78	12.000
825.08	24.242
825.38	28.889
825.69	21.277
825.99	41.667
826.29	-28.571
826.59	25.641
826.89	0.000
827.19	10.000
827.49	14.706
827.79	33.333
828.09	-24.324
828.39	23.333
828.70	19.512
829.00	2.326
829.30	7.143
829.60	29.412
829.90	28.261
830.20	34.286
830.50	0.000
830.80	5.556
831.10	-3.846
831.40	23.529
831.70	33.333
832.00	19.355
832.30	-29.412
832.60	29.167
832.90	-115.385
833.20	-26.316
833.50	-45.000
833.80	26.316
834.10	-9.524
834.40	30.556
834.70	6.250
835.00	-17.143
835.30	17.647
835.60	-13.333
835.90	28.000
836.20	-36.364
836.50	20.000
836.80	-6.061
837.10	-14.815
837.40	0.000
837.70	-31.250
838.00	28.571
838.30	26.087
838.60	13.793
838.90	21.429
839.19	-43.478
839.49	-58.333
839.79	13.043
840.09	0.000
840.39	50.000
840.69	25.806
840.99	-7.143
841.29	-26.667
841.59	-21.053
841.88	43.590
842.18	19.231
842.48	-60.000
842.78	-25.000
843.08	3.333
843.38	25.806
843.68	-55.556
843.97	32.353
844.27	0.000
844.57	26.316
844.87	60.000
845.17	46.667
845.47	66.667
845.76	-14.286
846.06	-111.111
846.36	35.294
846.66	11.538
846.96	-53.333
847.25	17.647
847.55	39.130
847.85	25.000
848.15	58.824
848.44	18.182
848.74	23.810
849.04	8.333
849.34	-6.250
849.63	0.000
849.93	50.000
850.23	6.667
850.53	34.615
850.82	-27.273
851.12	90.909
851.42	18.182
851.71	69.231
852.01	50.000
852.31	-15.385
852.61	0.000
852.90	25.000
853.20	33.333
853.50	-11.111
853.79	23.810
854.09	-9.091
854.39	-91.667
854.68	48.387
854.98	30.769
855.28	66.667
855.57	25.000
855.87	32.000
856.17	18.182
856.46	14.815
856.76	22.222
857.05	-8.696
857.35	-16.667
857.65	-23.077
857.94	23.810
858.24	40.741
858.53	34.783
858.83	35.294
859.13	47.059
859.42	58.824
859.72	0.000
860.01	25.000
860.31	-44.444
860.60	0.000
860.90	53.333
861.20	33.333
861.49	84.615
861.79	6.667
862.08	15.385
862.38	34.375
862.67	64.706
862.97	-18.750
863.26	-11.111
863.56	40.000
863.85	27.273
864.15	16.667
864.44	33.333
864.74	21.429
865.03	43.750
865.33	-20.000
865.62	22.581
865.92	27.273
866.21	26.087
866.51	-28.571
866.80	0.000
867.10	-125.000
867.39	-8.333
867.69	1200.000
867.98	28.571
868.27	-17.647
868.57	-1500.000
868.86	10.000
869.16	-33.333
869.45	-8.333
869.75	18.182
870.04	57.143
870.33	100.000
870.63	-157.143
870.92	200.000
871.22	-162.500
871.51	-9.091
871.80	-100.000
872.10	-550.000
>>>>>End Processed Spectral Data<<<<<
