SpectraSuite Data File
++++++++++++++++++++++++++++++++++++
Date: Thu May 14 14:57:58 PDT 2015
User: schluterlab
Dark Spectrum Present: Yes
Reference Spectrum Present: Yes
Number of Sampled Component Spectra: 1
Spectrometers: USB2E3373
Integration Time (usec): 3000 (USB2E3373)
Spectra Averaged: 3 (USB2E3373)
Boxcar Smoothing: 0 (USB2E3373)
Correct for Electrical Dark: No (USB2E3373)
Strobe/Lamp Enabled: No (USB2E3373)
Correct for Detector Non-linearity: No (USB2E3373)
Correct for Stray Light: No (USB2E3373)
Number of Pixels in Processed Spectrum: 2048
>>>>>Begin Processed Spectral Data<<<<<
178.53	0.000
178.91	285.714
179.29	-2300.000
179.67	-2800.000
180.04	278.571
180.42	150.000
180.80	340.000
181.18	-900.000
181.56	-1100.000
181.94	600.000
182.31	-375.000
182.69	500.000
183.07	-850.000
183.45	725.000
183.83	-316.667
184.20	-633.333
184.58	1700.000
184.96	-375.000
185.34	-222.222
185.72	-260.000
186.09	277.778
186.47	800.000
186.85	360.000
187.23	-388.889
187.61	-2600.000
187.98	460.000
188.36	650.000
188.74	-600.000
189.12	-533.333
189.49	-112.500
189.87	-250.000
190.25	-88.889
190.63	-280.000
191.00	-255.556
191.38	0.000
191.76	-500.000
192.14	-416.667
192.51	1350.000
192.89	-316.667
193.27	0.000
193.65	-185.714
194.02	-2200.000
194.40	-171.429
194.78	271.429
195.15	0.000
195.53	-136.364
195.91	0.000
196.29	-250.000
196.66	-115.385
197.04	-2000.000
197.42	-171.429
197.79	-950.000
198.17	-312.500
198.55	-314.286
198.92	-155.556
199.30	-175.000
199.68	-136.364
200.05	-135.714
200.43	-1450.000
200.81	385.714
201.18	0.000
201.56	322.222
201.94	0.000
202.31	833.333
202.69	-244.444
203.07	1300.000
203.44	-155.556
203.82	-525.000
204.19	-133.333
204.57	-200.000
204.95	-212.500
205.32	-2200.000
205.70	400.000
206.08	-283.333
206.45	-283.333
206.83	600.000
207.20	-383.333
207.58	-600.000
207.96	-366.667
208.33	-333.333
208.71	150.000
209.08	-250.000
209.46	0.000
209.84	466.667
210.21	900.000
210.59	900.000
210.96	800.000
211.34	-525.000
211.71	-287.500
212.09	-2900.000
212.46	0.000
212.84	1850.000
213.22	-640.000
213.59	-425.000
213.97	-110.000
214.34	-533.333
214.72	383.333
215.09	-600.000
215.47	0.000
215.84	342.857
216.22	1300.000
216.59	-340.000
216.97	-320.000
217.34	-475.000
217.72	-187.500
218.09	-425.000
218.47	-475.000
218.84	0.000
219.22	360.000
219.59	-100.000
219.97	-100.000
220.34	1600.000
220.72	-211.111
221.09	-76.923
221.47	-766.667
221.84	-190.000
222.22	-428.571
222.59	0.000
222.97	-175.000
223.34	-300.000
223.72	-1700.000
224.09	-650.000
224.46	-625.000
224.84	-240.000
225.21	-285.714
225.59	-625.000
225.96	-375.000
226.34	-42.308
226.71	516.667
227.08	-1000.000
227.46	-100.000
227.83	-400.000
228.21	-63.158
228.58	275.000
228.95	600.000
229.33	-83.333
229.70	-160.000
230.08	-47.368
230.45	260.000
230.82	-400.000
231.20	-107.143
231.57	-125.000
231.95	-100.000
232.32	-109.091
232.69	-80.000
233.07	-475.000
233.44	-70.588
233.81	-90.000
234.19	-44.444
234.56	-77.273
234.93	-41.379
235.31	-78.947
235.68	-116.667
236.05	-90.000
236.43	0.000
236.80	12.000
237.17	-44.444
237.55	-3.030
237.92	-240.000
238.29	-35.484
238.67	-4.545
239.04	-2.778
239.41	-2.381
239.79	0.000
240.16	3.704
240.53	-2.174
240.91	11.765
241.28	3.279
241.65	26.866
242.02	5.405
242.40	4.615
242.77	9.333
243.14	8.537
243.51	5.263
243.89	11.538
244.26	25.743
244.63	25.490
245.00	28.037
245.38	21.930
245.75	13.274
246.12	24.603
246.49	21.705
246.87	27.857
247.24	31.126
247.61	27.632
247.98	32.215
248.36	27.778
248.73	26.994
249.10	25.683
249.47	32.338
249.84	34.031
250.22	25.907
250.59	36.667
250.96	30.909
251.33	31.122
251.70	30.342
252.08	29.583
252.45	31.557
252.82	28.926
253.19	27.734
253.56	31.179
253.94	30.385
254.31	35.227
254.68	32.867
255.05	37.785
255.42	33.333
255.79	32.039
256.16	31.788
256.54	34.106
256.91	35.410
257.28	33.443
257.65	29.936
258.02	32.153
258.39	33.333
258.76	34.862
259.14	35.920
259.51	32.565
259.88	33.144
260.25	33.333
260.62	33.699
260.99	35.246
261.36	35.121
261.73	35.809
262.10	36.538
262.47	36.729
262.85	36.111
263.22	33.247
263.59	30.000
263.96	35.038
264.33	36.317
264.70	36.049
265.07	35.084
265.44	33.560
265.81	31.019
266.18	34.921
266.55	36.161
266.92	32.346
267.29	37.199
267.66	34.368
268.03	36.245
268.40	32.985
268.77	33.030
269.14	35.242
269.51	35.307
269.88	32.992
270.25	32.797
270.62	35.232
270.99	35.556
271.36	32.673
271.73	33.202
272.10	34.469
272.47	36.874
272.84	33.133
273.21	36.072
273.58	35.081
273.95	32.885
274.32	32.700
274.69	32.108
275.06	33.516
275.43	30.499
275.80	34.921
276.17	33.704
276.54	31.530
276.91	36.136
277.28	33.996
277.65	31.059
278.02	36.581
278.39	32.428
278.76	33.743
279.13	35.638
279.50	36.426
279.87	35.420
280.23	30.458
280.60	32.712
280.97	33.882
281.34	37.351
281.71	34.179
282.08	33.223
282.45	32.079
282.82	32.496
283.19	31.502
283.56	32.951
283.92	34.234
284.29	33.491
284.66	33.498
285.03	33.494
285.40	34.003
285.77	33.282
286.14	33.435
286.51	33.942
286.87	33.175
287.24	32.380
287.61	31.988
287.98	30.967
288.35	32.396
288.72	32.988
289.08	32.504
289.45	30.917
289.82	32.380
290.19	30.891
290.56	34.225
290.93	33.524
291.29	32.231
291.66	31.267
292.03	30.393
292.40	31.156
292.77	31.267
293.13	29.635
293.50	29.566
293.87	31.544
294.24	31.600
294.60	29.836
294.97	30.201
295.34	31.114
295.71	31.148
296.08	30.103
296.44	31.373
296.81	29.598
297.18	30.012
297.55	29.009
297.91	31.673
298.28	30.095
298.65	29.251
299.02	31.051
299.38	29.634
299.75	28.505
300.12	27.662
300.48	29.608
300.85	30.596
301.22	29.866
301.59	29.452
301.95	28.927
302.32	29.889
302.69	29.573
303.05	31.012
303.42	30.155
303.79	31.562
304.15	30.705
304.52	30.444
304.89	30.471
305.25	30.021
305.62	29.676
305.99	31.753
306.35	30.645
306.72	32.265
307.09	29.746
307.45	31.056
307.82	30.071
308.19	31.382
308.55	30.376
308.92	32.911
309.29	31.801
309.65	30.799
310.02	32.079
310.38	31.791
310.75	32.427
311.12	34.324
311.48	34.018
311.85	33.428
312.22	32.258
312.58	33.052
312.95	33.748
313.31	32.520
313.68	33.333
314.05	34.146
314.41	34.699
314.78	34.242
315.14	35.209
315.51	36.380
315.87	35.644
316.24	34.155
316.61	35.879
316.97	36.561
317.34	35.538
317.70	37.467
318.07	37.566
318.43	36.905
318.80	38.127
319.16	36.996
319.53	35.990
319.89	37.686
320.26	37.633
320.62	37.411
320.99	37.950
321.35	38.725
321.72	37.953
322.08	39.315
322.45	38.753
322.81	40.343
323.18	38.761
323.54	39.397
323.91	38.968
324.27	37.780
324.64	39.966
325.00	39.386
325.37	39.558
325.73	41.818
326.10	41.363
326.46	42.590
326.83	41.873
327.19	42.362
327.56	42.055
327.92	41.857
328.29	42.097
328.65	43.970
329.01	42.809
329.38	44.229
329.74	44.264
330.11	44.349
330.47	43.134
330.84	44.272
331.20	45.000
331.56	45.494
331.93	45.272
332.29	46.695
332.66	45.017
333.02	45.729
333.38	45.134
333.75	47.138
334.11	46.289
334.48	45.627
334.84	46.219
335.20	44.668
335.57	47.049
335.93	46.364
336.29	45.757
336.66	46.173
337.02	46.237
337.38	46.769
337.75	46.033
338.11	46.930
338.47	45.409
338.84	46.701
339.20	44.735
339.56	45.305
339.93	46.141
340.29	44.686
340.65	44.688
341.02	45.810
341.38	46.564
341.74	46.247
342.11	46.822
342.47	44.162
342.83	46.296
343.20	46.443
343.56	45.950
343.92	47.158
344.28	45.781
344.65	45.969
345.01	46.256
345.37	45.490
345.73	44.271
346.10	45.788
346.46	45.965
346.82	46.442
347.19	44.079
347.55	45.372
347.91	45.840
348.27	46.434
348.63	44.631
349.00	44.966
349.36	46.171
349.72	45.536
350.08	45.691
350.45	46.616
350.81	44.646
351.17	44.211
351.53	45.186
351.89	46.241
352.26	45.224
352.62	47.164
352.98	45.267
353.34	44.735
353.70	44.838
354.07	45.455
354.43	46.014
354.79	45.849
355.15	46.210
355.51	46.491
355.87	46.522
356.24	45.627
356.60	44.937
356.96	46.034
357.32	45.874
357.68	46.340
358.04	45.434
358.40	47.910
358.77	45.249
359.13	44.609
359.49	45.948
359.85	47.208
360.21	46.198
360.57	46.303
360.93	46.051
361.29	47.298
361.66	46.850
362.02	46.625
362.38	47.365
362.74	46.997
363.10	46.630
363.46	47.576
363.82	47.230
364.18	47.924
364.54	47.441
364.90	47.023
365.26	47.586
365.62	47.600
365.98	47.039
366.35	47.919
366.71	48.027
367.07	48.309
367.43	47.800
367.79	48.507
368.15	48.763
368.51	47.497
368.87	48.073
369.23	47.867
369.59	48.634
369.95	47.938
370.31	49.088
370.67	48.968
371.03	48.476
371.39	48.489
371.75	48.762
372.11	49.187
372.47	48.951
372.83	49.280
373.19	48.966
373.55	49.187
373.91	49.966
374.27	48.254
374.63	49.391
374.99	50.199
375.35	51.234
375.71	49.613
376.07	49.903
376.42	49.748
376.78	50.839
377.14	50.530
377.50	51.676
377.86	50.677
378.22	51.497
378.58	51.605
378.94	49.765
379.30	52.255
379.66	51.852
380.02	51.818
380.38	53.802
380.74	52.451
381.09	53.194
381.45	52.159
381.81	53.162
382.17	53.741
382.53	52.982
382.89	52.652
383.25	54.865
383.61	53.299
383.97	54.181
384.32	55.203
384.68	52.958
385.04	54.309
385.40	53.978
385.76	55.510
386.12	54.937
386.48	55.647
386.83	56.377
387.19	54.983
387.55	56.514
387.91	55.479
388.27	56.178
388.62	57.331
388.98	55.612
389.34	56.453
389.70	57.408
390.06	57.075
390.42	56.024
390.77	57.375
391.13	56.279
391.49	57.488
391.85	57.576
392.20	57.177
392.56	57.708
392.92	57.088
393.28	57.933
393.64	56.313
393.99	59.210
394.35	58.937
394.71	57.844
395.07	57.186
395.42	57.167
395.78	58.867
396.14	58.170
396.50	58.254
396.85	57.126
397.21	59.172
397.57	57.362
397.92	57.732
398.28	57.306
398.64	57.437
399.00	57.801
399.35	57.853
399.71	57.826
400.07	57.552
400.42	57.276
400.78	58.391
401.14	58.281
401.49	58.670
401.85	59.244
402.21	57.706
402.57	58.568
402.92	59.515
403.28	57.143
403.63	57.995
403.99	59.382
404.35	56.964
404.70	57.564
405.06	56.793
405.42	57.963
405.77	58.179
406.13	58.347
406.49	58.277
406.84	57.895
407.20	58.860
407.55	58.571
407.91	58.831
408.27	57.244
408.62	57.650
408.98	57.110
409.34	58.592
409.69	59.209
410.05	57.737
410.40	58.237
410.76	58.441
411.11	59.439
411.47	58.907
411.83	59.553
412.18	59.880
412.54	58.684
412.89	57.276
413.25	59.594
413.60	59.793
413.96	58.566
414.31	57.847
414.67	58.020
415.03	57.662
415.38	58.953
415.74	58.522
416.09	59.284
416.45	55.792
416.80	57.772
417.16	58.493
417.51	58.842
417.87	59.289
418.22	58.623
418.58	58.612
418.93	58.789
419.29	59.618
419.64	59.784
420.00	60.415
420.35	59.124
420.71	58.702
421.06	58.827
421.42	59.920
421.77	58.912
422.12	57.822
422.48	59.857
422.83	61.117
423.19	60.371
423.54	60.288
423.90	58.807
424.25	60.427
424.61	59.529
424.96	59.528
425.31	61.465
425.67	60.655
426.02	60.874
426.38	60.964
426.73	60.156
427.09	61.361
427.44	60.459
427.79	59.923
428.15	60.845
428.50	61.461
428.85	59.989
429.21	61.064
429.56	60.958
429.92	59.165
430.27	61.542
430.62	62.091
430.98	61.387
431.33	60.020
431.68	61.063
432.04	63.840
432.39	60.739
432.74	60.845
433.10	61.763
433.45	61.371
433.80	60.622
434.16	62.138
434.51	63.926
434.86	63.464
435.22	63.177
435.57	63.679
435.92	62.716
436.28	63.424
436.63	64.828
436.98	61.782
437.34	63.754
437.69	63.786
438.04	61.978
438.39	61.918
438.75	64.084
439.10	64.006
439.45	63.276
439.81	63.616
440.16	62.895
440.51	62.375
440.86	61.534
441.22	62.808
441.57	64.518
441.92	63.628
442.27	64.899
442.63	63.587
442.98	63.501
443.33	63.125
443.68	63.627
444.03	64.393
444.39	63.985
444.74	64.778
445.09	63.558
445.44	64.331
445.79	64.368
446.15	64.234
446.50	63.979
446.85	63.862
447.20	63.878
447.55	63.912
447.91	64.974
448.26	63.742
448.61	65.090
448.96	65.343
449.31	64.952
449.66	63.834
450.02	64.346
450.37	64.518
450.72	65.716
451.07	64.522
451.42	64.298
451.77	63.980
452.12	66.422
452.47	64.706
452.83	65.372
453.18	63.806
453.53	64.216
453.88	63.225
454.23	64.802
454.58	64.771
454.93	63.774
455.28	64.479
455.63	64.639
455.98	65.196
456.34	64.723
456.69	63.257
457.04	65.780
457.39	64.468
457.74	65.548
458.09	65.239
458.44	64.547
458.79	64.312
459.14	64.237
459.49	65.874
459.84	64.953
460.19	63.742
460.54	66.099
460.89	65.431
461.24	65.345
461.59	65.689
461.94	64.347
462.29	65.789
462.64	64.454
462.99	64.595
463.34	64.828
463.69	63.658
464.04	65.147
464.39	63.901
464.74	63.626
465.09	65.340
465.44	65.236
465.79	64.728
466.14	64.096
466.49	64.947
466.84	66.832
467.19	64.104
467.54	63.749
467.89	64.138
468.24	64.488
468.59	64.215
468.94	64.510
469.29	64.247
469.64	64.399
469.99	65.201
470.34	64.790
470.68	65.960
471.03	65.881
471.38	65.860
471.73	64.954
472.08	65.736
472.43	63.757
472.78	64.232
473.13	65.550
473.48	65.076
473.83	65.409
474.17	65.240
474.52	66.085
474.87	65.227
475.22	64.901
475.57	64.226
475.92	64.410
476.27	66.081
476.61	63.084
476.96	63.556
477.31	64.554
477.66	65.687
478.01	65.480
478.36	64.307
478.70	65.714
479.05	67.076
479.40	66.041
479.75	64.601
480.10	65.135
480.45	66.089
480.79	65.624
481.14	65.028
481.49	65.152
481.84	64.186
482.19	65.849
482.53	66.069
482.88	66.283
483.23	65.051
483.58	65.328
483.92	64.583
484.27	64.014
484.62	64.150
484.97	64.930
485.31	63.710
485.66	60.816
486.01	60.646
486.36	64.289
486.70	68.015
487.05	69.711
487.40	66.845
487.75	65.700
488.09	64.666
488.44	63.101
488.79	64.384
489.13	63.505
489.48	63.534
489.83	63.944
490.17	63.345
490.52	63.957
490.87	64.044
491.22	65.165
491.56	65.700
491.91	64.413
492.26	64.042
492.60	64.714
492.95	64.239
493.30	65.128
493.64	65.353
493.99	64.167
494.34	64.373
494.68	64.197
495.03	64.537
495.37	65.069
495.72	65.034
496.07	64.505
496.41	65.294
496.76	65.304
497.11	66.157
497.45	64.912
497.80	65.526
498.14	65.624
498.49	65.533
498.84	65.402
499.18	64.732
499.53	65.561
499.87	65.890
500.22	64.559
500.56	65.317
500.91	65.767
501.26	66.227
501.60	63.897
501.95	64.525
502.29	65.467
502.64	65.850
502.98	64.107
503.33	65.184
503.67	65.068
504.02	64.448
504.36	66.175
504.71	66.100
505.06	64.302
505.40	64.945
505.75	65.118
506.09	64.963
506.44	66.202
506.78	65.459
507.13	66.574
507.47	65.988
507.82	65.199
508.16	66.061
508.51	66.292
508.85	65.942
509.19	65.940
509.54	66.234
509.88	65.080
510.23	66.537
510.57	67.859
510.92	66.134
511.26	66.330
511.61	63.882
511.95	65.447
512.30	65.731
512.64	65.617
512.98	65.833
513.33	66.028
513.67	66.446
514.02	67.808
514.36	67.263
514.70	66.823
515.05	67.205
515.39	67.559
515.74	68.505
516.08	67.248
516.42	67.399
516.77	66.351
517.11	65.498
517.46	66.755
517.80	67.771
518.14	68.553
518.49	66.594
518.83	66.631
519.17	67.367
519.52	66.876
519.86	67.318
520.20	67.572
520.55	67.798
520.89	67.905
521.23	66.555
521.58	68.475
521.92	68.159
522.26	66.438
522.61	67.361
522.95	67.532
523.29	67.759
523.64	66.816
523.98	68.568
524.32	69.112
524.66	68.810
525.01	67.837
525.35	67.203
525.69	68.213
526.04	66.820
526.38	68.046
526.72	68.051
527.06	69.208
527.41	67.055
527.75	69.181
528.09	68.241
528.43	66.963
528.78	68.150
529.12	69.209
529.46	67.678
529.80	68.021
530.15	68.348
530.49	68.268
530.83	68.359
531.17	68.399
531.51	67.810
531.86	68.570
532.20	68.354
532.54	67.445
532.88	69.091
533.22	67.708
533.57	66.301
533.91	67.228
534.25	67.835
534.59	69.943
534.93	67.006
535.27	67.831
535.62	68.619
535.96	67.984
536.30	67.744
536.64	69.910
536.98	67.528
537.32	68.519
537.66	68.559
538.01	67.009
538.35	67.357
538.69	68.269
539.03	69.712
539.37	68.375
539.71	68.649
540.05	68.225
540.39	67.298
540.73	66.424
541.07	67.689
541.42	65.918
541.76	65.896
542.10	66.888
542.44	67.235
542.78	68.187
543.12	66.567
543.46	67.399
543.80	66.847
544.14	67.624
544.48	68.381
544.82	68.103
545.16	68.754
545.50	67.705
545.84	66.932
546.18	69.753
546.52	68.217
546.86	68.050
547.20	67.430
547.54	67.353
547.88	67.571
548.22	67.485
548.56	67.291
548.90	69.552
549.24	68.024
549.58	67.382
549.92	67.283
550.26	68.091
550.60	65.667
550.94	67.788
551.28	67.063
551.62	68.868
551.96	66.926
552.30	68.388
552.64	68.202
552.98	68.372
553.32	69.518
553.66	67.910
554.00	68.852
554.34	67.503
554.68	66.817
555.02	68.003
555.36	67.850
555.69	66.560
556.03	68.348
556.37	67.459
556.71	68.104
557.05	67.540
557.39	68.812
557.73	67.900
558.07	67.483
558.41	68.904
558.75	67.681
559.08	67.711
559.42	67.833
559.76	68.114
560.10	66.778
560.44	68.734
560.78	68.688
561.12	67.365
561.45	68.674
561.79	69.536
562.13	69.747
562.47	67.818
562.81	67.658
563.15	68.750
563.48	68.925
563.82	68.198
564.16	67.959
564.50	66.865
564.84	67.847
565.17	67.824
565.51	67.549
565.85	68.409
566.19	67.339
566.52	68.988
566.86	68.421
567.20	67.700
567.54	67.339
567.88	68.603
568.21	68.478
568.55	68.633
568.89	67.998
569.23	68.695
569.56	68.894
569.90	67.177
570.24	68.567
570.57	67.960
570.91	68.432
571.25	67.110
571.59	67.520
571.92	67.884
572.26	66.967
572.60	67.759
572.93	67.131
573.27	66.451
573.61	66.067
573.95	65.768
574.28	65.545
574.62	66.689
574.96	66.012
575.29	66.314
575.63	66.436
575.97	65.772
576.30	65.606
576.64	65.999
576.98	65.900
577.31	65.988
577.65	66.942
577.98	66.434
578.32	66.097
578.66	66.472
578.99	66.947
579.33	66.941
579.67	65.979
580.00	65.498
580.34	65.903
580.67	65.666
581.01	66.421
581.35	65.615
581.68	65.643
582.02	65.912
582.35	67.692
582.69	68.611
583.02	67.315
583.36	66.461
583.70	65.758
584.03	65.683
584.37	65.243
584.70	65.403
585.04	64.822
585.37	65.820
585.71	66.321
586.04	66.446
586.38	66.667
586.72	66.257
587.05	67.025
587.39	66.866
587.72	67.488
588.06	66.465
588.39	67.015
588.73	66.455
589.06	67.099
589.40	66.749
589.73	66.645
590.07	67.009
590.40	66.599
590.73	66.737
591.07	67.796
591.40	65.824
591.74	66.693
592.07	67.276
592.41	66.522
592.74	66.560
593.08	67.070
593.41	68.446
593.75	67.299
594.08	68.070
594.41	68.429
594.75	67.453
595.08	67.699
595.42	67.175
595.75	67.485
596.09	68.451
596.42	67.216
596.75	67.503
597.09	68.606
597.42	66.031
597.75	66.366
598.09	66.746
598.42	67.632
598.76	66.565
599.09	66.643
599.42	66.376
599.76	66.755
600.09	68.068
600.42	67.234
600.76	66.942
601.09	66.213
601.42	66.426
601.76	66.724
602.09	65.940
602.42	67.030
602.76	66.162
603.09	67.217
603.42	67.991
603.76	66.350
604.09	67.779
604.42	67.560
604.76	65.677
605.09	66.853
605.42	67.026
605.75	66.731
606.09	67.712
606.42	65.961
606.75	66.642
607.09	65.783
607.42	65.934
607.75	66.745
608.08	66.535
608.42	66.546
608.75	67.454
609.08	65.025
609.41	67.225
609.75	67.902
610.08	67.062
610.41	66.270
610.74	67.143
611.07	67.895
611.41	68.386
611.74	68.406
612.07	67.041
612.40	66.825
612.73	68.606
613.07	67.042
613.40	67.372
613.73	66.972
614.06	67.321
614.39	67.055
614.72	66.376
615.06	67.661
615.39	66.602
615.72	67.299
616.05	67.460
616.38	68.870
616.71	66.823
617.05	66.667
617.38	66.774
617.71	67.009
618.04	67.620
618.37	68.852
618.70	69.005
619.03	68.578
619.36	68.002
619.69	67.905
620.03	67.169
620.36	66.933
620.69	66.872
621.02	68.504
621.35	71.118
621.68	68.547
622.01	66.335
622.34	68.061
622.67	68.454
623.00	67.611
623.33	67.950
623.66	69.326
623.99	69.256
624.32	68.421
624.65	68.468
624.99	68.596
625.32	68.975
625.65	69.049
625.98	67.525
626.31	66.974
626.64	68.425
626.97	68.417
627.30	66.667
627.63	69.017
627.96	69.294
628.29	68.093
628.62	69.186
628.95	69.325
629.28	69.159
629.61	70.118
629.94	67.782
630.26	70.593
630.59	69.171
630.92	67.100
631.25	69.052
631.58	71.375
631.91	71.790
632.24	71.662
632.57	70.588
632.90	69.208
633.23	71.939
633.56	68.776
633.89	68.698
634.22	69.023
634.55	70.877
634.88	68.831
635.20	69.860
635.53	71.864
635.86	68.906
636.19	69.353
636.52	69.831
636.85	68.029
637.18	67.152
637.51	69.355
637.83	70.432
638.16	70.622
638.49	70.070
638.82	68.771
639.15	69.072
639.48	71.132
639.81	70.092
640.13	71.260
640.46	68.000
640.79	68.995
641.12	68.447
641.45	69.385
641.77	71.502
642.10	68.898
642.43	68.484
642.76	68.835
643.09	68.630
643.41	70.168
643.74	68.414
644.07	69.103
644.40	69.165
644.73	70.102
645.05	68.869
645.38	67.338
645.71	68.328
646.04	68.723
646.36	69.927
646.69	71.779
647.02	72.018
647.35	70.382
647.67	70.692
648.00	72.293
648.33	70.721
648.66	69.900
648.98	68.027
649.31	71.583
649.64	70.916
649.96	68.833
650.29	69.124
650.62	67.185
650.94	71.471
651.27	67.365
651.60	66.520
651.92	70.365
652.25	69.030
652.58	67.675
652.90	70.930
653.23	69.296
653.56	70.185
653.88	70.225
654.21	68.310
654.54	66.474
654.86	70.255
655.19	66.750
655.52	71.588
655.84	72.938
656.17	83.128
656.49	100.042
656.82	100.008
657.15	100.000
657.47	98.287
657.80	52.205
658.13	40.497
658.45	51.868
658.78	62.004
659.10	59.274
659.43	56.882
659.75	55.736
660.08	53.838
660.41	54.094
660.73	59.521
661.06	61.527
661.38	66.029
661.71	70.517
662.03	67.549
662.36	66.190
662.68	70.919
663.01	65.310
663.33	70.888
663.66	68.132
663.98	71.538
664.31	69.606
664.63	68.786
664.96	65.154
665.28	69.328
665.61	69.231
665.93	67.857
666.26	68.100
666.58	66.974
666.91	68.598
667.23	68.762
667.56	69.231
667.88	72.000
668.21	69.531
668.53	66.216
668.86	68.762
669.18	70.265
669.50	68.986
669.83	68.400
670.15	69.685
670.48	65.675
670.80	66.730
671.13	66.919
671.45	72.835
671.77	71.940
672.10	66.833
672.42	70.227
672.75	67.281
673.07	66.269
673.39	65.794
673.72	70.638
674.04	66.552
674.37	68.873
674.69	66.138
675.01	67.429
675.34	69.656
675.66	66.667
675.98	68.284
676.31	68.945
676.63	68.441
676.95	70.690
677.28	69.153
677.60	69.094
677.92	70.633
678.25	68.921
678.57	69.929
678.89	66.382
679.22	68.293
679.54	67.009
679.86	65.932
680.18	67.993
680.51	66.824
680.83	66.285
681.15	68.276
681.48	68.912
681.80	68.739
682.12	66.958
682.44	64.274
682.77	65.957
683.09	68.182
683.41	66.279
683.73	66.224
684.06	65.867
684.38	65.116
684.70	73.609
685.02	67.986
685.34	65.391
685.67	67.666
685.99	66.564
686.31	63.517
686.63	68.246
686.96	66.246
687.28	65.309
687.60	68.687
687.92	66.399
688.24	64.608
688.56	64.138
688.89	67.332
689.21	70.841
689.53	65.294
689.85	68.047
690.17	66.296
690.49	65.139
690.82	67.723
691.14	66.599
691.46	68.642
691.78	67.772
692.10	65.505
692.42	64.821
692.74	66.425
693.06	63.889
693.39	65.085
693.71	66.541
694.03	62.454
694.35	66.286
694.67	65.503
694.99	63.617
695.31	67.550
695.63	69.264
695.95	64.803
696.27	65.714
696.59	64.381
696.91	66.441
697.23	67.473
697.56	66.802
697.88	65.152
698.20	65.160
698.52	65.152
698.84	66.320
699.16	64.286
699.48	65.690
699.80	61.489
700.12	65.939
700.44	64.516
700.76	64.608
701.08	66.586
701.40	65.803
701.72	63.930
702.04	70.856
702.36	64.660
702.68	63.081
703.00	66.015
703.32	66.010
703.64	66.993
703.96	65.394
704.28	67.322
704.60	63.291
704.91	61.480
705.23	66.849
705.55	61.281
705.87	66.667
706.19	68.405
706.51	67.470
706.83	66.282
707.15	69.312
707.47	68.458
707.79	65.284
708.11	63.983
708.43	64.946
708.74	60.938
709.06	64.733
709.38	63.146
709.70	64.764
710.02	64.341
710.34	67.819
710.66	64.246
710.98	63.388
711.29	65.385
711.61	65.537
711.93	66.097
712.25	62.162
712.57	67.552
712.89	65.882
713.20	64.201
713.52	61.561
713.84	62.674
714.16	65.263
714.48	62.113
714.80	69.870
715.11	64.829
715.43	63.660
715.75	63.947
716.07	65.193
716.39	58.470
716.70	62.651
717.02	65.574
717.34	62.021
717.66	62.752
717.97	61.644
718.29	58.419
718.61	63.158
718.93	65.372
719.24	64.596
719.56	62.270
719.88	61.562
720.20	66.129
720.51	60.870
720.83	58.125
721.15	61.184
721.46	60.616
721.78	62.333
722.10	56.634
722.42	62.752
722.73	60.323
723.05	64.912
723.37	64.583
723.68	62.366
724.00	64.982
724.32	57.746
724.63	64.685
724.95	60.638
725.27	59.233
725.58	62.191
725.90	66.207
726.22	61.442
726.53	66.883
726.85	65.409
727.16	58.610
727.48	62.385
727.80	63.576
728.11	62.544
728.43	64.310
728.74	61.538
729.06	65.232
729.38	63.312
729.69	65.101
730.01	62.202
730.32	60.303
730.64	62.579
730.96	64.907
731.27	63.128
731.59	63.736
731.90	59.221
732.22	60.937
732.53	58.564
732.85	63.714
733.16	67.155
733.48	58.841
733.80	59.889
734.11	57.835
734.43	62.973
734.74	65.570
735.06	61.307
735.37	67.838
735.69	64.054
736.00	61.299
736.32	58.221
736.63	57.500
736.95	59.195
737.26	65.455
737.58	63.636
737.89	62.059
738.21	55.657
738.52	55.738
738.83	60.751
739.15	61.702
739.46	65.646
739.78	64.417
740.09	60.458
740.41	64.723
740.72	61.000
741.04	62.460
741.35	57.193
741.66	63.529
741.98	65.574
742.29	59.833
742.61	68.421
742.92	60.000
743.23	61.372
743.55	64.729
743.86	60.000
744.18	57.438
744.49	57.384
744.80	58.436
745.12	61.603
745.43	58.943
745.74	62.069
746.06	57.627
746.37	64.135
746.68	66.260
747.00	60.417
747.31	61.373
747.62	61.538
747.94	65.992
748.25	64.659
748.56	57.959
748.88	61.538
749.19	61.207
749.50	63.203
749.82	63.855
750.13	63.701
750.44	61.667
750.75	62.154
751.07	62.769
751.38	57.098
751.69	62.939
752.01	61.165
752.32	63.399
752.63	62.925
752.94	60.900
753.26	60.595
753.57	58.889
753.88	64.045
754.19	58.199
754.51	61.736
754.82	62.058
755.13	60.656
755.44	61.775
755.75	60.855
756.07	60.000
756.38	63.208
756.69	57.530
757.00	58.172
757.31	57.104
757.63	59.335
757.94	60.798
758.25	58.916
758.56	57.298
758.87	56.818
759.18	56.267
759.50	59.773
759.81	62.185
760.12	62.534
760.43	59.896
760.74	59.113
761.05	60.250
761.36	57.590
761.67	56.345
761.99	56.486
762.30	60.671
762.61	54.785
762.92	61.567
763.23	61.798
763.54	60.432
763.85	55.326
764.16	61.953
764.47	63.732
764.78	60.383
765.10	63.050
765.41	63.590
765.72	56.614
766.03	57.062
766.34	49.843
766.65	58.537
766.96	53.386
767.27	63.134
767.58	53.234
767.89	59.615
768.20	59.155
768.51	59.259
768.82	56.627
769.13	63.258
769.44	55.385
769.75	60.650
770.06	61.154
770.37	57.874
770.68	53.617
770.99	57.085
771.30	67.037
771.61	59.696
771.92	56.667
772.23	62.753
772.54	56.019
772.85	63.134
773.16	52.381
773.47	50.794
773.78	54.595
774.09	59.659
774.39	56.000
774.70	55.191
775.01	52.439
775.32	51.176
775.63	46.012
775.94	42.675
776.25	56.774
776.56	51.923
776.87	54.422
777.18	54.483
777.48	57.343
777.79	54.054
778.10	50.000
778.41	46.528
778.72	59.310
779.03	62.963
779.34	55.758
779.65	58.549
779.95	52.222
780.26	52.841
780.57	52.903
780.88	59.420
781.19	52.903
781.50	69.412
781.80	62.903
782.11	50.794
782.42	47.980
782.73	53.892
783.04	48.045
783.34	48.485
783.65	52.288
783.96	49.068
784.27	50.000
784.57	51.656
784.88	50.000
785.19	54.331
785.50	50.394
785.81	51.880
786.11	50.769
786.42	46.763
786.73	41.007
787.04	46.617
787.34	44.262
787.65	42.400
787.96	50.000
788.26	53.846
788.57	62.238
788.88	50.658
789.19	51.634
789.49	48.630
789.80	45.390
790.11	49.606
790.41	42.187
790.72	37.288
791.03	40.777
791.33	46.957
791.64	46.491
791.95	38.393
792.25	48.571
792.56	43.750
792.87	42.708
793.17	41.071
793.48	39.583
793.79	33.735
794.09	47.706
794.40	52.294
794.70	48.980
795.01	48.052
795.32	42.466
795.62	50.000
795.93	43.182
796.23	52.459
796.54	43.750
796.85	32.979
797.15	27.174
797.46	49.315
797.76	42.500
798.07	39.130
798.37	26.804
798.68	36.364
798.99	40.230
799.29	33.708
799.60	43.617
799.90	46.988
800.21	35.385
800.51	23.881
800.82	39.706
801.12	19.178
801.43	19.118
801.73	37.288
802.04	42.424
802.34	28.333
802.65	35.593
802.95	46.269
803.26	44.068
803.56	32.877
803.87	20.000
804.17	28.767
804.48	22.807
804.78	27.778
805.09	12.069
805.39	31.081
805.70	28.169
806.00	35.366
806.30	27.711
806.61	35.616
806.91	43.269
807.22	41.111
807.52	39.080
807.83	51.389
808.13	40.964
808.43	31.461
808.74	42.500
809.04	23.529
809.35	34.667
809.65	31.429
809.95	35.616
810.26	17.544
810.56	37.931
810.86	23.529
811.17	31.579
811.47	13.115
811.77	20.000
812.08	45.763
812.38	26.667
812.69	22.414
812.99	5.660
813.29	10.256
813.59	40.000
813.90	26.316
814.20	38.182
814.50	42.254
814.81	28.205
815.11	19.672
815.41	13.433
815.72	43.103
816.02	26.786
816.32	4.444
816.62	22.727
816.93	-8.889
817.23	27.778
817.53	14.894
817.84	50.000
818.14	8.824
818.44	10.204
818.74	26.667
819.04	5.128
819.35	-25.714
819.65	26.923
819.95	13.208
820.25	33.333
820.56	-7.143
820.86	6.250
821.16	5.128
821.46	30.233
821.76	6.000
822.07	26.786
822.37	6.522
822.67	29.787
822.97	-27.027
823.27	20.000
823.57	44.898
823.88	28.889
824.18	20.000
824.48	26.667
824.78	16.000
825.08	6.061
825.38	17.778
825.69	14.894
825.99	30.556
826.29	-42.857
826.59	20.513
826.89	16.279
827.19	-2.000
827.49	8.824
827.79	20.833
828.09	2.703
828.39	-6.667
828.70	0.000
829.00	-2.326
829.30	0.000
829.60	17.647
829.90	13.043
830.20	-5.714
830.50	-37.931
830.80	-5.556
831.10	-15.385
831.40	-26.471
831.70	42.857
832.00	9.677
832.30	-141.176
832.60	-29.167
832.90	-138.462
833.20	31.579
833.50	-35.000
833.80	-31.579
834.10	-80.952
834.40	5.556
834.70	15.625
835.00	-5.714
835.30	-14.706
835.60	13.333
835.90	-56.000
836.20	-86.364
836.50	-24.000
836.80	-18.182
837.10	-11.111
837.40	-18.519
837.70	-131.250
838.00	3.571
838.30	-39.130
838.60	-27.586
838.90	-71.429
839.19	-100.000
839.49	-133.333
839.79	-21.739
840.09	-125.000
840.39	-40.000
840.69	-9.677
840.99	-25.000
841.29	-46.667
841.59	-21.053
841.88	-7.692
842.18	-7.692
842.48	-110.000
842.78	-65.000
843.08	-20.000
843.38	3.226
843.68	-127.778
843.97	8.824
844.27	-43.750
844.57	-100.000
844.87	-90.000
845.17	-93.333
845.47	-14.286
845.76	-71.429
846.06	-200.000
846.36	-105.882
846.66	-50.000
846.96	-126.667
847.25	-41.176
847.55	26.087
847.85	-40.000
848.15	-47.059
848.44	-36.364
848.74	-14.286
849.04	-50.000
849.34	-112.500
849.63	-69.565
849.93	1200.000
850.23	-60.000
850.53	-30.769
850.82	-118.182
851.12	9.091
851.42	-109.091
851.71	-61.538
852.01	-75.000
852.31	-69.231
852.61	-15.789
852.90	-58.333
853.20	-38.889
853.50	-200.000
853.79	-66.667
854.09	-40.909
854.39	-125.000
854.68	-22.581
854.98	-42.308
855.28	-44.444
855.57	-50.000
855.87	-28.000
856.17	0.000
856.46	-33.333
856.76	-77.778
857.05	-47.826
857.35	-66.667
857.65	-115.385
857.94	-23.810
858.24	-14.815
858.53	-52.174
858.83	-70.588
859.13	-41.176
859.42	-58.824
859.72	-64.286
860.01	-60.000
860.31	-222.222
860.60	-90.000
860.90	-153.333
861.20	-61.111
861.49	-123.077
861.79	-26.667
862.08	-200.000
862.38	-31.250
862.67	-70.588
862.97	-68.750
863.26	-211.111
863.56	-90.000
863.85	-100.000
864.15	-22.222
864.44	-700.000
864.74	-85.714
865.03	-125.000
865.33	-150.000
865.62	-64.516
865.92	-22.727
866.21	-34.783
866.51	-121.429
866.80	-340.000
867.10	-108.333
867.39	-175.000
867.69	3100.000
867.98	-328.571
868.27	-52.941
868.57	-2800.000
868.86	-260.000
869.16	-109.524
869.45	-29.167
869.75	-63.636
870.04	-271.429
870.33	-91.667
870.63	-300.000
870.92	-300.000
871.22	-300.000
871.51	-200.000
871.80	-866.667
872.10	-1000.000
>>>>>End Processed Spectral Data<<<<<
