SpectraSuite Data File
++++++++++++++++++++++++++++++++++++
Date: Thu May 14 14:28:29 PDT 2015
User: schluterlab
Dark Spectrum Present: Yes
Reference Spectrum Present: Yes
Number of Sampled Component Spectra: 1
Spectrometers: USB2E3373
Integration Time (usec): 3000 (USB2E3373)
Spectra Averaged: 3 (USB2E3373)
Boxcar Smoothing: 0 (USB2E3373)
Correct for Electrical Dark: No (USB2E3373)
Strobe/Lamp Enabled: No (USB2E3373)
Correct for Detector Non-linearity: No (USB2E3373)
Correct for Stray Light: No (USB2E3373)
Number of Pixels in Processed Spectrum: 2048
>>>>>Begin Processed Spectral Data<<<<<
178.53	0.000
178.91	-214.286
179.29	800.000
179.67	800.000
180.04	-14.286
180.42	-90.000
180.80	-180.000
181.18	1500.000
181.56	1300.000
181.94	-200.000
182.31	300.000
182.69	33.333
183.07	450.000
183.45	-75.000
183.83	100.000
184.20	300.000
184.58	-700.000
184.96	150.000
185.34	88.889
185.72	120.000
186.09	-77.778
186.47	-100.000
186.85	-140.000
187.23	133.333
187.61	600.000
187.98	-280.000
188.36	-350.000
188.74	275.000
189.12	466.667
189.49	106.250
189.87	87.500
190.25	188.889
190.63	300.000
191.00	111.111
191.38	0.000
191.76	75.000
192.14	166.667
192.51	-300.000
192.89	200.000
193.27	0.000
193.65	214.286
194.02	200.000
194.40	185.714
194.78	-157.143
195.15	0.000
195.53	236.364
195.91	0.000
196.29	275.000
196.66	123.077
197.04	800.000
197.42	185.714
197.79	550.000
198.17	137.500
198.55	300.000
198.92	177.778
199.30	112.500
199.68	190.909
200.05	78.571
200.43	250.000
200.81	-85.714
201.18	0.000
201.56	-11.111
201.94	0.000
202.31	-333.333
202.69	11.111
203.07	-900.000
203.44	88.889
203.82	325.000
204.19	141.667
204.57	116.667
204.95	200.000
205.32	1100.000
205.70	-500.000
206.08	300.000
206.45	283.333
206.83	-60.000
207.20	133.333
207.58	-140.000
207.96	183.333
208.33	333.333
208.71	-83.333
209.08	266.667
209.46	0.000
209.84	-16.667
210.21	-50.000
210.59	-200.000
210.96	-166.667
211.34	350.000
211.71	162.500
212.09	800.000
212.46	0.000
212.84	-500.000
213.22	180.000
213.59	300.000
213.97	110.000
214.34	400.000
214.72	16.667
215.09	150.000
215.47	0.000
215.84	-200.000
216.22	-150.000
216.59	160.000
216.97	300.000
217.34	225.000
217.72	125.000
218.09	150.000
218.47	75.000
218.84	0.000
219.22	-260.000
219.59	82.353
219.97	80.000
220.34	-50.000
220.72	100.000
221.09	169.231
221.47	333.333
221.84	160.000
222.22	171.429
222.59	0.000
222.97	175.000
223.34	280.000
223.72	2000.000
224.09	325.000
224.46	275.000
224.84	420.000
225.21	71.429
225.59	125.000
225.96	50.000
226.34	73.077
226.71	-183.333
227.08	350.000
227.46	80.000
227.83	200.000
228.21	110.526
228.58	-112.500
228.95	-300.000
229.33	91.667
229.70	220.000
230.08	152.632
230.45	-50.000
230.82	600.000
231.20	157.143
231.57	191.667
231.95	200.000
232.32	172.727
232.69	95.000
233.07	450.000
233.44	52.941
233.81	50.000
234.19	144.444
234.56	118.182
234.93	75.862
235.31	73.684
235.68	116.667
236.05	25.000
236.43	119.231
236.80	108.000
237.17	88.889
237.55	84.848
237.92	180.000
238.29	80.645
238.67	63.636
239.04	80.556
239.41	76.190
239.79	41.304
240.16	50.000
240.53	52.174
240.91	31.373
241.28	59.016
241.65	64.179
242.02	51.351
242.40	43.077
242.77	49.333
243.14	47.561
243.51	42.105
243.89	46.154
244.26	47.525
244.63	49.020
245.00	49.533
245.38	35.088
245.75	30.088
246.12	42.857
246.49	34.109
246.87	42.143
247.24	40.397
247.61	41.447
247.98	32.886
248.36	37.654
248.73	30.675
249.10	37.158
249.47	41.791
249.84	40.838
250.22	32.642
250.59	37.778
250.96	39.545
251.33	38.265
251.70	35.043
252.08	39.583
252.45	35.246
252.82	35.950
253.19	33.203
253.56	35.741
253.94	35.769
254.31	40.530
254.68	37.762
255.05	36.482
255.42	34.014
255.79	33.981
256.16	29.801
256.54	33.444
256.91	34.754
257.28	33.443
257.65	32.166
258.02	30.088
258.39	32.764
258.76	38.226
259.14	35.920
259.51	33.718
259.88	33.144
260.25	32.778
260.62	38.082
260.99	36.066
261.36	35.657
261.73	34.483
262.10	31.593
262.47	33.244
262.85	36.616
263.22	34.286
263.59	30.263
263.96	35.806
264.33	32.737
264.70	34.074
265.07	37.232
265.44	35.601
265.81	32.176
266.18	33.107
266.55	33.705
266.92	32.802
267.29	34.354
267.66	35.033
268.03	33.624
268.40	31.733
268.77	32.118
269.14	29.956
269.51	35.307
269.88	35.246
270.25	29.175
270.62	33.544
270.99	34.545
271.36	32.079
271.73	29.666
272.10	32.064
272.47	34.870
272.84	30.723
273.21	31.062
273.58	32.661
273.95	32.500
274.32	28.517
274.69	32.302
275.06	30.769
275.43	29.020
275.80	30.335
276.17	29.444
276.54	29.851
276.91	29.696
277.28	32.007
277.65	31.059
278.02	30.882
278.39	29.710
278.76	29.701
279.13	29.078
279.50	32.302
279.87	29.517
280.23	27.993
280.60	30.847
280.97	28.947
281.34	28.862
281.71	31.303
282.08	29.734
282.45	30.115
282.82	29.827
283.19	28.918
283.56	29.344
283.92	31.081
284.29	30.806
284.66	29.721
285.03	30.769
285.40	27.666
285.77	31.115
286.14	29.618
286.51	28.615
286.87	29.542
287.24	28.012
287.61	30.194
287.98	29.607
288.35	30.325
288.72	30.178
289.08	29.429
289.45	27.367
289.82	28.765
290.19	29.310
290.56	29.155
290.93	29.387
291.29	29.201
291.66	26.860
292.03	27.137
292.40	28.163
292.77	27.763
293.13	27.064
293.50	26.938
293.87	26.040
294.24	27.733
294.60	26.549
294.97	27.517
295.34	29.193
295.71	26.356
296.08	25.840
296.44	26.471
296.81	27.040
297.18	27.771
297.55	26.533
297.91	26.216
298.28	24.645
298.65	26.040
299.02	26.682
299.38	26.430
299.75	24.883
300.12	25.116
300.48	26.152
300.85	26.322
301.22	25.615
301.59	25.457
301.95	25.085
302.32	27.000
302.69	25.192
303.05	26.007
303.42	25.721
303.79	25.208
304.15	24.080
304.52	25.159
304.89	26.178
305.25	23.706
305.62	25.392
305.99	24.948
306.35	23.589
306.72	25.957
307.09	24.467
307.45	24.534
307.82	26.236
308.19	25.631
308.55	24.204
308.92	23.953
309.29	24.234
309.65	25.049
310.02	24.455
310.38	24.311
310.75	25.243
311.12	25.791
311.48	24.633
311.85	24.786
312.22	24.668
312.58	24.319
312.95	23.231
313.31	23.848
313.68	26.007
314.05	25.113
314.41	24.499
314.78	23.887
315.14	25.681
315.51	25.854
315.87	24.842
316.24	26.027
316.61	25.400
316.97	24.525
317.34	24.250
317.70	26.201
318.07	25.926
318.43	25.425
318.80	24.498
319.16	24.979
319.53	23.393
319.89	24.978
320.26	24.377
320.62	23.582
320.99	25.392
321.35	24.954
321.72	25.209
322.08	24.166
322.45	25.565
322.81	25.812
323.18	25.310
323.54	25.172
323.91	26.957
324.27	25.731
324.64	26.280
325.00	24.046
325.37	25.225
325.73	27.107
326.10	26.277
326.46	27.117
326.83	26.902
327.19	25.827
327.56	26.877
327.92	25.806
328.29	25.887
328.65	26.633
329.01	28.088
329.38	27.801
329.74	28.082
330.11	28.168
330.47	27.885
330.84	28.252
331.20	28.250
331.56	27.556
331.93	28.452
332.29	28.390
332.66	28.738
333.02	28.141
333.38	28.188
333.75	27.694
334.11	28.440
334.48	29.538
334.84	29.822
335.20	27.708
335.57	31.029
335.93	29.421
336.29	29.368
336.66	29.521
337.02	29.515
337.38	30.612
337.75	29.008
338.11	30.025
338.47	30.025
338.84	30.457
339.20	29.486
339.56	28.254
339.93	30.624
340.29	29.710
340.65	30.738
341.02	30.487
341.38	31.205
341.74	29.701
342.11	30.652
342.47	30.500
342.83	30.113
343.20	30.581
343.56	30.233
343.92	31.305
344.28	31.016
344.65	31.550
345.01	31.045
345.37	29.627
345.73	30.320
346.10	31.747
346.46	31.013
346.82	31.161
347.19	31.398
347.55	30.121
347.91	30.758
348.27	30.956
348.63	31.455
349.00	29.381
349.36	30.409
349.72	31.696
350.08	31.724
350.45	31.027
350.81	32.051
351.17	30.977
351.53	31.691
351.89	32.498
352.26	31.940
352.62	31.119
352.98	31.145
353.34	31.143
353.70	31.356
354.07	32.042
354.43	31.587
354.79	31.339
355.15	30.537
355.51	32.822
355.87	31.638
356.24	33.004
356.60	31.855
356.96	31.950
357.32	30.929
357.68	32.577
358.04	32.111
358.40	32.239
358.77	32.164
359.13	31.462
359.49	31.970
359.85	32.270
360.21	32.783
360.57	31.658
360.93	32.652
361.29	32.421
361.66	32.657
362.02	33.055
362.38	32.677
362.74	33.170
363.10	32.669
363.46	33.033
363.82	34.020
364.18	32.512
364.54	33.610
364.90	32.709
365.26	32.897
365.62	33.333
365.98	33.424
366.35	33.826
366.71	33.741
367.07	34.303
367.43	32.699
367.79	34.904
368.15	34.783
368.51	33.829
368.87	35.140
369.23	32.800
369.59	34.221
369.95	33.671
370.31	34.639
370.67	34.457
371.03	34.765
371.39	33.647
371.75	34.801
372.11	32.656
372.47	33.785
372.83	33.770
373.19	34.957
373.55	34.892
373.91	34.901
374.27	34.347
374.63	35.656
374.99	34.085
375.35	34.351
375.71	34.323
376.07	35.442
376.42	35.579
376.78	35.488
377.14	35.496
377.50	35.610
377.86	35.899
378.22	36.287
378.58	35.672
378.94	36.268
379.30	35.794
379.66	35.450
380.02	35.834
380.38	36.694
380.74	36.000
381.09	36.005
381.45	36.364
381.81	36.007
382.17	36.995
382.53	36.608
382.89	36.400
383.25	36.928
383.61	36.748
383.97	36.985
384.32	37.321
384.68	36.311
385.04	37.247
385.40	38.715
385.76	38.277
386.12	37.522
386.48	37.647
386.83	37.187
387.19	38.181
387.55	37.441
387.91	38.071
388.27	37.818
388.62	37.858
388.98	37.056
389.34	38.008
389.70	37.478
390.06	38.484
390.42	37.952
390.77	37.809
391.13	37.207
391.49	38.527
391.85	37.818
392.20	38.138
392.56	39.043
392.92	37.732
393.28	37.811
393.64	37.542
393.99	38.001
394.35	39.194
394.71	38.982
395.07	37.904
395.42	38.264
395.78	39.671
396.14	38.740
396.50	38.777
396.85	38.104
397.21	38.284
397.57	39.046
397.92	38.717
398.28	38.349
398.64	39.073
399.00	37.330
399.35	38.639
399.71	39.293
400.07	39.865
400.42	39.581
400.78	38.831
401.14	38.930
401.49	38.772
401.85	39.012
402.21	39.108
402.57	39.847
402.92	39.007
403.28	38.759
403.63	39.379
403.99	38.361
404.35	39.341
404.70	38.357
405.06	38.913
405.42	39.696
405.77	39.095
406.13	39.060
406.49	38.851
406.84	39.557
407.20	39.240
407.55	39.552
407.91	38.906
408.27	38.928
408.62	40.314
408.98	39.756
409.34	39.589
409.69	40.420
410.05	39.508
410.40	40.545
410.76	38.755
411.11	40.736
411.47	39.988
411.83	40.035
412.18	40.542
412.54	39.775
412.89	40.454
413.25	39.560
413.60	39.862
413.96	40.618
414.31	38.754
414.67	39.058
415.03	39.138
415.38	41.362
415.74	39.951
416.09	39.729
416.45	39.011
416.80	39.045
417.16	40.613
417.51	40.535
417.87	39.362
418.22	39.760
418.58	39.715
418.93	39.697
419.29	40.012
419.64	38.475
420.00	39.703
420.35	40.427
420.71	40.379
421.06	39.160
421.42	40.310
421.77	38.934
422.12	38.795
422.48	39.580
422.83	40.800
423.19	38.833
423.54	40.210
423.90	39.702
424.25	41.013
424.61	39.552
424.96	40.802
425.31	39.756
425.67	40.043
426.02	40.454
426.38	39.208
426.73	39.565
427.09	39.850
427.44	39.869
427.79	40.022
428.15	39.897
428.50	39.607
428.85	39.610
429.21	40.745
429.56	38.845
429.92	39.902
430.27	40.627
430.62	39.472
430.98	39.744
431.33	38.368
431.68	38.602
432.04	40.020
432.39	39.154
432.74	38.984
433.10	40.454
433.45	40.134
433.80	39.592
434.16	39.721
434.51	40.134
434.86	39.685
435.22	39.798
435.57	40.153
435.92	41.569
436.28	40.273
436.63	41.999
436.98	39.184
437.34	40.643
437.69	39.626
438.04	39.820
438.39	40.207
438.75	40.343
439.10	39.535
439.45	40.805
439.81	39.096
440.16	38.928
440.51	40.412
440.86	39.744
441.22	40.247
441.57	40.252
441.92	39.428
442.27	40.253
442.63	39.593
442.98	40.342
443.33	40.558
443.68	40.089
444.03	40.452
444.39	40.361
444.74	40.225
445.09	39.331
445.44	40.253
445.79	39.990
446.15	40.134
446.50	40.052
446.85	41.002
447.20	39.555
447.55	40.220
447.91	40.209
448.26	39.641
448.61	40.117
448.96	41.738
449.31	39.396
449.66	39.978
450.02	40.665
450.37	40.011
450.72	40.151
451.07	39.806
451.42	40.728
451.77	39.689
452.12	41.140
452.47	39.691
452.83	41.160
453.18	39.988
453.53	40.551
453.88	39.591
454.23	40.000
454.58	40.917
454.93	40.777
455.28	40.518
455.63	40.193
455.98	41.229
456.34	40.813
456.69	40.094
457.04	40.721
457.39	40.632
457.74	40.604
458.09	40.362
458.44	41.918
458.79	40.691
459.14	40.273
459.49	40.917
459.84	41.133
460.19	40.033
460.54	41.113
460.89	40.445
461.24	40.057
461.59	40.620
461.94	39.760
462.29	41.041
462.64	40.495
462.99	40.301
463.34	42.310
463.69	39.566
464.04	42.023
464.39	40.303
464.74	40.365
465.09	41.003
465.44	41.202
465.79	39.820
466.14	40.334
466.49	39.474
466.84	40.000
467.19	40.983
467.54	40.071
467.89	40.230
468.24	41.053
468.59	40.533
468.94	40.268
469.29	40.552
469.64	40.496
469.99	40.217
470.34	41.460
470.68	42.242
471.03	41.323
471.38	42.184
471.73	41.482
472.08	41.815
472.43	39.856
472.78	41.562
473.13	42.288
473.48	42.296
473.83	41.033
474.17	40.739
474.52	41.491
474.87	40.199
475.22	40.676
475.57	40.083
475.92	40.119
476.27	41.480
476.61	40.810
476.96	40.302
477.31	40.693
477.66	42.130
478.01	40.925
478.36	40.578
478.70	41.429
479.05	42.280
479.40	40.474
479.75	41.258
480.10	39.602
480.45	40.109
480.79	40.454
481.14	40.855
481.49	40.754
481.84	41.340
482.19	40.172
482.53	40.533
482.88	40.895
483.23	40.863
483.58	40.393
483.92	39.849
484.27	39.924
484.62	39.810
484.97	40.124
485.31	39.599
485.66	37.591
486.01	35.586
486.36	35.435
486.70	35.710
487.05	35.915
487.40	36.917
487.75	38.473
488.09	38.462
488.44	39.057
488.79	38.887
489.13	39.971
489.48	40.388
489.83	39.638
490.17	39.611
490.52	39.163
490.87	40.271
491.22	40.251
491.56	39.889
491.91	40.035
492.26	40.978
492.60	40.359
492.95	40.412
493.30	40.923
493.64	40.648
493.99	40.965
494.34	40.462
494.68	40.514
495.03	40.396
495.37	41.145
495.72	39.909
496.07	40.491
496.41	40.240
496.76	40.325
497.11	40.637
497.45	39.361
497.80	40.604
498.14	40.862
498.49	41.039
498.84	40.356
499.18	41.071
499.53	41.121
499.87	40.527
500.22	40.205
500.56	40.216
500.91	39.954
501.26	41.091
501.60	40.521
501.95	40.208
502.29	40.676
502.64	40.621
502.98	39.258
503.33	40.173
503.67	39.991
504.02	39.842
504.36	41.108
504.71	41.203
505.06	39.973
505.40	40.585
505.75	40.073
506.09	40.562
506.44	39.740
506.78	41.422
507.13	40.756
507.47	41.686
507.82	40.814
508.16	39.914
508.51	41.069
508.85	40.293
509.19	40.834
509.54	41.018
509.88	41.379
510.23	42.448
510.57	42.001
510.92	41.122
511.26	41.029
511.61	40.608
511.95	41.288
512.30	42.639
512.64	41.079
512.98	41.871
513.33	42.188
513.67	42.019
514.02	41.594
514.36	42.097
514.70	41.354
515.05	41.814
515.39	41.785
515.74	43.160
516.08	41.944
516.42	42.648
516.77	43.007
517.11	42.032
517.46	42.312
517.80	42.918
518.14	43.634
518.49	43.384
518.83	41.671
519.17	42.057
519.52	42.505
519.86	42.555
520.20	42.812
520.55	42.223
520.89	42.511
521.23	42.825
521.58	43.729
521.92	43.059
522.26	43.299
522.61	44.039
522.95	44.002
523.29	42.816
523.64	43.161
523.98	42.955
524.32	45.501
524.66	44.280
525.01	44.111
525.35	41.470
525.69	43.735
526.04	41.963
526.38	44.425
526.72	43.426
527.06	44.457
527.41	42.624
527.75	43.884
528.09	44.215
528.43	43.517
528.78	42.775
529.12	42.947
529.46	41.596
529.80	42.506
530.15	42.609
530.49	42.823
530.83	43.861
531.17	43.548
531.51	43.923
531.86	43.750
532.20	42.927
532.54	43.327
532.88	43.273
533.22	42.192
533.57	42.354
533.91	42.593
534.25	42.453
534.59	42.529
534.93	41.879
535.27	41.859
535.62	42.354
535.96	42.127
536.30	42.773
536.64	42.462
536.98	43.296
537.32	43.333
537.66	43.169
538.01	42.115
538.35	43.240
538.69	42.308
539.03	42.796
539.37	41.225
539.71	42.462
540.05	41.607
540.39	42.421
540.73	41.469
541.07	41.692
541.42	41.465
541.76	40.747
542.10	41.616
542.44	41.169
542.78	41.423
543.12	40.882
543.46	41.575
543.80	40.947
544.14	40.993
544.48	41.371
544.82	41.352
545.16	42.218
545.50	41.043
545.84	40.416
546.18	43.086
546.52	41.847
546.86	41.761
547.20	42.557
547.54	41.885
547.88	41.410
548.22	41.462
548.56	40.843
548.90	41.254
549.24	41.033
549.58	41.262
549.92	42.538
550.26	42.589
550.60	41.481
550.94	42.691
551.28	42.706
551.62	43.464
551.96	42.589
552.30	41.619
552.64	42.004
552.98	42.233
553.32	43.215
553.66	41.865
554.00	42.560
554.34	41.634
554.68	41.317
555.02	41.984
555.36	42.275
555.69	41.448
556.03	40.605
556.37	42.616
556.71	40.837
557.05	41.470
557.39	41.473
557.73	42.602
558.07	41.523
558.41	41.927
558.75	42.799
559.08	42.310
559.42	42.112
559.76	42.198
560.10	42.599
560.44	41.293
560.78	41.875
561.12	40.702
561.45	41.363
561.79	40.659
562.13	41.959
562.47	39.951
562.81	41.013
563.15	41.414
563.48	41.081
563.82	41.415
564.16	41.611
564.50	40.167
564.84	40.118
565.17	41.000
565.51	39.586
565.85	40.855
566.19	40.495
566.52	39.965
566.86	39.785
567.20	38.554
567.54	39.724
567.88	40.010
568.21	38.785
568.55	38.129
568.89	37.494
569.23	36.967
569.56	36.616
569.90	35.531
570.24	34.907
570.57	34.573
570.91	34.170
571.25	34.365
571.59	34.372
571.92	33.689
572.26	33.695
572.60	32.978
572.93	33.704
573.27	33.802
573.61	33.351
573.95	33.091
574.28	32.633
574.62	32.447
574.96	31.760
575.29	31.659
575.63	32.594
575.97	32.934
576.30	32.568
576.64	32.594
576.98	32.733
577.31	32.523
577.65	32.584
577.98	31.702
578.32	31.642
578.66	31.530
578.99	31.866
579.33	32.703
579.67	31.913
580.00	32.277
580.34	32.461
580.67	32.370
581.01	32.389
581.35	31.716
581.68	31.127
582.02	30.993
582.35	31.042
582.69	30.499
583.02	31.546
583.36	32.019
583.70	32.265
584.03	32.637
584.37	33.202
584.70	32.103
585.04	32.365
585.37	31.728
585.71	31.888
586.04	31.440
586.38	32.335
586.72	31.838
587.05	32.157
587.39	32.162
587.72	32.105
588.06	32.229
588.39	32.487
588.73	32.222
589.06	33.098
589.40	33.743
589.73	33.355
590.07	34.019
590.40	34.990
590.73	34.358
591.07	34.736
591.40	35.148
591.74	34.499
592.07	34.227
592.41	34.740
592.74	33.795
593.08	32.484
593.41	32.925
593.75	32.586
594.08	32.172
594.41	33.077
594.75	33.145
595.08	33.412
595.42	34.058
595.75	33.549
596.09	34.226
596.42	33.751
596.75	34.658
597.09	34.909
597.42	34.168
597.75	33.791
598.09	34.286
598.42	34.821
598.76	33.588
599.09	32.396
599.42	32.149
599.76	32.387
600.09	33.100
600.42	32.666
600.76	33.058
601.09	32.625
601.42	32.578
601.76	33.103
602.09	33.667
602.42	33.115
602.76	33.838
603.09	33.443
603.42	33.598
603.76	32.875
604.09	33.463
604.42	33.725
604.76	33.524
605.09	33.426
605.42	34.569
605.75	33.346
606.09	33.296
606.42	32.835
606.75	32.946
607.09	32.680
607.42	33.565
607.75	33.959
608.08	33.741
608.42	34.139
608.75	33.624
609.08	34.508
609.41	34.936
609.75	34.732
610.08	34.653
610.41	33.857
610.74	34.328
611.07	34.680
611.41	34.753
611.74	35.012
612.07	34.876
612.40	35.076
612.73	35.892
613.07	35.697
613.40	34.697
613.73	34.665
614.06	36.212
614.39	34.451
614.72	34.546
615.06	34.986
615.39	34.896
615.72	35.498
616.05	35.357
616.38	36.226
616.71	36.311
617.05	36.475
617.38	35.581
617.71	35.151
618.04	36.373
618.37	37.158
618.70	36.878
619.03	36.738
619.36	38.903
619.69	36.899
620.03	36.535
620.36	37.301
620.69	37.940
621.02	38.451
621.35	39.840
621.68	39.913
622.01	39.359
622.34	37.238
622.67	39.107
623.00	36.370
623.33	38.421
623.66	38.716
623.99	36.932
624.32	38.012
624.65	37.838
624.99	37.906
625.32	38.276
625.65	38.638
625.98	37.898
626.31	39.405
626.64	38.535
626.97	39.685
627.30	40.167
627.63	39.835
627.96	41.517
628.29	40.389
628.62	41.982
628.95	41.192
629.28	41.461
629.61	40.993
629.94	40.335
630.26	40.339
630.59	41.364
630.92	39.654
631.25	42.129
631.58	41.243
631.91	42.549
632.24	42.747
632.57	41.841
632.90	42.929
633.23	45.204
633.56	43.571
633.89	43.285
634.22	43.867
634.55	43.737
634.88	43.615
635.20	44.887
635.53	45.198
635.86	43.554
636.19	44.751
636.52	44.304
636.85	43.514
637.18	41.580
637.51	44.301
637.83	44.850
638.16	46.083
638.49	44.484
638.82	44.419
639.15	43.757
639.48	45.958
639.81	46.189
640.13	45.347
640.46	43.030
640.79	45.956
641.12	45.342
641.45	45.295
641.77	49.037
642.10	46.588
642.43	47.074
642.76	46.477
643.09	45.890
643.41	47.339
643.74	47.034
644.07	47.724
644.40	46.959
644.73	47.025
645.05	47.430
645.38	46.906
645.71	47.067
646.04	48.924
646.36	47.007
646.69	47.393
647.02	49.541
647.35	49.618
647.67	49.436
648.00	46.656
648.33	47.598
648.66	46.648
648.98	44.626
649.31	46.279
649.64	46.348
649.96	44.562
650.29	44.367
650.62	45.403
650.94	47.598
651.27	44.162
651.60	47.515
651.92	47.568
652.25	46.020
652.58	45.667
652.90	45.494
653.23	45.211
653.56	43.937
653.88	45.927
654.21	45.211
654.54	44.798
654.86	45.609
655.19	42.535
655.52	34.238
655.84	25.435
656.17	30.893
656.49	43.239
656.82	48.630
657.15	38.270
657.47	28.937
657.80	21.790
658.13	17.607
658.45	23.637
658.78	30.064
659.10	29.977
659.43	31.299
659.75	33.482
660.08	35.574
660.41	38.462
660.73	40.593
661.06	46.256
661.38	46.571
661.71	48.448
662.03	47.619
662.36	50.984
662.68	50.844
663.01	46.726
663.33	52.363
663.66	51.832
663.98	50.385
664.31	47.842
664.63	47.399
664.96	47.187
665.28	47.187
665.61	47.902
665.93	46.071
666.26	48.029
666.58	45.018
666.91	50.093
667.23	50.095
667.56	51.282
667.88	51.200
668.21	47.266
668.53	47.104
668.86	49.312
669.18	49.695
669.50	50.696
669.83	47.800
670.15	51.378
670.48	49.802
670.80	46.080
671.13	48.582
671.45	47.244
671.77	50.659
672.10	46.667
672.42	45.955
672.75	44.240
673.07	43.433
673.39	43.143
673.72	45.638
674.04	45.690
674.37	46.333
674.69	48.854
675.01	49.905
675.34	50.382
675.66	44.195
675.98	46.455
676.31	48.047
676.63	50.000
676.95	50.000
677.28	48.790
677.60	46.260
677.92	46.257
678.25	45.704
678.57	47.331
678.89	46.587
679.22	44.948
679.54	43.932
679.86	43.390
680.18	45.274
680.51	43.553
680.83	42.717
681.15	42.931
681.48	45.596
681.80	44.041
682.12	44.930
682.44	41.903
682.77	46.631
683.09	46.780
683.41	46.318
683.73	46.300
684.06	44.649
684.38	42.039
684.70	46.320
685.02	44.234
685.34	42.429
685.67	41.640
685.99	43.098
686.31	39.244
686.63	42.022
686.96	42.902
687.28	42.508
687.60	40.741
687.92	40.836
688.24	44.407
688.56	42.414
688.89	44.102
689.21	45.597
689.53	46.078
689.85	45.168
690.17	44.444
690.49	46.215
690.82	47.723
691.14	44.939
691.46	45.698
691.78	44.567
692.10	44.771
692.42	40.893
692.74	41.742
693.06	43.333
693.39	47.059
693.71	41.165
694.03	43.309
694.35	43.429
694.67	44.969
694.99	47.021
695.31	46.137
695.63	44.589
695.95	45.549
696.27	43.956
696.59	45.575
696.91	44.820
697.23	46.813
697.56	43.585
697.88	39.773
698.20	43.315
698.52	43.939
698.84	46.778
699.16	44.694
699.48	45.397
699.80	43.830
700.12	45.633
700.44	47.235
700.76	47.268
701.08	48.668
701.40	46.632
701.72	48.259
702.04	48.930
702.36	44.764
702.68	45.721
703.00	44.743
703.32	47.291
703.64	46.699
703.96	47.733
704.28	48.894
704.60	46.076
704.91	48.214
705.23	51.507
705.55	48.468
705.87	54.545
706.19	51.534
706.51	49.398
706.83	48.415
707.15	45.767
707.47	43.458
707.79	45.852
708.11	40.678
708.43	40.860
708.74	40.402
709.06	41.531
709.38	46.009
709.70	46.154
710.02	48.320
710.34	47.872
710.66	44.693
710.98	44.536
711.29	42.308
711.61	47.458
711.93	46.154
712.25	45.135
712.57	51.032
712.89	46.176
713.20	45.562
713.52	48.266
713.84	46.797
714.16	46.316
714.48	44.330
714.80	48.052
715.11	45.407
715.43	43.767
715.75	45.263
716.07	46.961
716.39	45.902
716.70	46.687
717.02	51.475
717.34	44.251
717.66	48.658
717.97	48.973
718.29	51.203
718.61	45.395
718.93	50.162
719.24	45.652
719.56	45.399
719.88	45.946
720.20	48.710
720.51	42.857
720.83	45.313
721.15	42.105
721.46	48.288
721.78	48.000
722.10	44.013
722.42	44.631
722.73	42.258
723.05	53.333
723.37	49.653
723.68	53.047
724.00	49.097
724.32	47.183
724.63	45.804
724.95	49.645
725.27	48.084
725.58	43.816
725.90	48.276
726.22	44.201
726.53	48.701
726.85	47.170
727.16	44.109
727.48	43.425
727.80	46.358
728.11	44.523
728.43	46.128
728.74	40.134
729.06	44.702
729.38	43.831
729.69	46.980
730.01	42.262
730.32	38.182
730.64	42.767
730.96	41.925
731.27	41.341
731.59	42.582
731.90	37.143
732.22	39.062
732.53	40.608
732.85	40.571
733.16	40.469
733.48	43.293
733.80	39.554
734.11	40.456
734.43	42.973
734.74	42.278
735.06	40.201
735.37	39.730
735.69	38.108
736.00	40.678
736.32	40.970
736.63	38.611
736.95	38.506
737.26	45.455
737.58	39.697
737.89	42.353
738.21	39.755
738.52	41.639
738.83	45.392
739.15	43.262
739.46	45.578
739.78	47.239
740.09	38.395
740.41	43.149
740.72	45.667
741.04	44.984
741.35	46.316
741.66	45.098
741.98	51.639
742.29	46.862
742.61	50.000
742.92	46.154
743.23	47.292
743.55	43.023
743.86	48.000
744.18	43.388
744.49	44.304
744.80	48.148
745.12	46.414
745.43	45.935
745.74	41.379
746.06	45.339
746.37	50.211
746.68	45.935
747.00	46.250
747.31	48.069
747.62	46.538
747.94	45.749
748.25	46.185
748.56	43.265
748.88	43.590
749.19	49.138
749.50	47.186
749.82	45.382
750.13	45.552
750.44	40.667
750.75	43.077
751.07	41.538
751.38	42.902
751.69	46.326
752.01	43.042
752.32	46.405
752.63	42.517
752.94	43.945
753.26	40.520
753.57	42.963
753.88	41.199
754.19	43.408
754.51	40.514
754.82	42.122
755.13	43.279
755.44	41.980
755.75	43.092
756.07	43.284
756.38	36.164
756.69	39.458
757.00	36.011
757.31	38.251
757.63	38.107
757.94	34.977
758.25	34.989
758.56	35.730
758.87	35.455
759.18	35.733
759.50	38.810
759.81	37.535
760.12	40.701
760.43	33.854
760.74	39.901
761.05	34.000
761.36	34.458
761.67	33.756
761.99	37.568
762.30	37.805
762.61	39.274
762.92	40.299
763.23	44.569
763.54	43.165
763.85	40.206
764.16	41.751
764.47	40.493
764.78	42.173
765.10	36.070
765.41	38.205
765.72	35.714
766.03	39.266
766.34	38.245
766.65	39.024
766.96	41.434
767.27	45.161
767.58	44.776
767.89	49.038
768.20	48.826
768.51	45.833
768.82	42.169
769.13	39.773
769.44	36.923
769.75	38.267
770.06	41.538
770.37	43.307
770.68	37.447
770.99	35.628
771.30	42.963
771.61	41.445
771.92	36.296
772.23	40.891
772.54	37.500
772.85	50.230
773.16	49.524
773.47	38.624
773.78	49.730
774.09	50.568
774.39	44.500
774.70	47.541
775.01	42.683
775.32	44.118
775.63	44.785
775.94	42.675
776.25	40.000
776.56	49.359
776.87	56.463
777.18	44.138
777.48	60.140
777.79	47.973
778.10	42.647
778.41	50.000
778.72	48.966
779.03	49.383
779.34	48.485
779.65	32.124
779.95	48.333
780.26	44.318
780.57	46.452
780.88	61.594
781.19	54.194
781.50	46.471
781.80	47.312
782.11	43.386
782.42	34.343
782.73	40.719
783.04	41.899
783.34	44.848
783.65	46.405
783.96	47.205
784.27	44.643
784.57	44.371
784.88	53.571
785.19	51.181
785.50	50.394
785.81	54.887
786.11	46.923
786.42	44.604
786.73	42.446
787.04	52.632
787.34	50.820
787.65	51.200
787.96	43.284
788.26	49.650
788.57	57.343
788.88	43.421
789.19	45.098
789.49	37.671
789.80	38.298
790.11	49.606
790.41	43.750
790.72	50.000
791.03	54.369
791.33	50.435
791.64	54.386
791.95	45.536
792.25	42.857
792.56	50.893
792.87	41.667
793.17	46.429
793.48	44.792
793.79	45.783
794.09	43.119
794.40	42.202
794.70	41.497
795.01	40.260
795.32	43.836
795.62	43.662
795.93	38.636
796.23	44.262
796.54	47.321
796.85	53.191
797.15	42.391
797.46	56.164
797.76	61.250
798.07	48.913
798.37	49.485
798.68	57.143
798.99	55.172
799.29	42.697
799.60	54.255
799.90	61.446
800.21	55.385
800.51	59.701
800.82	60.294
801.12	42.466
801.43	39.706
801.73	47.458
802.04	68.182
802.34	68.333
802.65	64.407
802.95	61.194
803.26	61.017
803.56	63.014
803.87	64.286
804.17	58.904
804.48	59.649
804.78	41.667
805.09	65.517
805.39	48.649
805.70	56.338
806.00	50.000
806.30	36.145
806.61	52.055
806.91	50.000
807.22	47.778
807.52	52.874
807.83	55.556
808.13	57.831
808.43	52.809
808.74	51.250
809.04	60.294
809.35	49.333
809.65	41.429
809.95	58.904
810.26	45.614
810.56	39.655
810.86	54.412
811.17	54.386
811.47	59.016
811.77	77.778
812.08	64.407
812.38	66.667
812.69	58.621
812.99	52.830
813.29	58.974
813.59	78.000
813.90	77.193
814.20	63.636
814.50	67.606
814.81	56.410
815.11	62.295
815.41	58.209
815.72	48.276
816.02	60.714
816.32	77.778
816.62	88.636
816.93	51.111
817.23	62.963
817.53	72.340
817.84	85.714
818.14	102.941
818.44	83.673
818.74	62.222
819.04	48.718
819.35	105.714
819.65	69.231
819.95	67.925
820.25	77.778
820.56	71.429
820.86	65.625
821.16	51.282
821.46	60.465
821.76	48.000
822.07	64.286
822.37	52.174
822.67	76.596
822.97	72.973
823.27	47.500
823.57	83.673
823.88	68.889
824.18	62.500
824.48	90.000
824.78	76.000
825.08	78.788
825.38	60.000
825.69	57.447
825.99	100.000
826.29	60.000
826.59	64.103
826.89	60.465
827.19	50.000
827.49	61.765
827.79	62.500
828.09	40.541
828.39	76.667
828.70	58.537
829.00	60.465
829.30	78.571
829.60	76.471
829.90	67.391
830.20	48.571
830.50	68.966
830.80	122.222
831.10	73.077
831.40	47.059
831.70	90.476
832.00	96.774
832.30	41.176
832.60	95.833
832.90	130.769
833.20	94.737
833.50	140.000
833.80	105.263
834.10	38.095
834.40	63.889
834.70	90.625
835.00	45.714
835.30	79.412
835.60	43.333
835.90	84.000
836.20	59.091
836.50	76.000
836.80	54.545
837.10	48.148
837.40	81.481
837.70	43.750
838.00	92.857
838.30	86.957
838.60	72.414
838.90	100.000
839.19	21.739
839.49	75.000
839.79	126.087
840.09	81.250
840.39	85.000
840.69	83.871
840.99	64.286
841.29	106.667
841.59	110.526
841.88	71.795
842.18	65.385
842.48	130.000
842.78	150.000
843.08	93.333
843.38	93.548
843.68	72.222
843.97	82.353
844.27	106.250
844.57	94.737
844.87	70.000
845.17	106.667
845.47	128.571
845.76	100.000
846.06	222.222
846.36	64.706
846.66	88.462
846.96	126.667
847.25	94.118
847.55	91.304
847.85	70.000
848.15	182.353
848.44	118.182
848.74	76.190
849.04	58.333
849.34	131.250
849.63	82.609
849.93	-650.000
850.23	113.333
850.53	119.231
850.82	36.364
851.12	136.364
851.42	54.545
851.71	153.846
852.01	80.000
852.31	146.154
852.61	131.579
852.90	133.333
853.20	94.444
853.50	55.556
853.79	52.381
854.09	72.727
854.39	16.667
854.68	93.548
854.98	84.615
855.28	88.889
855.57	71.429
855.87	68.000
856.17	77.273
856.46	74.074
856.76	66.667
857.05	56.522
857.35	70.833
857.65	146.154
857.94	95.238
858.24	74.074
858.53	121.739
858.83	147.059
859.13	117.647
859.42	129.412
859.72	107.143
860.01	75.000
860.31	100.000
860.60	100.000
860.90	133.333
861.20	100.000
861.49	84.615
861.79	76.667
862.08	84.615
862.38	87.500
862.67	164.706
862.97	93.750
863.26	144.444
863.56	170.000
863.85	118.182
864.15	55.556
864.44	366.667
864.74	150.000
865.03	56.250
865.33	70.000
865.62	48.387
865.92	100.000
866.21	86.957
866.51	78.571
866.80	220.000
867.10	116.667
867.39	141.667
867.69	-1500.000
867.98	385.714
868.27	82.353
868.57	700.000
868.86	30.000
869.16	61.905
869.45	87.500
869.75	127.273
870.04	0.000
870.33	141.667
870.63	71.429
870.92	525.000
871.22	-50.000
871.51	63.636
871.80	166.667
872.10	700.000
>>>>>End Processed Spectral Data<<<<<
