SpectraSuite Data File
++++++++++++++++++++++++++++++++++++
Date: Thu May 14 14:39:48 PDT 2015
User: schluterlab
Dark Spectrum Present: Yes
Reference Spectrum Present: Yes
Number of Sampled Component Spectra: 1
Spectrometers: USB2E3373
Integration Time (usec): 3000 (USB2E3373)
Spectra Averaged: 3 (USB2E3373)
Boxcar Smoothing: 0 (USB2E3373)
Correct for Electrical Dark: No (USB2E3373)
Strobe/Lamp Enabled: No (USB2E3373)
Correct for Detector Non-linearity: No (USB2E3373)
Correct for Stray Light: No (USB2E3373)
Number of Pixels in Processed Spectrum: 2048
>>>>>Begin Processed Spectral Data<<<<<
178.53	0.000
178.91	-142.857
179.29	100.000
179.67	1200.000
180.04	50.000
180.42	-130.000
180.80	-100.000
181.18	2100.000
181.56	2200.000
181.94	-200.000
182.31	300.000
182.69	-366.667
183.07	800.000
183.45	-300.000
183.83	150.000
184.20	466.667
184.58	-400.000
184.96	250.000
185.34	211.111
185.72	160.000
186.09	33.333
186.47	-550.000
186.85	-160.000
187.23	122.222
187.61	200.000
187.98	-240.000
188.36	-325.000
188.74	200.000
189.12	500.000
189.49	131.250
189.87	100.000
190.25	166.667
190.63	280.000
191.00	66.667
191.38	0.000
191.76	150.000
192.14	116.667
192.51	-550.000
192.89	416.667
193.27	0.000
193.65	171.429
194.02	500.000
194.40	214.286
194.78	-142.857
195.15	0.000
195.53	200.000
195.91	0.000
196.29	425.000
196.66	176.923
197.04	300.000
197.42	171.429
197.79	500.000
198.17	125.000
198.55	114.286
198.92	188.889
199.30	275.000
199.68	109.091
200.05	121.429
200.43	200.000
200.81	128.571
201.18	0.000
201.56	-88.889
201.94	0.000
202.31	-533.333
202.69	133.333
203.07	-2000.000
203.44	166.667
203.82	275.000
204.19	125.000
204.57	183.333
204.95	212.500
205.32	500.000
205.70	-375.000
206.08	116.667
206.45	250.000
206.83	100.000
207.20	216.667
207.58	360.000
207.96	216.667
208.33	466.667
208.71	-108.333
209.08	316.667
209.46	0.000
209.84	-150.000
210.21	-450.000
210.59	-850.000
210.96	-66.667
211.34	350.000
211.71	100.000
212.09	1200.000
212.46	0.000
212.84	-350.000
213.22	20.000
213.59	450.000
213.97	180.000
214.34	433.333
214.72	-266.667
215.09	100.000
215.47	0.000
215.84	-171.429
216.22	-500.000
216.59	420.000
216.97	400.000
217.34	250.000
217.72	250.000
218.09	300.000
218.47	-75.000
218.84	0.000
219.22	-500.000
219.59	82.353
219.97	100.000
220.34	50.000
220.72	122.222
221.09	200.000
221.47	666.667
221.84	110.000
222.22	71.429
222.59	0.000
222.97	162.500
223.34	320.000
223.72	600.000
224.09	375.000
224.46	300.000
224.84	360.000
225.21	114.286
225.59	225.000
225.96	225.000
226.34	96.154
226.71	-183.333
227.08	950.000
227.46	100.000
227.83	50.000
228.21	89.474
228.58	-125.000
228.95	-450.000
229.33	108.333
229.70	80.000
230.08	110.526
230.45	-130.000
230.82	500.000
231.20	157.143
231.57	183.333
231.95	172.727
232.32	90.909
232.69	100.000
233.07	475.000
233.44	105.882
233.81	150.000
234.19	155.556
234.56	86.364
234.93	51.724
235.31	136.842
235.68	66.667
236.05	75.000
236.43	96.154
236.80	132.000
237.17	92.593
237.55	72.727
237.92	80.000
238.29	90.323
238.67	70.455
239.04	36.111
239.41	38.095
239.79	45.652
240.16	44.444
240.53	47.826
240.91	49.020
241.28	32.787
241.65	67.164
242.02	58.108
242.40	49.231
242.77	41.333
243.14	34.146
243.51	26.316
243.89	37.179
244.26	49.505
244.63	50.980
245.00	32.710
245.38	38.596
245.75	28.319
246.12	46.032
246.49	41.860
246.87	40.714
247.24	27.152
247.61	31.579
247.98	30.872
248.36	31.481
248.73	24.540
249.10	28.415
249.47	35.323
249.84	37.696
250.22	33.161
250.59	37.222
250.96	29.545
251.33	29.592
251.70	29.487
252.08	30.000
252.45	30.328
252.82	25.207
253.19	26.172
253.56	32.700
253.94	30.000
254.31	30.303
254.68	31.469
255.05	32.899
255.42	31.633
255.79	26.861
256.16	30.464
256.54	25.166
256.91	27.869
257.28	27.541
257.65	28.344
258.02	24.484
258.39	27.066
258.76	31.193
259.14	30.747
259.51	27.378
259.88	26.629
260.25	26.389
260.62	28.767
260.99	28.142
261.36	28.686
261.73	29.708
262.10	28.022
262.47	29.759
262.85	30.051
263.22	25.974
263.59	24.474
263.96	29.412
264.33	24.297
264.70	29.383
265.07	29.833
265.44	28.118
265.81	25.926
266.18	28.798
266.55	27.455
266.92	26.424
267.29	30.197
267.66	28.825
268.03	27.729
268.40	24.008
268.77	25.285
269.14	27.533
269.51	27.851
269.88	29.098
270.25	26.358
270.62	27.215
270.99	29.697
271.36	28.515
271.73	26.326
272.10	29.459
272.47	26.653
272.84	23.092
273.21	27.255
273.58	27.621
273.95	23.077
274.32	24.715
274.69	24.565
275.06	27.106
275.43	25.139
275.80	25.220
276.17	25.741
276.54	25.000
276.91	24.866
277.28	25.678
277.65	26.212
278.02	25.551
278.39	26.449
278.76	24.780
279.13	26.950
279.50	25.086
279.87	25.760
280.23	22.711
280.60	26.610
280.97	24.507
281.34	24.278
281.71	25.888
282.08	23.256
282.45	24.714
282.82	25.275
283.19	25.040
283.56	25.082
283.92	25.676
284.29	27.172
284.66	25.616
285.03	25.000
285.40	24.420
285.77	25.697
286.14	26.412
286.51	24.049
286.87	23.381
287.24	21.988
287.61	23.318
287.98	24.320
288.35	23.077
288.72	24.260
289.08	23.280
289.45	21.893
289.82	22.892
290.19	24.425
290.56	22.676
290.93	24.536
291.29	21.901
291.66	21.763
292.03	22.252
292.40	24.626
292.77	20.755
293.13	23.139
293.50	20.368
293.87	22.148
294.24	24.000
294.60	23.767
294.97	21.477
295.34	22.919
295.71	20.807
296.08	21.447
296.44	20.588
296.81	21.072
297.18	22.665
297.55	18.986
297.91	21.827
298.28	20.616
298.65	22.354
299.02	21.370
299.38	21.968
299.75	20.794
300.12	20.255
300.48	20.853
300.85	20.697
301.22	21.253
301.59	20.890
301.95	21.469
302.32	21.333
302.69	21.139
303.05	20.457
303.42	23.060
303.79	20.833
304.15	21.030
304.52	20.507
304.89	20.628
305.25	21.843
305.62	21.630
305.99	21.649
306.35	21.673
306.72	21.406
307.09	20.812
307.45	21.946
307.82	22.301
308.19	21.090
308.55	21.504
308.92	21.227
309.29	21.839
309.65	23.099
310.02	22.673
310.38	22.835
310.75	23.689
311.12	23.873
311.48	22.678
311.85	23.837
312.22	22.201
312.58	23.568
312.95	24.474
313.31	23.487
313.68	23.901
314.05	25.113
314.41	26.321
314.78	25.613
315.14	25.227
315.51	26.685
315.87	26.013
316.24	27.123
316.61	26.643
316.97	27.330
317.34	27.601
317.70	29.170
318.07	27.690
318.43	27.721
318.80	29.264
319.16	28.670
319.53	28.192
319.89	29.097
320.26	29.270
320.62	29.965
320.99	30.471
321.35	31.793
321.72	33.581
322.08	32.913
322.45	33.062
322.81	32.762
323.18	34.071
323.54	33.707
323.91	35.676
324.27	34.940
324.64	35.768
325.00	35.240
325.37	37.756
325.73	37.438
326.10	38.605
326.46	40.554
326.83	40.993
327.19	40.630
327.56	41.423
327.92	42.250
328.29	42.742
328.65	43.300
329.01	44.332
329.38	45.998
329.74	47.260
330.11	46.490
330.47	47.515
330.84	48.837
331.20	49.333
331.56	50.693
331.93	49.958
332.29	50.424
332.66	51.163
333.02	51.424
333.38	51.007
333.75	51.684
334.11	53.128
334.48	51.485
334.84	54.460
335.20	52.141
335.57	53.457
335.93	54.132
336.29	53.910
336.66	53.995
337.02	53.763
337.38	55.272
337.75	54.793
338.11	57.023
338.47	54.673
338.84	54.738
339.20	53.243
339.56	53.460
339.93	55.255
340.29	53.462
340.65	54.420
341.02	56.425
341.38	57.397
341.74	55.932
342.11	56.879
342.47	54.647
342.83	57.005
343.20	56.500
343.56	56.696
343.92	56.525
344.28	56.016
344.65	55.736
345.01	56.630
345.37	56.221
345.73	56.196
346.10	56.942
346.46	57.041
346.82	56.479
347.19	57.143
347.55	57.132
347.91	57.652
348.27	56.601
348.63	57.654
349.00	55.108
349.36	56.877
349.72	56.473
350.08	56.909
350.45	58.403
350.81	57.843
351.17	56.617
351.53	57.847
351.89	56.948
352.26	57.687
352.62	58.358
352.98	58.626
353.34	56.535
353.70	58.475
354.07	56.483
354.43	58.922
354.79	57.966
355.15	56.071
355.51	58.406
355.87	58.489
356.24	59.468
356.60	57.428
356.96	58.340
357.32	56.952
357.68	57.980
358.04	57.934
358.40	57.761
358.77	58.699
359.13	59.675
359.49	60.223
359.85	59.028
360.21	58.608
360.57	59.081
360.93	58.604
361.29	58.877
361.66	59.957
362.02	60.334
362.38	60.717
362.74	62.081
363.10	59.835
363.46	61.219
363.82	60.369
364.18	61.999
364.54	61.342
364.90	61.472
365.26	61.310
365.62	61.067
365.98	61.607
366.35	59.664
366.71	63.605
367.07	60.555
367.43	60.932
367.79	62.177
368.15	61.806
368.51	62.246
368.87	61.724
369.23	62.067
369.59	64.003
369.95	62.407
370.31	63.471
370.67	63.274
371.03	62.673
371.39	62.861
371.75	63.824
372.11	62.127
372.47	62.559
372.83	63.089
373.19	63.509
373.55	64.702
373.91	63.599
374.27	63.519
374.63	65.765
374.99	64.788
375.35	65.325
375.71	66.194
376.07	63.719
376.42	64.043
376.78	64.512
377.14	65.128
377.50	66.983
377.86	65.702
378.22	65.868
378.58	66.171
378.94	65.669
379.30	64.968
379.66	68.430
380.02	67.571
380.38	67.800
380.74	66.648
381.09	67.480
381.45	67.841
381.81	68.794
382.17	68.705
382.53	67.602
382.89	66.930
383.25	68.699
383.61	67.593
383.97	66.843
384.32	68.481
384.68	66.821
385.04	70.445
385.40	69.711
385.76	70.223
386.12	69.180
386.48	69.647
386.83	70.679
387.19	69.061
387.55	69.836
387.91	69.635
388.27	69.746
388.62	68.442
388.98	68.415
389.34	71.184
389.70	70.773
390.06	71.403
390.42	70.301
390.77	70.319
391.13	70.775
391.49	70.954
391.85	70.727
392.20	71.471
392.56	70.821
392.92	70.393
393.28	71.697
393.64	71.173
393.99	72.225
394.35	73.306
394.71	71.198
395.07	72.216
395.42	71.045
395.78	73.370
396.14	72.252
396.50	72.447
396.85	70.960
397.21	71.420
397.57	72.026
397.92	71.592
398.28	70.994
398.64	71.911
399.00	70.890
399.35	71.414
399.71	72.772
400.07	72.375
400.42	73.341
400.78	73.264
401.14	72.681
401.49	73.508
401.85	73.779
402.21	72.538
402.57	74.648
402.92	72.754
403.28	72.482
403.63	73.628
403.99	73.515
404.35	72.257
404.70	72.748
405.06	72.228
405.42	73.888
405.77	72.955
406.13	73.150
406.49	73.592
406.84	72.742
407.20	72.666
407.55	73.773
407.91	72.533
408.27	73.145
408.62	74.811
408.98	73.128
409.34	73.372
409.69	74.289
410.05	73.623
410.40	73.898
410.76	73.640
411.11	74.284
411.47	74.631
411.83	73.604
412.18	75.120
412.54	73.029
412.89	73.516
413.25	73.025
413.60	74.842
413.96	75.000
414.31	73.654
414.67	74.120
415.03	73.538
415.38	75.347
415.74	73.916
416.09	74.830
416.45	73.325
416.80	73.868
417.16	75.926
417.51	74.907
417.87	75.414
418.22	75.509
418.58	76.022
418.93	74.563
419.29	77.744
419.64	76.711
420.00	77.151
420.35	74.902
420.71	75.933
421.06	75.618
421.42	76.663
421.77	75.175
422.12	75.423
422.48	76.190
422.83	76.616
423.19	76.711
423.54	77.931
423.90	74.765
424.25	76.693
424.61	77.440
424.96	77.375
425.31	77.123
425.67	76.919
426.02	78.473
426.38	79.104
426.73	78.237
427.09	79.239
427.44	78.045
427.79	78.441
428.15	78.196
428.50	79.045
428.85	78.990
429.21	78.777
429.56	77.986
429.92	78.182
430.27	80.289
430.62	80.020
430.98	79.931
431.33	78.935
431.68	79.262
432.04	79.380
432.39	79.593
432.74	80.023
433.10	82.207
433.45	80.100
433.80	79.506
434.16	82.231
434.51	81.295
434.86	82.410
435.22	81.987
435.57	82.606
435.92	80.801
436.28	81.399
436.63	84.271
436.98	80.515
437.34	81.680
437.69	82.278
438.04	82.655
438.39	83.171
438.75	82.180
439.10	83.404
439.45	83.454
439.81	82.938
440.16	82.252
440.51	83.668
440.86	82.546
441.22	82.797
441.57	83.805
441.92	83.317
442.27	83.990
442.63	83.010
442.98	83.565
443.33	83.798
443.68	83.201
444.03	84.384
444.39	85.206
444.74	83.461
445.09	83.071
445.44	84.510
445.79	86.398
446.15	84.738
446.50	83.359
446.85	85.165
447.20	84.333
447.55	84.153
447.91	85.026
448.26	84.725
448.61	85.069
448.96	85.998
449.31	84.783
449.66	84.150
450.02	85.443
450.37	84.923
450.72	85.845
451.07	85.592
451.42	86.193
451.77	84.936
452.12	86.795
452.47	85.740
452.83	86.993
453.18	85.698
453.53	84.664
453.88	85.146
454.23	86.158
454.58	86.303
454.93	85.801
455.28	87.116
455.63	87.436
455.98	86.313
456.34	87.161
456.69	86.772
457.04	87.411
457.39	87.361
457.74	86.465
458.09	85.997
458.44	87.177
458.79	85.199
459.14	87.362
459.49	88.059
459.84	87.356
460.19	87.063
460.54	88.586
460.89	89.095
461.24	87.989
461.59	89.043
461.94	88.192
462.29	87.234
462.64	87.145
462.99	87.445
463.34	89.617
463.69	86.166
464.04	89.049
464.39	87.556
464.74	87.457
465.09	87.486
465.44	88.466
465.79	86.621
466.14	86.868
466.49	87.474
466.84	87.438
467.19	87.399
467.54	86.663
467.89	86.379
468.24	86.648
468.59	86.450
468.94	87.762
469.29	87.582
469.64	86.968
469.99	88.591
470.34	90.161
470.68	90.294
471.03	89.325
471.38	89.993
471.73	89.337
472.08	88.959
472.43	88.441
472.78	88.413
473.13	90.392
473.48	89.426
473.83	89.669
474.17	87.866
474.52	90.138
474.87	87.652
475.22	88.845
475.57	88.993
475.92	88.800
476.27	88.871
476.61	88.785
476.96	89.155
477.31	88.465
477.66	89.927
478.01	89.273
478.36	87.039
478.70	89.360
479.05	91.207
479.40	89.931
479.75	88.473
480.10	90.147
480.45	89.152
480.79	89.932
481.14	87.822
481.49	89.596
481.84	88.860
482.19	89.376
482.53	89.506
482.88	90.120
483.23	90.663
483.58	89.869
483.92	87.810
484.27	88.569
484.62	88.078
484.97	88.375
485.31	88.103
485.66	84.229
486.01	82.585
486.36	84.372
486.70	86.529
487.05	87.520
487.40	86.487
487.75	88.117
488.09	88.335
488.44	85.697
488.79	87.858
489.13	88.523
489.48	88.233
489.83	87.968
490.17	89.024
490.52	87.479
490.87	89.171
491.22	91.075
491.56	89.121
491.91	89.359
492.26	89.355
492.60	89.637
492.95	89.294
493.30	90.542
493.64	89.444
493.99	89.123
494.34	89.765
494.68	89.936
495.03	90.617
495.37	90.280
495.72	90.476
496.07	89.702
496.41	90.219
496.76	90.117
497.11	90.743
497.45	89.728
497.80	90.004
498.14	90.975
498.49	89.982
498.84	90.356
499.18	91.003
499.53	91.300
499.87	91.121
500.22	91.763
500.56	90.328
500.91	91.762
501.26	91.591
501.60	90.632
501.95	91.272
502.29	90.873
502.64	91.255
502.98	89.431
503.33	89.330
503.67	90.580
504.02	89.405
504.36	91.108
504.71	91.456
505.06	90.587
505.40	91.088
505.75	89.845
506.09	90.792
506.44	91.597
506.78	91.697
507.13	91.701
507.47	90.857
507.82	89.773
508.16	92.352
508.51	90.295
508.85	93.718
509.19	92.231
509.54	91.210
509.88	90.287
510.23	92.812
510.57	92.170
510.92	91.630
511.26	90.669
511.61	90.101
511.95	90.776
512.30	91.777
512.64	90.855
512.98	91.746
513.33	92.641
513.67	93.524
514.02	93.715
514.36	93.043
514.70	92.969
515.05	92.284
515.39	92.021
515.74	94.857
516.08	93.080
516.42	93.511
516.77	93.060
517.11	92.883
517.46	93.584
517.80	94.281
518.14	95.375
518.49	93.926
518.83	92.336
519.17	93.107
519.52	92.977
519.86	94.562
520.20	93.717
520.55	93.647
520.89	94.595
521.23	93.412
521.58	96.045
521.92	93.994
522.26	93.070
522.61	95.428
522.95	95.329
523.29	96.379
523.64	94.843
523.98	95.265
524.32	95.244
524.66	94.195
525.01	93.318
525.35	92.878
525.69	93.619
526.04	94.030
526.38	94.828
526.72	93.945
527.06	95.718
527.41	95.102
527.75	95.665
528.09	93.920
528.43	93.783
528.78	93.699
529.12	93.979
529.46	94.266
529.80	94.222
530.15	93.739
530.49	95.967
530.83	95.277
531.17	95.998
531.51	95.487
531.86	95.072
532.20	94.634
532.54	93.776
532.88	95.697
533.22	93.695
533.57	93.133
533.91	92.761
534.25	94.064
534.59	94.598
534.93	93.888
535.27	93.239
535.62	94.031
535.96	93.725
536.30	94.418
536.64	94.054
536.98	95.203
537.32	95.062
537.66	95.134
538.01	92.568
538.35	92.935
538.69	93.690
539.03	94.298
539.37	93.816
539.71	93.153
540.05	93.465
540.39	94.193
540.73	92.593
541.07	93.991
541.42	89.309
541.76	90.747
542.10	92.702
542.44	93.423
542.78	93.187
543.12	92.133
543.46	93.040
543.80	92.446
544.14	93.238
544.48	93.085
544.82	92.699
545.16	93.262
545.50	94.608
545.84	95.040
546.18	95.123
546.52	94.841
546.86	94.277
547.20	95.738
547.54	93.633
547.88	93.008
548.22	93.216
548.56	92.920
548.90	94.507
549.24	95.015
549.58	94.700
549.92	94.834
550.26	95.728
550.60	92.342
550.94	93.920
551.28	92.277
551.62	96.496
551.96	91.197
552.30	94.519
552.64	94.213
552.98	94.573
553.32	94.855
553.66	94.920
554.00	94.010
554.34	94.595
554.68	92.770
555.02	93.824
555.36	95.792
555.69	93.338
556.03	93.821
556.37	94.618
556.71	94.547
557.05	93.802
557.39	97.147
557.73	96.301
558.07	96.026
558.41	94.684
558.75	95.740
559.08	94.642
559.42	96.022
559.76	93.351
560.10	93.972
560.44	94.987
560.78	94.062
561.12	94.581
561.45	96.472
561.79	95.116
562.13	95.194
562.47	92.417
562.81	92.911
563.15	94.381
563.48	93.847
563.82	93.349
564.16	93.882
564.50	94.398
564.84	93.628
565.17	93.235
565.51	91.945
565.85	93.587
566.19	93.491
566.52	93.505
566.86	93.945
567.20	91.082
567.54	91.450
567.88	92.864
568.21	92.292
568.55	92.518
568.89	91.512
569.23	89.142
569.56	89.175
569.90	88.881
570.24	87.622
570.57	88.390
570.91	85.701
571.25	85.508
571.59	86.975
571.92	85.768
572.26	85.786
572.60	86.104
572.93	86.028
573.27	85.473
573.61	85.786
573.95	83.734
574.28	84.513
574.62	84.675
574.96	82.775
575.29	82.463
575.63	83.252
575.97	83.808
576.30	83.790
576.64	83.417
576.98	83.394
577.31	83.881
577.65	83.925
577.98	83.415
578.32	82.625
578.66	82.944
578.99	82.941
579.33	83.393
579.67	82.797
580.00	83.075
580.34	82.635
580.67	83.098
581.01	82.713
581.35	82.466
581.68	82.094
582.02	81.922
582.35	83.427
582.69	83.630
583.02	83.442
583.36	84.288
583.70	84.208
584.03	83.177
584.37	84.325
584.70	82.836
585.04	83.562
585.37	82.479
585.71	82.265
586.04	83.355
586.38	83.983
586.72	82.928
587.05	85.035
587.39	84.119
587.72	84.976
588.06	84.188
588.39	84.715
588.73	83.598
589.06	85.102
589.40	86.540
589.73	86.472
590.07	86.141
590.40	86.139
590.73	85.401
591.07	86.597
591.40	86.275
591.74	87.122
592.07	87.739
592.41	86.041
592.74	84.700
593.08	85.127
593.41	85.418
593.75	86.207
594.08	85.822
594.41	86.538
594.75	85.354
595.08	86.171
595.42	86.429
595.75	86.406
596.09	85.835
596.42	86.277
596.75	87.071
597.09	88.444
597.42	87.604
597.75	86.554
598.09	85.873
598.42	85.927
598.76	85.823
599.09	85.902
599.42	83.607
599.76	85.045
600.09	84.484
600.42	85.352
600.76	85.634
601.09	85.032
601.42	84.895
601.76	84.897
602.09	84.918
602.42	85.314
602.76	85.904
603.09	86.968
603.42	85.947
603.76	85.729
604.09	86.622
604.42	86.716
604.76	85.350
605.09	86.478
605.42	85.486
605.75	84.385
606.09	86.301
606.42	84.933
606.75	85.232
607.09	84.524
607.42	85.973
607.75	86.284
608.08	84.964
608.42	84.925
608.75	86.318
609.08	86.375
609.41	86.855
609.75	87.009
610.08	88.522
610.41	85.174
610.74	85.546
611.07	86.945
611.41	86.547
611.74	89.284
612.07	87.190
612.40	89.068
612.73	89.095
613.07	86.601
613.40	87.440
613.73	86.278
614.06	89.009
614.39	86.395
614.72	86.754
615.06	86.622
615.39	85.887
615.72	86.919
616.05	85.381
616.38	88.698
616.71	86.886
617.05	87.859
617.38	87.266
617.71	87.959
618.04	87.588
618.37	89.454
618.70	89.027
619.03	89.606
619.36	90.814
619.69	91.352
620.03	90.082
620.36	89.571
620.69	91.302
621.02	91.732
621.35	94.194
621.68	93.926
622.01	93.025
622.34	91.632
622.67	91.409
623.00	90.283
623.33	91.042
623.66	91.180
623.99	91.113
624.32	91.683
624.65	89.897
624.99	92.718
625.32	92.489
625.65	91.773
625.98	90.644
626.31	93.834
626.64	93.187
626.97	92.198
627.30	93.698
627.63	94.149
627.96	92.417
628.29	92.607
628.62	94.710
628.95	97.634
629.28	95.922
629.61	96.380
629.94	94.059
630.26	93.644
630.59	94.732
630.92	96.277
631.25	96.243
631.58	98.964
631.91	98.219
632.24	98.463
632.57	95.066
632.90	98.796
633.23	100.510
633.56	97.551
633.89	98.140
634.22	102.391
634.55	100.104
634.88	98.485
635.20	100.431
635.53	103.729
635.86	97.833
636.19	97.985
636.52	97.996
636.85	95.301
637.18	95.842
637.51	98.280
637.83	100.332
638.16	102.189
638.49	99.648
638.82	98.196
639.15	98.625
639.48	100.577
639.81	98.383
640.13	101.885
640.46	99.758
640.79	98.039
641.12	100.870
641.45	100.753
641.77	104.621
642.10	102.493
642.43	103.059
642.76	102.846
643.09	103.836
643.41	103.081
643.74	103.724
644.07	102.345
644.40	104.950
644.73	103.338
645.05	103.818
645.38	104.317
645.71	103.519
646.04	101.722
646.36	101.606
646.69	108.129
647.02	104.893
647.35	103.511
647.67	104.187
648.00	107.803
648.33	104.354
648.66	101.854
648.98	100.816
649.31	101.894
649.64	100.930
649.96	100.928
650.29	96.245
650.62	98.303
650.94	101.952
651.27	98.802
651.60	97.515
651.92	101.824
652.25	100.579
652.58	98.212
652.90	100.872
653.23	101.549
653.56	101.141
653.88	97.051
654.21	101.549
654.54	100.867
654.86	100.425
655.19	94.228
655.52	85.076
655.84	73.924
656.17	88.167
656.49	100.042
656.82	100.008
657.15	100.000
657.47	100.000
657.80	100.000
658.13	48.647
658.45	62.909
658.78	77.222
659.10	75.269
659.43	74.985
659.75	77.544
660.08	78.207
660.41	81.886
660.73	90.194
661.06	101.028
661.38	98.884
661.71	102.931
662.03	101.058
662.36	101.968
662.68	106.567
663.01	104.425
663.33	108.885
663.66	102.564
663.98	105.000
664.31	105.441
664.63	105.010
664.96	103.630
665.28	100.181
665.61	98.951
665.93	100.000
666.26	101.792
666.58	103.137
666.91	105.234
667.23	104.952
667.56	107.101
667.88	107.200
668.21	105.273
668.53	102.703
668.86	107.466
669.18	107.128
669.50	103.976
669.83	105.400
670.15	104.724
670.48	108.135
670.80	102.294
671.13	100.189
671.45	103.346
671.77	106.780
672.10	96.833
672.42	100.324
672.75	98.310
673.07	96.567
673.39	94.453
673.72	99.832
674.04	100.517
674.37	101.073
674.69	98.589
675.01	105.714
675.34	101.718
675.66	98.689
675.98	99.627
676.31	105.469
676.63	101.521
676.95	102.107
677.28	105.645
677.60	99.606
677.92	100.576
678.25	97.441
678.57	98.754
678.89	98.123
679.22	93.728
679.54	96.068
679.86	94.407
680.18	98.342
680.51	93.239
680.83	98.527
681.15	96.724
681.48	96.718
681.80	98.446
682.12	99.825
682.44	94.491
682.77	98.582
683.09	97.727
683.41	100.388
683.73	97.343
684.06	96.863
684.38	95.886
684.70	98.384
685.02	95.353
685.34	95.341
685.67	95.741
685.99	90.337
686.31	87.209
686.63	95.419
686.96	91.956
687.28	92.671
687.60	93.603
687.92	88.424
688.24	92.154
688.56	90.345
688.89	94.192
689.21	100.391
689.53	96.471
689.85	97.830
690.17	91.852
690.49	100.000
690.82	99.604
691.14	97.976
691.46	94.646
691.78	95.028
692.10	97.248
692.42	89.286
692.74	92.377
693.06	90.370
693.39	97.154
693.71	95.113
694.03	90.706
694.35	95.048
694.67	94.867
694.99	94.043
695.31	98.234
695.63	94.805
695.95	95.238
696.27	95.604
696.59	100.221
696.91	95.721
697.23	96.923
697.56	93.890
697.88	92.045
698.20	94.915
698.52	90.341
698.84	96.050
699.16	94.694
699.48	93.096
699.80	91.277
700.12	95.415
700.44	97.696
700.76	100.950
701.08	98.547
701.40	103.109
701.72	99.005
702.04	105.080
702.36	101.047
702.68	93.154
703.00	96.088
703.32	97.783
703.64	97.311
703.96	95.704
704.28	96.314
704.60	98.481
704.91	97.194
705.23	100.822
705.55	97.493
705.87	111.212
706.19	106.135
706.51	98.193
706.83	98.559
707.15	92.857
707.47	92.290
707.79	89.301
708.11	89.831
708.43	88.817
708.74	91.518
709.06	91.879
709.38	93.427
709.70	93.052
710.02	97.416
710.34	94.947
710.66	93.855
710.98	92.350
711.29	96.703
711.61	102.825
711.93	100.000
712.25	92.162
712.57	98.230
712.89	101.176
713.20	97.633
713.52	97.399
713.84	93.315
714.16	93.947
714.48	89.433
714.80	94.805
715.11	95.013
715.43	97.347
715.75	91.842
716.07	94.475
716.39	94.262
716.70	94.578
717.02	101.311
717.34	97.909
717.66	96.644
717.97	100.342
718.29	91.065
718.61	92.434
718.93	98.058
719.24	95.652
719.56	93.558
719.88	91.892
720.20	97.419
720.51	92.236
720.83	92.188
721.15	95.724
721.46	99.658
721.78	96.000
722.10	92.880
722.42	93.289
722.73	91.290
723.05	97.193
723.37	89.236
723.68	97.491
724.00	93.141
724.32	93.662
724.63	94.056
724.95	92.199
725.27	87.805
725.58	93.286
725.90	100.345
726.22	91.223
726.53	90.584
726.85	92.767
727.16	87.009
727.48	92.966
727.80	94.040
728.11	91.519
728.43	89.226
728.74	95.987
729.06	89.735
729.38	90.584
729.69	92.282
730.01	90.179
730.32	84.545
730.64	93.396
730.96	90.373
731.27	84.916
731.59	83.516
731.90	78.961
732.22	81.510
732.53	81.492
732.85	84.857
733.16	86.217
733.48	84.451
733.80	84.680
734.11	83.761
734.43	84.324
734.74	85.316
735.06	84.925
735.37	87.568
735.69	81.351
736.00	83.333
736.32	81.941
736.63	79.722
736.95	83.908
737.26	88.182
737.58	81.818
737.89	88.824
738.21	84.098
738.52	87.213
738.83	90.785
739.15	89.362
739.46	89.796
739.78	84.969
740.09	83.668
740.41	82.799
740.72	89.333
741.04	87.055
741.35	83.860
741.66	89.804
741.98	93.033
742.29	88.285
742.61	96.053
742.92	91.154
743.23	84.838
743.55	87.597
743.86	91.200
744.18	90.496
744.49	91.139
744.80	90.947
745.12	90.295
745.43	89.431
745.74	91.379
746.06	90.678
746.37	98.312
746.68	88.211
747.00	87.083
747.31	94.421
747.62	87.692
747.94	89.474
748.25	91.165
748.56	88.163
748.88	90.171
749.19	92.672
749.50	93.074
749.82	92.771
750.13	92.171
750.44	82.000
750.75	80.615
751.07	83.692
751.38	87.382
751.69	86.581
752.01	82.524
752.32	85.621
752.63	84.014
752.94	84.775
753.26	87.732
753.57	83.704
753.88	86.891
754.19	82.958
754.51	82.958
754.82	89.711
755.13	80.328
755.44	84.983
755.75	86.842
756.07	81.791
756.38	84.277
756.69	81.024
757.00	76.731
757.31	78.689
757.63	76.471
757.94	73.005
758.25	74.492
758.56	71.895
758.87	70.227
759.18	75.733
759.50	80.453
759.81	79.832
760.12	78.706
760.43	75.260
760.74	76.355
761.05	76.000
761.36	73.012
761.67	76.904
761.99	77.568
762.30	78.354
762.61	75.578
762.92	82.090
763.23	82.022
763.54	82.374
763.85	78.007
764.16	77.778
764.47	82.042
764.78	77.955
765.10	78.299
765.41	72.564
765.72	71.164
766.03	75.141
766.34	73.981
766.65	76.307
766.96	83.665
767.27	93.088
767.58	87.562
767.89	87.981
768.20	84.507
768.51	81.944
768.82	77.108
769.13	82.576
769.44	75.000
769.75	85.921
770.06	84.615
770.37	85.433
770.68	82.979
770.99	78.138
771.30	83.704
771.61	78.327
771.92	77.037
772.23	87.045
772.54	81.019
772.85	86.636
773.16	84.286
773.47	83.069
773.78	89.730
774.09	92.045
774.39	89.000
774.70	77.596
775.01	83.537
775.32	83.529
775.63	88.344
775.94	81.529
776.25	87.742
776.56	84.615
776.87	93.197
777.18	84.828
777.48	86.713
777.79	76.351
778.10	86.765
778.41	88.194
778.72	87.586
779.03	83.333
779.34	86.061
779.65	73.057
779.95	86.111
780.26	81.818
780.57	90.323
780.88	93.478
781.19	88.387
781.50	83.529
781.80	76.882
782.11	78.836
782.42	63.636
782.73	79.641
783.04	78.212
783.34	80.000
783.65	73.203
783.96	83.230
784.27	80.952
784.57	86.093
784.88	80.714
785.19	84.252
785.50	85.039
785.81	85.714
786.11	93.077
786.42	81.295
786.73	82.014
787.04	82.707
787.34	86.066
787.65	88.800
787.96	82.836
788.26	90.909
788.57	81.119
788.88	81.579
789.19	70.588
789.49	80.822
789.80	89.362
790.11	88.189
790.41	75.000
790.72	79.661
791.03	85.437
791.33	69.565
791.64	79.825
791.95	78.571
792.25	87.619
792.56	72.321
792.87	89.583
793.17	71.429
793.48	78.125
793.79	95.181
794.09	82.569
794.40	93.578
794.70	79.592
795.01	65.584
795.32	70.548
795.62	80.282
795.93	75.000
796.23	81.967
796.54	74.107
796.85	92.553
797.15	83.696
797.46	93.151
797.76	93.750
798.07	81.522
798.37	78.351
798.68	97.403
798.99	85.057
799.29	84.270
799.60	61.702
799.90	79.518
800.21	81.538
800.51	89.552
800.82	89.706
801.12	83.562
801.43	95.588
801.73	103.390
802.04	96.970
802.34	95.000
802.65	115.254
802.95	97.015
803.26	100.000
803.56	102.740
803.87	97.143
804.17	104.110
804.48	96.491
804.78	86.111
805.09	100.000
805.39	77.027
805.70	76.056
806.00	73.171
806.30	75.904
806.61	90.411
806.91	74.038
807.22	78.889
807.52	78.161
807.83	94.444
808.13	89.157
808.43	76.404
808.74	81.250
809.04	91.176
809.35	100.000
809.65	97.143
809.95	98.630
810.26	87.719
810.56	98.276
810.86	85.294
811.17	91.228
811.47	78.689
811.77	71.111
812.08	103.390
812.38	93.333
812.69	91.379
812.99	77.358
813.29	89.744
813.59	112.000
813.90	110.526
814.20	76.364
814.50	104.225
814.81	71.795
815.11	98.361
815.41	88.060
815.72	101.724
816.02	80.357
816.32	131.111
816.62	111.364
816.93	82.222
817.23	94.444
817.53	89.362
817.84	121.429
818.14	108.824
818.44	100.000
818.74	106.667
819.04	89.744
819.35	97.143
819.65	138.462
819.95	96.226
820.25	93.333
820.56	126.190
820.86	171.875
821.16	94.872
821.46	104.651
821.76	76.000
822.07	83.929
822.37	82.609
822.67	91.489
822.97	59.459
823.27	92.500
823.57	93.878
823.88	115.556
824.18	102.500
824.48	130.000
824.78	128.000
825.08	106.061
825.38	111.111
825.69	78.723
825.99	119.444
826.29	62.857
826.59	102.564
826.89	79.070
827.19	84.000
827.49	114.706
827.79	72.917
828.09	102.703
828.39	110.000
828.70	117.073
829.00	79.070
829.30	100.000
829.60	111.765
829.90	67.391
830.20	74.286
830.50	124.138
830.80	150.000
831.10	119.231
831.40	135.294
831.70	180.952
832.00	106.452
832.30	129.412
832.60	112.500
832.90	200.000
833.20	110.526
833.50	170.000
833.80	168.421
834.10	109.524
834.40	97.222
834.70	115.625
835.00	54.286
835.30	97.059
835.60	123.333
835.90	140.000
836.20	68.182
836.50	144.000
836.80	106.061
837.10	77.778
837.40	92.593
837.70	118.750
838.00	117.857
838.30	126.087
838.60	82.759
838.90	214.286
839.19	43.478
839.49	150.000
839.79	108.696
840.09	93.750
840.39	120.000
840.69	116.129
840.99	78.571
841.29	106.667
841.59	168.421
841.88	89.744
842.18	84.615
842.48	180.000
842.78	115.000
843.08	130.000
843.38	119.355
843.68	94.444
843.97	114.706
844.27	156.250
844.57	115.789
844.87	160.000
845.17	120.000
845.47	123.810
845.76	109.524
846.06	277.778
846.36	170.588
846.66	115.385
846.96	126.667
847.25	105.882
847.55	121.739
847.85	130.000
848.15	158.824
848.44	109.091
848.74	95.238
849.04	91.667
849.34	125.000
849.63	95.652
849.93	-650.000
850.23	180.000
850.53	126.923
850.82	145.455
851.12	113.636
851.42	163.636
851.71	207.692
852.01	125.000
852.31	184.615
852.61	73.684
852.90	266.667
853.20	166.667
853.50	244.444
853.79	104.762
854.09	59.091
854.39	183.333
854.68	116.129
854.98	111.538
855.28	161.111
855.57	71.429
855.87	136.000
856.17	127.273
856.46	100.000
856.76	116.667
857.05	91.304
857.35	108.333
857.65	161.538
857.94	171.429
858.24	92.593
858.53	130.435
858.83	152.941
859.13	117.647
859.42	123.529
859.72	128.571
860.01	105.000
860.31	277.778
860.60	180.000
860.90	160.000
861.20	83.333
861.49	169.231
861.79	70.000
862.08	130.769
862.38	93.750
862.67	129.412
862.97	175.000
863.26	133.333
863.56	290.000
863.85	154.545
864.15	172.222
864.44	533.333
864.74	142.857
865.03	75.000
865.33	50.000
865.62	58.065
865.92	95.455
866.21	113.043
866.51	164.286
866.80	100.000
867.10	41.667
867.39	91.667
867.69	-1200.000
867.98	285.714
868.27	88.235
868.57	900.000
868.86	160.000
869.16	57.143
869.45	79.167
869.75	181.818
870.04	242.857
870.33	191.667
870.63	214.286
870.92	300.000
871.22	37.500
871.51	63.636
871.80	366.667
872.10	550.000
>>>>>End Processed Spectral Data<<<<<
