SpectraSuite Data File
++++++++++++++++++++++++++++++++++++
Date: Thu May 14 14:51:56 PDT 2015
User: schluterlab
Dark Spectrum Present: Yes
Reference Spectrum Present: Yes
Number of Sampled Component Spectra: 1
Spectrometers: USB2E3373
Integration Time (usec): 3000 (USB2E3373)
Spectra Averaged: 3 (USB2E3373)
Boxcar Smoothing: 0 (USB2E3373)
Correct for Electrical Dark: No (USB2E3373)
Strobe/Lamp Enabled: No (USB2E3373)
Correct for Detector Non-linearity: No (USB2E3373)
Correct for Stray Light: No (USB2E3373)
Number of Pixels in Processed Spectrum: 2048
>>>>>Begin Processed Spectral Data<<<<<
178.53	0.000
178.91	85.714
179.29	-1600.000
179.67	-1300.000
180.04	178.571
180.42	150.000
180.80	280.000
181.18	-1500.000
181.56	-100.000
181.94	200.000
182.31	-150.000
182.69	200.000
183.07	-200.000
183.45	250.000
183.83	-166.667
184.20	-100.000
184.58	500.000
184.96	-525.000
185.34	-177.778
185.72	-100.000
186.09	233.333
186.47	750.000
186.85	300.000
187.23	-177.778
187.61	-2400.000
187.98	280.000
188.36	425.000
188.74	-425.000
189.12	-266.667
189.49	-31.250
189.87	-50.000
190.25	122.222
190.63	-60.000
191.00	-100.000
191.38	0.000
191.76	-425.000
192.14	-116.667
192.51	800.000
192.89	-66.667
193.27	0.000
193.65	-242.857
194.02	-2300.000
194.40	-171.429
194.78	114.286
195.15	0.000
195.53	-27.273
195.91	0.000
196.29	-25.000
196.66	-138.462
197.04	-2000.000
197.42	-214.286
197.79	-350.000
198.17	-250.000
198.55	-228.571
198.92	-66.667
199.30	-175.000
199.68	0.000
200.05	-50.000
200.43	-650.000
200.81	128.571
201.18	0.000
201.56	211.111
201.94	0.000
202.31	633.333
202.69	-100.000
203.07	700.000
203.44	-66.667
203.82	-150.000
204.19	-50.000
204.57	-200.000
204.95	-150.000
205.32	-900.000
205.70	150.000
206.08	-133.333
206.45	-33.333
206.83	500.000
207.20	-16.667
207.58	-240.000
207.96	-200.000
208.33	16.667
208.71	133.333
209.08	-133.333
209.46	0.000
209.84	266.667
210.21	250.000
210.59	600.000
210.96	233.333
211.34	-25.000
211.71	-50.000
212.09	-1300.000
212.46	0.000
212.84	1300.000
213.22	-100.000
213.59	150.000
213.97	20.000
214.34	-333.333
214.72	250.000
215.09	-50.000
215.47	0.000
215.84	171.429
216.22	900.000
216.59	40.000
216.97	-120.000
217.34	-375.000
217.72	-112.500
218.09	-100.000
218.47	-200.000
218.84	0.000
219.22	200.000
219.59	0.000
219.97	-20.000
220.34	1000.000
220.72	-88.889
221.09	-30.769
221.47	-166.667
221.84	-150.000
222.22	-257.143
222.59	0.000
222.97	-137.500
223.34	-460.000
223.72	-1400.000
224.09	-450.000
224.46	-400.000
224.84	-80.000
225.21	-114.286
225.59	-175.000
225.96	-275.000
226.34	19.231
226.71	333.333
227.08	-600.000
227.46	-80.000
227.83	-275.000
228.21	-47.368
228.58	187.500
228.95	500.000
229.33	-66.667
229.70	-50.000
230.08	47.368
230.45	150.000
230.82	-333.333
231.20	-71.429
231.57	-108.333
231.95	-109.091
232.32	-72.727
232.69	-20.000
233.07	-275.000
233.44	23.529
233.81	-150.000
234.19	-16.667
234.56	-45.455
234.93	24.138
235.31	-36.842
235.68	-11.111
236.05	-60.000
236.43	3.846
236.80	-4.000
237.17	-25.926
237.55	9.091
237.92	-20.000
238.29	-12.903
238.67	-9.091
239.04	-25.000
239.41	7.143
239.79	-23.913
240.16	5.556
240.53	-23.913
240.91	-15.686
241.28	-19.672
241.65	11.940
242.02	10.811
242.40	-10.769
242.77	8.000
243.14	-2.439
243.51	-19.737
243.89	-12.821
244.26	7.921
244.63	2.941
245.00	9.346
245.38	0.877
245.75	-10.619
246.12	6.349
246.49	-5.426
246.87	-0.714
247.24	9.934
247.61	0.658
247.98	-2.013
248.36	1.235
248.73	-1.227
249.10	0.000
249.47	7.463
249.84	9.948
250.22	2.591
250.59	2.778
250.96	5.909
251.33	7.143
251.70	6.838
252.08	5.000
252.45	8.197
252.82	3.306
253.19	1.563
253.56	6.844
253.94	5.769
254.31	6.818
254.68	8.392
255.05	6.189
255.42	3.741
255.79	5.178
256.16	4.967
256.54	1.987
256.91	7.541
257.28	6.230
257.65	5.096
258.02	2.655
258.39	7.692
258.76	8.257
259.14	8.908
259.51	6.916
259.88	4.249
260.25	6.111
260.62	4.932
260.99	9.290
261.36	5.898
261.73	5.305
262.10	4.121
262.47	5.094
262.85	7.828
263.22	4.156
263.59	6.842
263.96	5.371
264.33	4.604
264.70	7.160
265.07	8.353
265.44	7.710
265.81	5.556
266.18	7.937
266.55	6.027
266.92	3.872
267.29	7.877
267.66	7.095
268.03	6.769
268.40	7.307
268.77	5.695
269.14	5.947
269.51	7.675
269.88	7.992
270.25	8.853
270.62	7.384
270.99	10.707
271.36	9.307
271.73	7.073
272.10	9.419
272.47	7.014
272.84	6.827
273.21	6.814
273.58	8.871
273.95	6.346
274.32	3.612
274.69	5.803
275.06	6.410
275.43	5.915
275.80	5.820
276.17	6.111
276.54	4.104
276.91	6.977
277.28	5.606
277.65	5.745
278.02	6.066
278.39	5.254
278.76	5.800
279.13	7.270
279.50	7.904
279.87	9.660
280.23	5.282
280.60	8.305
280.97	7.401
281.34	6.961
281.71	9.137
282.08	5.482
282.45	5.565
282.82	6.122
283.19	5.008
283.56	6.557
283.92	7.207
284.29	10.427
284.66	6.732
285.03	4.327
285.40	7.728
285.77	5.263
286.14	8.397
286.51	6.697
286.87	7.267
287.24	7.229
287.61	5.232
287.98	6.647
288.35	5.917
288.72	6.805
289.08	6.881
289.45	6.213
289.82	6.928
290.19	6.897
290.56	6.901
290.93	7.133
291.29	7.300
291.66	7.025
292.03	6.242
292.40	8.163
292.77	5.795
293.13	7.713
293.50	5.782
293.87	4.027
294.24	7.200
294.60	7.585
294.97	5.638
295.34	8.579
295.71	6.431
296.08	5.039
296.44	6.250
296.81	6.456
297.18	6.600
297.55	6.486
297.91	5.338
298.28	6.161
298.65	6.421
299.02	6.494
299.38	6.979
299.75	6.776
300.12	6.134
300.48	6.336
300.85	5.737
301.22	6.935
301.59	6.735
301.95	4.972
302.32	6.889
302.69	8.105
303.05	6.638
303.42	7.206
303.79	6.562
304.15	7.886
304.52	6.660
304.89	7.016
305.25	7.039
305.62	7.315
305.99	8.144
306.35	7.460
306.72	7.549
307.09	7.919
307.45	7.867
307.82	6.761
308.19	8.073
308.55	7.232
308.92	7.400
309.29	9.100
309.65	6.238
310.02	7.525
310.38	9.252
310.75	9.126
311.12	8.725
311.48	7.918
311.85	8.167
312.22	8.918
312.58	9.014
312.95	7.935
313.31	8.853
313.68	9.432
314.05	10.298
314.41	10.656
314.78	9.809
315.14	10.889
315.51	10.342
315.87	9.991
316.24	10.046
316.61	11.723
316.97	10.045
317.34	10.935
317.70	11.354
318.07	11.640
318.43	11.565
318.80	12.876
319.16	12.017
319.53	11.054
319.89	12.270
320.26	12.456
320.62	13.564
320.99	13.296
321.35	13.586
321.72	14.140
322.08	12.353
322.45	12.918
322.81	14.260
323.18	14.248
323.54	14.569
323.91	14.858
324.27	14.802
324.64	15.113
325.00	15.257
325.37	15.561
325.73	16.694
326.10	15.815
326.46	17.671
326.83	17.054
327.19	17.795
327.56	17.628
327.92	17.388
328.29	17.016
328.65	17.839
329.01	19.543
329.38	18.703
329.74	20.291
330.11	19.863
330.47	20.051
330.84	19.121
331.20	19.917
331.56	20.277
331.93	20.502
332.29	21.610
332.66	21.761
333.02	20.352
333.38	20.470
333.75	22.138
334.11	21.601
334.48	21.947
334.84	22.005
335.20	22.166
335.57	21.754
335.93	23.306
336.29	21.298
336.66	20.942
337.02	22.324
337.38	22.109
337.75	22.314
338.11	22.288
338.47	22.250
338.84	21.320
339.20	20.977
339.56	20.675
339.93	21.839
340.29	21.176
340.65	21.492
341.02	22.905
341.38	21.827
341.74	21.792
342.11	21.963
342.47	21.128
342.83	21.900
343.20	21.750
343.56	21.492
343.92	22.098
344.28	21.719
344.65	22.016
345.01	20.671
345.37	23.095
345.73	21.746
346.10	22.387
346.46	21.361
346.82	22.547
347.19	21.620
347.55	22.307
347.91	21.471
348.27	21.472
348.63	22.391
349.00	21.029
349.36	21.859
349.72	20.685
350.08	22.288
350.45	20.684
350.81	22.247
351.17	22.180
351.53	21.152
351.89	22.172
352.26	21.418
352.62	22.090
352.98	21.069
353.34	20.612
353.70	21.109
354.07	20.715
354.43	21.488
354.79	22.737
355.15	21.854
355.51	22.661
355.87	21.092
356.24	22.586
356.60	20.251
356.96	20.682
357.32	20.892
357.68	20.498
358.04	21.183
358.40	21.642
358.77	21.930
359.13	20.089
359.49	20.743
359.85	21.102
360.21	21.306
360.57	20.531
360.93	20.522
361.29	21.053
361.66	21.072
362.02	22.199
362.38	20.379
362.74	22.346
363.10	21.389
363.46	20.914
363.82	20.668
364.18	21.182
364.54	21.715
364.90	20.803
365.26	20.690
365.62	20.467
365.98	21.511
366.35	20.470
366.71	21.156
367.07	20.974
367.43	20.617
367.79	21.102
368.15	21.472
368.51	21.922
368.87	21.163
369.23	20.333
369.59	21.653
369.95	20.554
370.31	21.404
370.67	21.458
371.03	20.845
371.39	20.484
371.75	21.320
372.11	20.799
372.47	20.379
372.83	21.924
373.19	21.014
373.55	21.138
373.91	19.836
374.27	20.957
374.63	20.771
374.99	20.889
375.35	21.364
375.71	21.935
376.07	20.852
376.42	21.537
376.78	21.753
377.14	21.335
377.50	20.683
377.86	21.983
378.22	21.557
378.58	20.927
378.94	21.655
379.30	20.797
379.66	21.164
380.02	21.408
380.38	21.429
380.74	21.465
381.09	20.848
381.45	21.420
381.81	22.365
382.17	21.853
382.53	20.468
382.89	21.558
383.25	21.747
383.61	20.428
383.97	21.908
384.32	21.471
384.68	21.462
385.04	21.689
385.40	21.803
385.76	22.157
386.12	20.946
386.48	21.059
386.83	21.335
387.19	20.626
387.55	21.303
387.91	20.776
388.27	22.460
388.62	22.050
388.98	20.812
389.34	22.392
389.70	21.557
390.06	21.433
390.42	20.542
390.77	22.336
391.13	20.833
391.49	22.283
391.85	20.182
392.20	21.174
392.56	21.087
392.92	20.665
393.28	21.448
393.64	20.894
393.99	21.964
394.35	22.138
394.71	21.018
395.07	20.479
395.42	20.959
395.78	21.146
396.14	20.915
396.50	21.140
396.85	20.930
397.21	19.349
397.57	21.555
397.92	20.790
398.28	19.935
398.64	19.966
399.00	20.000
399.35	20.628
399.71	20.217
400.07	20.606
400.42	19.674
400.78	20.081
401.14	19.750
401.49	20.068
401.85	20.407
402.21	20.046
402.57	19.894
402.92	19.858
403.28	19.145
403.63	19.093
403.99	19.596
404.35	20.125
404.70	19.603
405.06	19.022
405.42	19.789
405.77	19.357
406.13	19.773
406.49	19.595
406.84	19.945
407.20	19.285
407.55	18.655
407.91	18.982
408.27	18.669
408.62	19.372
408.98	20.081
409.34	18.006
409.69	19.098
410.05	18.640
410.40	19.606
410.76	19.349
411.11	19.579
411.47	19.287
411.83	19.753
412.18	18.916
412.54	19.146
412.89	18.917
413.25	18.736
413.60	18.955
413.96	18.765
414.31	18.357
414.67	18.306
415.03	18.831
415.38	18.979
415.74	18.265
416.09	18.939
416.45	17.971
416.80	17.993
417.16	18.199
417.51	19.365
417.87	18.823
418.22	18.443
418.58	18.463
418.93	19.558
419.29	18.249
419.64	19.028
420.00	18.160
420.35	18.810
420.71	18.840
421.06	18.401
421.42	19.438
421.77	18.309
422.12	19.345
422.48	18.740
422.83	19.825
423.19	19.416
423.54	18.363
423.90	19.105
424.25	19.200
424.61	18.657
424.96	18.836
425.31	19.904
425.67	18.894
426.02	19.424
426.38	19.231
426.73	19.141
427.09	19.896
427.44	18.842
427.79	19.845
428.15	18.779
428.50	20.000
428.85	18.886
429.21	19.734
429.56	19.694
429.92	19.361
430.27	19.807
430.62	20.127
430.98	19.823
431.33	19.599
431.68	19.157
432.04	20.112
432.39	19.764
432.74	19.406
433.10	20.011
433.45	19.621
433.80	20.279
434.16	19.835
434.51	20.658
434.86	20.955
435.22	19.926
435.57	21.344
435.92	20.256
436.28	20.705
436.63	20.535
436.98	20.021
437.34	20.293
437.69	20.418
438.04	19.937
438.39	20.333
438.75	20.033
439.10	21.195
439.45	20.794
439.81	21.243
440.16	20.322
440.51	20.346
440.86	20.901
441.22	21.490
441.57	20.964
441.92	20.951
442.27	21.111
442.63	20.219
442.98	21.078
443.33	21.042
443.68	22.002
444.03	21.919
444.39	20.897
444.74	21.235
445.09	21.541
445.44	21.338
445.79	21.648
446.15	21.274
446.50	20.930
446.85	22.082
447.20	21.132
447.55	21.967
447.91	21.047
448.26	21.300
448.61	21.892
448.96	22.854
449.31	20.891
449.66	20.588
450.02	21.783
450.37	21.897
450.72	21.744
451.07	21.469
451.42	22.068
451.77	21.345
452.12	22.291
452.47	21.093
452.83	22.523
453.18	21.541
453.53	21.654
453.88	22.032
454.23	21.130
454.58	21.880
454.93	21.602
455.28	22.095
455.63	21.660
455.98	22.235
456.34	21.790
456.69	21.811
457.04	22.104
457.39	22.395
457.74	21.980
458.09	22.076
458.44	21.821
458.79	21.558
459.14	21.814
459.49	22.637
459.84	22.770
460.19	22.432
460.54	22.203
460.89	22.499
461.24	21.207
461.59	22.081
461.94	21.335
462.29	22.452
462.64	22.148
462.99	22.724
463.34	22.583
463.69	22.743
464.04	22.624
464.39	22.085
464.74	21.893
465.09	22.318
465.44	22.371
465.79	22.422
466.14	22.668
466.49	22.368
466.84	22.534
467.19	22.197
467.54	21.622
467.89	22.011
468.24	21.496
468.59	21.019
468.94	22.028
469.29	22.496
469.64	22.950
469.99	22.243
470.34	22.587
470.68	22.351
471.03	23.510
471.38	21.583
471.73	21.586
472.08	22.843
472.43	22.637
472.78	22.985
473.13	22.503
473.48	22.900
473.83	23.506
474.17	22.685
474.52	22.429
474.87	22.868
475.22	22.986
475.57	22.793
475.92	22.897
476.27	23.110
476.61	22.482
476.96	22.993
477.31	22.079
477.66	22.718
478.01	22.064
478.36	22.283
478.70	22.660
479.05	23.108
479.40	22.754
479.75	23.247
480.10	22.549
480.45	23.200
480.79	22.676
481.14	22.472
481.49	22.581
481.84	23.281
482.19	23.484
482.53	22.912
482.88	23.128
483.23	23.210
483.58	23.013
483.92	23.094
484.27	23.582
484.62	22.153
484.97	23.561
485.31	23.090
485.66	22.387
486.01	22.419
486.36	23.664
486.70	24.711
487.05	24.921
487.40	23.822
487.75	23.740
488.09	23.021
488.44	22.472
488.79	22.428
489.13	22.701
489.48	22.718
489.83	22.777
490.17	22.924
490.52	22.660
490.87	22.843
491.22	23.180
491.56	22.952
491.91	23.070
492.26	22.891
492.60	22.956
492.95	23.431
493.30	22.456
493.64	23.784
493.99	23.684
494.34	22.735
494.68	23.041
495.03	23.260
495.37	23.480
495.72	22.676
496.07	23.839
496.41	22.909
496.76	24.187
497.11	23.652
497.45	24.083
497.80	23.190
498.14	23.129
498.49	22.656
498.84	23.903
499.18	23.167
499.53	23.453
499.87	23.516
500.22	22.707
500.56	23.392
500.91	23.478
501.26	23.864
501.60	23.288
501.95	23.057
502.29	24.528
502.64	24.224
502.98	23.339
503.33	24.147
503.67	23.114
504.02	22.855
504.36	23.727
504.71	23.610
505.06	23.647
505.40	23.309
505.75	23.862
506.09	23.112
506.44	24.141
506.78	24.174
507.13	23.790
507.47	24.728
507.82	22.775
508.16	23.423
508.51	24.051
508.85	23.807
509.19	23.970
509.54	23.583
509.88	24.041
510.23	23.992
510.57	24.360
510.92	23.754
511.26	22.944
511.61	23.322
511.95	23.914
512.30	24.569
512.64	23.788
512.98	23.162
513.33	24.093
513.67	23.916
514.02	23.965
514.36	24.092
514.70	23.802
515.05	24.348
515.39	24.409
515.74	24.655
516.08	24.247
516.42	24.385
516.77	24.606
517.11	23.672
517.46	24.973
517.80	23.998
518.14	23.776
518.49	23.970
518.83	23.789
519.17	23.802
519.52	23.899
519.86	23.918
520.20	24.015
520.55	23.658
520.89	23.761
521.23	23.506
521.58	24.124
521.92	23.286
522.26	23.826
522.61	24.248
522.95	23.760
523.29	24.483
523.64	24.552
523.98	24.758
524.32	24.241
524.66	24.360
525.01	24.405
525.35	23.550
525.69	24.536
526.04	23.536
526.38	24.368
526.72	23.587
527.06	24.575
527.41	25.131
527.75	23.753
528.09	23.613
528.43	25.044
528.78	23.699
529.12	23.968
529.46	24.340
529.80	24.314
530.15	24.290
530.49	24.199
530.83	23.672
531.17	23.716
531.51	23.706
531.86	24.579
532.20	23.171
532.54	23.519
532.88	24.788
533.22	24.219
533.57	24.697
533.91	24.972
534.25	23.573
534.59	24.195
534.93	23.939
535.27	24.789
535.62	24.218
535.96	24.463
536.30	24.677
536.64	24.505
536.98	23.616
537.32	24.383
537.66	24.828
538.01	23.746
538.35	22.960
538.69	23.618
539.03	24.402
539.37	23.616
539.71	23.183
540.05	24.820
540.39	23.044
540.73	24.044
541.07	24.831
541.42	23.686
541.76	23.665
542.10	25.151
542.44	24.300
542.78	24.757
543.12	24.434
543.46	24.359
543.80	24.041
544.14	25.015
544.48	25.177
544.82	25.613
545.16	25.224
545.50	23.188
545.84	24.556
546.18	24.938
546.52	24.268
546.86	24.403
547.20	24.809
547.54	24.782
547.88	24.473
548.22	23.860
548.56	23.815
548.90	23.940
549.24	25.228
549.58	23.785
549.92	23.469
550.26	24.660
550.60	24.825
550.94	24.127
551.28	24.224
551.62	23.787
551.96	24.013
552.30	24.283
552.64	24.829
552.98	24.017
553.32	24.502
553.66	25.209
554.00	25.284
554.34	24.582
554.68	23.693
555.02	23.719
555.36	24.392
555.69	24.215
556.03	23.707
556.37	25.156
556.71	23.399
557.05	24.473
557.39	24.486
557.73	24.967
558.07	23.444
558.41	24.850
558.75	24.611
559.08	24.287
559.42	23.594
559.76	24.084
560.10	24.113
560.44	23.681
560.78	25.313
561.12	24.815
561.45	24.757
561.79	23.993
562.13	24.522
562.47	25.216
562.81	23.987
563.15	24.621
563.48	24.922
563.82	24.849
564.16	24.046
564.50	24.851
564.84	24.543
565.17	24.118
565.51	24.626
565.85	24.584
566.19	24.539
566.52	24.517
566.86	25.297
567.20	24.035
567.54	24.164
567.88	25.586
568.21	25.247
568.55	25.707
568.89	25.193
569.23	25.011
569.56	25.635
569.90	25.517
570.24	26.003
570.57	25.497
570.91	25.995
571.25	25.542
571.59	25.494
571.92	25.693
572.26	25.648
572.60	25.607
572.93	24.910
573.27	25.428
573.61	25.887
573.95	26.001
574.28	25.461
574.62	25.125
574.96	25.011
575.29	25.380
575.63	25.225
575.97	25.150
576.30	25.241
576.64	25.078
576.98	24.806
577.31	25.011
577.65	25.671
577.98	25.452
578.32	25.611
578.66	25.386
578.99	25.251
579.33	25.122
579.67	25.385
580.00	24.860
580.34	25.087
580.67	24.934
581.01	24.924
581.35	25.346
581.68	25.555
582.02	26.352
582.35	26.488
582.69	26.086
583.02	25.696
583.36	25.467
583.70	25.540
584.03	24.886
584.37	24.883
584.70	25.599
585.04	25.041
585.37	25.298
585.71	26.019
586.04	25.649
586.38	25.580
586.72	25.269
587.05	24.942
587.39	25.779
587.72	25.718
588.06	25.459
588.39	25.293
588.73	24.868
589.06	25.254
589.40	25.507
589.73	25.193
590.07	25.497
590.40	24.848
590.73	25.133
591.07	25.279
591.40	24.650
591.74	25.040
592.07	25.132
592.41	25.039
592.74	25.488
593.08	26.019
593.41	25.518
593.75	25.805
594.08	26.053
594.41	25.929
594.75	24.975
595.08	25.101
595.42	25.422
595.75	25.670
596.09	24.703
596.42	24.937
596.75	25.550
597.09	25.535
597.42	24.791
597.75	25.049
598.09	24.762
598.42	26.176
598.76	25.067
599.09	26.344
599.42	24.841
599.76	25.586
600.09	25.959
600.42	25.259
600.76	25.363
601.09	25.191
601.42	25.026
601.76	25.069
602.09	24.803
602.42	24.718
602.76	24.723
603.09	25.184
603.42	25.506
603.76	25.440
604.09	25.976
604.42	25.394
604.76	25.228
605.09	24.771
605.42	25.239
605.75	24.423
606.09	24.673
606.42	24.444
606.75	24.775
607.09	23.963
607.42	25.048
607.75	25.088
608.08	24.230
608.42	25.111
608.75	25.663
609.08	24.406
609.41	24.790
609.75	24.777
610.08	25.462
610.41	24.936
610.74	24.790
611.07	25.089
611.41	25.157
611.74	25.681
612.07	25.245
612.40	25.143
612.73	25.379
613.07	24.205
613.40	25.120
613.73	24.169
614.06	24.926
614.39	25.073
614.72	24.551
615.06	24.495
615.39	24.215
615.72	25.118
616.05	24.332
616.38	24.521
616.71	24.713
617.05	24.015
617.38	24.559
617.71	25.702
618.04	24.393
618.37	23.989
618.70	24.717
619.03	23.955
619.36	23.798
619.69	23.831
620.03	24.168
620.36	23.006
620.69	23.874
621.02	24.213
621.35	24.311
621.68	24.223
622.01	24.199
622.34	23.501
622.67	24.261
623.00	22.605
623.33	25.481
623.66	23.541
623.99	23.831
624.32	25.211
624.65	23.552
624.99	24.122
625.32	25.669
625.65	24.545
625.98	23.322
626.31	24.026
626.64	23.370
626.97	23.181
627.30	22.779
627.63	24.231
627.96	24.474
628.29	22.646
628.62	23.006
628.95	23.576
629.28	23.449
629.61	23.401
629.94	23.096
630.26	24.831
630.59	22.107
630.92	23.723
631.25	23.524
631.58	23.164
631.91	22.587
632.24	22.382
632.57	23.624
632.90	22.969
633.23	22.245
633.56	22.857
633.89	20.868
634.22	23.389
634.55	23.800
634.88	22.511
635.20	23.897
635.53	22.712
635.86	21.885
636.19	22.587
636.52	24.051
636.85	22.472
637.18	23.181
637.51	22.473
637.83	23.367
638.16	22.811
638.49	20.423
638.82	23.224
639.15	22.108
639.48	23.788
639.81	22.286
640.13	22.379
640.46	21.212
640.79	21.936
641.12	23.354
641.45	21.330
641.77	22.978
642.10	20.210
642.43	24.468
642.76	22.087
643.09	20.411
643.41	22.549
643.74	20.138
644.07	23.448
644.40	21.499
644.73	20.610
645.05	21.880
645.38	20.719
645.71	21.408
646.04	23.242
646.36	19.562
646.69	21.472
647.02	23.547
647.35	22.443
647.67	22.544
648.00	22.134
648.33	22.072
648.66	23.252
648.98	21.361
649.31	22.598
649.64	22.576
649.96	21.485
650.29	21.558
650.62	22.348
650.94	21.922
651.27	21.407
651.60	21.199
651.92	20.821
652.25	22.287
652.58	20.770
652.90	20.640
653.23	22.113
653.56	20.685
653.88	21.629
654.21	22.394
654.54	21.098
654.86	18.839
655.19	21.455
655.52	24.820
655.84	26.257
656.17	31.937
656.49	44.198
656.82	47.849
657.15	35.885
657.47	26.486
657.80	18.863
658.13	14.138
658.45	17.898
658.78	21.625
659.10	20.070
659.43	19.509
659.75	18.565
660.08	17.143
660.41	17.039
660.73	17.788
661.06	17.034
661.38	19.936
661.71	21.034
662.03	19.224
662.36	21.109
662.68	21.388
663.01	19.292
663.33	23.440
663.66	22.711
663.98	20.000
664.31	20.638
664.63	19.268
664.96	21.960
665.28	17.967
665.61	21.678
665.93	20.893
666.26	20.430
666.58	19.004
666.91	22.617
667.23	20.000
667.56	20.710
667.88	20.600
668.21	18.359
668.53	18.919
668.86	19.450
669.18	22.200
669.50	21.074
669.83	18.200
670.15	20.669
670.48	20.437
670.80	18.164
671.13	20.038
671.45	18.701
671.77	21.846
672.10	19.500
672.42	20.712
672.75	18.126
673.07	20.299
673.39	21.726
673.72	21.644
674.04	20.862
674.37	22.182
674.69	21.869
675.01	19.048
675.34	16.794
675.66	19.476
675.98	19.963
676.31	19.922
676.63	20.722
676.95	19.540
677.28	19.153
677.60	20.276
677.92	19.578
678.25	19.013
678.57	22.242
678.89	20.819
679.22	20.906
679.54	19.658
679.86	17.627
680.18	19.900
680.51	19.811
680.83	20.131
681.15	17.931
681.48	19.171
681.80	20.380
682.12	18.531
682.44	20.701
682.77	19.504
683.09	20.833
683.41	18.992
683.73	20.114
684.06	19.004
684.38	17.889
684.70	22.262
685.02	20.998
685.34	19.135
685.67	19.558
685.99	21.472
686.31	18.750
686.63	19.273
686.96	20.189
687.28	18.404
687.60	18.350
687.92	18.006
688.24	20.701
688.56	17.759
688.89	20.871
689.21	20.744
689.53	18.431
689.85	17.554
690.17	18.889
690.49	16.932
690.82	18.020
691.14	17.611
691.46	20.076
691.78	22.284
692.10	18.349
692.42	18.750
692.74	19.964
693.06	17.222
693.39	22.770
693.71	18.797
694.03	18.401
694.35	17.333
694.67	16.632
694.99	18.723
695.31	16.777
695.63	18.182
695.95	18.634
696.27	16.044
696.59	18.584
696.91	18.018
697.23	21.758
697.56	17.923
697.88	18.750
698.20	17.137
698.52	21.591
698.84	18.711
699.16	20.000
699.48	20.293
699.80	16.596
700.12	19.214
700.44	16.590
700.76	19.002
701.08	19.128
701.40	19.430
701.72	19.154
702.04	17.914
702.36	15.969
702.68	16.137
703.00	17.848
703.32	15.271
703.64	17.848
703.96	16.229
704.28	19.410
704.60	21.772
704.91	16.327
705.23	18.356
705.55	18.106
705.87	18.485
706.19	17.485
706.51	12.952
706.83	18.732
707.15	15.344
707.47	17.523
707.79	16.812
708.11	17.161
708.43	19.355
708.74	16.964
709.06	17.169
709.38	19.014
709.70	20.347
710.02	15.245
710.34	17.819
710.66	14.525
710.98	18.306
711.29	18.681
711.61	18.644
711.93	16.524
712.25	16.757
712.57	22.124
712.89	18.235
713.20	17.751
713.52	20.809
713.84	15.599
714.16	17.632
714.48	16.237
714.80	17.403
715.11	17.585
715.43	17.772
715.75	17.105
716.07	17.127
716.39	19.399
716.70	18.976
717.02	20.328
717.34	16.028
717.66	17.450
717.97	13.699
718.29	12.371
718.61	17.763
718.93	16.828
719.24	18.944
719.56	15.644
719.88	15.015
720.20	17.097
720.51	12.422
720.83	16.875
721.15	12.829
721.46	16.438
721.78	18.000
722.10	15.210
722.42	15.101
722.73	15.484
723.05	17.193
723.37	19.444
723.68	17.204
724.00	13.357
724.32	13.380
724.63	17.832
724.95	15.603
725.27	15.331
725.58	15.194
725.90	18.966
726.22	14.107
726.53	19.805
726.85	16.981
727.16	14.804
727.48	18.960
727.80	15.894
728.11	11.661
728.43	15.825
728.74	19.398
729.06	15.563
729.38	18.182
729.69	16.779
730.01	15.179
730.32	17.273
730.64	13.836
730.96	16.460
731.27	18.156
731.59	17.582
731.90	17.143
732.22	17.448
732.53	14.917
732.85	16.857
733.16	17.009
733.48	13.720
733.80	16.713
734.11	15.100
734.43	16.216
734.74	18.228
735.06	16.583
735.37	16.216
735.69	17.568
736.00	18.644
736.32	15.094
736.63	15.000
736.95	16.092
737.26	17.879
737.58	15.152
737.89	18.235
738.21	15.291
738.52	16.066
738.83	15.358
739.15	13.121
739.46	15.986
739.78	16.871
740.09	14.900
740.41	20.408
740.72	14.667
741.04	16.181
741.35	16.140
741.66	14.510
741.98	17.213
742.29	12.552
742.61	17.105
742.92	16.923
743.23	15.523
743.55	16.667
743.86	13.600
744.18	8.264
744.49	11.814
744.80	17.284
745.12	14.768
745.43	17.480
745.74	9.914
746.06	15.678
746.37	14.346
746.68	19.919
747.00	15.417
747.31	12.876
747.62	20.385
747.94	11.741
748.25	12.048
748.56	12.245
748.88	14.957
749.19	17.672
749.50	9.091
749.82	16.466
750.13	19.573
750.44	15.667
750.75	16.923
751.07	14.769
751.38	14.826
751.69	18.850
752.01	12.621
752.32	12.745
752.63	13.605
752.94	15.571
753.26	13.755
753.57	14.815
753.88	13.483
754.19	16.077
754.51	12.540
754.82	16.399
755.13	20.328
755.44	16.382
755.75	14.474
756.07	22.687
756.38	13.836
756.69	16.867
757.00	14.127
757.31	18.306
757.63	13.299
757.94	15.023
758.25	17.833
758.56	16.340
758.87	13.864
759.18	15.200
759.50	15.864
759.81	17.367
760.12	17.790
760.43	14.062
760.74	18.473
761.05	16.000
761.36	17.108
761.67	15.228
761.99	15.405
762.30	13.110
762.61	9.241
762.92	13.433
763.23	14.981
763.54	20.144
763.85	13.402
764.16	15.825
764.47	14.789
764.78	18.850
765.10	16.422
765.41	20.256
765.72	17.989
766.03	15.819
766.34	12.853
766.65	12.544
766.96	13.546
767.27	17.051
767.58	7.463
767.89	17.308
768.20	13.146
768.51	17.593
768.82	16.064
769.13	16.288
769.44	14.231
769.75	14.079
770.06	18.077
770.37	17.717
770.68	12.340
770.99	11.336
771.30	18.889
771.61	19.011
771.92	14.444
772.23	21.457
772.54	14.352
772.85	17.051
773.16	15.714
773.47	12.698
773.78	8.108
774.09	14.773
774.39	14.000
774.70	15.301
775.01	8.537
775.32	8.824
775.63	9.202
775.94	6.369
776.25	12.258
776.56	14.744
776.87	13.605
777.18	9.655
777.48	10.490
777.79	8.108
778.10	7.353
778.41	18.056
778.72	17.241
779.03	8.025
779.34	13.333
779.65	9.326
779.95	20.556
780.26	15.341
780.57	14.194
780.88	17.391
781.19	11.613
781.50	17.647
781.80	17.204
782.11	10.582
782.42	7.071
782.73	7.186
783.04	12.291
783.34	9.091
783.65	11.765
783.96	11.180
784.27	12.500
784.57	11.258
784.88	6.429
785.19	12.598
785.50	8.661
785.81	13.534
786.11	10.769
786.42	2.878
786.73	3.597
787.04	12.030
787.34	8.197
787.65	12.000
787.96	12.687
788.26	17.483
788.57	11.888
788.88	13.158
789.19	18.301
789.49	15.068
789.80	9.220
790.11	14.173
790.41	11.719
790.72	4.237
791.03	-5.825
791.33	16.522
791.64	12.281
791.95	1.786
792.25	4.762
792.56	10.714
792.87	-10.417
793.17	12.500
793.48	-8.333
793.79	-9.639
794.09	3.670
794.40	7.339
794.70	18.367
795.01	7.143
795.32	9.589
795.62	11.268
795.93	5.303
796.23	9.836
796.54	-0.893
796.85	5.319
797.15	-1.087
797.46	-5.479
797.76	-2.500
798.07	8.696
798.37	4.124
798.68	9.091
798.99	4.598
799.29	4.494
799.60	0.000
799.90	13.253
800.21	-7.692
800.51	-14.925
800.82	-1.471
801.12	-4.110
801.43	-4.412
801.73	0.000
802.04	-3.030
802.34	-6.667
802.65	3.390
802.95	2.985
803.26	-16.949
803.56	-6.849
803.87	8.571
804.17	-5.479
804.48	-29.825
804.78	-9.722
805.09	-18.966
805.39	6.757
805.70	-7.042
806.00	1.220
806.30	-2.410
806.61	-1.370
806.91	10.577
807.22	6.667
807.52	0.000
807.83	2.778
808.13	9.639
808.43	11.236
808.74	-6.250
809.04	-17.647
809.35	5.333
809.65	-5.714
809.95	4.110
810.26	-26.316
810.56	-6.897
810.86	7.353
811.17	-7.018
811.47	1.639
811.77	-11.111
812.08	-1.695
812.38	3.333
812.69	18.966
812.99	-22.642
813.29	-10.256
813.59	-4.000
813.90	5.263
814.20	-12.727
814.50	9.859
814.81	17.949
815.11	-9.836
815.41	-7.463
815.72	10.345
816.02	19.643
816.32	-2.222
816.62	-4.545
816.93	-26.667
817.23	3.704
817.53	-6.383
817.84	4.762
818.14	-11.765
818.44	-12.245
818.74	-15.556
819.04	-28.205
819.35	-31.429
819.65	-30.769
819.95	-1.887
820.25	-28.889
820.56	-35.714
820.86	-15.625
821.16	-25.641
821.46	-6.977
821.76	-20.000
822.07	-3.571
822.37	-21.739
822.67	2.128
822.97	-43.243
823.27	-2.500
823.57	8.163
823.88	13.333
824.18	15.000
824.48	-6.667
824.78	-56.000
825.08	-9.091
825.38	-4.444
825.69	-12.766
825.99	-25.000
826.29	-57.143
826.59	-5.128
826.89	-20.930
827.19	-6.000
827.49	20.588
827.79	2.083
828.09	2.703
828.39	-26.667
828.70	2.439
829.00	-9.302
829.30	-42.857
829.60	-17.647
829.90	19.565
830.20	-37.143
830.50	-6.897
830.80	-72.222
831.10	-34.615
831.40	-38.235
831.70	-47.619
832.00	16.129
832.30	-82.353
832.60	0.000
832.90	-92.308
833.20	-52.632
833.50	-40.000
833.80	-31.579
834.10	-128.571
834.40	-2.778
834.70	-28.125
835.00	-45.714
835.30	0.000
835.60	-33.333
835.90	-36.000
836.20	-77.273
836.50	-16.000
836.80	-9.091
837.10	-40.741
837.40	-22.222
837.70	-118.750
838.00	-14.286
838.30	-47.826
838.60	-3.448
838.90	-50.000
839.19	-78.261
839.49	-150.000
839.79	-4.348
840.09	-87.500
840.39	-55.000
840.69	-32.258
840.99	-17.857
841.29	-46.667
841.59	-63.158
841.88	28.205
842.18	-23.077
842.48	-110.000
842.78	-45.000
843.08	-16.667
843.38	-25.806
843.68	-66.667
843.97	0.000
844.27	-68.750
844.57	-63.158
844.87	-80.000
845.17	-33.333
845.47	-19.048
845.76	-42.857
846.06	-144.444
846.36	-58.824
846.66	-3.846
846.96	-66.667
847.25	-41.176
847.55	-13.043
847.85	-20.000
848.15	-5.882
848.44	-90.909
848.74	-52.381
849.04	-37.500
849.34	-50.000
849.63	-4.348
849.93	1000.000
850.23	-40.000
850.53	-42.308
850.82	-100.000
851.12	4.545
851.42	-63.636
851.71	15.385
852.01	-15.000
852.31	7.692
852.61	-36.842
852.90	-58.333
853.20	-50.000
853.50	-211.111
853.79	-80.952
854.09	-50.000
854.39	-125.000
854.68	9.677
854.98	-50.000
855.28	-44.444
855.57	17.857
855.87	4.000
856.17	-18.182
856.46	-33.333
856.76	-50.000
857.05	-47.826
857.35	-16.667
857.65	-107.692
857.94	-4.762
858.24	3.704
858.53	-43.478
858.83	-82.353
859.13	-29.412
859.42	-52.941
859.72	-28.571
860.01	-40.000
860.31	-244.444
860.60	-70.000
860.90	-86.667
861.20	-11.111
861.49	-76.923
861.79	13.333
862.08	-69.231
862.38	25.000
862.67	-52.941
862.97	-25.000
863.26	-66.667
863.56	20.000
863.85	-100.000
864.15	-27.778
864.44	-133.333
864.74	-7.143
865.03	-43.750
865.33	-80.000
865.62	-12.903
865.92	-18.182
866.21	-13.043
866.51	7.143
866.80	-140.000
867.10	-91.667
867.39	-116.667
867.69	2100.000
867.98	-71.429
868.27	-47.059
868.57	-1400.000
868.86	-140.000
869.16	-23.810
869.45	-20.833
869.75	-118.182
870.04	-285.714
870.33	-33.333
870.63	-285.714
870.92	-50.000
871.22	-212.500
871.51	-200.000
871.80	-833.333
872.10	-700.000
>>>>>End Processed Spectral Data<<<<<
