SpectraSuite Data File
++++++++++++++++++++++++++++++++++++
Date: Thu May 14 14:57:40 PDT 2015
User: schluterlab
Dark Spectrum Present: Yes
Reference Spectrum Present: Yes
Number of Sampled Component Spectra: 1
Spectrometers: USB2E3373
Integration Time (usec): 3000 (USB2E3373)
Spectra Averaged: 3 (USB2E3373)
Boxcar Smoothing: 0 (USB2E3373)
Correct for Electrical Dark: No (USB2E3373)
Strobe/Lamp Enabled: No (USB2E3373)
Correct for Detector Non-linearity: No (USB2E3373)
Correct for Stray Light: No (USB2E3373)
Number of Pixels in Processed Spectrum: 2048
>>>>>Begin Processed Spectral Data<<<<<
178.53	0.000
178.91	357.143
179.29	-3000.000
179.67	-2800.000
180.04	271.429
180.42	220.000
180.80	420.000
181.18	-2100.000
181.56	-1100.000
181.94	600.000
182.31	-600.000
182.69	833.333
183.07	-900.000
183.45	575.000
183.83	-250.000
184.20	-633.333
184.58	2200.000
184.96	-750.000
185.34	-277.778
185.72	-320.000
186.09	355.556
186.47	1250.000
186.85	640.000
187.23	-277.778
187.61	-1800.000
187.98	320.000
188.36	525.000
188.74	-675.000
189.12	-600.000
189.49	-68.750
189.87	-212.500
190.25	-144.444
190.63	-320.000
191.00	-311.111
191.38	0.000
191.76	-600.000
192.14	-366.667
192.51	1200.000
192.89	-183.333
193.27	0.000
193.65	-171.429
194.02	-2900.000
194.40	-271.429
194.78	371.429
195.15	0.000
195.53	-109.091
195.91	0.000
196.29	-425.000
196.66	-100.000
197.04	-1300.000
197.42	-314.286
197.79	-650.000
198.17	-150.000
198.55	-185.714
198.92	-133.333
199.30	-225.000
199.68	-163.636
200.05	-78.571
200.43	-1300.000
200.81	300.000
201.18	0.000
201.56	277.778
201.94	0.000
202.31	1033.333
202.69	-366.667
203.07	1800.000
203.44	-211.111
203.82	-325.000
204.19	-116.667
204.57	-366.667
204.95	-275.000
205.32	-2200.000
205.70	550.000
206.08	-216.667
206.45	-183.333
206.83	460.000
207.20	-466.667
207.58	-520.000
207.96	-450.000
208.33	-116.667
208.71	275.000
209.08	-200.000
209.46	0.000
209.84	483.333
210.21	1000.000
210.59	1250.000
210.96	800.000
211.34	-325.000
211.71	-325.000
212.09	-2300.000
212.46	0.000
212.84	1700.000
213.22	-420.000
213.59	-400.000
213.97	-250.000
214.34	-633.333
214.72	433.333
215.09	-725.000
215.47	0.000
215.84	271.429
216.22	950.000
216.59	-200.000
216.97	-380.000
217.34	-350.000
217.72	-225.000
218.09	-625.000
218.47	-400.000
218.84	0.000
219.22	400.000
219.59	-129.412
219.97	-65.000
220.34	1600.000
220.72	-211.111
221.09	-100.000
221.47	-600.000
221.84	-170.000
222.22	-257.143
222.59	0.000
222.97	-262.500
223.34	-540.000
223.72	-2000.000
224.09	-400.000
224.46	-600.000
224.84	-300.000
225.21	-428.571
225.59	-600.000
225.96	-650.000
226.34	-50.000
226.71	466.667
227.08	-1200.000
227.46	-80.000
227.83	-550.000
228.21	-57.895
228.58	237.500
228.95	1300.000
229.33	-158.333
229.70	-180.000
230.08	-36.842
230.45	230.000
230.82	-833.333
231.20	-157.143
231.57	-158.333
231.95	-145.455
232.32	-118.182
232.69	-45.000
233.07	-425.000
233.44	-129.412
233.81	-230.000
234.19	-88.889
234.56	-45.455
234.93	-27.586
235.31	-57.895
235.68	-122.222
236.05	-120.000
236.43	-30.769
236.80	-16.000
237.17	-22.222
237.55	-45.455
237.92	-250.000
238.29	-41.935
238.67	-36.364
239.04	-44.444
239.41	-66.667
239.79	-41.304
240.16	-42.593
240.53	-56.522
240.91	-66.667
241.28	-34.426
241.65	-25.373
242.02	-17.568
242.40	-52.308
242.77	-18.667
243.14	-23.171
243.51	-40.789
243.89	-23.077
244.26	-15.842
244.63	-5.882
245.00	-17.757
245.38	-21.053
245.75	-30.088
246.12	-12.698
246.49	-19.380
246.87	-12.143
247.24	-10.596
247.61	-7.237
247.98	-16.107
248.36	-14.815
248.73	-16.564
249.10	-12.568
249.47	-4.975
249.84	-2.094
250.22	-12.435
250.59	-10.000
250.96	-2.727
251.33	-14.286
251.70	-8.547
252.08	-9.583
252.45	-4.098
252.82	-7.851
253.19	-9.766
253.56	-8.745
253.94	-7.308
254.31	-9.091
254.68	-4.196
255.05	-2.606
255.42	-6.122
255.79	-5.825
256.16	-4.305
256.54	-7.616
256.91	-4.918
257.28	-6.885
257.65	-8.280
258.02	-8.555
258.39	-4.558
258.76	-3.058
259.14	-3.736
259.51	-7.205
259.88	-7.932
260.25	-5.556
260.62	-6.301
260.99	-2.186
261.36	-3.753
261.73	-6.101
262.10	-5.220
262.47	-5.094
262.85	-2.020
263.22	-6.234
263.59	-8.684
263.96	-4.348
264.33	-8.951
264.70	-6.173
265.07	-3.103
265.44	0.454
265.81	-3.241
266.18	-2.721
266.55	-2.902
266.92	-5.467
267.29	-2.407
267.66	-3.548
268.03	-4.148
268.40	-3.967
268.77	-5.467
269.14	-3.965
269.51	-3.509
269.88	-2.049
270.25	-1.207
270.62	-3.165
270.99	-2.222
271.36	-0.792
271.73	-1.179
272.10	-2.204
272.47	-2.806
272.84	-3.414
273.21	-3.006
273.58	-4.032
273.95	-3.654
274.32	-4.563
274.69	-4.449
275.06	-0.366
275.43	-3.882
275.80	-0.176
276.17	-3.889
276.54	-2.985
276.91	-3.578
277.28	-3.074
277.65	-3.052
278.02	-3.125
278.39	-4.891
278.76	-5.097
279.13	-2.837
279.50	-1.890
279.87	-1.968
280.23	-5.458
280.60	-1.186
280.97	-1.809
281.34	-4.244
281.71	-1.354
282.08	-3.322
282.45	-3.437
282.82	-2.198
283.19	-4.523
283.56	-4.262
283.92	-1.952
284.29	-1.896
284.66	-1.149
285.03	-4.327
285.40	-2.164
285.77	-2.477
286.14	-0.458
286.51	-2.435
286.87	-1.896
287.24	-1.807
287.61	-3.737
287.98	-2.266
288.35	-3.107
288.72	-1.331
289.08	-2.343
289.45	-2.515
289.82	-2.560
290.19	-2.155
290.56	-1.549
290.93	-1.997
291.29	-1.928
291.66	-1.791
292.03	-1.357
292.40	-1.497
292.77	-0.943
293.13	-0.406
293.50	-2.365
293.87	-2.148
294.24	-1.600
294.60	-0.885
294.97	-2.148
295.34	-0.640
295.71	-1.387
296.08	-1.550
296.44	-1.225
296.81	-0.609
297.18	-1.121
297.55	-1.179
297.91	-2.017
298.28	-2.962
298.65	-0.713
299.02	-1.063
299.38	-0.915
299.75	-0.701
300.12	-1.736
300.48	-1.498
300.85	-0.562
301.22	0.112
301.59	-1.484
301.95	-0.113
302.32	0.667
302.69	-1.314
303.05	-0.218
303.42	-0.887
303.79	0.104
304.15	0.736
304.52	-1.163
304.89	0.000
305.25	-0.207
305.62	-1.881
305.99	0.000
306.35	0.202
306.72	0.414
307.09	-1.320
307.45	-0.311
307.82	0.000
308.19	0.101
308.55	0.868
308.92	0.389
309.29	-0.287
309.65	0.000
310.02	0.891
310.38	0.000
310.75	0.680
311.12	1.726
311.48	0.587
311.85	1.045
312.22	1.518
312.58	1.127
312.95	0.765
313.31	1.716
313.68	2.106
314.05	3.071
314.41	2.823
314.78	1.907
315.14	2.178
315.51	4.247
315.87	2.790
316.24	4.292
316.61	4.529
316.97	3.439
317.34	3.351
317.70	4.716
318.07	5.026
318.43	4.932
318.80	7.191
319.16	4.979
319.53	4.799
319.89	6.135
320.26	7.117
320.62	5.851
320.99	7.110
321.35	7.579
321.72	9.023
322.08	8.206
322.45	8.943
322.81	10.108
323.18	10.619
323.54	11.293
323.91	10.765
324.27	11.360
324.64	12.846
325.00	13.018
325.37	14.414
325.73	14.050
326.10	16.221
326.46	16.368
326.83	17.294
327.19	18.110
327.56	18.103
327.92	19.040
328.29	19.113
328.65	19.849
329.01	21.489
329.38	21.567
329.74	23.373
330.11	23.031
330.47	22.999
330.84	23.428
331.20	23.333
331.56	24.177
331.93	24.686
332.29	25.593
332.66	24.751
333.02	24.037
333.38	24.832
333.75	26.010
334.11	26.188
334.48	26.320
334.84	27.528
335.20	26.868
335.57	26.813
335.93	26.777
336.29	26.206
336.66	27.334
337.02	26.923
337.38	28.231
337.75	25.702
338.11	28.175
338.47	28.453
338.84	27.073
339.20	26.032
339.56	26.524
339.93	26.765
340.29	27.053
340.65	26.521
341.02	28.093
341.38	27.890
341.74	27.603
342.11	26.468
342.47	26.450
342.83	27.456
343.20	27.964
343.56	27.426
343.92	28.343
344.28	26.797
344.65	29.690
345.01	28.003
345.37	27.760
345.73	26.578
346.10	28.471
346.46	28.165
346.82	28.090
347.19	26.814
347.55	28.983
347.91	27.712
348.27	28.832
348.63	27.418
349.00	27.890
349.36	27.584
349.72	27.232
350.08	28.975
350.45	26.996
350.81	27.677
351.17	28.797
351.53	28.961
351.89	27.259
352.26	28.134
352.62	28.209
352.98	29.542
353.34	26.811
353.70	28.197
354.07	28.018
354.43	28.626
354.79	29.319
355.15	28.403
355.51	28.655
355.87	27.375
356.24	28.137
356.60	27.494
356.96	29.207
357.32	28.401
357.68	28.111
358.04	27.844
358.40	28.881
358.77	28.070
359.13	28.582
359.49	27.955
359.85	27.774
360.21	29.125
360.57	28.571
360.93	28.984
361.29	29.263
361.66	29.037
362.02	29.715
362.38	28.461
362.74	28.841
363.10	29.711
363.46	29.778
363.82	29.688
364.18	29.346
364.54	29.115
364.90	29.097
365.26	28.621
365.62	29.600
365.98	29.272
366.35	29.060
366.71	29.388
367.07	30.785
367.43	30.138
367.79	29.529
368.15	31.371
368.51	29.499
368.87	30.960
369.23	30.133
369.59	31.762
369.95	29.615
370.31	30.587
370.67	30.605
371.03	31.302
371.39	29.819
371.75	31.155
372.11	29.268
372.47	29.790
372.83	30.825
373.19	31.488
373.55	31.233
373.91	30.948
374.27	30.660
374.63	32.138
374.99	30.968
375.35	31.818
375.71	31.935
376.07	31.440
376.42	32.368
376.78	31.635
377.14	32.502
377.50	32.005
377.86	32.882
378.22	32.275
378.58	32.878
378.94	32.042
379.30	32.396
379.66	33.039
380.02	33.295
380.38	33.353
380.74	33.465
381.09	32.520
381.45	33.068
381.81	34.602
382.17	32.957
382.53	33.801
382.89	32.167
383.25	33.705
383.61	33.565
383.97	32.862
384.32	33.612
384.68	33.295
385.04	34.991
385.40	34.708
385.76	34.408
386.12	33.573
386.48	35.118
386.83	34.565
387.19	33.951
387.55	33.568
387.91	34.589
388.27	34.642
388.62	33.333
388.98	33.897
389.34	34.649
389.70	35.328
390.06	34.991
390.42	34.398
390.77	34.979
391.13	34.918
391.49	35.507
391.85	35.455
392.20	35.469
392.56	34.731
392.92	35.333
393.28	35.268
393.64	35.475
393.99	36.374
394.35	36.449
394.71	35.090
395.07	35.210
395.42	35.751
395.78	37.112
396.14	35.651
396.50	36.461
396.85	35.540
397.21	35.385
397.57	36.278
397.92	36.598
398.28	35.470
398.64	36.213
399.00	35.759
399.35	35.550
399.71	35.924
400.07	37.451
400.42	36.671
400.78	36.574
401.14	35.800
401.49	36.669
401.85	35.640
402.21	36.790
402.57	37.031
402.92	35.934
403.28	35.714
403.63	35.800
403.99	35.986
404.35	35.247
404.70	35.921
405.06	35.707
405.42	36.358
405.77	37.895
406.13	37.007
406.49	37.387
406.84	36.898
407.20	37.004
407.55	35.978
407.91	37.775
408.27	36.160
408.62	36.824
408.98	36.854
409.34	36.305
409.69	37.083
410.05	38.628
410.40	36.659
410.76	37.072
411.11	37.522
411.47	37.654
411.83	37.272
412.18	37.410
412.54	37.285
412.89	36.962
413.25	37.246
413.60	37.967
413.96	38.578
414.31	37.507
414.67	38.402
415.03	37.969
415.38	38.020
415.74	37.324
416.09	39.235
416.45	37.570
416.80	37.515
417.16	38.250
417.51	37.547
417.87	39.424
418.22	39.162
418.58	38.538
418.93	39.290
419.29	38.656
419.64	38.355
420.00	38.398
420.35	39.865
420.71	39.288
421.06	39.678
421.42	38.647
421.77	39.634
422.12	39.271
422.48	40.348
422.83	41.785
423.19	41.273
423.54	42.035
423.90	41.248
424.25	40.853
424.61	41.332
424.96	40.692
425.31	41.932
425.67	41.868
426.02	42.114
426.38	42.480
426.73	41.853
427.09	43.022
427.44	41.016
427.79	42.123
428.15	42.865
428.50	44.326
428.85	43.226
429.21	43.564
429.56	42.547
429.92	42.801
430.27	43.325
430.62	43.136
430.98	44.319
431.33	44.379
431.68	43.487
432.04	44.997
432.39	44.724
432.74	45.091
433.10	45.809
433.45	43.924
433.80	44.957
434.16	44.886
434.51	46.917
434.86	46.851
435.22	46.227
435.57	47.229
435.92	46.633
436.28	47.270
436.63	46.750
436.98	46.216
437.34	46.449
437.69	46.450
438.04	48.123
438.39	46.065
438.75	47.427
439.10	47.939
439.45	45.836
439.81	48.475
440.16	47.882
440.51	47.715
440.86	47.582
441.22	46.892
441.57	48.585
441.92	47.818
442.27	49.293
442.63	48.932
442.98	48.559
443.33	49.290
443.68	49.207
444.03	50.094
444.39	50.532
444.74	49.668
445.09	48.961
445.44	50.211
445.79	50.335
446.15	50.771
446.50	49.871
446.85	50.146
447.20	50.967
447.55	49.738
447.91	49.476
448.26	50.476
448.61	50.903
448.96	51.288
449.31	51.326
449.66	50.218
450.02	52.426
450.37	50.400
450.72	51.023
451.07	51.481
451.42	50.953
451.77	51.140
452.12	52.596
452.47	51.337
452.83	53.491
453.18	51.956
453.53	51.407
453.88	51.022
454.23	52.316
454.58	52.873
454.93	51.517
455.28	53.341
455.63	51.052
455.98	52.458
456.34	52.532
456.69	52.381
457.04	52.955
457.39	52.550
457.74	52.237
458.09	53.103
458.44	52.856
458.79	52.656
459.14	52.596
459.49	54.499
459.84	53.568
460.19	52.971
460.54	54.003
460.89	54.526
461.24	53.506
461.59	54.289
461.94	53.851
462.29	53.639
462.64	53.168
462.99	54.175
463.34	54.121
463.69	52.872
464.04	53.530
464.39	53.587
464.74	52.395
465.09	53.287
465.44	53.326
465.79	54.098
466.14	53.622
466.49	54.158
466.84	54.821
467.19	54.624
467.54	52.115
467.89	53.908
468.24	54.072
468.59	53.735
468.94	53.730
469.29	53.929
469.64	53.020
469.99	54.175
470.34	52.723
470.68	54.887
471.03	54.813
471.38	53.761
471.73	54.486
472.08	55.584
472.43	54.244
472.78	55.605
473.13	55.563
473.48	54.683
473.83	55.659
474.17	55.041
474.52	55.442
474.87	53.931
475.22	54.648
475.57	53.738
475.92	54.405
476.27	54.526
476.61	53.790
476.96	54.171
477.31	54.752
477.66	55.929
478.01	54.143
478.36	54.038
478.70	54.926
479.05	56.237
479.40	56.022
479.75	55.139
480.10	54.856
480.45	55.469
480.79	55.692
481.14	54.412
481.49	55.157
481.84	55.744
482.19	55.570
482.53	55.750
482.88	56.402
483.23	55.136
483.58	54.803
483.92	54.965
484.27	53.514
484.62	53.795
484.97	55.132
485.31	54.629
485.66	51.175
486.01	53.149
486.36	55.824
486.70	58.687
487.05	59.806
487.40	57.511
487.75	55.751
488.09	54.382
488.44	53.884
488.79	53.963
489.13	53.621
489.48	53.903
489.83	54.769
490.17	54.638
490.52	54.475
490.87	54.399
491.22	56.066
491.56	55.290
491.91	54.950
492.26	55.128
492.60	54.700
492.95	55.551
493.30	55.356
493.64	54.577
493.99	55.175
494.34	55.618
494.68	54.218
495.03	55.463
495.37	56.236
495.72	55.918
496.07	55.521
496.41	54.397
496.76	55.713
497.11	55.414
497.45	55.891
497.80	55.398
498.14	54.694
498.49	55.239
498.84	55.073
499.18	54.791
499.53	55.516
499.87	56.000
500.22	55.031
500.56	55.466
500.91	56.018
501.26	55.182
501.60	54.750
501.95	55.493
502.29	55.375
502.64	55.750
502.98	54.357
503.33	54.384
503.67	55.648
504.02	55.560
504.36	56.524
504.71	55.168
505.06	54.934
505.40	54.662
505.75	54.781
506.09	55.157
506.44	55.571
506.78	55.688
507.13	57.031
507.47	55.898
507.82	54.830
508.16	55.449
508.51	54.946
508.85	56.164
509.19	55.377
509.54	56.532
509.88	54.832
510.23	57.115
510.57	55.824
510.92	55.201
511.26	54.882
511.61	54.322
511.95	55.100
512.30	55.884
512.64	54.473
512.98	55.428
513.33	54.889
513.67	55.686
514.02	55.084
514.36	55.703
514.70	55.104
515.05	55.631
515.39	55.013
515.74	54.984
516.08	56.260
516.42	56.201
516.77	55.783
517.11	55.338
517.46	55.620
517.80	55.746
518.14	56.148
518.49	55.694
518.83	53.858
519.17	54.066
519.52	55.556
519.86	55.174
520.20	55.059
520.55	54.491
520.89	56.025
521.23	54.997
521.58	56.554
521.92	54.674
522.26	53.666
522.61	55.208
522.95	54.960
523.29	56.322
523.64	53.475
523.98	54.649
524.32	55.759
524.66	56.688
525.01	54.360
525.35	54.509
525.69	55.278
526.04	54.018
526.38	54.368
526.72	53.922
527.06	54.721
527.41	53.469
527.75	55.701
528.09	54.368
528.43	53.464
528.78	55.029
529.12	54.071
529.46	54.356
529.80	54.691
530.15	55.072
530.49	54.626
530.83	54.250
531.17	53.226
531.51	53.971
531.86	54.207
532.20	54.024
532.54	53.082
532.88	54.182
533.22	53.035
533.57	53.260
533.91	53.255
534.25	53.420
534.59	54.943
534.93	53.198
535.27	53.577
535.62	54.861
535.96	53.632
536.30	54.113
536.64	54.234
536.98	53.813
537.32	52.654
537.66	53.400
538.01	51.903
538.35	53.045
538.69	53.966
539.03	54.016
539.37	53.298
539.71	53.574
540.05	54.556
540.39	52.995
540.73	52.641
541.07	53.525
541.42	51.388
541.76	51.186
542.10	53.559
542.44	53.532
542.78	52.311
543.12	51.549
543.46	52.198
543.80	51.739
544.14	52.843
544.48	52.482
544.82	53.262
545.16	53.309
545.50	53.206
545.84	51.072
546.18	53.086
546.52	52.675
546.86	51.824
547.20	52.990
547.54	52.122
547.88	52.080
548.22	51.170
548.56	50.790
548.90	52.358
549.24	51.793
549.58	52.744
549.92	51.658
550.26	51.909
550.60	51.755
550.94	52.652
551.28	51.023
551.62	52.089
551.96	50.162
552.30	51.689
552.64	52.645
552.98	52.090
553.32	52.926
553.66	53.569
554.00	52.774
554.34	51.351
554.68	52.808
555.02	52.891
555.36	52.926
555.69	51.249
556.03	52.081
556.37	52.879
556.71	52.822
557.05	51.693
557.39	51.294
557.73	51.321
558.07	51.192
558.41	51.894
558.75	50.980
559.08	51.775
559.42	50.617
559.76	50.678
560.10	50.234
560.44	50.792
560.78	51.875
561.12	52.032
561.45	52.129
561.79	50.977
562.13	52.002
562.47	50.678
562.81	50.127
563.15	50.821
563.48	50.777
563.82	51.632
564.16	49.667
564.50	51.311
564.84	51.032
565.17	50.706
565.51	48.964
565.85	50.594
566.19	49.539
566.52	51.200
566.86	50.255
567.20	50.136
567.54	50.133
567.88	51.427
568.21	50.642
568.55	51.319
568.89	50.159
569.23	50.106
569.56	50.293
569.90	50.249
570.24	50.927
570.57	50.160
570.91	49.969
571.25	49.176
571.59	49.819
571.92	49.600
572.26	49.709
572.60	49.713
572.93	48.928
573.27	48.469
573.61	48.624
573.95	48.531
574.28	48.820
574.62	48.749
574.96	48.147
575.29	48.182
575.63	48.764
575.97	48.479
576.30	47.126
576.64	48.199
576.98	48.155
577.31	48.182
577.65	48.638
577.98	48.532
578.32	48.189
578.66	47.644
578.99	48.106
579.33	47.688
579.67	47.189
580.00	46.820
580.34	46.924
580.67	46.911
581.01	47.447
581.35	47.652
581.68	47.613
582.02	47.704
582.35	48.602
582.69	48.666
583.02	48.514
583.36	47.731
583.70	46.898
584.03	46.460
584.37	46.433
584.70	45.966
585.04	46.036
585.37	46.885
585.71	47.033
586.04	47.248
586.38	47.400
586.72	46.979
587.05	47.301
587.39	47.794
587.72	48.134
588.06	47.292
588.39	47.249
588.73	46.614
589.06	47.319
589.40	47.296
589.73	47.108
590.07	46.054
590.40	46.518
590.73	46.554
591.07	46.649
591.40	46.501
591.74	46.065
592.07	46.935
592.41	45.899
592.74	46.255
593.08	46.752
593.41	47.507
593.75	47.213
594.08	47.289
594.41	47.308
594.75	46.098
595.08	45.828
595.42	47.370
595.75	46.367
596.09	47.103
596.42	46.363
596.75	45.735
597.09	46.020
597.42	45.967
597.75	45.668
598.09	45.000
598.42	46.643
598.76	45.969
599.09	45.710
599.42	45.391
599.76	45.229
600.09	46.213
600.42	45.612
600.76	45.641
601.09	45.105
601.42	45.280
601.76	45.172
602.09	45.104
602.42	44.348
602.76	44.945
603.09	44.567
603.42	45.376
603.76	44.926
604.09	45.422
604.42	45.101
604.76	44.292
605.09	44.475
605.42	43.860
605.75	43.923
606.09	44.905
606.42	44.874
606.75	43.703
607.09	44.547
607.42	43.699
607.75	44.431
608.08	44.002
608.42	43.329
608.75	43.532
609.08	43.803
609.41	44.993
609.75	44.821
610.08	45.119
610.41	42.863
610.74	43.655
611.07	44.405
611.41	43.677
611.74	44.480
612.07	43.291
612.40	43.774
612.73	44.499
613.07	43.325
613.40	43.600
613.73	42.610
614.06	43.474
614.39	43.392
614.72	43.086
615.06	41.675
615.39	42.871
615.72	43.365
616.05	43.468
616.38	44.097
616.71	42.581
617.05	42.652
617.38	42.536
617.71	42.549
618.04	42.742
618.37	44.372
618.70	42.930
619.03	43.489
619.36	42.972
619.69	42.409
620.03	42.938
620.36	42.270
620.69	42.566
621.02	42.323
621.35	43.106
621.68	43.384
622.01	42.135
622.34	41.004
622.67	42.955
623.00	41.296
623.33	42.933
623.66	43.126
623.99	41.540
624.32	43.340
624.65	41.763
624.99	42.848
625.32	42.195
625.65	42.481
625.98	41.492
626.31	42.169
626.64	42.418
626.97	41.110
627.30	40.319
627.63	41.785
627.96	42.868
628.29	41.089
628.62	40.638
628.95	42.156
629.28	41.461
629.61	40.657
629.94	40.669
630.26	41.695
630.59	42.228
630.92	40.606
631.25	42.755
631.58	42.655
631.91	41.050
632.24	41.114
632.57	40.512
632.90	39.819
633.23	41.429
633.56	40.918
633.89	40.496
634.22	41.372
634.55	40.814
634.88	39.935
635.20	40.474
635.53	41.582
635.86	39.545
636.19	40.297
636.52	39.557
636.85	40.245
637.18	38.046
637.51	41.075
637.83	41.196
638.16	40.783
638.49	40.023
638.82	40.023
639.15	39.519
639.48	40.993
639.81	39.954
640.13	41.932
640.46	38.182
640.79	38.358
641.12	38.509
641.45	38.645
641.77	41.592
642.10	38.451
642.43	40.559
642.76	40.379
643.09	38.356
643.41	37.115
643.74	39.862
644.07	41.931
644.40	38.614
644.73	36.575
645.05	38.473
645.38	39.281
645.71	37.390
646.04	39.455
646.36	38.832
646.69	38.344
647.02	38.838
647.35	40.305
647.67	39.130
648.00	39.650
648.33	38.438
648.66	38.516
648.98	37.415
649.31	38.430
649.64	39.841
649.96	38.196
650.29	34.910
650.62	36.634
650.94	35.886
651.27	35.180
651.60	35.819
651.92	36.322
652.25	38.350
652.58	33.838
652.90	35.901
653.23	38.592
653.56	37.090
653.88	37.921
654.21	35.352
654.54	35.116
654.86	37.394
655.19	34.504
655.52	37.829
655.84	40.322
656.17	47.485
656.49	65.249
656.82	69.568
657.15	52.996
657.47	39.267
657.80	28.176
658.13	21.601
658.45	27.317
658.78	31.549
659.10	30.141
659.43	28.905
659.75	27.604
660.08	26.835
660.41	27.295
660.73	29.190
661.06	31.865
661.38	33.493
661.71	33.276
662.03	34.921
662.36	35.063
662.68	35.460
663.01	35.575
663.33	36.295
663.66	35.714
663.98	33.077
664.31	38.086
664.63	35.260
664.96	33.757
665.28	31.579
665.61	35.140
665.93	34.821
666.26	34.588
666.58	34.871
666.91	35.514
667.23	32.762
667.56	33.925
667.88	36.400
668.21	33.203
668.53	32.432
668.86	32.024
669.18	34.420
669.50	35.388
669.83	33.400
670.15	36.614
670.48	37.500
670.80	34.608
671.13	29.868
671.45	32.283
671.77	34.087
672.10	32.000
672.42	33.819
672.75	33.333
673.07	33.881
673.39	31.895
673.72	31.376
674.04	32.931
674.37	31.306
674.69	31.041
675.01	33.143
675.34	31.870
675.66	32.397
675.98	31.157
676.31	34.961
676.63	33.460
676.95	34.866
677.28	32.460
677.60	29.724
677.92	35.701
678.25	32.724
678.57	32.384
678.89	33.618
679.22	32.230
679.54	30.940
679.86	28.644
680.18	32.338
680.51	29.717
680.83	30.606
681.15	30.690
681.48	33.679
681.80	30.052
682.12	31.993
682.44	31.553
682.77	29.433
683.09	34.470
683.41	30.620
683.73	29.981
684.06	30.627
684.38	29.517
684.70	33.034
685.02	32.014
685.34	29.285
685.67	30.126
685.99	31.748
686.31	29.070
686.63	29.384
686.96	29.495
687.28	29.479
687.60	30.976
687.92	28.939
688.24	30.050
688.56	28.793
688.89	30.127
689.21	30.920
689.53	28.235
689.85	29.389
690.17	30.370
690.49	28.486
690.82	27.921
691.14	28.138
691.46	29.063
691.78	29.834
692.10	29.725
692.42	29.107
692.74	28.675
693.06	25.926
693.39	30.171
693.71	28.383
694.03	29.926
694.35	26.095
694.67	28.953
694.99	28.298
695.31	27.815
695.63	28.788
695.95	28.364
696.27	27.033
696.59	27.876
696.91	28.829
697.23	30.549
697.56	26.884
697.88	28.598
698.20	31.262
698.52	30.682
698.84	29.106
699.16	27.347
699.48	30.335
699.80	27.021
700.12	26.638
700.44	26.498
700.76	26.128
701.08	25.908
701.40	26.684
701.72	28.358
702.04	29.144
702.36	24.607
702.68	25.917
703.00	27.384
703.32	27.586
703.64	25.428
703.96	26.492
704.28	26.044
704.60	25.316
704.91	22.959
705.23	29.315
705.55	25.905
705.87	26.970
706.19	25.460
706.51	25.301
706.83	27.089
707.15	25.132
707.47	26.869
707.79	27.729
708.11	24.576
708.43	25.591
708.74	26.562
709.06	24.826
709.38	26.995
709.70	28.040
710.02	25.065
710.34	25.532
710.66	23.184
710.98	26.230
711.29	23.901
711.61	25.989
711.93	27.066
712.25	22.432
712.57	27.434
712.89	24.412
713.20	22.485
713.52	26.590
713.84	26.184
714.16	25.526
714.48	25.000
714.80	25.974
715.11	23.622
715.43	24.403
715.75	22.632
716.07	22.099
716.39	24.863
716.70	21.687
717.02	23.934
717.34	19.512
717.66	21.477
717.97	21.233
718.29	22.337
718.61	25.329
718.93	22.654
719.24	18.323
719.56	23.620
719.88	24.024
720.20	22.581
720.51	22.050
720.83	23.125
721.15	19.408
721.46	21.233
721.78	18.000
722.10	22.006
722.42	20.805
722.73	19.677
723.05	21.404
723.37	20.486
723.68	24.014
724.00	19.495
724.32	16.549
724.63	19.580
724.95	21.277
725.27	23.345
725.58	16.961
725.90	21.724
726.22	21.630
726.53	22.403
726.85	21.069
727.16	24.169
727.48	25.688
727.80	21.192
728.11	19.435
728.43	19.865
728.74	19.064
729.06	20.199
729.38	25.000
729.69	21.141
730.01	21.429
730.32	19.697
730.64	21.069
730.96	18.944
731.27	24.860
731.59	21.703
731.90	18.442
732.22	20.573
732.53	19.613
732.85	19.429
733.16	21.114
733.48	17.683
733.80	19.499
734.11	18.519
734.43	22.703
734.74	26.582
735.06	20.352
735.37	21.892
735.69	21.892
736.00	20.621
736.32	19.677
736.63	19.167
736.95	20.690
737.26	19.697
737.58	21.515
737.89	20.294
738.21	17.125
738.52	15.738
738.83	23.549
739.15	19.504
739.46	20.748
739.78	22.393
740.09	16.332
740.41	21.283
740.72	23.333
741.04	18.770
741.35	19.298
741.66	16.863
741.98	15.984
742.29	18.410
742.61	19.298
742.92	20.000
743.23	20.578
743.55	18.605
743.86	13.200
744.18	15.702
744.49	15.612
744.80	18.930
745.12	18.565
745.43	21.138
745.74	15.948
746.06	20.339
746.37	18.143
746.68	19.919
747.00	19.167
747.31	21.459
747.62	22.692
747.94	21.053
748.25	17.671
748.56	15.918
748.88	16.667
749.19	20.690
749.50	13.853
749.82	20.080
750.13	22.420
750.44	22.000
750.75	20.308
751.07	22.154
751.38	21.767
751.69	18.850
752.01	16.828
752.32	20.261
752.63	20.408
752.94	16.263
753.26	11.152
753.57	12.963
753.88	13.858
754.19	19.614
754.51	15.434
754.82	17.685
755.13	21.639
755.44	20.478
755.75	22.368
756.07	18.209
756.38	17.610
756.69	21.687
757.00	16.343
757.31	16.667
757.63	18.159
757.94	19.484
758.25	18.510
758.56	20.261
758.87	20.000
759.18	17.600
759.50	20.397
759.81	18.487
760.12	18.329
760.43	20.052
760.74	19.704
761.05	15.750
761.36	18.072
761.67	16.244
761.99	15.676
762.30	14.939
762.61	13.531
762.92	13.433
763.23	17.978
763.54	15.827
763.85	16.495
764.16	16.162
764.47	15.493
764.78	16.933
765.10	14.663
765.41	19.744
765.72	17.989
766.03	16.102
766.34	16.928
766.65	12.892
766.96	17.928
767.27	14.286
767.58	13.930
767.89	18.750
768.20	17.371
768.51	13.426
768.82	19.277
769.13	17.424
769.44	8.846
769.75	13.718
770.06	13.462
770.37	17.323
770.68	16.596
770.99	12.955
771.30	19.630
771.61	17.110
771.92	10.370
772.23	16.599
772.54	12.037
772.85	17.051
773.16	11.905
773.47	10.582
773.78	7.568
774.09	7.386
774.39	14.500
774.70	10.929
775.01	4.878
775.32	5.882
775.63	6.748
775.94	2.548
776.25	9.677
776.56	12.821
776.87	17.007
777.18	6.897
777.48	7.692
777.79	7.432
778.10	4.412
778.41	0.694
778.72	4.828
779.03	8.025
779.34	12.727
779.65	15.026
779.95	17.222
780.26	9.091
780.57	7.097
780.88	15.942
781.19	14.194
781.50	12.941
781.80	11.828
782.11	14.286
782.42	9.091
782.73	6.587
783.04	12.849
783.34	7.879
783.65	5.229
783.96	9.317
784.27	11.310
784.57	9.272
784.88	0.000
785.19	8.661
785.50	-1.575
785.81	7.519
786.11	15.385
786.42	5.755
786.73	0.719
787.04	12.030
787.34	4.918
787.65	2.400
787.96	5.224
788.26	15.385
788.57	10.490
788.88	7.895
789.19	14.379
789.49	7.534
789.80	10.638
790.11	8.661
790.41	3.125
790.72	10.169
791.03	-2.913
791.33	8.696
791.64	13.158
791.95	6.250
792.25	-0.952
792.56	3.571
792.87	-10.417
793.17	9.821
793.48	-3.125
793.79	-8.434
794.09	-0.917
794.40	-1.835
794.70	7.483
795.01	2.597
795.32	11.644
795.62	10.563
795.93	3.030
796.23	1.639
796.54	-11.607
796.85	-8.511
797.15	1.087
797.46	-1.370
797.76	-7.500
798.07	-6.522
798.37	-10.309
798.68	-19.481
798.99	-2.299
799.29	-13.483
799.60	2.128
799.90	-14.458
800.21	-18.462
800.51	-22.388
800.82	-19.118
801.12	-30.137
801.43	-33.824
801.73	-25.424
802.04	-31.818
802.34	-18.333
802.65	-13.559
802.95	-8.955
803.26	-16.949
803.56	-9.589
803.87	0.000
804.17	-1.370
804.48	-40.351
804.78	-4.167
805.09	-31.034
805.39	1.351
805.70	-14.085
806.00	-4.878
806.30	-8.434
806.61	-16.438
806.91	4.808
807.22	3.333
807.52	-18.391
807.83	-5.556
808.13	-1.205
808.43	-7.865
808.74	-2.500
809.04	-35.294
809.35	-6.667
809.65	-7.143
809.95	0.000
810.26	-31.579
810.56	-17.241
810.86	-10.294
811.17	-12.281
811.47	-19.672
811.77	-17.778
812.08	-18.644
812.38	-16.667
812.69	-12.069
812.99	-33.962
813.29	-69.231
813.59	-36.000
813.90	-21.053
814.20	-25.455
814.50	0.000
814.81	-23.077
815.11	-8.197
815.41	-14.925
815.72	-1.724
816.02	-23.214
816.32	-22.222
816.62	-18.182
816.93	-35.556
817.23	-24.074
817.53	-29.787
817.84	-23.810
818.14	-20.588
818.44	-20.408
818.74	-22.222
819.04	-61.538
819.35	-68.571
819.65	-42.308
819.95	-7.547
820.25	-22.222
820.56	-14.286
820.86	-53.125
821.16	-48.718
821.46	-44.186
821.76	-44.000
822.07	-8.929
822.37	-26.087
822.67	-29.787
822.97	-48.649
823.27	-25.000
823.57	-18.367
823.88	-11.111
824.18	-12.500
824.48	-43.333
824.78	-16.000
825.08	-36.364
825.38	-4.444
825.69	-14.894
825.99	-22.222
826.29	-71.429
826.59	-51.282
826.89	-55.814
827.19	-10.000
827.49	-52.941
827.79	-18.750
828.09	-56.757
828.39	-80.000
828.70	-58.537
829.00	-41.860
829.30	-50.000
829.60	-35.294
829.90	-17.391
830.20	-37.143
830.50	-48.276
830.80	-111.111
831.10	-57.692
831.40	-20.588
831.70	-66.667
832.00	-25.806
832.30	-141.176
832.60	-62.500
832.90	-169.231
833.20	-68.421
833.50	-80.000
833.80	-47.368
834.10	-100.000
834.40	-19.444
834.70	-28.125
835.00	-62.857
835.30	-52.941
835.60	-63.333
835.90	-60.000
836.20	-113.636
836.50	-56.000
836.80	-36.364
837.10	-70.370
837.40	-37.037
837.70	-156.250
838.00	-42.857
838.30	-100.000
838.60	-31.034
838.90	-128.571
839.19	-100.000
839.49	-175.000
839.79	-78.261
840.09	-150.000
840.39	-85.000
840.69	-35.484
840.99	-53.571
841.29	-133.333
841.59	-89.474
841.88	-25.641
842.18	-84.615
842.48	-240.000
842.78	-75.000
843.08	-53.333
843.38	-45.161
843.68	-122.222
843.97	-20.588
844.27	-93.750
844.57	-126.316
844.87	-270.000
845.17	-73.333
845.47	-19.048
845.76	-109.524
846.06	-188.889
846.36	-100.000
846.66	-57.692
846.96	-160.000
847.25	-182.353
847.55	-47.826
847.85	-70.000
848.15	-111.765
848.44	-272.727
848.74	-95.238
849.04	-116.667
849.34	-137.500
849.63	-60.870
849.93	1200.000
850.23	-153.333
850.53	-38.462
850.82	-200.000
851.12	-9.091
851.42	-190.909
851.71	-146.154
852.01	-150.000
852.31	-200.000
852.61	-110.526
852.90	-150.000
853.20	-111.111
853.50	-333.333
853.79	-104.762
854.09	-86.364
854.39	-141.667
854.68	-35.484
854.98	-53.846
855.28	-116.667
855.57	-75.000
855.87	-80.000
856.17	-95.455
856.46	-22.222
856.76	-55.556
857.05	-104.348
857.35	-70.833
857.65	-153.846
857.94	-90.476
858.24	-48.148
858.53	-86.957
858.83	-105.882
859.13	-135.294
859.42	-76.471
859.72	-71.429
860.01	-125.000
860.31	-222.222
860.60	-140.000
860.90	-80.000
861.20	-122.222
861.49	-176.923
861.79	-36.667
862.08	-176.923
862.38	-21.875
862.67	-94.118
862.97	-100.000
863.26	-333.333
863.56	-250.000
863.85	-100.000
864.15	-122.222
864.44	-733.333
864.74	-150.000
865.03	-112.500
865.33	-250.000
865.62	-45.161
865.92	-59.091
866.21	-65.217
866.51	-50.000
866.80	-460.000
867.10	-150.000
867.39	-216.667
867.69	2500.000
867.98	-242.857
868.27	-41.176
868.57	-3500.000
868.86	-240.000
869.16	-104.762
869.45	-58.333
869.75	-54.545
870.04	-200.000
870.33	-141.667
870.63	-442.857
870.92	-475.000
871.22	-412.500
871.51	-172.727
871.80	-966.667
872.10	-900.000
>>>>>End Processed Spectral Data<<<<<
