SpectraSuite Data File
++++++++++++++++++++++++++++++++++++
Date: Thu May 14 14:35:58 PDT 2015
User: schluterlab
Dark Spectrum Present: Yes
Reference Spectrum Present: Yes
Number of Sampled Component Spectra: 1
Spectrometers: USB2E3373
Integration Time (usec): 3000 (USB2E3373)
Spectra Averaged: 3 (USB2E3373)
Boxcar Smoothing: 0 (USB2E3373)
Correct for Electrical Dark: No (USB2E3373)
Strobe/Lamp Enabled: No (USB2E3373)
Correct for Detector Non-linearity: No (USB2E3373)
Correct for Stray Light: No (USB2E3373)
Number of Pixels in Processed Spectrum: 2048
>>>>>Begin Processed Spectral Data<<<<<
178.53	0.000
178.91	-271.429
179.29	1400.000
179.67	1500.000
180.04	-0.000
180.42	-130.000
180.80	-120.000
181.18	900.000
181.56	2800.000
181.94	-425.000
182.31	700.000
182.69	-733.333
183.07	600.000
183.45	-375.000
183.83	233.333
184.20	666.667
184.58	-1800.000
184.96	400.000
185.34	255.556
185.72	400.000
186.09	-88.889
186.47	-450.000
186.85	-140.000
187.23	66.667
187.61	700.000
187.98	-320.000
188.36	-400.000
188.74	625.000
189.12	566.667
189.49	106.250
189.87	187.500
190.25	122.222
190.63	300.000
191.00	122.222
191.38	0.000
191.76	350.000
192.14	233.333
192.51	-850.000
192.89	416.667
193.27	0.000
193.65	257.143
194.02	1100.000
194.40	285.714
194.78	-114.286
195.15	0.000
195.53	181.818
195.91	0.000
196.29	500.000
196.66	153.846
197.04	600.000
197.42	300.000
197.79	550.000
198.17	100.000
198.55	300.000
198.92	133.333
199.30	300.000
199.68	145.455
200.05	150.000
200.43	1300.000
200.81	-71.429
201.18	0.000
201.56	88.889
201.94	0.000
202.31	-466.667
202.69	100.000
203.07	-1800.000
203.44	155.556
203.82	325.000
204.19	200.000
204.57	183.333
204.95	237.500
205.32	1400.000
205.70	-450.000
206.08	316.667
206.45	350.000
206.83	-180.000
207.20	300.000
207.58	300.000
207.96	333.333
208.33	366.667
208.71	-108.333
209.08	333.333
209.46	0.000
209.84	50.000
210.21	-600.000
210.59	-1000.000
210.96	-566.667
211.34	550.000
211.71	225.000
212.09	2000.000
212.46	0.000
212.84	-250.000
213.22	300.000
213.59	550.000
213.97	230.000
214.34	633.333
214.72	-116.667
215.09	225.000
215.47	0.000
215.84	-85.714
216.22	-400.000
216.59	360.000
216.97	280.000
217.34	500.000
217.72	300.000
218.09	525.000
218.47	200.000
218.84	0.000
219.22	-340.000
219.59	94.118
219.97	155.000
220.34	-0.000
220.72	188.889
221.09	161.538
221.47	433.333
221.84	200.000
222.22	114.286
222.59	0.000
222.97	200.000
223.34	280.000
223.72	600.000
224.09	425.000
224.46	225.000
224.84	420.000
225.21	157.143
225.59	175.000
225.96	625.000
226.34	92.308
226.71	-133.333
227.08	550.000
227.46	160.000
227.83	325.000
228.21	126.316
228.58	-250.000
228.95	-900.000
229.33	91.667
229.70	220.000
230.08	147.368
230.45	-140.000
230.82	466.667
231.20	114.286
231.57	175.000
231.95	200.000
232.32	209.091
232.69	90.000
233.07	250.000
233.44	123.529
233.81	140.000
234.19	127.778
234.56	127.273
234.93	100.000
235.31	126.316
235.68	200.000
236.05	90.000
236.43	134.615
236.80	124.000
237.17	88.889
237.55	75.758
237.92	110.000
238.29	61.290
238.67	29.545
239.04	69.444
239.41	38.095
239.79	63.043
240.16	53.704
240.53	26.087
240.91	35.294
241.28	37.705
241.65	62.687
242.02	39.189
242.40	24.615
242.77	33.333
243.14	24.390
243.51	15.789
243.89	30.769
244.26	38.614
244.63	24.510
245.00	27.103
245.38	27.193
245.75	20.354
246.12	27.778
246.49	21.705
246.87	18.571
247.24	28.477
247.61	25.658
247.98	26.846
248.36	18.519
248.73	22.086
249.10	21.858
249.47	23.881
249.84	25.654
250.22	18.135
250.59	18.333
250.96	19.091
251.33	17.857
251.70	17.949
252.08	21.250
252.45	19.672
252.82	14.463
253.19	16.406
253.56	19.011
253.94	13.846
254.31	18.939
254.68	20.280
255.05	21.173
255.42	12.925
255.79	12.945
256.16	16.887
256.54	13.245
256.91	14.426
257.28	15.410
257.65	14.331
258.02	15.339
258.39	16.524
258.76	22.630
259.14	18.966
259.51	17.579
259.88	14.731
260.25	15.833
260.62	15.342
260.99	19.945
261.36	19.035
261.73	14.324
262.10	16.758
262.47	14.209
262.85	21.212
263.22	14.286
263.59	12.368
263.96	16.880
264.33	14.578
264.70	15.802
265.07	17.184
265.44	18.594
265.81	13.889
266.18	15.420
266.55	16.071
266.92	16.173
267.29	15.536
267.66	14.634
268.03	14.192
268.40	13.987
268.77	13.667
269.14	12.996
269.51	15.789
269.88	16.189
270.25	15.292
270.62	13.502
270.99	15.960
271.36	17.228
271.73	14.735
272.10	14.830
272.47	15.431
272.84	13.253
273.21	13.226
273.58	14.718
273.95	14.231
274.32	12.928
274.69	12.766
275.06	17.399
275.43	11.830
275.80	14.815
276.17	14.630
276.54	11.940
276.91	13.417
277.28	14.105
277.65	15.799
278.02	14.338
278.39	15.036
278.76	14.411
279.13	13.475
279.50	14.433
279.87	14.132
280.23	11.620
280.60	14.068
280.97	13.322
281.34	13.752
281.71	16.413
282.08	12.625
282.45	11.129
282.82	12.716
283.19	11.309
283.56	12.951
283.92	11.562
284.29	15.166
284.66	15.107
285.03	12.019
285.40	12.674
285.77	12.074
286.14	13.740
286.51	12.785
286.87	12.954
287.24	14.307
287.61	11.809
287.98	12.387
288.35	13.609
288.72	10.651
289.08	13.177
289.45	11.538
289.82	10.994
290.19	11.782
290.56	13.380
290.93	10.414
291.29	10.331
291.66	10.882
292.03	12.212
292.40	13.469
292.77	9.704
293.13	12.043
293.50	9.198
293.87	11.678
294.24	13.200
294.60	12.769
294.97	8.725
295.34	11.908
295.71	9.710
296.08	12.274
296.44	10.294
296.81	10.962
297.18	10.585
297.55	10.142
297.91	10.202
298.28	8.649
298.65	11.415
299.02	10.272
299.38	10.984
299.75	11.449
300.12	9.491
300.48	9.332
300.85	9.899
301.22	10.403
301.59	9.247
301.95	9.492
302.32	10.556
302.69	10.077
303.05	10.337
303.42	10.310
303.79	10.417
304.15	9.464
304.52	9.197
304.89	9.843
305.25	10.455
305.62	10.031
305.99	10.515
306.35	7.762
306.72	9.721
307.09	8.426
307.45	10.041
307.82	9.889
308.19	9.788
308.55	10.125
308.92	8.958
309.29	10.345
309.65	8.577
310.02	9.406
310.38	10.039
310.75	9.417
311.12	9.588
311.48	8.798
311.85	9.117
312.22	9.488
312.58	9.577
312.95	9.082
313.31	9.485
313.68	8.791
314.05	10.569
314.41	9.563
314.78	9.991
315.14	9.347
315.51	9.511
315.87	10.171
316.24	9.954
316.61	10.124
316.97	8.869
317.34	9.259
317.70	9.345
318.07	10.229
318.43	9.779
318.80	10.702
319.16	9.614
319.53	7.969
319.89	10.254
320.26	8.808
320.62	8.245
320.99	9.788
321.35	9.797
321.72	9.395
322.08	8.927
322.45	9.304
322.81	8.935
323.18	9.115
323.54	8.707
323.91	9.342
324.27	9.725
324.64	9.824
325.00	8.872
325.37	9.419
325.73	8.512
326.10	9.976
326.46	10.749
326.83	10.008
327.19	9.134
327.56	9.328
327.92	8.419
328.29	8.629
328.65	8.375
329.01	8.376
329.38	10.110
329.74	9.675
330.11	10.360
330.47	8.593
330.84	8.872
331.20	9.333
331.56	8.319
331.93	8.954
332.29	9.492
332.66	9.635
333.02	8.878
333.38	8.977
333.75	8.923
334.11	9.675
334.48	8.581
334.84	9.941
335.20	9.236
335.57	8.938
335.93	9.174
336.29	8.236
336.66	9.251
337.02	9.197
337.38	9.439
337.75	9.256
338.11	9.504
338.47	9.595
338.84	8.291
339.20	9.436
339.56	8.649
339.93	8.949
340.29	8.615
340.65	9.813
341.02	10.694
341.38	10.509
341.74	8.797
342.11	9.895
342.47	8.102
342.83	10.548
343.20	8.913
343.56	9.383
343.92	9.127
344.28	9.141
344.65	8.992
345.01	8.814
345.37	9.020
345.73	8.963
346.10	9.360
346.46	8.544
346.82	8.914
347.19	8.251
347.55	9.712
347.91	8.841
348.27	9.332
348.63	9.825
349.00	8.277
349.36	9.071
349.72	8.557
350.08	9.584
350.45	9.125
350.81	8.446
351.17	9.549
351.53	8.567
351.89	9.188
352.26	9.627
352.62	8.657
352.98	8.244
353.34	9.335
353.70	7.858
354.07	8.420
354.43	7.897
354.79	8.901
355.15	8.977
355.51	8.845
355.87	8.377
356.24	8.897
356.60	8.574
356.96	7.932
357.32	8.030
357.68	8.126
358.04	7.485
358.40	8.657
358.77	8.187
359.13	8.419
359.49	7.807
359.85	7.542
360.21	8.537
360.57	8.256
360.93	8.533
361.29	9.053
361.66	7.965
362.02	9.325
362.38	7.871
362.74	8.101
363.10	8.528
363.46	8.380
363.82	8.239
364.18	8.093
364.54	7.953
364.90	8.161
365.26	8.207
365.62	9.333
365.98	7.556
366.35	7.651
366.71	8.367
367.07	8.187
367.43	8.667
367.79	8.892
368.15	9.498
368.51	7.984
368.87	9.667
369.23	8.267
369.59	8.333
369.95	8.587
370.31	8.980
370.67	8.047
371.03	8.102
371.39	7.858
371.75	8.528
372.11	7.385
372.47	7.921
372.83	8.442
373.19	8.672
373.55	7.249
373.91	7.975
374.27	8.409
374.63	8.119
374.99	8.090
375.35	8.442
375.71	9.032
376.07	7.682
376.42	8.753
376.78	8.639
377.14	8.484
377.50	8.349
377.86	8.929
378.22	8.623
378.58	8.145
378.94	7.688
379.30	8.612
379.66	8.172
380.02	8.656
380.38	8.410
380.74	8.282
381.09	8.304
381.45	7.727
381.81	7.845
382.17	8.729
382.53	7.895
382.89	8.014
383.25	8.148
383.61	7.118
383.97	7.597
384.32	8.792
384.68	8.005
385.04	8.271
385.40	8.839
385.76	9.203
386.12	8.259
386.48	8.353
386.83	8.820
387.19	8.401
387.55	7.805
387.91	8.105
388.27	8.141
388.62	8.706
388.98	8.065
389.34	8.603
389.70	7.960
390.06	8.111
390.42	7.952
390.77	8.308
391.13	8.803
391.49	8.756
391.85	7.576
392.20	8.600
392.56	8.742
392.92	8.506
393.28	8.458
393.64	8.436
393.99	8.774
394.35	8.937
394.71	8.084
395.07	7.605
395.42	7.938
395.78	8.836
396.14	8.200
396.50	7.779
396.85	8.468
397.21	7.515
397.57	9.305
397.92	8.133
398.28	7.224
398.64	7.666
399.00	7.487
399.35	8.325
399.71	7.826
400.07	7.580
400.42	7.916
400.78	8.102
401.14	7.911
401.49	7.618
401.85	8.605
402.21	8.169
402.57	7.512
402.92	8.274
403.28	7.845
403.63	6.921
403.99	8.254
404.35	8.073
404.70	7.932
405.06	7.717
405.42	7.494
405.77	8.724
406.13	7.672
406.49	7.658
406.84	7.978
407.20	7.826
407.55	7.813
407.91	7.982
408.27	7.715
408.62	7.853
408.98	8.241
409.34	7.214
409.69	7.417
410.05	8.324
410.40	8.469
410.76	7.347
411.11	8.241
411.47	8.354
411.83	8.407
412.18	8.253
412.54	8.239
412.89	8.731
413.25	7.844
413.60	7.812
413.96	8.450
414.31	8.442
414.67	8.885
415.03	8.185
415.38	8.260
415.74	8.186
416.09	8.513
416.45	8.391
416.80	7.711
417.16	8.174
417.51	8.593
417.87	8.277
418.22	7.725
418.58	7.993
418.93	8.498
419.29	8.200
419.64	7.623
420.00	7.834
420.35	8.591
420.71	7.639
421.06	7.648
421.42	8.142
421.77	7.162
422.12	8.298
422.48	7.783
422.83	8.488
423.19	7.958
423.54	7.467
423.90	7.289
424.25	8.267
424.61	7.520
424.96	8.347
425.31	9.236
425.67	7.944
426.02	7.139
426.38	7.922
426.73	7.868
427.09	9.573
427.44	7.810
427.79	7.739
428.15	7.249
428.50	6.685
428.85	7.520
429.21	8.457
429.56	7.947
429.92	7.862
430.27	7.904
430.62	7.719
430.98	7.427
431.33	7.527
431.68	7.663
432.04	8.075
432.39	7.766
432.74	9.132
433.10	8.383
433.45	7.748
433.80	7.994
434.16	8.006
434.51	7.657
434.86	7.166
435.22	7.651
435.57	8.196
435.92	7.513
436.28	8.077
436.63	7.865
436.98	7.729
437.34	8.174
437.69	7.485
438.04	8.567
438.39	7.812
438.75	7.582
439.10	8.351
439.45	8.385
439.81	8.079
440.16	7.292
440.51	8.528
440.86	8.004
441.22	7.610
441.57	8.019
441.92	8.196
442.27	8.283
442.63	7.799
442.98	8.218
443.33	7.996
443.68	9.068
444.03	7.855
444.39	7.721
444.74	8.014
445.09	8.059
445.44	7.587
445.79	8.046
446.15	8.428
446.50	7.907
446.85	7.782
447.20	8.269
447.55	7.688
447.91	7.801
448.26	7.875
448.61	8.395
448.96	8.476
449.31	7.900
449.66	7.135
450.02	8.703
450.37	8.684
450.72	8.019
451.07	8.371
451.42	8.261
451.77	7.560
452.12	8.296
452.47	7.487
452.83	8.333
453.18	8.231
453.53	7.524
453.88	7.951
454.23	8.701
454.58	8.241
454.93	7.888
455.28	8.669
455.63	7.959
455.98	8.492
456.34	8.186
456.69	8.113
457.04	8.097
457.39	8.426
457.74	7.998
458.09	8.402
458.44	8.351
458.79	7.788
459.14	7.918
459.49	7.697
459.84	8.342
460.19	7.718
460.54	7.893
460.89	7.888
461.24	8.218
461.59	8.190
461.94	7.587
462.29	8.399
462.64	7.423
462.99	8.223
463.34	8.566
463.69	8.206
464.04	9.061
464.39	8.352
464.74	8.096
465.09	8.478
465.44	8.423
465.79	8.355
466.14	8.442
466.49	8.421
466.84	8.044
467.19	8.324
467.54	8.167
467.89	8.103
468.24	8.753
468.59	7.701
468.94	8.275
469.29	7.798
469.64	7.883
469.99	8.031
470.34	8.478
470.68	8.066
471.03	7.728
471.38	8.437
471.73	7.737
472.08	8.503
472.43	8.910
472.78	8.249
473.13	8.028
473.48	8.278
473.83	8.590
474.17	8.089
474.52	7.817
474.87	9.136
475.22	8.169
475.57	8.463
475.92	7.914
476.27	7.827
476.61	7.632
476.96	7.873
477.31	8.614
477.66	8.342
478.01	8.287
478.36	7.827
478.70	8.128
479.05	7.771
479.40	8.391
479.75	8.646
480.10	8.195
480.45	8.159
480.79	8.027
481.14	8.180
481.49	7.315
481.84	8.529
482.19	7.871
482.53	8.177
482.88	8.330
483.23	7.648
483.58	7.511
483.92	7.048
484.27	7.959
484.62	7.921
484.97	8.048
485.31	7.427
485.66	7.237
486.01	7.091
486.36	7.148
486.70	7.563
487.05	7.468
487.40	7.314
487.75	7.226
488.09	7.636
488.44	7.799
488.79	7.656
489.13	7.929
489.48	7.922
489.83	8.129
490.17	7.938
490.52	8.005
490.87	8.376
491.22	7.582
491.56	7.807
491.91	8.548
492.26	8.005
492.60	7.827
492.95	8.293
493.30	7.396
493.64	7.490
493.99	8.202
494.34	7.753
494.68	7.966
495.03	8.458
495.37	7.723
495.72	8.390
496.07	8.107
496.41	8.065
496.76	8.048
497.11	8.280
497.45	8.675
497.80	7.819
498.14	8.027
498.49	7.904
498.84	7.678
499.18	8.502
499.53	8.430
499.87	8.527
500.22	7.480
500.56	7.602
500.91	7.780
501.26	8.409
501.60	7.777
501.95	8.337
502.29	7.986
502.64	8.133
502.98	8.240
503.33	8.121
503.67	7.588
504.02	8.056
504.36	8.668
504.71	7.579
505.06	8.458
505.40	8.318
505.75	8.652
506.09	8.057
506.44	8.032
506.78	8.211
507.13	8.483
507.47	8.100
507.82	8.523
508.16	8.365
508.51	7.689
508.85	8.219
509.19	8.906
509.54	8.405
509.88	8.548
510.23	8.548
510.57	8.652
510.92	8.612
511.26	7.648
511.61	8.257
511.95	9.273
512.30	8.616
512.64	8.396
512.98	8.104
513.33	9.425
513.67	8.363
514.02	8.891
514.36	8.491
514.70	8.646
515.05	8.811
515.39	8.556
515.74	9.703
516.08	8.241
516.42	9.419
516.77	8.307
517.11	8.355
517.46	8.908
517.80	8.712
518.14	8.977
518.49	8.623
518.83	8.994
519.17	8.885
519.52	8.438
519.86	8.923
520.20	9.265
520.55	8.543
520.89	8.727
521.23	9.101
521.58	9.831
521.92	8.329
522.26	8.534
522.61	9.549
522.95	8.824
523.29	8.851
523.64	8.913
523.98	9.641
524.32	9.570
524.66	8.594
525.01	8.494
525.35	8.788
525.69	8.411
526.04	8.266
526.38	8.678
526.72	8.362
527.06	9.443
527.41	8.571
527.75	9.323
528.09	8.442
528.43	9.355
528.78	8.728
529.12	8.257
529.46	8.713
529.80	8.410
530.15	8.754
530.49	8.837
530.83	9.091
531.17	8.961
531.51	8.363
531.86	9.135
532.20	9.451
532.54	8.677
532.88	9.333
533.22	9.369
533.57	9.694
533.91	8.979
534.25	8.762
534.59	8.678
534.93	8.546
535.27	8.789
535.62	9.210
535.96	8.425
536.30	8.872
536.64	9.610
536.98	8.856
537.32	9.444
537.66	9.233
538.01	9.124
538.35	8.952
538.69	8.834
539.03	9.381
539.37	9.187
539.71	9.790
540.05	9.173
540.39	8.741
540.73	8.622
541.07	8.890
541.42	8.683
541.76	8.719
542.10	8.263
542.44	7.613
542.78	9.185
543.12	8.880
543.46	8.974
543.80	9.113
544.14	8.737
544.48	9.634
544.82	8.857
545.16	9.243
545.50	8.808
545.84	9.247
546.18	9.074
546.52	8.662
546.86	9.245
547.20	8.715
547.54	8.739
547.88	8.620
548.22	8.304
548.56	8.602
548.90	7.881
549.24	9.483
549.58	8.896
549.92	9.056
550.26	9.450
550.60	8.870
550.94	9.314
551.28	9.175
551.62	9.164
551.96	10.162
552.30	9.178
552.64	9.459
552.98	9.420
553.32	8.682
553.66	9.453
554.00	9.962
554.34	8.494
554.68	9.232
555.02	8.870
555.36	9.599
555.69	8.905
556.03	8.764
556.37	9.387
556.71	9.956
557.05	10.032
557.39	9.290
557.73	9.709
558.07	8.411
558.41	10.432
558.75	8.993
559.08	10.299
559.42	8.985
559.76	9.566
560.10	9.243
560.44	8.509
560.78	10.063
561.12	9.052
561.45	9.672
561.79	9.096
562.13	8.934
562.47	8.323
562.81	9.177
563.15	8.965
563.48	9.633
563.82	8.767
564.16	8.783
564.50	9.297
564.84	9.145
565.17	9.529
565.51	8.285
565.85	8.789
566.19	8.698
566.52	8.367
566.86	8.659
567.20	8.157
567.54	8.603
567.88	8.767
568.21	8.745
568.55	8.153
568.89	9.260
569.23	8.619
569.56	8.363
569.90	8.731
570.24	8.027
570.57	7.922
570.91	8.022
571.25	8.302
571.59	8.155
571.92	7.996
572.26	8.232
572.60	7.944
572.93	8.405
573.27	8.120
573.61	7.994
573.95	8.084
574.28	7.965
574.62	7.867
574.96	7.609
575.29	7.733
575.63	7.831
575.97	8.216
576.30	7.871
576.64	7.659
576.98	7.813
577.31	7.884
577.65	7.697
577.98	7.775
578.32	7.409
578.66	7.614
578.99	7.598
579.33	7.937
579.67	7.593
580.00	7.755
580.34	7.984
580.67	7.745
581.01	7.746
581.35	7.617
581.68	7.720
582.02	7.736
582.35	7.728
582.69	7.544
583.02	7.905
583.36	7.825
583.70	7.521
584.03	8.111
584.37	7.924
584.70	7.848
585.04	7.626
585.37	8.131
585.71	7.875
586.04	7.706
586.38	8.194
586.72	7.847
587.05	7.777
587.39	7.654
587.72	7.895
588.06	8.124
588.39	8.041
588.73	7.778
589.06	8.437
589.40	7.837
589.73	7.648
590.07	8.256
590.40	8.485
590.73	8.590
591.07	8.153
591.40	8.320
591.74	8.665
592.07	8.607
592.41	8.399
592.74	8.449
593.08	8.471
593.41	8.282
593.75	8.305
594.08	8.452
594.41	8.301
594.75	7.971
595.08	8.109
595.42	8.409
595.75	8.557
596.09	8.743
596.42	8.384
596.75	7.989
597.09	9.172
597.42	9.019
597.75	8.428
598.09	8.968
598.42	9.047
598.76	8.559
599.09	8.402
599.42	8.615
599.76	8.155
600.09	8.575
600.42	8.108
600.76	8.322
601.09	8.165
601.42	7.964
601.76	8.724
602.09	7.970
602.42	8.688
602.76	8.598
603.09	8.186
603.42	8.382
603.76	8.457
604.09	8.836
604.42	8.294
604.76	8.181
605.09	8.257
605.42	9.091
605.75	9.077
606.09	8.735
606.42	8.829
606.75	7.984
607.09	7.834
607.42	8.439
607.75	8.441
608.08	8.840
608.42	9.029
608.75	9.038
609.08	8.489
609.41	8.161
609.75	8.393
610.08	9.411
610.41	7.986
610.74	8.571
611.07	8.393
611.41	8.969
611.74	8.915
612.07	8.555
612.40	8.793
612.73	8.557
613.07	8.998
613.40	9.528
613.73	9.100
614.06	8.930
614.39	8.746
614.72	8.491
615.06	9.047
615.39	8.845
615.72	9.147
616.05	9.179
616.38	8.829
616.71	9.718
617.05	8.839
617.38	9.791
617.71	9.233
618.04	9.012
618.37	9.617
618.70	9.672
619.03	8.901
619.36	9.926
619.69	9.033
620.03	8.788
620.36	9.080
620.69	8.883
621.02	9.580
621.35	8.781
621.68	9.906
622.01	9.181
622.34	8.717
622.67	9.622
623.00	8.704
623.33	9.821
623.66	8.885
623.99	9.085
624.32	10.006
624.65	9.009
624.99	8.973
625.32	10.189
625.65	8.631
625.98	8.746
626.31	10.135
626.64	9.524
626.97	9.602
627.30	8.960
627.63	9.377
627.96	10.811
628.29	10.350
628.62	9.488
628.95	10.079
629.28	9.516
629.61	9.680
629.94	9.540
630.26	9.831
630.59	9.413
630.92	9.091
631.25	11.360
631.58	9.040
631.91	9.278
632.24	10.759
632.57	10.721
632.90	9.629
633.23	9.694
633.56	11.020
633.89	10.124
634.22	10.291
634.55	11.691
634.88	8.442
635.20	11.195
635.53	10.395
635.86	9.967
636.19	11.983
636.52	11.392
636.85	10.521
637.18	11.435
637.51	10.968
637.83	11.406
638.16	11.060
638.49	9.742
638.82	10.372
639.15	10.080
639.48	11.778
639.81	11.201
640.13	12.603
640.46	10.061
640.79	10.784
641.12	12.050
641.45	10.665
641.77	13.607
642.10	11.811
642.43	12.899
642.76	10.976
643.09	10.959
643.41	11.625
643.74	12.552
644.07	12.276
644.40	9.901
644.73	10.450
645.05	9.398
645.38	11.367
645.71	11.584
646.04	13.486
646.36	11.241
646.69	10.890
647.02	12.538
647.35	12.061
647.67	13.527
648.00	11.624
648.33	11.562
648.66	10.984
648.98	11.293
649.31	11.367
649.64	10.890
649.96	10.743
650.29	11.127
650.62	12.588
650.94	11.261
651.27	9.880
651.60	10.965
651.92	10.638
652.25	12.735
652.58	11.967
652.90	10.756
653.23	12.254
653.56	11.412
653.88	12.921
654.21	11.690
654.54	10.260
654.86	12.748
655.19	11.292
655.52	9.338
655.84	7.410
656.17	9.203
656.49	13.106
656.82	14.584
657.15	11.059
657.47	8.439
657.80	6.166
658.13	4.792
658.45	6.448
658.78	7.834
659.10	7.963
659.43	8.229
659.75	8.148
660.08	8.459
660.41	10.918
660.73	9.920
661.06	10.426
661.38	11.005
661.71	13.276
662.03	11.111
662.36	13.596
662.68	11.820
663.01	13.451
663.33	12.854
663.66	14.286
663.98	11.538
664.31	13.696
664.63	12.331
664.96	12.704
665.28	10.708
665.61	13.986
665.93	12.321
666.26	12.186
666.58	12.177
666.91	13.832
667.23	13.143
667.56	12.623
667.88	11.800
668.21	9.570
668.53	10.618
668.86	13.556
669.18	10.998
669.50	13.718
669.83	10.200
670.15	11.024
670.48	13.095
670.80	12.620
671.13	11.720
671.45	11.024
671.77	15.254
672.10	12.167
672.42	10.680
672.75	11.060
673.07	12.537
673.39	10.478
673.72	10.570
674.04	14.483
674.37	12.343
674.69	14.462
675.01	10.857
675.34	11.641
675.66	11.798
675.98	12.313
676.31	12.500
676.63	14.639
676.95	12.644
677.28	12.903
677.60	12.795
677.92	11.900
678.25	13.163
678.57	11.744
678.89	13.311
679.22	10.976
679.54	13.333
679.86	11.017
680.18	11.940
680.51	11.006
680.83	13.093
681.15	11.897
681.48	12.608
681.80	14.162
682.12	11.364
682.44	11.853
682.77	10.106
683.09	12.689
683.41	11.434
683.73	12.903
684.06	11.070
684.38	11.270
684.70	14.004
685.02	13.253
685.34	10.316
685.67	9.621
685.99	10.583
686.31	11.773
686.63	11.216
686.96	11.987
687.28	10.261
687.60	8.586
687.92	10.932
688.24	12.020
688.56	11.207
688.89	12.886
689.21	11.546
689.53	11.569
689.85	11.637
690.17	13.704
690.49	10.956
690.82	11.683
691.14	11.943
691.46	13.576
691.78	13.812
692.10	12.661
692.42	10.893
692.74	11.434
693.06	9.630
693.39	11.765
693.71	13.534
694.03	11.524
694.35	11.238
694.67	11.294
694.99	13.830
695.31	11.921
695.63	11.255
695.95	13.665
696.27	15.165
696.59	15.487
696.91	13.288
697.23	12.967
697.56	10.794
697.88	11.932
698.20	12.053
698.52	13.636
698.84	12.682
699.16	15.306
699.48	14.017
699.80	10.851
700.12	14.192
700.44	11.982
700.76	13.302
701.08	16.465
701.40	17.617
701.72	13.433
702.04	14.706
702.36	10.733
702.68	11.736
703.00	11.736
703.32	12.808
703.64	14.914
703.96	11.217
704.28	12.776
704.60	15.190
704.91	13.265
705.23	15.068
705.55	12.535
705.87	16.364
706.19	17.178
706.51	12.048
706.83	10.663
707.15	8.730
707.47	10.981
707.79	11.790
708.11	11.864
708.43	8.387
708.74	10.938
709.06	12.065
709.38	13.380
709.70	14.888
710.02	13.953
710.34	15.426
710.66	13.687
710.98	15.301
711.29	12.088
711.61	17.797
711.93	15.100
712.25	11.622
712.57	17.994
712.89	18.235
713.20	13.609
713.52	15.896
713.84	11.978
714.16	14.211
714.48	11.856
714.80	16.104
715.11	13.386
715.43	15.385
715.75	13.947
716.07	17.403
716.39	15.574
716.70	14.458
717.02	13.115
717.34	13.937
717.66	13.758
717.97	11.301
718.29	13.402
718.61	13.487
718.93	13.916
719.24	15.217
719.56	11.963
719.88	13.814
720.20	14.194
720.51	13.665
720.83	13.438
721.15	16.776
721.46	14.726
721.78	15.000
722.10	17.476
722.42	11.745
722.73	11.290
723.05	16.140
723.37	15.278
723.68	16.487
724.00	18.773
724.32	15.141
724.63	14.336
724.95	18.085
725.27	19.164
725.58	11.307
725.90	15.517
726.22	16.301
726.53	17.857
726.85	17.296
727.16	16.918
727.48	17.431
727.80	16.887
728.11	15.194
728.43	12.795
728.74	16.054
729.06	15.232
729.38	13.961
729.69	14.430
730.01	13.393
730.32	9.394
730.64	12.264
730.96	12.112
731.27	16.760
731.59	12.637
731.90	12.208
732.22	14.323
732.53	9.392
732.85	15.429
733.16	12.023
733.48	12.500
733.80	13.649
734.11	13.675
734.43	12.703
734.74	16.456
735.06	12.563
735.37	14.054
735.69	15.946
736.00	14.972
736.32	11.590
736.63	16.944
736.95	12.644
737.26	9.697
737.58	12.121
737.89	15.000
738.21	11.315
738.52	16.393
738.83	16.382
739.15	17.376
739.46	18.027
739.78	12.577
740.09	11.461
740.41	13.411
740.72	16.000
741.04	15.534
741.35	19.649
741.66	18.039
741.98	15.164
742.29	18.410
742.61	19.298
742.92	17.308
743.23	15.884
743.55	21.318
743.86	18.000
744.18	15.702
744.49	15.190
744.80	18.930
745.12	18.565
745.43	16.667
745.74	16.810
746.06	18.220
746.37	18.565
746.68	19.512
747.00	20.000
747.31	15.880
747.62	17.692
747.94	18.623
748.25	17.269
748.56	17.959
748.88	15.385
749.19	21.121
749.50	16.883
749.82	20.080
750.13	18.861
750.44	9.333
750.75	13.538
751.07	16.615
751.38	14.826
751.69	14.058
752.01	13.592
752.32	15.686
752.63	14.966
752.94	15.571
753.26	12.639
753.57	13.333
753.88	13.858
754.19	15.756
754.51	13.505
754.82	16.399
755.13	19.016
755.44	14.334
755.75	17.105
756.07	15.522
756.38	16.038
756.69	16.566
757.00	9.418
757.31	12.842
757.63	12.276
757.94	12.441
758.25	13.995
758.56	11.765
758.87	16.364
759.18	13.600
759.50	16.714
759.81	14.566
760.12	12.938
760.43	13.542
760.74	14.286
761.05	12.750
761.36	12.771
761.67	14.721
761.99	13.784
762.30	13.110
762.61	13.531
762.92	11.194
763.23	16.479
763.54	15.468
763.85	15.464
764.16	14.815
764.47	19.366
764.78	14.696
765.10	14.370
765.41	17.179
765.72	14.815
766.03	12.147
766.34	13.793
766.65	11.847
766.96	15.936
767.27	18.894
767.58	14.925
767.89	19.231
768.20	17.840
768.51	21.296
768.82	18.876
769.13	17.803
769.44	13.462
769.75	18.051
770.06	18.462
770.37	21.654
770.68	11.489
770.99	11.741
771.30	21.481
771.61	15.970
771.92	14.815
772.23	20.243
772.54	11.574
772.85	22.120
773.16	18.095
773.47	20.106
773.78	18.919
774.09	17.045
774.39	25.000
774.70	26.776
775.01	18.293
775.32	17.059
775.63	20.859
775.94	18.471
776.25	21.290
776.56	23.718
776.87	30.612
777.18	20.000
777.48	25.175
777.79	22.297
778.10	13.235
778.41	21.528
778.72	28.966
779.03	16.667
779.34	12.727
779.65	16.062
779.95	15.000
780.26	19.318
780.57	20.645
780.88	28.986
781.19	21.290
781.50	18.235
781.80	26.882
782.11	20.106
782.42	13.131
782.73	18.563
783.04	22.905
783.34	14.545
783.65	23.529
783.96	16.149
784.27	17.857
784.57	20.530
784.88	18.571
785.19	24.409
785.50	22.047
785.81	18.045
786.11	21.538
786.42	17.266
786.73	19.424
787.04	23.308
787.34	21.311
787.65	22.400
787.96	20.896
788.26	32.168
788.57	30.769
788.88	23.026
789.19	22.876
789.49	19.863
789.80	24.113
790.11	25.197
790.41	24.219
790.72	21.186
791.03	23.301
791.33	25.217
791.64	26.316
791.95	25.893
792.25	22.857
792.56	30.357
792.87	15.625
793.17	33.036
793.48	26.042
793.79	32.530
794.09	28.440
794.40	21.101
794.70	22.449
795.01	17.532
795.32	14.384
795.62	25.352
795.93	21.212
796.23	24.590
796.54	25.000
796.85	29.787
797.15	26.087
797.46	21.918
797.76	21.250
798.07	38.043
798.37	24.742
798.68	20.779
798.99	37.931
799.29	30.337
799.60	30.851
799.90	37.349
800.21	23.077
800.51	26.866
800.82	25.000
801.12	19.178
801.43	20.588
801.73	25.424
802.04	42.424
802.34	33.333
802.65	27.119
802.95	29.851
803.26	33.898
803.56	46.575
803.87	35.714
804.17	38.356
804.48	21.053
804.78	26.389
805.09	27.586
805.39	28.378
805.70	15.493
806.00	31.707
806.30	22.892
806.61	21.918
806.91	28.846
807.22	28.889
807.52	27.586
807.83	31.944
808.13	38.554
808.43	29.213
808.74	45.000
809.04	10.294
809.35	28.000
809.65	32.857
809.95	35.616
810.26	33.333
810.56	32.759
810.86	38.235
811.17	40.351
811.47	39.344
811.77	31.111
812.08	32.203
812.38	50.000
812.69	50.000
812.99	22.642
813.29	35.897
813.59	46.000
813.90	43.860
814.20	47.273
814.50	39.437
814.81	38.462
815.11	40.984
815.41	43.284
815.72	48.276
816.02	30.357
816.32	60.000
816.62	43.182
816.93	37.778
817.23	68.519
817.53	61.702
817.84	73.810
818.14	70.588
818.44	44.898
818.74	62.222
819.04	38.462
819.35	37.143
819.65	57.692
819.95	32.075
820.25	60.000
820.56	66.667
820.86	56.250
821.16	51.282
821.46	30.233
821.76	26.000
822.07	50.000
822.37	50.000
822.67	27.660
822.97	40.541
823.27	42.500
823.57	63.265
823.88	73.333
824.18	57.500
824.48	66.667
824.78	88.000
825.08	48.485
825.38	68.889
825.69	59.574
825.99	63.889
826.29	60.000
826.59	53.846
826.89	41.860
827.19	38.000
827.49	73.529
827.79	45.833
828.09	27.027
828.39	60.000
828.70	53.659
829.00	41.860
829.30	85.714
829.60	82.353
829.90	56.522
830.20	40.000
830.50	55.172
830.80	133.333
831.10	65.385
831.40	50.000
831.70	100.000
832.00	93.548
832.30	41.176
832.60	58.333
832.90	107.692
833.20	73.684
833.50	50.000
833.80	84.211
834.10	38.095
834.40	33.333
834.70	81.250
835.00	57.143
835.30	52.941
835.60	43.333
835.90	72.000
836.20	40.909
836.50	108.000
836.80	9.091
837.10	59.259
837.40	66.667
837.70	62.500
838.00	107.143
838.30	104.348
838.60	82.759
838.90	171.429
839.19	65.217
839.49	66.667
839.79	86.957
840.09	93.750
840.39	120.000
840.69	54.839
840.99	46.429
841.29	106.667
841.59	121.053
841.88	61.538
842.18	65.385
842.48	160.000
842.78	70.000
843.08	46.667
843.38	51.613
843.68	27.778
843.97	58.824
844.27	93.750
844.57	78.947
844.87	150.000
845.17	6.667
845.47	85.714
845.76	109.524
846.06	144.444
846.36	123.529
846.66	50.000
846.96	53.333
847.25	141.176
847.55	86.957
847.85	80.000
848.15	129.412
848.44	172.727
848.74	128.571
849.04	70.833
849.34	81.250
849.63	30.435
849.93	-550.000
850.23	160.000
850.53	88.462
850.82	118.182
851.12	104.545
851.42	172.727
851.71	184.615
852.01	85.000
852.31	176.923
852.61	142.105
852.90	100.000
853.20	127.778
853.50	100.000
853.79	66.667
854.09	40.909
854.39	91.667
854.68	77.419
854.98	26.923
855.28	122.222
855.57	82.143
855.87	36.000
856.17	104.545
856.46	66.667
856.76	77.778
857.05	52.174
857.35	29.167
857.65	130.769
857.94	114.286
858.24	62.963
858.53	82.609
858.83	94.118
859.13	147.059
859.42	117.647
859.72	178.571
860.01	120.000
860.31	211.111
860.60	180.000
860.90	146.667
861.20	122.222
861.49	107.692
861.79	83.333
862.08	123.077
862.38	71.875
862.67	129.412
862.97	56.250
863.26	66.667
863.56	150.000
863.85	127.273
864.15	100.000
864.44	866.667
864.74	107.143
865.03	131.250
865.33	150.000
865.62	22.581
865.92	90.909
866.21	130.435
866.51	157.143
866.80	180.000
867.10	150.000
867.39	116.667
867.69	-800.000
867.98	200.000
868.27	105.882
868.57	800.000
868.86	120.000
869.16	80.952
869.45	58.333
869.75	254.545
870.04	128.571
870.33	108.333
870.63	85.714
870.92	700.000
871.22	100.000
871.51	154.545
871.80	200.000
872.10	600.000
>>>>>End Processed Spectral Data<<<<<
