SpectraSuite Data File
++++++++++++++++++++++++++++++++++++
Date: Thu May 14 15:00:47 PDT 2015
User: schluterlab
Dark Spectrum Present: Yes
Reference Spectrum Present: Yes
Number of Sampled Component Spectra: 1
Spectrometers: USB2E3373
Integration Time (usec): 3000 (USB2E3373)
Spectra Averaged: 3 (USB2E3373)
Boxcar Smoothing: 0 (USB2E3373)
Correct for Electrical Dark: No (USB2E3373)
Strobe/Lamp Enabled: No (USB2E3373)
Correct for Detector Non-linearity: No (USB2E3373)
Correct for Stray Light: No (USB2E3373)
Number of Pixels in Processed Spectrum: 2048
>>>>>Begin Processed Spectral Data<<<<<
178.53	0.000
178.91	300.000
179.29	-3400.000
179.67	-3300.000
180.04	321.429
180.42	290.000
180.80	520.000
181.18	-2200.000
181.56	-1800.000
181.94	775.000
182.31	-600.000
182.69	700.000
183.07	-800.000
183.45	525.000
183.83	-416.667
184.20	-333.333
184.58	2300.000
184.96	-550.000
185.34	-244.444
185.72	-440.000
186.09	288.889
186.47	1550.000
186.85	660.000
187.23	-300.000
187.61	-3100.000
187.98	480.000
188.36	700.000
188.74	-375.000
189.12	-633.333
189.49	-125.000
189.87	-262.500
190.25	-211.111
190.63	-460.000
191.00	-388.889
191.38	0.000
191.76	-850.000
192.14	-333.333
192.51	950.000
192.89	-333.333
193.27	0.000
193.65	-214.286
194.02	-2700.000
194.40	-271.429
194.78	228.571
195.15	0.000
195.53	-209.091
195.91	0.000
196.29	-625.000
196.66	-130.769
197.04	-2400.000
197.42	-271.429
197.79	-1500.000
198.17	-287.500
198.55	-385.714
198.92	-100.000
199.30	-225.000
199.68	-154.545
200.05	-135.714
200.43	-1300.000
200.81	442.857
201.18	0.000
201.56	455.556
201.94	0.000
202.31	833.333
202.69	-277.778
203.07	1700.000
203.44	-255.556
203.82	-500.000
204.19	-150.000
204.57	-250.000
204.95	-212.500
205.32	-2600.000
205.70	600.000
206.08	-283.333
206.45	-200.000
206.83	560.000
207.20	-266.667
207.58	-580.000
207.96	-316.667
208.33	-233.333
208.71	200.000
209.08	-83.333
209.46	0.000
209.84	483.333
210.21	1350.000
210.59	1150.000
210.96	1200.000
211.34	-550.000
211.71	-387.500
212.09	-3100.000
212.46	0.000
212.84	1450.000
213.22	-640.000
213.59	-650.000
213.97	-150.000
214.34	-833.333
214.72	550.000
215.09	-425.000
215.47	0.000
215.84	271.429
216.22	1600.000
216.59	-400.000
216.97	-420.000
217.34	-575.000
217.72	-162.500
218.09	-600.000
218.47	-525.000
218.84	0.000
219.22	420.000
219.59	-111.765
219.97	-85.000
220.34	1600.000
220.72	-288.889
221.09	-115.385
221.47	-933.333
221.84	-230.000
222.22	-328.571
222.59	0.000
222.97	-212.500
223.34	-620.000
223.72	-2700.000
224.09	-500.000
224.46	-625.000
224.84	-180.000
225.21	-385.714
225.59	-650.000
225.96	-325.000
226.34	-42.308
226.71	383.333
227.08	-1000.000
227.46	-100.000
227.83	-625.000
228.21	-73.684
228.58	337.500
228.95	1200.000
229.33	-83.333
229.70	-210.000
230.08	-78.947
230.45	310.000
230.82	-733.333
231.20	-192.857
231.57	-191.667
231.95	-236.364
232.32	-72.727
232.69	-65.000
233.07	-275.000
233.44	-129.412
233.81	-280.000
234.19	-105.556
234.56	-45.455
234.93	-3.448
235.31	-57.895
235.68	-77.778
236.05	-105.000
236.43	-19.231
236.80	-52.000
237.17	-25.926
237.55	-48.485
237.92	-160.000
238.29	-12.903
238.67	-43.182
239.04	-13.889
239.41	-14.286
239.79	-21.739
240.16	-11.111
240.53	-19.565
240.91	-39.216
241.28	-1.639
241.65	-1.493
242.02	0.000
242.40	-12.308
242.77	1.333
243.14	-9.756
243.51	-11.842
243.89	-1.282
244.26	10.891
244.63	3.922
245.00	11.215
245.38	5.263
245.75	-3.540
246.12	15.873
246.49	12.403
246.87	10.000
247.24	3.311
247.61	15.132
247.98	8.725
248.36	12.346
248.73	10.429
249.10	13.661
249.47	16.915
249.84	18.325
250.22	13.472
250.59	16.667
250.96	18.182
251.33	18.878
251.70	17.521
252.08	19.167
252.45	17.213
252.82	14.463
253.19	15.234
253.56	17.110
253.94	16.923
254.31	17.803
254.68	23.077
255.05	19.870
255.42	17.007
255.79	19.417
256.16	19.205
256.54	15.894
256.91	20.984
257.28	19.016
257.65	15.605
258.02	18.584
258.39	20.228
258.76	21.407
259.14	25.287
259.51	22.478
259.88	19.830
260.25	20.556
260.62	21.644
260.99	21.038
261.36	19.571
261.73	21.220
262.10	20.055
262.47	20.912
262.85	24.747
263.22	18.442
263.59	20.526
263.96	21.228
264.33	20.205
264.70	20.247
265.07	21.957
265.44	26.077
265.81	21.991
266.18	23.356
266.55	20.982
266.92	22.096
267.29	23.414
267.66	21.951
268.03	21.834
268.40	20.042
268.77	22.096
269.14	19.163
269.51	21.491
269.88	22.336
270.25	22.736
270.62	20.675
270.99	22.828
271.36	23.762
271.73	21.022
272.10	24.048
272.47	23.246
272.84	22.289
273.21	19.840
273.58	21.774
273.95	20.192
274.32	20.913
274.69	21.083
275.06	20.879
275.43	20.148
275.80	18.871
276.17	19.074
276.54	19.776
276.91	22.540
277.28	22.061
277.65	23.339
278.02	20.588
278.39	20.652
278.76	17.926
279.13	19.681
279.50	21.478
279.87	20.751
280.23	17.606
280.60	21.356
280.97	22.039
281.34	19.694
281.71	21.658
282.08	19.601
282.45	18.985
282.82	20.722
283.19	18.255
283.56	20.656
283.92	21.021
284.29	24.013
284.66	20.690
285.03	18.750
285.40	19.320
285.77	20.898
286.14	21.527
286.51	19.939
286.87	18.641
287.24	20.633
287.61	19.731
287.98	20.091
288.35	21.154
288.72	19.970
289.08	20.351
289.45	17.899
289.82	20.783
290.19	19.684
290.56	19.859
290.93	20.970
291.29	18.595
291.66	19.284
292.03	17.368
292.40	19.728
292.77	18.059
293.13	17.727
293.50	17.083
293.87	17.450
294.24	18.133
294.60	20.101
294.97	15.839
295.34	19.462
295.71	15.889
296.08	16.925
296.44	18.382
296.81	18.027
297.18	18.555
297.55	17.217
297.91	17.082
298.28	17.180
298.65	17.717
299.02	16.175
299.38	16.934
299.75	17.056
300.12	15.856
300.48	16.935
300.85	17.435
301.22	16.890
301.59	16.210
301.95	17.514
302.32	18.444
302.69	16.429
303.05	18.172
303.42	17.295
303.79	16.771
304.15	16.299
304.52	17.019
304.89	16.545
305.25	16.356
305.62	16.510
305.99	18.660
306.35	15.423
306.72	17.477
307.09	17.259
307.45	17.081
307.82	16.145
308.19	15.338
308.55	17.358
308.92	16.943
309.29	17.529
309.65	17.057
310.02	17.228
310.38	16.142
310.75	17.573
311.12	17.546
311.48	16.911
311.85	17.189
312.22	16.319
312.58	17.371
312.95	16.826
313.31	17.344
313.68	17.674
314.05	18.067
314.41	18.944
314.78	17.348
315.14	18.875
315.51	17.452
315.87	16.202
316.24	17.900
316.61	18.561
316.97	17.376
317.34	16.755
317.70	18.166
318.07	17.725
318.43	18.452
318.80	17.726
319.16	18.283
319.53	16.624
319.89	18.054
320.26	18.950
320.62	16.933
320.99	17.544
321.35	17.652
321.72	18.233
322.08	17.854
322.45	17.977
322.81	19.404
323.18	18.673
323.54	18.966
323.91	17.794
324.27	19.449
324.64	20.235
325.00	19.237
325.37	18.919
325.73	18.843
326.10	18.816
326.46	19.707
326.83	19.856
327.19	20.630
327.56	21.028
327.92	19.512
328.29	19.274
328.65	19.682
329.01	20.305
329.38	21.146
329.74	20.377
330.11	20.548
330.47	20.135
330.84	19.380
331.20	20.500
331.56	19.497
331.93	20.753
332.29	20.254
332.66	20.349
333.02	20.771
333.38	20.302
333.75	19.949
334.11	21.351
334.48	20.380
334.84	21.240
335.20	20.319
335.57	21.248
335.93	20.248
336.29	19.468
336.66	19.933
337.02	19.398
337.38	21.514
337.75	20.083
338.11	20.774
338.47	21.009
338.84	19.882
339.20	19.461
339.56	20.016
339.93	19.951
340.29	20.692
340.65	19.465
341.02	19.952
341.38	20.776
341.74	19.048
342.11	21.480
342.47	20.651
342.83	21.578
343.20	20.769
343.56	21.331
343.92	19.776
344.28	21.016
344.65	20.698
345.01	19.891
345.37	21.073
345.73	19.719
346.10	21.373
346.46	20.570
346.82	20.599
347.19	21.008
347.55	22.079
347.91	20.877
348.27	21.017
348.63	21.325
349.00	19.687
349.36	20.000
349.72	20.461
350.08	19.837
350.45	19.924
350.81	20.287
351.17	21.203
351.53	21.077
351.89	20.577
352.26	20.970
352.62	19.478
352.98	20.992
353.34	19.940
353.70	20.878
354.07	21.908
354.43	20.881
354.79	21.017
355.15	20.603
355.51	22.368
355.87	20.718
356.24	21.597
356.60	19.882
356.96	20.385
357.32	21.041
357.68	20.717
358.04	21.183
358.40	20.970
358.77	20.980
359.13	21.344
359.49	19.554
359.85	20.015
360.21	21.377
360.57	20.890
360.93	20.310
361.29	20.982
361.66	22.158
362.02	20.807
362.38	21.082
362.74	20.670
363.10	21.045
363.46	21.399
363.82	21.520
364.18	22.097
364.54	21.784
364.90	23.077
365.26	21.034
365.62	22.333
365.98	22.124
366.35	21.409
366.71	22.857
367.07	21.042
367.43	21.208
367.79	22.694
368.15	21.940
368.51	22.192
368.87	21.946
369.23	22.533
369.59	22.268
369.95	22.312
370.31	23.363
370.67	21.802
371.03	22.507
371.39	20.954
371.75	22.283
372.11	20.664
372.47	21.327
372.83	21.728
373.19	22.548
373.55	21.748
373.91	22.222
374.27	22.639
374.63	22.192
374.99	22.613
375.35	22.468
375.71	23.226
376.07	22.595
376.42	22.481
376.78	23.244
377.14	22.895
377.50	23.150
377.86	22.783
378.22	23.054
378.58	22.533
378.94	23.005
379.30	22.027
379.66	22.986
380.02	23.485
380.38	23.041
380.74	22.592
381.09	23.113
381.45	22.784
381.81	24.122
382.17	23.337
382.53	22.749
382.89	23.758
383.25	23.681
383.61	22.164
383.97	23.734
384.32	23.804
384.68	22.970
385.04	22.961
385.40	23.394
385.76	24.678
386.12	23.878
386.48	23.588
386.83	25.089
387.19	23.175
387.55	23.650
387.91	24.372
388.27	23.152
388.62	23.425
388.98	23.745
389.34	23.925
389.70	24.056
390.06	23.979
390.42	23.916
390.77	24.262
391.13	23.533
391.49	24.577
391.85	23.212
392.20	23.665
392.56	24.631
392.92	23.773
393.28	23.770
393.64	23.966
393.99	23.940
394.35	23.890
394.71	23.832
395.07	24.132
395.42	23.815
395.78	24.619
396.14	24.005
396.50	23.337
396.85	23.435
397.21	22.840
397.57	23.498
397.92	23.196
398.28	23.194
398.64	22.998
399.00	22.356
399.35	22.932
399.71	23.207
400.07	23.638
400.42	23.690
400.78	23.438
401.14	22.880
401.49	23.024
401.85	23.547
402.21	23.812
402.57	23.239
402.92	22.518
403.28	23.361
403.63	22.912
403.99	22.565
404.35	22.797
404.70	22.946
405.06	22.663
405.42	22.951
405.77	23.391
406.13	22.042
406.49	22.748
406.84	22.881
407.20	22.582
407.55	22.229
407.91	21.747
408.27	21.790
408.62	22.978
408.98	22.751
409.34	21.290
409.69	22.250
410.05	22.860
410.40	22.100
410.76	22.266
411.11	23.027
411.47	22.973
411.83	22.516
412.18	23.072
412.54	22.288
412.89	22.410
413.25	22.178
413.60	22.803
413.96	22.669
414.31	21.983
414.67	22.063
415.03	22.277
415.38	21.690
415.74	22.297
416.09	22.579
416.45	22.417
416.80	21.787
417.16	22.095
417.51	22.665
417.87	22.256
418.22	21.976
418.58	22.367
418.93	23.050
419.29	21.948
419.64	22.269
420.00	22.374
420.35	23.077
420.71	22.401
421.06	22.254
421.42	22.993
421.77	22.025
422.12	23.309
422.48	23.502
422.83	23.932
423.19	22.812
423.54	23.728
423.90	22.805
424.25	23.947
424.61	22.847
424.96	23.394
425.31	23.779
425.67	23.027
426.02	23.630
426.38	23.708
426.73	23.326
427.09	25.029
427.44	22.447
427.79	24.433
428.15	23.059
428.50	23.427
428.85	23.020
429.21	23.830
429.56	23.544
429.92	23.096
430.27	24.145
430.62	23.449
430.98	23.414
431.33	23.851
431.68	23.084
432.04	23.311
432.39	24.531
432.74	24.201
433.10	25.473
433.45	23.857
433.80	23.873
434.16	23.605
434.51	24.512
434.86	24.050
435.22	24.601
435.57	24.469
435.92	23.984
436.28	24.005
436.63	24.686
436.98	24.638
437.34	24.239
437.69	23.996
438.04	25.542
438.39	25.503
438.75	25.678
439.10	24.947
439.45	24.148
439.81	24.859
440.16	25.469
440.51	24.916
440.86	24.736
441.22	24.491
441.57	24.948
441.92	24.588
442.27	25.758
442.63	25.037
442.98	25.027
443.33	25.039
443.68	25.966
444.03	26.199
444.39	25.613
444.74	25.421
445.09	25.038
445.44	25.922
445.79	26.006
446.15	25.694
446.50	25.478
446.85	25.535
447.20	25.484
447.55	25.941
447.91	25.864
448.26	25.634
448.61	25.345
448.96	25.054
449.31	25.610
449.66	25.436
450.02	25.897
450.37	25.892
450.72	25.727
451.07	25.683
451.42	25.708
451.77	25.014
452.12	24.887
452.47	25.074
452.83	25.732
453.18	25.686
453.53	24.871
453.88	25.345
454.23	25.706
454.58	24.782
454.93	24.333
455.28	25.406
455.63	25.128
455.98	25.084
456.34	24.441
456.69	25.044
457.04	25.118
457.39	24.667
457.74	25.615
458.09	24.931
458.44	26.024
458.79	24.549
459.14	26.114
459.49	24.844
459.84	24.764
460.19	24.597
460.54	24.929
460.89	25.675
461.24	25.345
461.59	25.733
461.94	24.301
462.29	25.140
462.64	25.226
462.99	25.863
463.34	25.698
463.69	24.091
464.04	25.181
464.39	25.897
464.74	25.257
465.09	25.202
465.44	26.180
465.79	25.278
466.14	25.430
466.49	25.579
466.84	25.950
467.19	26.069
467.54	24.971
467.89	25.690
468.24	25.042
468.59	25.478
468.94	24.009
469.29	24.595
469.64	24.666
469.99	24.793
470.34	25.619
470.68	25.222
471.03	25.540
471.38	25.638
471.73	25.488
472.08	25.571
472.43	25.587
472.78	26.700
473.13	25.348
473.48	25.498
473.83	26.698
474.17	25.322
474.52	26.097
474.87	24.529
475.22	25.634
475.57	24.870
475.92	25.983
476.27	25.879
476.61	25.182
476.96	25.547
477.31	25.644
477.66	26.915
478.01	26.284
478.36	25.972
478.70	25.419
479.05	26.431
479.40	25.864
479.75	26.561
480.10	25.628
480.45	25.615
480.79	26.168
481.14	26.195
481.49	26.170
481.84	25.370
482.19	26.194
482.53	26.760
482.88	26.274
483.23	26.234
483.58	25.983
483.92	25.355
484.27	25.487
484.62	24.876
484.97	26.050
485.31	25.378
485.66	24.224
486.01	24.118
486.36	25.762
486.70	27.168
487.05	28.566
487.40	27.397
487.75	27.735
488.09	27.247
488.44	26.819
488.79	26.374
489.13	26.140
489.48	25.786
489.83	24.909
490.17	25.233
490.52	25.411
490.87	26.354
491.22	25.650
491.56	25.853
491.91	25.382
492.26	25.833
492.60	25.098
492.95	25.538
493.30	25.504
493.64	25.099
493.99	25.789
494.34	25.523
494.68	25.567
495.03	25.507
495.37	25.832
495.72	25.488
496.07	25.986
496.41	25.139
496.76	25.730
497.11	25.860
497.45	25.982
497.80	26.299
498.14	26.032
498.49	25.046
498.84	25.594
499.18	25.461
499.53	25.336
499.87	25.626
500.22	25.022
500.56	25.416
500.91	25.812
501.26	26.273
501.60	25.541
501.95	26.140
502.29	27.029
502.64	26.541
502.98	25.884
503.33	26.177
503.67	25.643
504.02	26.226
504.36	26.586
504.71	26.275
505.06	26.330
505.40	25.274
505.75	26.138
506.09	26.473
506.44	26.370
506.78	26.972
507.13	27.478
507.47	26.528
507.82	26.657
508.16	26.052
508.51	26.582
508.85	26.830
509.19	27.333
509.54	27.378
509.88	26.372
510.23	28.120
510.57	27.840
510.92	27.286
511.26	26.263
511.61	26.268
511.95	27.477
512.30	27.523
512.64	27.236
512.98	27.664
513.33	27.167
513.67	27.231
514.02	26.571
514.36	28.389
514.70	27.865
515.05	27.842
515.39	26.719
515.74	28.420
516.08	27.998
516.42	28.676
516.77	27.392
517.11	27.540
517.46	29.427
517.80	28.648
518.14	28.890
518.49	28.145
518.83	27.940
519.17	26.817
519.52	28.459
519.86	28.564
520.20	28.754
520.55	28.861
520.89	29.223
521.23	28.364
521.58	28.079
521.92	28.385
522.26	28.981
522.61	28.530
522.95	28.604
523.29	28.448
523.64	28.812
523.98	29.663
524.32	30.029
524.66	28.401
525.01	29.445
525.35	29.064
525.69	28.770
526.04	28.243
526.38	28.333
526.72	29.700
527.06	28.680
527.41	29.096
527.75	29.751
528.09	29.693
528.43	28.656
528.78	28.555
529.12	29.071
529.46	28.949
529.80	29.805
530.15	29.449
530.49	28.885
530.83	28.808
531.17	29.510
531.51	28.881
531.86	29.327
532.20	30.549
532.54	28.845
532.88	28.848
533.22	29.582
533.57	29.717
533.91	29.574
534.25	29.565
534.59	28.908
534.93	29.768
535.27	29.634
535.62	29.903
535.96	29.750
536.30	29.788
536.64	30.450
536.98	29.582
537.32	30.000
537.66	29.382
538.01	29.003
538.35	28.441
538.69	29.026
539.03	29.736
539.37	28.740
539.71	29.369
540.05	30.036
540.39	28.912
540.73	29.022
541.07	30.411
541.42	28.706
541.76	29.419
542.10	30.398
542.44	28.867
542.78	30.292
543.12	30.036
543.46	29.548
543.80	28.957
544.14	29.503
544.48	29.787
544.82	29.982
545.16	29.577
545.50	28.640
545.84	30.863
546.18	29.938
546.52	28.917
546.86	29.434
547.20	30.089
547.54	29.276
547.88	29.958
548.22	28.830
548.56	29.491
548.90	29.254
549.24	29.422
549.58	29.905
549.92	30.293
550.26	29.968
550.60	30.121
550.94	29.754
551.28	29.901
551.62	31.065
551.96	29.061
552.30	29.955
552.64	29.745
552.98	30.817
553.32	29.904
553.66	30.225
554.00	29.887
554.34	29.344
554.68	30.019
555.02	30.092
555.36	29.586
555.69	29.020
556.03	29.445
556.37	30.225
556.71	31.198
557.05	31.182
557.39	29.197
557.73	30.449
558.07	29.669
558.41	29.767
558.75	29.479
559.08	30.132
559.42	29.630
559.76	29.512
560.10	29.873
560.44	29.947
560.78	30.250
561.12	29.680
561.45	30.170
561.79	30.525
562.13	30.314
562.47	30.826
562.81	30.506
563.15	30.808
563.48	30.454
563.82	30.351
564.16	29.376
564.50	30.274
564.84	30.796
565.17	30.059
565.51	30.437
565.85	30.582
566.19	29.378
566.52	29.725
566.86	30.560
567.20	29.908
567.54	30.165
567.88	30.122
568.21	31.225
568.55	30.887
568.89	31.185
569.23	30.418
569.56	30.520
569.90	31.361
570.24	30.860
570.57	30.564
570.91	30.312
571.25	30.807
571.59	31.200
571.92	30.650
572.26	30.810
572.60	31.641
572.93	31.060
573.27	30.486
573.61	30.334
573.95	30.153
574.28	30.484
574.62	30.605
574.96	29.819
575.29	30.117
575.63	31.000
575.97	30.922
576.30	30.274
576.64	30.017
576.98	30.182
577.31	30.355
577.65	30.953
577.98	30.459
578.32	30.245
578.66	30.249
578.99	30.985
579.33	31.036
579.67	30.848
580.00	30.838
580.34	30.541
580.67	29.987
581.01	30.506
581.35	30.236
581.68	30.328
582.02	30.554
582.35	31.305
582.69	31.150
583.02	31.097
583.36	31.567
583.70	31.288
584.03	30.766
584.37	31.597
584.70	30.342
585.04	30.760
585.37	30.689
585.71	30.442
586.04	30.647
586.38	31.082
586.72	31.512
587.05	31.031
587.39	31.139
587.72	31.651
588.06	31.044
588.39	31.242
588.73	31.111
589.06	31.321
589.40	31.223
589.73	30.977
590.07	31.432
590.40	32.421
590.73	31.283
591.07	31.459
591.40	30.560
591.74	30.604
592.07	31.506
592.41	30.757
592.74	30.990
593.08	31.146
593.41	31.438
593.75	31.667
594.08	31.354
594.41	32.308
594.75	31.318
595.08	31.258
595.42	30.714
595.75	31.095
596.09	31.955
596.42	31.530
596.75	31.378
597.09	32.202
597.42	30.910
597.75	31.399
598.09	30.556
598.42	31.202
598.76	30.531
599.09	30.829
599.42	30.808
599.76	30.109
600.09	31.732
600.42	31.932
600.76	31.440
601.09	30.899
601.42	31.445
601.76	31.172
602.09	31.808
602.42	31.043
602.76	30.996
603.09	31.278
603.42	32.081
603.76	31.466
604.09	32.044
604.42	31.963
604.76	31.773
605.09	31.592
605.42	31.061
605.75	31.269
606.09	30.758
606.42	31.485
606.75	30.772
607.09	31.068
607.42	30.944
607.75	31.028
608.08	31.373
608.42	31.116
608.75	31.551
609.08	31.112
609.41	31.054
609.75	31.652
610.08	31.706
610.41	31.266
610.74	31.134
611.07	32.149
611.41	32.377
611.74	31.778
612.07	31.417
612.40	31.084
612.73	32.029
613.07	31.100
613.40	32.194
613.73	30.380
614.06	31.060
614.39	31.584
614.72	30.810
615.06	31.617
615.39	31.851
615.72	31.659
616.05	31.666
616.38	31.635
616.71	32.132
617.05	31.257
617.38	31.140
617.71	32.073
618.04	31.732
618.37	31.967
618.70	32.240
619.03	32.139
619.36	32.121
619.69	31.710
620.03	30.257
620.36	30.736
620.69	31.524
621.02	30.971
621.35	33.309
621.68	31.598
622.01	30.320
622.34	31.311
622.67	31.821
623.00	30.499
623.33	32.117
623.66	31.582
623.99	30.546
624.32	32.359
624.65	30.502
624.99	31.860
625.32	32.397
625.65	31.625
625.98	31.186
626.31	32.176
626.64	32.308
626.97	32.108
627.30	31.131
627.63	31.133
627.96	31.907
628.29	31.673
628.62	31.234
628.95	32.603
629.28	31.861
629.61	31.397
629.94	31.548
630.26	30.169
630.59	30.743
630.92	30.996
631.25	31.664
631.58	32.109
631.91	31.959
632.24	31.316
632.57	32.353
632.90	31.194
633.23	30.714
633.56	31.429
633.89	30.475
634.22	31.185
634.55	31.420
634.88	30.952
635.20	31.755
635.53	30.960
635.86	30.769
636.19	32.874
636.52	30.907
636.85	31.665
637.18	32.328
637.51	31.290
637.83	31.783
638.16	31.912
638.49	32.394
638.82	30.440
639.15	29.897
639.48	31.986
639.81	31.062
640.13	29.800
640.46	29.091
640.79	30.637
641.12	31.429
641.45	28.858
641.77	32.092
642.10	31.496
642.43	32.314
642.76	31.165
643.09	31.918
643.41	29.272
643.74	30.483
644.07	32.690
644.40	31.117
644.73	32.221
645.05	32.012
645.38	31.942
645.71	32.258
646.04	30.846
646.36	31.387
646.69	28.681
647.02	29.205
647.35	30.229
647.67	32.850
648.00	34.076
648.33	31.381
648.66	30.100
648.98	30.204
649.31	32.070
649.64	31.607
649.96	33.024
650.29	29.068
650.62	30.410
650.94	29.429
651.27	28.743
651.60	29.971
651.92	30.699
652.25	29.812
652.58	30.399
652.90	29.070
653.23	29.718
653.56	30.956
653.88	32.725
654.21	29.718
654.54	32.803
654.86	31.586
655.19	28.607
655.52	32.322
655.84	32.632
656.17	37.900
656.49	53.204
656.82	58.946
657.15	46.868
657.47	36.536
657.80	27.159
658.13	21.482
658.45	28.353
658.78	34.401
659.10	32.248
659.43	31.388
659.75	30.199
660.08	28.123
660.41	27.378
660.73	26.682
661.06	29.662
661.38	29.825
661.71	31.379
662.03	29.630
662.36	30.769
662.68	31.895
663.01	32.389
663.33	32.325
663.66	32.601
663.98	31.923
664.31	32.833
664.63	28.516
664.96	29.583
665.28	29.220
665.61	30.594
665.93	28.750
666.26	28.674
666.58	28.782
666.91	31.589
667.23	32.000
667.56	30.572
667.88	30.400
668.21	28.711
668.53	27.413
668.86	30.845
669.18	29.328
669.50	29.423
669.83	32.200
670.15	31.102
670.48	32.540
670.80	29.828
671.13	29.490
671.45	29.724
671.77	32.768
672.10	29.667
672.42	30.097
672.75	32.104
673.07	30.896
673.39	28.659
673.72	29.362
674.04	30.862
674.37	30.948
674.69	31.922
675.01	29.905
675.34	32.634
675.66	29.026
675.98	30.410
676.31	30.859
676.63	29.848
676.95	30.651
677.28	28.629
677.60	28.150
677.92	31.670
678.25	29.799
678.57	31.495
678.89	29.522
679.22	28.920
679.54	28.034
679.86	28.475
680.18	29.685
680.51	30.660
680.83	29.624
681.15	31.379
681.48	31.088
681.80	30.397
682.12	30.070
682.44	27.880
682.77	28.723
683.09	32.576
683.41	29.457
683.73	29.032
684.06	29.336
684.38	29.338
684.70	32.496
685.02	29.948
685.34	29.118
685.67	29.968
685.99	29.294
686.31	28.779
686.63	29.384
686.96	30.915
687.28	30.130
687.60	28.788
687.92	27.814
688.24	29.048
688.56	28.966
688.89	32.305
689.21	30.528
689.53	29.804
689.85	29.980
690.17	27.222
690.49	28.685
690.82	29.703
691.14	27.126
691.46	27.342
691.78	29.834
692.10	29.174
692.42	27.500
692.74	29.401
693.06	27.778
693.39	31.120
693.71	31.579
694.03	31.599
694.35	28.190
694.67	29.774
694.99	30.426
695.31	29.801
695.63	28.788
695.95	30.435
696.27	29.890
696.59	32.301
696.91	29.054
697.23	34.286
697.56	29.532
697.88	26.894
698.20	29.567
698.52	30.492
698.84	29.106
699.16	30.204
699.48	31.172
699.80	29.574
700.12	27.948
700.44	28.571
700.76	28.504
701.08	30.024
701.40	26.166
701.72	31.095
702.04	25.936
702.36	25.916
702.68	25.428
703.00	28.362
703.32	26.601
703.64	31.785
703.96	29.594
704.28	29.484
704.60	32.405
704.91	27.806
705.23	28.767
705.55	29.526
705.87	29.091
706.19	30.061
706.51	28.012
706.83	27.378
707.15	27.778
707.47	28.037
707.79	26.638
708.11	25.424
708.43	24.946
708.74	27.455
709.06	27.610
709.38	28.638
709.70	26.551
710.02	27.390
710.34	28.989
710.66	25.698
710.98	27.869
711.29	21.978
711.61	26.554
711.93	29.630
712.25	28.108
712.57	35.103
712.89	28.824
713.20	24.852
713.52	29.480
713.84	28.691
714.16	28.158
714.48	27.835
714.80	27.273
715.11	28.609
715.43	29.443
715.75	29.211
716.07	30.110
716.39	27.596
716.70	26.205
717.02	27.869
717.34	24.390
717.66	26.174
717.97	21.233
718.29	24.055
718.61	24.671
718.93	25.890
719.24	23.602
719.56	26.380
719.88	28.529
720.20	26.774
720.51	26.708
720.83	24.063
721.15	24.671
721.46	22.945
721.78	26.000
722.10	21.359
722.42	29.195
722.73	22.903
723.05	24.912
723.37	27.431
723.68	27.240
724.00	26.715
724.32	23.592
724.63	24.825
724.95	30.496
725.27	22.648
725.58	23.675
725.90	27.241
726.22	21.944
726.53	29.870
726.85	26.730
727.16	23.263
727.48	27.829
727.80	26.159
728.11	22.968
728.43	29.966
728.74	25.418
729.06	25.828
729.38	24.026
729.69	29.530
730.01	28.869
730.32	23.333
730.64	26.101
730.96	26.398
731.27	29.050
731.59	23.352
731.90	25.455
732.22	26.562
732.53	24.862
732.85	23.429
733.16	23.754
733.48	26.524
733.80	28.412
734.11	27.350
734.43	25.135
734.74	30.380
735.06	27.638
735.37	23.784
735.69	25.676
736.00	27.684
736.32	26.685
736.63	25.833
736.95	26.724
737.26	26.970
737.58	25.455
737.89	28.235
738.21	23.547
738.52	22.623
738.83	23.891
739.15	26.596
739.46	28.571
739.78	27.914
740.09	24.069
740.41	26.531
740.72	31.333
741.04	26.537
741.35	27.719
741.66	25.882
741.98	24.180
742.29	28.870
742.61	24.561
742.92	25.769
743.23	27.437
743.55	26.744
743.86	27.200
744.18	16.529
744.49	22.363
744.80	28.807
745.12	22.785
745.43	26.423
745.74	21.552
746.06	23.729
746.37	28.270
746.68	26.829
747.00	24.583
747.31	24.893
747.62	26.923
747.94	23.077
748.25	24.096
748.56	21.224
748.88	21.795
749.19	22.845
749.50	21.212
749.82	25.703
750.13	26.335
750.44	22.000
750.75	26.769
751.07	25.231
751.38	24.921
751.69	23.642
752.01	27.184
752.32	29.739
752.63	27.211
752.94	27.336
753.26	25.279
753.57	24.074
753.88	27.341
754.19	26.367
754.51	25.080
754.82	24.116
755.13	28.197
755.44	26.280
755.75	24.671
756.07	25.672
756.38	25.472
756.69	26.506
757.00	26.593
757.31	25.956
757.63	25.831
757.94	27.230
758.25	26.637
758.56	25.272
758.87	26.136
759.18	27.200
759.50	25.496
759.81	26.891
760.12	26.146
760.43	26.042
760.74	25.862
761.05	26.500
761.36	24.096
761.67	25.635
761.99	26.486
762.30	23.476
762.61	20.132
762.92	29.104
763.23	21.723
763.54	24.820
763.85	22.337
764.16	27.609
764.47	26.056
764.78	27.157
765.10	27.273
765.41	26.410
765.72	25.661
766.03	27.684
766.34	23.511
766.65	26.481
766.96	19.124
767.27	19.355
767.58	22.886
767.89	29.808
768.20	28.169
768.51	24.074
768.82	20.482
769.13	23.485
769.44	21.538
769.75	22.744
770.06	26.923
770.37	27.953
770.68	21.702
770.99	25.506
771.30	27.778
771.61	20.913
771.92	21.111
772.23	25.101
772.54	17.130
772.85	25.346
773.16	22.857
773.47	16.931
773.78	14.595
774.09	22.727
774.39	26.500
774.70	22.404
775.01	10.976
775.32	12.353
775.63	15.337
775.94	12.102
776.25	13.548
776.56	23.077
776.87	17.687
777.18	20.690
777.48	20.280
777.79	16.216
778.10	15.441
778.41	18.056
778.72	20.690
779.03	18.519
779.34	20.000
779.65	16.580
779.95	23.333
780.26	18.750
780.57	21.290
780.88	13.768
781.19	27.097
781.50	21.176
781.80	27.419
782.11	20.106
782.42	20.707
782.73	23.353
783.04	18.994
783.34	16.364
783.65	18.301
783.96	23.602
784.27	17.262
784.57	15.894
784.88	15.714
785.19	8.661
785.50	14.173
785.81	18.045
786.11	16.923
786.42	11.511
786.73	15.827
787.04	13.534
787.34	13.934
787.65	16.800
787.96	14.179
788.26	21.678
788.57	23.776
788.88	12.500
789.19	26.797
789.49	6.164
789.80	21.986
790.11	11.024
790.41	7.031
790.72	13.559
791.03	11.650
791.33	6.957
791.64	10.526
791.95	11.607
792.25	15.238
792.56	18.750
792.87	6.250
793.17	17.857
793.48	5.208
793.79	-7.229
794.09	11.009
794.40	6.422
794.70	13.605
795.01	11.688
795.32	12.329
795.62	20.423
795.93	14.394
796.23	13.934
796.54	4.464
796.85	-1.064
797.15	5.435
797.46	-5.479
797.76	-1.250
798.07	10.870
798.37	-2.062
798.68	1.299
798.99	5.747
799.29	10.112
799.60	11.702
799.90	3.614
800.21	-3.077
800.51	5.970
800.82	-10.294
801.12	-13.699
801.43	-1.471
801.73	-10.169
802.04	-4.545
802.34	-13.333
802.65	-3.390
802.95	-1.493
803.26	-10.169
803.56	-2.740
803.87	14.286
804.17	-6.849
804.48	-15.789
804.78	-12.500
805.09	-18.966
805.39	12.162
805.70	-18.310
806.00	9.756
806.30	3.614
806.61	-9.589
806.91	15.385
807.22	8.889
807.52	13.793
807.83	4.167
808.13	7.229
808.43	7.865
808.74	2.500
809.04	-5.882
809.35	2.667
809.65	5.714
809.95	-8.219
810.26	0.000
810.56	-3.448
810.86	16.176
811.17	-1.754
811.47	-21.311
811.77	-17.778
812.08	-5.085
812.38	-8.333
812.69	-8.621
812.99	0.000
813.29	-17.949
813.59	6.000
813.90	1.754
814.20	-14.545
814.50	7.042
814.81	10.256
815.11	-14.754
815.41	2.985
815.72	8.621
816.02	1.786
816.32	8.889
816.62	-9.091
816.93	-11.111
817.23	-1.852
817.53	-19.149
817.84	-14.286
818.14	-32.353
818.44	-12.245
818.74	-11.111
819.04	-46.154
819.35	-60.000
819.65	-57.692
819.95	-28.302
820.25	-8.889
820.56	-14.286
820.86	-18.750
821.16	-38.462
821.46	-44.186
821.76	-36.000
822.07	5.357
822.37	-8.696
822.67	-34.043
822.97	-78.378
823.27	-20.000
823.57	2.041
823.88	0.000
824.18	-30.000
824.48	-20.000
824.78	-56.000
825.08	-27.273
825.38	-11.111
825.69	-25.532
825.99	-27.778
826.29	-80.000
826.59	-38.462
826.89	-39.535
827.19	-24.000
827.49	-20.588
827.79	2.083
828.09	-54.054
828.39	-40.000
828.70	-4.878
829.00	-2.326
829.30	-75.000
829.60	-17.647
829.90	-21.739
830.20	-22.857
830.50	-37.931
830.80	-105.556
831.10	-34.615
831.40	-58.824
831.70	-71.429
832.00	-6.452
832.30	-147.059
832.60	-100.000
832.90	-223.077
833.20	-94.737
833.50	-105.000
833.80	-94.737
834.10	-147.619
834.40	-25.000
834.70	-15.625
835.00	-48.571
835.30	-26.471
835.60	-40.000
835.90	-68.000
836.20	-95.455
836.50	-44.000
836.80	-42.424
837.10	-55.556
837.40	-40.741
837.70	-150.000
838.00	-46.429
838.30	-73.913
838.60	-10.345
838.90	-192.857
839.19	-108.696
839.49	-191.667
839.79	-52.174
840.09	-118.750
840.39	-100.000
840.69	-22.581
840.99	-53.571
841.29	-160.000
841.59	-110.526
841.88	-15.385
842.18	-42.308
842.48	-310.000
842.78	-115.000
843.08	-36.667
843.38	-9.677
843.68	-144.444
843.97	-23.529
844.27	-137.500
844.57	-115.789
844.87	-230.000
845.17	-186.667
845.47	-38.095
845.76	-123.810
846.06	-177.778
846.36	-111.765
846.66	-57.692
846.96	-186.667
847.25	-70.588
847.55	-13.043
847.85	-70.000
848.15	-117.647
848.44	-200.000
848.74	-90.476
849.04	-87.500
849.34	-131.250
849.63	-65.217
849.93	1400.000
850.23	-113.333
850.53	-19.231
850.82	-90.909
851.12	-68.182
851.42	-200.000
851.71	-130.769
852.01	-85.000
852.31	-92.308
852.61	-89.474
852.90	-75.000
853.20	-83.333
853.50	-277.778
853.79	-85.714
854.09	-72.727
854.39	-191.667
854.68	-32.258
854.98	-57.692
855.28	-22.222
855.57	-28.571
855.87	-72.000
856.17	-59.091
856.46	-40.741
856.76	-127.778
857.05	-113.043
857.35	-91.667
857.65	-192.308
857.94	-57.143
858.24	-37.037
858.53	-91.304
858.83	-94.118
859.13	-76.471
859.42	-88.235
859.72	-121.429
860.01	-90.000
860.31	-255.556
860.60	-210.000
860.90	-113.333
861.20	-100.000
861.49	-169.231
861.79	-46.667
862.08	-176.923
862.38	-62.500
862.67	-111.765
862.97	-143.750
863.26	-322.222
863.56	-210.000
863.85	-163.636
864.15	-77.778
864.44	-633.333
864.74	-85.714
865.03	-93.750
865.33	-170.000
865.62	-61.290
865.92	-68.182
866.21	-34.783
866.51	-164.286
866.80	-440.000
867.10	-158.333
867.39	-225.000
867.69	3000.000
867.98	-328.571
868.27	-105.882
868.57	-3500.000
868.86	-290.000
869.16	-109.524
869.45	-87.500
869.75	-154.545
870.04	-228.571
870.33	-191.667
870.63	-371.429
870.92	-400.000
871.22	-362.500
871.51	-200.000
871.80	-1200.000
872.10	-1500.000
>>>>>End Processed Spectral Data<<<<<
