SpectraSuite Data File
++++++++++++++++++++++++++++++++++++
Date: Thu May 14 14:41:23 PDT 2015
User: schluterlab
Dark Spectrum Present: Yes
Reference Spectrum Present: Yes
Number of Sampled Component Spectra: 1
Spectrometers: USB2E3373
Integration Time (usec): 3000 (USB2E3373)
Spectra Averaged: 3 (USB2E3373)
Boxcar Smoothing: 0 (USB2E3373)
Correct for Electrical Dark: No (USB2E3373)
Strobe/Lamp Enabled: No (USB2E3373)
Correct for Detector Non-linearity: No (USB2E3373)
Correct for Stray Light: No (USB2E3373)
Number of Pixels in Processed Spectrum: 2048
>>>>>Begin Processed Spectral Data<<<<<
178.53	0.000
178.91	-185.714
179.29	500.000
179.67	500.000
180.04	71.429
180.42	-40.000
180.80	-140.000
181.18	1100.000
181.56	1200.000
181.94	-75.000
182.31	325.000
182.69	-100.000
183.07	450.000
183.45	-175.000
183.83	233.333
184.20	100.000
184.58	-600.000
184.96	-100.000
185.34	77.778
185.72	180.000
186.09	-22.222
186.47	-0.000
186.85	100.000
187.23	-55.556
187.61	-1200.000
187.98	20.000
188.36	-250.000
188.74	325.000
189.12	166.667
189.49	106.250
189.87	75.000
190.25	200.000
190.63	160.000
191.00	11.111
191.38	0.000
191.76	75.000
192.14	200.000
192.51	-550.000
192.89	266.667
193.27	0.000
193.65	85.714
194.02	-800.000
194.40	-14.286
194.78	-242.857
195.15	0.000
195.53	100.000
195.91	0.000
196.29	275.000
196.66	38.462
197.04	400.000
197.42	0.000
197.79	850.000
198.17	62.500
198.55	171.429
198.92	155.556
199.30	75.000
199.68	163.636
200.05	150.000
200.43	300.000
200.81	14.286
201.18	0.000
201.56	11.111
201.94	0.000
202.31	-66.667
202.69	66.667
203.07	-200.000
203.44	111.111
203.82	100.000
204.19	158.333
204.57	133.333
204.95	12.500
205.32	300.000
205.70	-250.000
206.08	233.333
206.45	133.333
206.83	120.000
207.20	50.000
207.58	100.000
207.96	100.000
208.33	216.667
208.71	8.333
209.08	183.333
209.46	0.000
209.84	-200.000
210.21	-500.000
210.59	-350.000
210.96	-166.667
211.34	250.000
211.71	62.500
212.09	1000.000
212.46	0.000
212.84	150.000
213.22	-40.000
213.59	75.000
213.97	110.000
214.34	433.333
214.72	-166.667
215.09	300.000
215.47	0.000
215.84	-85.714
216.22	-0.000
216.59	40.000
216.97	-20.000
217.34	500.000
217.72	150.000
218.09	100.000
218.47	-50.000
218.84	0.000
219.22	-140.000
219.59	70.588
219.97	60.000
220.34	-0.000
220.72	44.444
221.09	100.000
221.47	400.000
221.84	100.000
222.22	14.286
222.59	0.000
222.97	312.500
223.34	200.000
223.72	-100.000
224.09	200.000
224.46	150.000
224.84	380.000
225.21	71.429
225.59	75.000
225.96	125.000
226.34	57.692
226.71	-116.667
227.08	450.000
227.46	20.000
227.83	25.000
228.21	52.632
228.58	-100.000
228.95	-50.000
229.33	83.333
229.70	100.000
230.08	78.947
230.45	-90.000
230.82	333.333
231.20	100.000
231.57	133.333
231.95	36.364
232.32	145.455
232.69	90.000
233.07	325.000
233.44	70.588
233.81	160.000
234.19	111.111
234.56	72.727
234.93	72.414
235.31	136.842
235.68	105.556
236.05	30.000
236.43	107.692
236.80	96.000
237.17	103.704
237.55	103.030
237.92	260.000
238.29	135.484
238.67	84.091
239.04	100.000
239.41	95.238
239.79	93.478
240.16	87.037
240.53	76.087
240.91	88.235
241.28	72.131
241.65	85.075
242.02	74.324
242.40	64.615
242.77	76.000
243.14	67.073
243.51	60.526
243.89	79.487
244.26	72.277
244.63	73.529
245.00	72.897
245.38	69.298
245.75	53.097
246.12	74.603
246.49	56.589
246.87	65.000
247.24	66.887
247.61	69.079
247.98	69.799
248.36	69.136
248.73	60.123
249.10	65.027
249.47	72.637
249.84	70.681
250.22	68.912
250.59	68.889
250.96	66.818
251.33	65.816
251.70	68.376
252.08	67.500
252.45	71.721
252.82	62.810
253.19	62.500
253.56	61.977
253.94	63.077
254.31	66.667
254.68	65.385
255.05	67.427
255.42	60.204
255.79	61.165
256.16	64.570
256.54	58.940
256.91	60.000
257.28	61.967
257.65	64.013
258.02	61.947
258.39	64.957
258.76	68.502
259.14	67.529
259.51	67.723
259.88	65.722
260.25	61.111
260.62	66.575
260.99	68.852
261.36	63.271
261.73	64.721
262.10	66.758
262.47	66.220
262.85	67.172
263.22	63.636
263.59	62.895
263.96	66.752
264.33	64.194
264.70	66.914
265.07	62.053
265.44	64.626
265.81	66.435
266.18	66.667
266.55	62.946
266.92	63.781
267.29	65.864
267.66	64.745
268.03	65.502
268.40	62.839
268.77	66.287
269.14	66.300
269.51	63.158
269.88	64.344
270.25	61.167
270.62	64.557
270.99	63.838
271.36	62.178
271.73	56.582
272.10	64.729
272.47	64.529
272.84	61.044
273.21	61.122
273.58	62.903
273.95	60.769
274.32	59.316
274.69	60.928
275.06	59.341
275.43	58.410
275.80	58.201
276.17	60.370
276.54	60.634
276.91	61.717
277.28	59.313
277.65	61.221
278.02	60.110
278.39	61.413
278.76	61.863
279.13	62.057
279.50	59.107
279.87	60.286
280.23	55.986
280.60	59.322
280.97	58.553
281.34	62.139
281.71	60.237
282.08	56.811
282.45	58.101
282.82	55.259
283.19	61.228
283.56	58.525
283.92	57.207
284.29	58.136
284.66	57.964
285.03	54.167
285.40	57.187
285.77	58.978
286.14	57.557
286.51	56.621
286.87	54.818
287.24	57.380
287.61	57.100
287.98	55.589
288.35	57.249
288.72	54.290
289.08	55.637
289.45	54.734
289.82	54.217
290.19	55.172
290.56	52.394
290.93	54.636
291.29	53.030
291.66	51.240
292.03	50.204
292.40	52.245
292.77	49.326
293.13	50.203
293.50	49.671
293.87	50.738
294.24	51.467
294.60	47.788
294.97	48.188
295.34	50.832
295.71	47.793
296.08	47.804
296.44	46.936
296.81	45.798
297.18	46.700
297.55	44.811
297.91	46.145
298.28	45.261
298.65	44.828
299.02	44.156
299.38	44.279
299.75	44.276
300.12	45.139
300.48	45.392
300.85	43.982
301.22	44.072
301.59	45.776
301.95	42.147
302.32	44.556
302.69	41.950
303.05	43.308
303.42	42.018
303.79	42.708
304.15	42.166
304.52	43.235
304.89	43.037
305.25	42.133
305.62	42.111
305.99	42.371
306.35	41.129
306.72	44.467
307.09	42.030
307.45	42.547
307.82	41.070
308.19	40.767
308.55	41.176
308.92	42.162
309.29	43.008
309.65	41.326
310.02	42.079
310.38	41.437
310.75	43.786
311.12	41.898
311.48	42.815
311.85	41.975
312.22	41.746
312.58	40.376
312.95	41.013
313.31	40.921
313.68	41.117
314.05	41.825
314.41	42.077
314.78	41.871
315.14	42.015
315.51	41.274
315.87	42.304
316.24	44.110
316.61	42.718
316.97	42.624
317.34	41.799
317.70	42.009
318.07	43.474
318.43	41.667
318.80	41.806
319.16	43.004
319.53	41.560
319.89	42.156
320.26	43.505
320.62	42.642
320.99	43.767
321.35	43.530
321.72	43.535
322.08	42.651
322.45	43.451
322.81	43.141
323.18	41.681
323.54	44.828
323.91	44.306
324.27	44.320
324.64	43.913
325.00	43.118
325.37	45.045
325.73	43.636
326.10	45.337
326.46	44.300
326.83	44.115
327.19	45.433
327.56	46.166
327.92	43.824
328.29	44.113
328.65	43.132
329.01	45.178
329.38	46.504
329.74	46.147
330.11	46.747
330.47	45.493
330.84	44.961
331.20	47.000
331.56	45.147
331.93	44.770
332.29	46.610
332.66	44.934
333.02	44.556
333.38	44.715
333.75	44.865
334.11	45.121
334.48	44.802
334.84	45.709
335.20	44.836
335.57	44.604
335.93	44.380
336.29	44.260
336.66	45.164
337.02	44.398
337.38	45.408
337.75	44.132
338.11	45.332
338.47	44.748
338.84	44.670
339.20	44.061
339.56	43.081
339.93	44.253
340.29	43.961
340.65	43.633
341.02	44.453
341.38	44.786
341.74	44.471
342.11	44.650
342.47	41.859
342.83	44.283
343.20	44.971
343.56	43.865
343.92	44.275
344.28	42.578
344.65	44.109
345.01	43.136
345.37	42.535
345.73	42.011
346.10	44.228
346.46	43.592
346.82	44.644
347.19	42.781
347.55	42.944
347.91	42.051
348.27	43.247
348.63	43.564
349.00	42.655
349.36	43.346
349.72	42.113
350.08	42.496
350.45	42.738
350.81	43.137
351.17	42.932
351.53	44.428
351.89	43.888
352.26	42.687
352.62	42.836
352.98	43.130
353.34	41.374
353.70	43.683
354.07	42.548
354.43	42.445
354.79	43.156
355.15	43.194
355.51	41.740
355.87	43.082
356.24	42.205
356.60	42.276
356.96	44.552
357.32	42.230
357.68	42.606
358.04	41.916
358.40	41.940
358.77	42.763
359.13	42.614
359.49	40.743
359.85	42.350
360.21	42.539
360.57	42.139
360.93	41.961
361.29	42.246
361.66	42.288
362.02	41.893
362.38	41.321
362.74	41.830
363.10	41.678
363.46	43.698
363.82	41.832
364.18	42.435
364.54	42.324
364.90	42.876
365.26	41.310
365.62	42.333
365.98	43.091
366.35	42.886
366.71	42.789
367.07	42.558
367.43	41.891
367.79	43.796
368.15	43.211
368.51	42.760
368.87	41.933
369.23	42.600
369.59	42.486
369.95	42.394
370.31	43.619
370.67	42.572
371.03	42.936
371.39	42.915
371.75	42.847
372.11	42.344
372.47	43.128
372.83	42.866
373.19	42.161
373.55	42.005
373.91	42.672
374.27	42.432
374.63	43.978
374.99	43.634
375.35	43.636
375.71	43.742
376.07	43.512
376.42	43.640
376.78	43.008
377.14	43.668
377.50	44.908
377.86	43.781
378.22	44.611
378.58	45.184
378.94	43.897
379.30	43.878
379.66	44.327
380.02	44.547
380.38	47.062
380.74	44.732
381.09	45.703
381.45	44.375
381.81	45.960
382.17	45.843
382.53	46.082
382.89	45.598
383.25	46.131
383.61	46.759
383.97	44.994
384.32	47.787
384.68	45.302
385.04	46.501
385.40	47.967
385.76	46.952
386.12	45.422
386.48	46.941
386.83	47.855
387.19	46.466
387.55	46.009
387.91	47.260
388.27	47.055
388.62	46.506
388.98	46.926
389.34	46.847
389.70	48.112
390.06	48.609
390.42	48.133
390.77	48.525
391.13	47.770
391.49	48.490
391.85	48.606
392.20	48.458
392.56	49.025
392.92	47.274
393.28	48.867
393.64	47.654
393.99	48.693
394.35	49.474
394.71	48.922
395.07	47.665
395.42	47.915
395.78	50.152
396.14	49.614
396.50	48.872
396.85	49.374
397.21	49.704
397.57	50.589
397.92	49.714
398.28	49.864
398.64	48.856
399.00	49.058
399.35	49.424
399.71	50.054
400.07	49.803
400.42	49.942
400.78	50.231
401.14	50.085
401.49	49.744
401.85	50.930
402.21	50.579
402.57	50.469
402.92	50.177
403.28	49.824
403.63	49.582
403.99	50.416
404.35	49.858
404.70	50.142
405.06	50.163
405.42	50.000
405.77	49.891
406.13	50.297
406.49	50.563
406.84	50.249
407.20	49.525
407.55	50.697
407.91	52.043
408.27	50.000
408.62	50.553
408.98	50.145
409.34	49.736
409.69	51.483
410.05	51.055
410.40	50.812
410.76	50.701
411.11	51.490
411.47	50.860
411.83	49.971
412.18	52.289
412.54	51.986
412.89	50.815
413.25	49.661
413.60	51.465
413.96	51.632
414.31	49.972
414.67	51.282
415.03	50.769
415.38	51.009
415.74	51.130
416.09	51.511
416.45	49.969
416.80	51.652
417.16	51.149
417.51	51.059
417.87	51.318
418.22	51.796
418.58	50.310
418.93	51.688
419.29	51.665
419.64	50.660
420.00	52.047
420.35	51.825
420.71	51.580
421.06	50.201
421.42	52.523
421.77	51.265
422.12	50.423
422.48	52.483
422.83	52.738
423.19	50.981
423.54	52.323
423.90	51.132
424.25	52.587
424.61	51.435
424.96	51.181
425.31	51.433
425.67	51.154
426.02	53.127
426.38	52.870
426.73	51.563
427.09	52.710
427.44	51.884
427.79	51.686
428.15	52.340
428.50	52.079
428.85	52.181
429.21	52.713
429.56	51.876
429.92	51.744
430.27	52.434
430.62	52.809
430.98	52.878
431.33	51.564
431.68	52.011
432.04	53.174
432.39	52.812
432.74	53.139
433.10	52.731
433.45	52.174
433.80	52.736
434.16	52.169
434.51	53.135
434.86	54.235
435.22	53.666
435.57	54.422
435.92	53.701
436.28	52.730
436.63	53.741
436.98	52.764
437.34	53.326
437.69	53.275
438.04	52.935
438.39	52.326
438.75	53.735
439.10	53.753
439.45	52.935
439.81	53.277
440.16	51.421
440.51	53.902
440.86	52.974
441.22	52.894
441.57	52.935
441.92	53.201
442.27	53.687
442.63	54.545
442.98	53.148
443.33	53.235
443.68	53.667
444.03	54.280
444.39	54.508
444.74	54.058
445.09	53.928
445.44	54.004
445.79	54.262
446.15	53.443
446.50	53.333
446.85	53.940
447.20	52.660
447.55	53.975
447.91	53.717
448.26	53.277
448.61	53.454
448.96	54.131
449.31	53.234
449.66	52.778
450.02	53.059
450.37	53.383
450.72	53.767
451.07	53.759
451.42	53.553
451.77	53.141
452.12	53.950
452.47	54.605
452.83	55.180
453.18	52.831
453.53	53.303
453.88	53.120
454.23	52.825
454.58	54.962
454.93	53.944
455.28	52.920
455.63	52.757
455.98	53.352
456.34	53.651
456.69	52.322
457.04	54.669
457.39	52.605
457.74	54.474
458.09	52.773
458.44	53.448
458.79	52.708
459.14	52.963
459.49	54.612
459.84	54.460
460.19	52.415
460.54	53.776
460.89	54.050
461.24	53.506
461.59	54.068
461.94	53.166
462.29	53.863
462.64	52.625
462.99	52.417
463.34	53.472
463.69	53.283
464.04	53.474
464.39	52.578
464.74	52.965
465.09	52.941
465.44	53.433
465.79	53.940
466.14	52.944
466.49	53.789
466.84	53.884
467.19	51.965
467.54	52.233
467.89	53.218
468.24	52.410
468.59	52.808
468.94	52.972
469.29	52.130
469.64	52.765
469.99	52.645
470.34	52.723
470.68	53.178
471.03	52.325
471.38	52.387
471.73	53.576
472.08	52.475
472.43	52.619
472.78	52.645
473.13	52.718
473.48	51.480
473.83	53.685
474.17	51.934
474.52	53.698
474.87	52.215
475.22	53.239
475.57	52.544
475.92	52.514
476.27	52.875
476.61	52.129
476.96	52.138
477.31	52.624
477.66	53.673
478.01	52.567
478.36	51.745
478.70	52.167
479.05	52.658
479.40	52.567
479.75	52.594
480.10	52.392
480.45	52.233
480.79	52.517
481.14	52.206
481.49	53.294
481.84	52.611
482.19	53.075
482.53	51.902
482.88	53.345
483.23	52.157
483.58	52.227
483.92	51.596
484.27	51.693
484.62	51.650
484.97	51.711
485.31	51.531
485.66	50.851
486.01	51.985
486.36	53.651
486.70	56.230
487.05	57.132
487.40	55.329
487.75	55.547
488.09	54.015
488.44	53.422
488.79	53.794
489.13	52.317
489.48	52.000
489.83	51.549
490.17	50.628
490.52	51.026
490.87	51.311
491.22	51.343
491.56	50.341
491.91	51.592
492.26	51.233
492.60	51.202
492.95	51.031
493.30	50.515
493.64	49.890
493.99	50.088
494.34	50.305
494.68	49.979
495.03	51.542
495.37	50.866
495.72	50.794
496.07	50.438
496.41	50.536
496.76	52.002
497.11	51.380
497.45	51.230
497.80	51.088
498.14	49.932
498.49	51.149
498.84	50.960
499.18	51.102
499.53	51.121
499.87	50.901
500.22	50.312
500.56	49.843
500.91	51.579
501.26	51.591
501.60	50.199
501.95	50.630
502.29	51.909
502.64	51.159
502.98	50.561
503.33	50.626
503.67	50.283
504.02	50.482
504.36	51.430
504.71	51.585
505.06	50.568
505.40	50.960
505.75	51.047
506.09	50.552
506.44	51.346
506.78	51.606
507.13	50.438
507.47	51.350
507.82	50.284
508.16	50.813
508.51	49.133
508.85	51.346
509.19	50.545
509.54	51.537
509.88	49.976
510.23	51.676
510.57	50.894
510.92	51.717
511.26	50.505
511.61	49.638
511.95	51.147
512.30	50.812
512.64	49.475
512.98	50.825
513.33	51.361
513.67	50.994
514.02	51.814
514.36	50.639
514.70	51.146
515.05	51.512
515.39	50.761
515.74	51.750
516.08	50.291
516.42	51.439
516.77	50.946
517.11	50.438
517.46	50.371
517.80	51.203
518.14	51.904
518.49	51.356
518.83	50.878
519.17	51.427
519.52	50.000
519.86	51.320
520.20	51.012
520.55	50.767
520.89	50.957
521.23	50.586
521.58	51.299
521.92	49.972
522.26	50.630
522.61	50.116
522.95	50.980
523.29	51.437
523.64	49.944
523.98	51.626
524.32	51.920
524.66	52.020
525.01	50.793
525.35	50.086
525.69	50.754
526.04	50.115
526.38	51.149
526.72	49.769
527.06	51.906
527.41	50.904
527.75	52.138
528.09	50.885
528.43	50.266
528.78	50.289
529.12	51.261
529.46	50.703
529.80	51.144
530.15	51.536
530.49	51.839
530.83	50.590
531.17	51.673
531.51	51.805
531.86	51.082
532.20	51.829
532.54	50.688
532.88	51.818
533.22	51.503
533.57	50.952
533.91	51.347
534.25	52.911
534.59	53.218
534.93	52.971
535.27	51.831
535.62	53.610
535.96	52.876
536.30	53.114
536.64	52.132
536.98	52.091
537.32	52.284
537.66	52.339
538.01	51.420
538.35	52.010
538.69	52.103
539.03	52.790
539.37	51.943
539.71	51.952
540.05	53.118
540.39	53.362
540.73	53.005
541.07	52.483
541.42	52.097
541.76	51.423
542.10	52.473
542.44	52.984
542.78	52.920
543.12	52.861
543.46	51.832
543.80	51.379
544.14	52.843
544.48	53.014
544.82	52.005
545.16	53.071
545.50	53.625
545.84	52.725
546.18	52.901
546.52	53.376
546.86	51.887
547.20	52.735
547.54	51.810
547.88	53.406
548.22	52.281
548.56	51.960
548.90	52.478
549.24	53.252
549.58	53.375
549.92	52.296
550.26	52.621
550.60	51.563
550.94	53.493
551.28	51.749
551.62	51.887
551.96	51.133
552.30	52.008
552.64	51.898
552.98	52.963
553.32	53.569
553.66	54.019
554.00	52.585
554.34	52.574
554.68	50.549
555.02	52.431
555.36	54.372
555.69	51.121
556.03	51.955
556.37	53.191
556.71	52.505
557.05	54.121
557.39	51.825
557.73	52.774
558.07	53.576
558.41	52.957
558.75	53.212
559.08	53.375
559.42	51.166
559.76	52.103
560.10	52.244
560.44	53.166
560.78	53.875
561.12	52.463
561.45	53.893
561.79	52.747
562.13	54.837
562.47	52.774
562.81	52.215
563.15	53.030
563.48	52.766
563.82	53.023
564.16	52.877
564.50	53.695
564.84	52.625
565.17	53.412
565.51	52.877
565.85	54.632
566.19	52.419
566.52	53.774
566.86	54.160
567.20	52.909
567.54	54.700
567.88	55.199
568.21	53.706
568.55	55.012
568.89	55.788
569.23	55.682
569.56	56.077
569.90	56.415
570.24	56.459
570.57	56.928
570.91	57.532
571.25	56.841
571.59	57.195
571.92	57.463
572.26	57.438
572.60	58.176
572.93	58.002
573.27	56.898
573.61	57.861
573.95	57.927
574.28	56.739
574.62	58.254
574.96	56.573
575.29	57.347
575.63	57.404
575.97	58.204
576.30	56.921
576.64	57.266
576.98	56.925
577.31	57.797
577.65	58.976
577.98	58.114
578.32	57.989
578.66	58.406
578.99	58.816
579.33	58.871
579.67	58.522
580.00	57.361
580.34	58.246
580.67	58.120
581.01	57.810
581.35	57.919
581.68	57.551
582.02	57.736
582.35	59.454
582.69	59.682
583.02	59.895
583.36	59.889
583.70	59.373
584.03	58.723
584.37	58.726
584.70	57.531
585.04	57.963
585.37	57.556
585.71	57.584
586.04	58.432
586.38	57.985
586.72	58.210
587.05	59.120
587.39	58.290
587.72	58.541
588.06	58.438
588.39	59.149
588.73	57.989
589.06	58.916
589.40	59.465
589.73	57.808
590.07	58.720
590.40	58.452
590.73	58.218
591.07	57.856
591.40	57.076
591.74	57.353
592.07	56.841
592.41	56.625
592.74	56.585
593.08	57.707
593.41	57.772
593.75	57.960
594.08	58.831
594.41	58.686
594.75	57.954
595.08	58.042
595.42	57.890
595.75	58.185
596.09	58.184
596.42	57.793
596.75	57.391
597.09	58.141
597.42	57.290
597.75	56.527
598.09	56.706
598.42	57.298
598.76	56.668
599.09	56.355
599.42	56.487
599.76	57.280
600.09	57.658
600.42	58.158
600.76	57.728
601.09	57.351
601.42	58.050
601.76	56.759
602.09	57.255
602.42	56.670
602.76	57.122
603.09	57.342
603.42	58.671
603.76	58.175
604.09	59.049
604.42	58.385
604.76	57.268
605.09	57.439
605.42	57.257
605.75	58.038
606.09	57.447
606.42	56.257
606.75	56.259
607.09	56.336
607.42	57.148
607.75	57.991
608.08	56.906
608.42	56.711
608.75	57.794
609.08	57.088
609.41	58.006
609.75	57.188
610.08	57.256
610.41	56.797
610.74	57.437
611.07	57.282
611.41	57.130
611.74	57.829
612.07	57.129
612.40	57.367
612.73	57.213
613.07	56.675
613.40	57.218
613.73	56.668
614.06	57.360
614.39	56.220
614.72	55.798
615.06	55.775
615.39	56.114
615.72	56.635
616.05	56.824
616.38	58.325
616.71	56.374
617.05	57.242
617.38	56.447
617.71	56.965
618.04	57.798
618.37	57.814
618.70	56.052
619.03	56.571
619.36	56.042
619.69	56.118
620.03	55.304
620.36	55.153
620.69	54.904
621.02	56.824
621.35	56.604
621.68	56.038
622.01	53.950
622.34	54.881
622.67	55.945
623.00	54.993
623.33	55.474
623.66	57.458
623.99	55.168
624.32	55.491
624.65	56.178
624.99	56.957
625.32	57.152
625.65	57.114
625.98	55.051
626.31	55.634
626.64	55.824
626.97	55.289
627.30	55.049
627.63	54.839
627.96	55.480
628.29	54.942
628.62	55.332
628.95	55.478
629.28	53.951
629.61	53.788
629.94	53.473
630.26	53.390
630.59	54.750
630.92	54.026
631.25	53.220
631.58	53.955
631.91	54.733
632.24	54.851
632.57	52.277
632.90	53.962
633.23	53.163
633.56	51.939
633.89	52.789
634.22	54.054
634.55	53.549
634.88	54.004
635.20	54.144
635.53	53.446
635.86	50.488
636.19	51.750
636.52	52.848
636.85	51.379
637.18	52.391
637.51	52.688
637.83	52.935
638.16	52.765
638.49	54.343
638.82	52.424
639.15	51.546
639.48	53.811
639.81	52.887
640.13	51.943
640.46	49.576
640.79	51.716
641.12	53.665
641.45	52.698
641.77	54.044
642.10	50.919
642.43	53.457
642.76	52.981
643.09	50.959
643.41	52.801
643.74	51.586
644.07	53.379
644.40	51.485
644.73	50.508
645.05	50.073
645.38	50.935
645.71	51.173
646.04	51.076
646.36	51.825
646.69	50.920
647.02	50.306
647.35	52.977
647.67	52.657
648.00	53.185
648.33	51.952
648.66	50.499
648.98	52.109
649.31	53.180
649.64	51.926
649.96	51.326
650.29	52.156
650.62	49.646
650.94	51.802
651.27	50.599
651.60	50.146
651.92	51.216
652.25	51.809
652.58	50.894
652.90	51.163
653.23	53.662
653.56	53.495
653.88	51.826
654.21	51.972
654.54	53.902
654.86	51.700
655.19	50.314
655.52	53.951
655.84	56.375
656.17	69.938
656.49	97.844
656.82	100.008
657.15	96.961
657.47	67.764
657.80	50.212
658.13	39.674
658.45	52.222
658.78	62.864
659.10	61.546
659.43	58.558
659.75	58.492
660.08	54.006
660.41	52.523
660.73	51.539
661.06	51.689
661.38	51.037
661.71	49.483
662.03	51.499
662.36	50.984
662.68	52.908
663.01	50.973
663.33	51.229
663.66	51.648
663.98	51.154
664.31	51.220
664.63	50.867
664.96	49.909
665.28	48.276
665.61	52.797
665.93	51.071
666.26	49.462
666.58	46.310
666.91	54.019
667.23	52.952
667.56	50.690
667.88	51.000
668.21	51.758
668.53	47.683
668.86	51.277
669.18	52.546
669.50	52.286
669.83	49.800
670.15	53.543
670.48	51.190
670.80	51.434
671.13	47.259
671.45	50.197
671.77	55.932
672.10	48.500
672.42	50.809
672.75	52.074
673.07	54.179
673.39	51.156
673.72	53.020
674.04	55.000
674.37	54.025
674.69	53.792
675.01	53.714
675.34	49.809
675.66	49.625
675.98	50.746
676.31	51.953
676.63	51.331
676.95	50.766
677.28	52.218
677.60	48.425
677.92	51.440
678.25	50.457
678.57	54.093
678.89	52.048
679.22	51.045
679.54	51.966
679.86	52.881
680.18	52.073
680.51	54.560
680.83	52.209
681.15	52.069
681.48	53.713
681.80	51.468
682.12	51.049
682.44	50.584
682.77	50.532
683.09	53.598
683.41	50.581
683.73	49.146
684.06	51.661
684.38	52.057
684.70	54.399
685.02	53.356
685.34	50.582
685.67	54.259
685.99	52.301
686.31	51.890
686.63	53.870
686.96	54.574
687.28	51.792
687.60	56.566
687.92	51.768
688.24	52.421
688.56	51.034
688.89	51.180
689.21	54.599
689.53	51.569
689.85	51.282
690.17	49.815
690.49	52.988
690.82	54.257
691.14	48.381
691.46	53.155
691.78	54.144
692.10	53.211
692.42	50.714
692.74	50.454
693.06	51.296
693.39	50.474
693.71	53.571
694.03	52.045
694.35	51.810
694.67	54.825
694.99	53.191
695.31	50.993
695.63	53.896
695.95	50.104
696.27	52.308
696.59	52.655
696.91	49.099
697.23	54.945
697.56	51.120
697.88	54.735
698.20	55.179
698.52	53.977
698.84	52.807
699.16	52.449
699.48	53.347
699.80	51.915
700.12	53.712
700.44	48.157
700.76	53.919
701.08	50.605
701.40	52.591
701.72	50.995
702.04	53.209
702.36	51.832
702.68	49.389
703.00	53.545
703.32	51.724
703.64	50.611
703.96	48.926
704.28	51.106
704.60	50.886
704.91	50.000
705.23	52.877
705.55	50.975
705.87	55.152
706.19	51.227
706.51	50.301
706.83	51.585
707.15	46.825
707.47	49.533
707.79	51.310
708.11	49.364
708.43	49.032
708.74	49.777
709.06	51.972
709.38	54.460
709.70	51.861
710.02	48.320
710.34	53.457
710.66	51.676
710.98	52.732
711.29	49.451
711.61	50.000
711.93	51.282
712.25	47.568
712.57	49.263
712.89	49.118
713.20	50.888
713.52	53.757
713.84	49.582
714.16	47.632
714.48	54.639
714.80	52.987
715.11	50.656
715.43	51.459
715.75	52.632
716.07	52.210
716.39	53.279
716.70	47.892
717.02	50.492
717.34	51.568
717.66	51.678
717.97	44.863
718.29	50.859
718.61	47.697
718.93	49.515
719.24	53.416
719.56	50.920
719.88	51.351
720.20	52.903
720.51	53.106
720.83	46.875
721.15	52.632
721.46	51.370
721.78	50.667
722.10	52.751
722.42	49.329
722.73	50.323
723.05	49.123
723.37	51.042
723.68	54.839
724.00	53.069
724.32	49.296
724.63	50.350
724.95	52.128
725.27	48.084
725.58	51.943
725.90	51.379
726.22	49.843
726.53	56.494
726.85	53.459
727.16	48.036
727.48	50.765
727.80	49.338
728.11	55.477
728.43	49.832
728.74	54.181
729.06	50.662
729.38	55.519
729.69	51.007
730.01	49.107
730.32	49.091
730.64	54.403
730.96	47.826
731.27	52.514
731.59	55.220
731.90	49.610
732.22	51.042
732.53	51.657
732.85	53.714
733.16	51.906
733.48	48.780
733.80	49.025
734.11	52.991
734.43	51.081
734.74	55.696
735.06	52.513
735.37	53.784
735.69	52.162
736.00	55.650
736.32	50.404
736.63	51.944
736.95	52.011
737.26	57.879
737.58	51.818
737.89	51.765
738.21	51.376
738.52	50.820
738.83	53.925
739.15	52.128
739.46	53.741
739.78	50.920
740.09	49.857
740.41	51.603
740.72	51.000
741.04	53.074
741.35	52.632
741.66	50.980
741.98	52.459
742.29	48.954
742.61	53.947
742.92	54.615
743.23	50.181
743.55	51.550
743.86	51.600
744.18	48.347
744.49	45.992
744.80	52.675
745.12	53.165
745.43	49.187
745.74	53.017
746.06	50.847
746.37	57.806
746.68	50.407
747.00	55.833
747.31	52.790
747.62	52.692
747.94	53.036
748.25	51.406
748.56	48.571
748.88	50.427
749.19	53.879
749.50	52.381
749.82	51.004
750.13	50.890
750.44	48.667
750.75	56.308
751.07	49.538
751.38	48.896
751.69	52.396
752.01	53.074
752.32	53.595
752.63	52.381
752.94	54.671
753.26	50.186
753.57	50.741
753.88	53.933
754.19	50.804
754.51	54.341
754.82	49.839
755.13	55.738
755.44	51.536
755.75	51.645
756.07	52.537
756.38	58.176
756.69	51.807
757.00	49.584
757.31	45.902
757.63	51.151
757.94	50.000
758.25	50.564
758.56	50.763
758.87	48.636
759.18	50.400
759.50	54.958
759.81	54.622
760.12	52.291
760.43	53.385
760.74	51.724
761.05	53.750
761.36	51.325
761.67	53.299
761.99	49.730
762.30	52.134
762.61	44.554
762.92	52.985
763.23	52.060
763.54	50.000
763.85	52.577
764.16	53.199
764.47	55.282
764.78	55.591
765.10	53.959
765.41	52.564
765.72	53.175
766.03	50.000
766.34	49.530
766.65	48.432
766.96	54.183
767.27	56.221
767.58	53.234
767.89	51.923
768.20	53.052
768.51	50.463
768.82	53.815
769.13	53.030
769.44	49.231
769.75	55.235
770.06	50.000
770.37	54.331
770.68	49.787
770.99	51.417
771.30	58.889
771.61	56.654
771.92	50.741
772.23	56.680
772.54	47.222
772.85	55.760
773.16	53.810
773.47	57.143
773.78	48.108
774.09	60.795
774.39	59.000
774.70	51.913
775.01	51.220
775.32	40.000
775.63	43.558
775.94	56.051
776.25	52.258
776.56	55.128
776.87	55.102
777.18	45.517
777.48	51.748
777.79	45.270
778.10	52.941
778.41	45.833
778.72	53.793
779.03	49.383
779.34	52.727
779.65	50.259
779.95	54.444
780.26	48.864
780.57	55.484
780.88	58.696
781.19	58.065
781.50	57.647
781.80	55.376
782.11	53.968
782.42	47.980
782.73	51.497
783.04	51.955
783.34	51.515
783.65	55.556
783.96	49.068
784.27	49.405
784.57	50.331
784.88	55.000
785.19	56.693
785.50	47.244
785.81	47.368
786.11	54.615
786.42	48.201
786.73	49.640
787.04	57.143
787.34	55.738
787.65	63.200
787.96	51.493
788.26	56.643
788.57	57.343
788.88	54.605
789.19	52.288
789.49	54.110
789.80	52.482
790.11	57.480
790.41	46.875
790.72	51.695
791.03	44.660
791.33	53.913
791.64	47.368
791.95	47.321
792.25	52.381
792.56	41.071
792.87	45.833
793.17	47.321
793.48	45.833
793.79	54.217
794.09	51.376
794.40	55.046
794.70	48.299
795.01	41.558
795.32	55.479
795.62	50.000
795.93	44.697
796.23	53.279
796.54	47.321
796.85	52.128
797.15	44.565
797.46	50.685
797.76	47.500
798.07	53.261
798.37	36.082
798.68	62.338
798.99	47.126
799.29	57.303
799.60	51.064
799.90	49.398
800.21	61.538
800.51	55.224
800.82	61.765
801.12	32.877
801.43	58.824
801.73	54.237
802.04	56.061
802.34	46.667
802.65	50.847
802.95	59.701
803.26	61.017
803.56	54.795
803.87	68.571
804.17	46.575
804.48	52.632
804.78	43.056
805.09	39.655
805.39	48.649
805.70	26.761
806.00	57.317
806.30	37.349
806.61	38.356
806.91	48.077
807.22	53.333
807.52	48.276
807.83	63.889
808.13	54.217
808.43	48.315
808.74	56.250
809.04	54.412
809.35	46.667
809.65	60.000
809.95	52.055
810.26	45.614
810.56	44.828
810.86	55.882
811.17	63.158
811.47	52.459
811.77	60.000
812.08	50.847
812.38	46.667
812.69	58.621
812.99	45.283
813.29	53.846
813.59	76.000
813.90	54.386
814.20	58.182
814.50	63.380
814.81	55.128
815.11	65.574
815.41	59.701
815.72	74.138
816.02	67.857
816.32	60.000
816.62	75.000
816.93	42.222
817.23	61.111
817.53	80.851
817.84	76.190
818.14	64.706
818.44	63.265
818.74	68.889
819.04	56.410
819.35	62.857
819.65	57.692
819.95	66.038
820.25	60.000
820.56	40.476
820.86	78.125
821.16	71.795
821.46	55.814
821.76	52.000
822.07	58.929
822.37	47.826
822.67	48.936
822.97	32.432
823.27	57.500
823.57	73.469
823.88	62.222
824.18	82.500
824.48	33.333
824.78	68.000
825.08	84.848
825.38	64.444
825.69	68.085
825.99	66.667
826.29	42.857
826.59	51.282
826.89	51.163
827.19	40.000
827.49	79.412
827.79	54.167
828.09	56.757
828.39	60.000
828.70	51.220
829.00	60.465
829.30	64.286
829.60	97.059
829.90	50.000
830.20	91.429
830.50	82.759
830.80	127.778
831.10	92.308
831.40	100.000
831.70	104.762
832.00	96.774
832.30	29.412
832.60	33.333
832.90	100.000
833.20	36.842
833.50	75.000
833.80	94.737
834.10	47.619
834.40	63.889
834.70	87.500
835.00	48.571
835.30	47.059
835.60	40.000
835.90	60.000
836.20	9.091
836.50	84.000
836.80	39.394
837.10	33.333
837.40	85.185
837.70	31.250
838.00	57.143
838.30	34.783
838.60	72.414
838.90	85.714
839.19	17.391
839.49	8.333
839.79	60.870
840.09	75.000
840.39	35.000
840.69	61.290
840.99	46.429
841.29	140.000
841.59	63.158
841.88	74.359
842.18	73.077
842.48	70.000
842.78	120.000
843.08	93.333
843.38	77.419
843.68	83.333
843.97	64.706
844.27	87.500
844.57	78.947
844.87	10.000
845.17	60.000
845.47	114.286
845.76	61.905
846.06	144.444
846.36	5.882
846.66	30.769
846.96	33.333
847.25	58.824
847.55	56.522
847.85	110.000
848.15	58.824
848.44	154.545
848.74	38.095
849.04	54.167
849.34	112.500
849.63	108.696
849.93	-200.000
850.23	100.000
850.53	73.077
850.82	109.091
851.12	127.273
851.42	90.909
851.71	76.923
852.01	-10.000
852.31	100.000
852.61	63.158
852.90	150.000
853.20	116.667
853.50	33.333
853.79	38.095
854.09	50.000
854.39	50.000
854.68	67.742
854.98	42.308
855.28	155.556
855.57	42.857
855.87	56.000
856.17	77.273
856.46	48.148
856.76	27.778
857.05	65.217
857.35	12.500
857.65	115.385
857.94	66.667
858.24	74.074
858.53	95.652
858.83	5.882
859.13	64.706
859.42	82.353
859.72	92.857
860.01	20.000
860.31	155.556
860.60	90.000
860.90	140.000
861.20	100.000
861.49	100.000
861.79	33.333
862.08	115.385
862.38	56.250
862.67	41.176
862.97	93.750
863.26	22.222
863.56	60.000
863.85	90.909
864.15	72.222
864.44	100.000
864.74	71.429
865.03	50.000
865.33	-30.000
865.62	74.194
865.92	95.455
866.21	60.870
866.51	92.857
866.80	60.000
867.10	25.000
867.39	58.333
867.69	-600.000
867.98	300.000
868.27	94.118
868.57	100.000
868.86	80.000
869.16	71.429
869.45	54.167
869.75	54.545
870.04	28.571
870.33	41.667
870.63	57.143
870.92	175.000
871.22	162.500
871.51	54.545
871.80	300.000
872.10	450.000
>>>>>End Processed Spectral Data<<<<<
