SpectraSuite Data File
++++++++++++++++++++++++++++++++++++
Date: Thu May 14 14:29:39 PDT 2015
User: schluterlab
Dark Spectrum Present: Yes
Reference Spectrum Present: Yes
Number of Sampled Component Spectra: 1
Spectrometers: USB2E3373
Integration Time (usec): 3000 (USB2E3373)
Spectra Averaged: 3 (USB2E3373)
Boxcar Smoothing: 0 (USB2E3373)
Correct for Electrical Dark: No (USB2E3373)
Strobe/Lamp Enabled: No (USB2E3373)
Correct for Detector Non-linearity: No (USB2E3373)
Correct for Stray Light: No (USB2E3373)
Number of Pixels in Processed Spectrum: 2048
>>>>>Begin Processed Spectral Data<<<<<
178.53	0.000
178.91	-100.000
179.29	400.000
179.67	400.000
180.04	7.143
180.42	-100.000
180.80	-120.000
181.18	600.000
181.56	1600.000
181.94	-300.000
182.31	350.000
182.69	-333.333
183.07	700.000
183.45	-350.000
183.83	300.000
184.20	566.667
184.58	-1300.000
184.96	225.000
185.34	100.000
185.72	380.000
186.09	-33.333
186.47	-800.000
186.85	-40.000
187.23	66.667
187.61	1200.000
187.98	-220.000
188.36	-100.000
188.74	200.000
189.12	366.667
189.49	100.000
189.87	87.500
190.25	166.667
190.63	260.000
191.00	144.444
191.38	0.000
191.76	350.000
192.14	166.667
192.51	-700.000
192.89	166.667
193.27	0.000
193.65	171.429
194.02	300.000
194.40	171.429
194.78	-114.286
195.15	0.000
195.53	127.273
195.91	0.000
196.29	425.000
196.66	76.923
197.04	1000.000
197.42	85.714
197.79	700.000
198.17	87.500
198.55	228.571
198.92	133.333
199.30	87.500
199.68	118.182
200.05	107.143
200.43	300.000
200.81	-57.143
201.18	0.000
201.56	-77.778
201.94	0.000
202.31	-66.667
202.69	177.778
203.07	-1500.000
203.44	77.778
203.82	525.000
204.19	91.667
204.57	66.667
204.95	225.000
205.32	1800.000
205.70	-375.000
206.08	283.333
206.45	150.000
206.83	-120.000
207.20	250.000
207.58	240.000
207.96	166.667
208.33	266.667
208.71	-16.667
209.08	333.333
209.46	0.000
209.84	-116.667
210.21	-850.000
210.59	-350.000
210.96	-233.333
211.34	425.000
211.71	275.000
212.09	1900.000
212.46	0.000
212.84	200.000
213.22	140.000
213.59	600.000
213.97	200.000
214.34	633.333
214.72	-150.000
215.09	300.000
215.47	0.000
215.84	-157.143
216.22	-500.000
216.59	140.000
216.97	240.000
217.34	200.000
217.72	262.500
218.09	100.000
218.47	150.000
218.84	0.000
219.22	-320.000
219.59	123.529
219.97	115.000
220.34	-850.000
220.72	55.556
221.09	161.538
221.47	500.000
221.84	120.000
222.22	85.714
222.59	0.000
222.97	87.500
223.34	140.000
223.72	400.000
224.09	300.000
224.46	200.000
224.84	400.000
225.21	71.429
225.59	-100.000
225.96	125.000
226.34	107.692
226.71	-116.667
227.08	600.000
227.46	100.000
227.83	200.000
228.21	68.421
228.58	-150.000
228.95	-350.000
229.33	183.333
229.70	140.000
230.08	131.579
230.45	-40.000
230.82	366.667
231.20	150.000
231.57	175.000
231.95	45.455
232.32	145.455
232.69	100.000
233.07	500.000
233.44	70.588
233.81	100.000
234.19	94.444
234.56	72.727
234.93	65.517
235.31	84.211
235.68	77.778
236.05	60.000
236.43	88.462
236.80	44.000
237.17	74.074
237.55	54.545
237.92	120.000
238.29	67.742
238.67	54.545
239.04	63.889
239.41	35.714
239.79	60.870
240.16	42.593
240.53	50.000
240.91	47.059
241.28	31.148
241.65	37.313
242.02	36.486
242.40	40.000
242.77	38.667
243.14	18.293
243.51	10.526
243.89	14.103
244.26	26.733
244.63	28.431
245.00	29.907
245.38	24.561
245.75	12.389
246.12	19.841
246.49	19.380
246.87	32.857
247.24	14.570
247.61	30.921
247.98	20.134
248.36	26.543
248.73	14.724
249.10	19.126
249.47	24.876
249.84	23.037
250.22	21.244
250.59	25.000
250.96	24.091
251.33	15.816
251.70	18.803
252.08	20.833
252.45	20.902
252.82	19.421
253.19	22.656
253.56	17.490
253.94	17.692
254.31	18.561
254.68	21.329
255.05	24.104
255.42	16.667
255.79	16.181
256.16	18.543
256.54	16.887
256.91	16.393
257.28	17.705
257.65	19.745
258.02	16.814
258.39	19.373
258.76	20.489
259.14	22.126
259.51	17.291
259.88	17.280
260.25	16.389
260.62	16.712
260.99	20.492
261.36	18.231
261.73	18.568
262.10	18.956
262.47	17.426
262.85	20.455
263.22	16.623
263.59	13.947
263.96	18.159
264.33	16.368
264.70	17.778
265.07	19.093
265.44	19.274
265.81	16.667
266.18	19.955
266.55	16.518
266.92	14.123
267.29	19.912
267.66	15.743
268.03	16.157
268.40	17.745
268.77	15.262
269.14	15.419
269.51	14.254
269.88	18.238
270.25	15.694
270.62	18.143
270.99	17.778
271.36	17.426
271.73	17.682
272.10	17.034
272.47	15.832
272.84	16.466
273.21	15.631
273.58	17.742
273.95	16.731
274.32	15.779
274.69	15.280
275.06	18.315
275.43	14.603
275.80	16.402
276.17	14.630
276.54	14.179
276.91	13.596
277.28	16.817
277.65	16.338
278.02	18.015
278.39	13.587
278.76	16.344
279.13	15.426
279.50	15.636
279.87	15.742
280.23	12.852
280.60	15.424
280.97	14.309
281.34	15.789
281.71	19.289
282.08	15.781
282.45	16.367
282.82	14.600
283.19	13.570
283.56	15.902
283.92	16.216
284.29	14.534
284.66	14.286
285.03	14.583
285.40	16.538
285.77	13.777
286.14	17.099
286.51	15.221
286.87	14.376
287.24	15.512
287.61	13.303
287.98	13.746
288.35	14.645
288.72	15.237
289.08	15.081
289.45	14.349
289.82	13.253
290.19	14.368
290.56	13.380
290.93	11.412
291.29	14.050
291.66	13.636
292.03	13.026
292.40	14.150
292.77	12.938
293.13	13.532
293.50	12.746
293.87	13.020
294.24	14.800
294.60	13.401
294.97	11.812
295.34	14.853
295.71	12.358
296.08	12.403
296.44	12.868
296.81	10.962
297.18	12.329
297.55	11.085
297.91	13.523
298.28	11.967
298.65	12.010
299.02	11.452
299.38	12.929
299.75	10.981
300.12	10.880
300.48	12.558
300.85	10.911
301.22	11.745
301.59	11.416
301.95	11.299
302.32	12.333
302.69	10.843
303.05	12.949
303.42	11.308
303.79	10.833
304.15	11.356
304.52	10.888
304.89	11.518
305.25	12.215
305.62	12.644
305.99	10.825
306.35	10.685
306.72	11.169
307.09	11.675
307.45	12.215
307.82	10.898
308.19	10.394
308.55	12.343
308.92	10.711
309.29	11.303
309.65	10.136
310.02	10.594
310.38	10.630
310.75	10.777
311.12	11.505
311.48	10.166
311.85	11.016
312.22	10.721
312.58	11.455
312.95	10.134
313.31	11.472
313.68	10.989
314.05	12.014
314.41	10.747
314.78	10.990
315.14	10.980
315.51	11.450
315.87	11.251
316.24	10.959
316.61	11.456
316.97	9.955
317.34	10.758
317.70	12.052
318.07	11.552
318.43	11.735
318.80	12.291
319.16	11.674
319.53	10.626
319.89	10.692
320.26	11.833
320.62	11.259
320.99	11.819
321.35	10.998
321.72	12.279
322.08	11.181
322.45	10.659
322.81	10.108
323.18	11.327
323.54	11.552
323.91	10.943
324.27	11.102
324.64	12.427
325.00	11.111
325.37	11.384
325.73	11.570
326.10	12.328
326.46	12.378
326.83	11.930
327.19	10.236
327.56	11.858
327.92	10.071
328.29	10.161
328.65	11.223
329.01	11.421
329.38	12.216
329.74	11.130
330.11	11.387
330.47	11.373
330.84	11.542
331.20	11.083
331.56	11.005
331.93	11.464
332.29	10.424
332.66	11.379
333.02	11.558
333.38	11.326
333.75	11.616
334.11	10.842
334.48	11.056
334.84	11.555
335.20	11.251
335.57	12.142
335.93	10.661
336.29	10.899
336.66	11.186
337.02	10.702
337.38	11.905
337.75	10.413
338.11	11.943
338.47	10.670
338.84	10.829
339.20	10.194
339.56	10.956
339.93	11.576
340.29	11.353
340.65	10.706
341.02	11.971
341.38	11.803
341.74	10.896
342.11	11.826
342.47	9.690
342.83	11.433
343.20	9.730
343.56	10.505
343.92	12.090
344.28	10.625
344.65	12.093
345.01	10.686
345.37	11.820
345.73	10.678
346.10	11.778
346.46	9.415
346.82	11.236
347.19	10.084
347.55	11.002
347.91	10.104
348.27	9.939
348.63	10.967
349.00	10.515
349.36	11.078
349.72	11.458
350.08	11.664
350.45	9.354
350.81	11.538
351.17	10.376
351.53	10.842
351.89	10.554
352.26	11.045
352.62	11.418
352.98	9.389
353.34	9.709
353.70	10.401
354.07	10.432
354.43	11.010
354.79	11.219
355.15	10.375
355.51	11.550
355.87	10.396
356.24	10.722
356.60	10.200
356.96	11.045
357.32	10.409
357.68	9.883
358.04	11.078
358.40	9.701
358.77	10.819
359.13	10.709
359.49	10.112
359.85	10.152
360.21	10.760
360.57	9.404
360.93	9.379
361.29	10.526
361.66	10.282
362.02	10.926
362.38	9.065
362.74	10.615
363.10	10.454
363.46	9.972
363.82	10.014
364.18	10.345
364.54	10.650
364.90	9.699
365.26	10.621
365.62	10.733
365.98	10.551
366.35	11.141
366.71	10.340
367.07	10.217
367.43	9.915
367.79	10.418
368.15	10.033
368.51	10.758
368.87	10.059
369.23	8.733
369.59	9.768
369.95	9.601
370.31	10.331
370.67	10.248
371.03	8.795
371.39	10.141
371.75	9.629
372.11	10.027
372.47	9.140
372.83	10.537
373.19	9.673
373.55	9.485
373.91	9.475
374.27	10.479
374.63	9.878
374.99	10.477
375.35	9.935
375.71	9.806
376.07	8.844
376.42	9.383
376.78	10.193
377.14	10.356
377.50	9.551
377.86	10.345
378.22	10.240
378.58	9.750
378.94	9.742
379.30	9.842
379.66	9.759
380.02	9.521
380.38	9.965
380.74	8.958
381.09	9.930
381.45	10.682
381.81	9.836
382.17	10.333
382.53	9.181
382.89	10.045
383.25	9.848
383.61	9.664
383.97	9.776
384.32	10.586
384.68	8.701
385.04	10.642
385.40	10.018
385.76	10.844
386.12	9.814
386.48	10.353
386.83	10.369
387.19	10.023
387.55	9.272
387.91	9.304
388.27	10.393
388.62	10.137
388.98	9.024
389.34	10.194
389.70	9.762
390.06	9.473
390.42	9.639
390.77	10.596
391.13	10.094
391.49	10.205
391.85	9.455
392.20	9.727
392.56	10.337
392.92	9.760
393.28	9.784
393.64	10.223
393.99	9.762
394.35	10.572
394.71	10.659
395.07	9.222
395.42	9.709
395.78	9.933
396.14	9.863
396.50	9.679
396.85	9.600
397.21	9.645
397.57	9.835
397.92	9.679
398.28	9.723
398.64	10.069
399.00	9.476
399.35	10.105
399.71	9.728
400.07	9.826
400.42	9.662
400.78	9.028
401.14	9.562
401.49	10.006
401.85	10.000
402.21	9.444
402.57	10.211
402.92	10.461
403.28	9.602
403.63	9.248
403.99	9.501
404.35	9.835
404.70	9.972
405.06	8.859
405.42	10.246
405.77	10.142
406.13	9.670
406.49	9.403
406.84	9.529
407.20	9.726
407.55	9.328
407.91	9.868
408.27	9.128
408.62	9.657
408.98	9.228
409.34	9.208
409.69	9.518
410.05	9.730
410.40	9.803
410.76	9.703
411.11	10.462
411.47	10.012
411.83	9.935
412.18	9.337
412.54	10.196
412.89	9.895
413.25	10.045
413.60	9.879
413.96	9.674
414.31	9.632
414.67	9.481
415.03	9.723
415.38	9.710
415.74	9.774
416.09	10.302
416.45	9.706
416.80	9.792
417.16	9.579
417.51	10.274
417.87	10.362
418.22	10.240
418.58	10.037
418.93	9.371
419.29	9.926
419.64	9.784
420.00	9.377
420.35	9.994
420.71	9.707
421.06	9.776
421.42	9.748
421.77	9.316
422.12	9.461
422.48	9.063
422.83	10.515
423.19	9.708
423.54	9.845
423.90	9.994
424.25	10.027
424.61	8.783
424.96	9.940
425.31	10.191
425.67	9.232
426.02	9.629
426.38	9.127
426.73	9.766
427.09	9.804
427.44	9.285
427.79	9.011
428.15	9.018
428.50	9.944
428.85	9.644
429.21	10.479
429.56	9.477
429.92	9.287
430.27	9.205
430.62	9.331
430.98	9.444
431.33	8.993
431.68	9.626
432.04	9.599
432.39	9.695
432.74	9.247
433.10	10.438
433.45	9.365
433.80	9.818
434.16	10.382
434.51	9.918
434.86	9.175
435.22	9.671
435.57	9.257
435.92	10.184
436.28	9.556
436.63	9.448
436.98	9.232
437.34	9.696
437.69	9.301
438.04	10.048
438.39	9.879
438.75	10.127
439.10	9.989
439.45	10.173
439.81	10.169
440.16	9.759
440.51	10.033
440.86	9.283
441.22	10.129
441.57	9.853
441.92	10.039
442.27	9.192
442.63	10.233
442.98	9.712
443.33	10.047
443.68	10.753
444.03	10.019
444.39	10.125
444.74	10.669
445.09	10.086
445.44	10.432
445.79	9.914
446.15	9.661
446.50	10.078
446.85	9.971
447.20	9.768
447.55	10.460
447.91	10.419
448.26	9.831
448.61	9.989
448.96	10.730
449.31	10.233
449.66	9.314
450.02	10.179
450.37	10.229
450.72	10.118
451.07	10.023
451.42	9.590
451.77	9.561
452.12	10.271
452.47	9.210
452.83	10.529
453.18	10.566
453.53	10.339
453.88	9.663
454.23	10.282
454.58	10.215
454.93	10.376
455.28	10.777
455.63	10.631
455.98	10.223
456.34	10.542
456.69	10.053
457.04	9.929
457.39	10.200
457.74	9.787
458.09	9.720
458.44	10.129
458.79	9.644
459.14	9.858
459.49	9.904
459.84	10.703
460.19	9.939
460.54	10.562
460.89	10.641
461.24	9.310
461.59	10.791
461.94	9.698
462.29	10.470
462.64	10.139
462.99	10.358
463.34	10.707
463.69	11.137
464.04	10.450
464.39	9.305
464.74	10.490
465.09	10.150
465.44	9.925
465.79	10.841
466.14	10.526
466.49	10.000
466.84	10.193
467.19	10.116
467.54	10.458
467.89	9.540
468.24	9.640
468.59	9.554
468.94	9.557
469.29	10.078
469.64	8.646
469.99	10.134
470.34	9.901
470.68	10.253
471.03	11.067
471.38	10.007
471.73	10.598
472.08	9.708
472.43	9.633
472.78	10.894
473.13	11.125
473.48	9.909
473.83	10.795
474.17	9.906
474.52	10.824
474.87	10.244
475.22	10.085
475.57	9.969
475.92	10.105
476.27	10.170
476.61	9.709
476.96	9.906
477.31	10.594
477.66	10.283
478.01	10.269
478.36	9.721
478.70	10.246
479.05	9.765
479.40	10.020
479.75	10.471
480.10	9.901
480.45	10.210
480.79	10.522
481.14	10.340
481.49	9.677
481.84	10.226
482.19	9.935
482.53	9.882
482.88	10.013
483.23	10.360
483.58	9.738
483.92	9.486
484.27	9.822
484.62	10.107
484.97	10.614
485.31	9.926
485.66	9.668
486.01	9.178
486.36	9.154
486.70	9.152
487.05	9.350
487.40	9.566
487.75	9.440
488.09	9.580
488.44	9.710
488.79	10.152
489.13	9.776
489.48	9.864
489.83	9.738
490.17	10.247
490.52	9.934
490.87	10.575
491.22	9.792
491.56	10.196
491.91	10.685
492.26	10.212
492.60	10.188
492.95	9.785
493.30	9.413
493.64	10.556
493.99	10.439
494.34	9.408
494.68	9.764
495.03	10.441
495.37	10.342
495.72	10.113
496.07	10.429
496.41	9.610
496.76	10.300
497.11	10.658
497.45	9.625
497.80	10.706
498.14	10.023
498.49	10.110
498.84	10.101
499.18	10.076
499.53	10.448
499.87	10.681
500.22	10.107
500.56	10.436
500.91	10.755
501.26	10.500
501.60	9.810
501.95	10.682
502.29	10.136
502.64	9.926
502.98	10.397
503.33	9.849
503.67	9.856
504.02	10.070
504.36	10.679
504.71	10.381
505.06	10.641
505.40	10.238
505.75	10.109
506.09	10.912
506.44	10.074
506.78	11.009
507.13	10.143
507.47	11.085
507.82	10.701
508.16	10.134
508.51	10.127
508.85	10.203
509.19	10.564
509.54	10.855
509.88	10.491
510.23	9.762
510.57	11.358
510.92	10.982
511.26	10.342
511.61	9.657
511.95	10.347
512.30	11.078
512.64	9.845
512.98	10.055
513.33	10.887
513.67	11.015
514.02	11.037
514.36	10.895
514.70	10.729
515.05	10.740
515.39	10.761
515.74	11.082
516.08	11.358
516.42	11.303
516.77	10.726
517.11	11.088
517.46	11.082
517.80	11.277
518.14	11.099
518.49	10.738
518.83	10.910
519.17	9.962
519.52	11.006
519.86	11.404
520.20	11.076
520.55	10.624
520.89	10.980
521.23	11.837
521.58	10.847
521.92	11.275
522.26	10.596
522.61	11.227
522.95	10.900
523.29	10.920
523.64	11.211
523.98	11.124
524.32	11.633
524.66	11.155
525.01	10.646
525.35	10.109
525.69	11.253
526.04	10.620
526.38	10.862
526.72	10.554
527.06	10.792
527.41	10.671
527.75	11.401
528.09	11.452
528.43	11.782
528.78	10.520
529.12	10.894
529.46	10.961
529.80	10.984
530.15	11.072
530.49	10.795
530.83	10.744
531.17	10.872
531.51	11.011
531.86	11.118
532.20	11.220
532.54	10.832
532.88	10.909
533.22	10.961
533.57	11.021
533.91	12.121
534.25	12.041
534.59	11.379
534.93	11.092
535.27	11.268
535.62	11.484
535.96	11.854
536.30	11.340
536.64	11.832
536.98	11.931
537.32	12.222
537.66	11.541
538.01	11.541
538.35	11.571
538.69	10.937
539.03	11.956
539.37	11.484
539.71	11.832
540.05	11.511
540.39	10.452
540.73	11.111
541.07	11.465
541.42	11.931
541.76	10.854
542.10	11.580
542.44	10.780
542.78	11.071
543.12	11.263
543.46	12.027
543.80	10.492
544.14	10.952
544.48	11.820
544.82	11.490
545.16	11.449
545.50	11.504
545.84	11.390
546.18	12.099
546.52	10.828
546.86	11.069
547.20	11.387
547.54	11.860
547.88	11.332
548.22	10.994
548.56	10.884
548.90	11.881
549.24	11.368
549.58	11.987
549.92	10.587
550.26	12.168
550.60	11.997
550.94	12.613
551.28	12.541
551.62	11.523
551.96	11.650
552.30	12.110
552.64	11.512
552.98	10.605
553.32	11.447
553.66	10.547
554.00	11.791
554.34	11.326
554.68	11.685
555.02	11.367
555.36	12.229
555.69	11.595
556.03	11.538
556.37	11.827
556.71	11.287
557.05	11.565
557.39	11.745
557.73	11.030
558.07	11.854
558.41	11.960
558.75	11.968
559.08	11.065
559.42	10.974
559.76	12.212
560.10	11.855
560.44	11.214
560.78	13.188
561.12	11.392
561.45	11.983
561.79	11.294
562.13	12.200
562.47	11.221
562.81	11.519
563.15	11.616
563.48	11.622
563.82	11.427
564.16	11.750
564.50	11.442
564.84	12.330
565.17	11.471
565.51	11.392
565.85	11.164
566.19	10.945
566.52	11.293
566.86	12.281
567.20	11.365
567.54	11.683
567.88	12.130
568.21	10.870
568.55	10.791
568.89	11.121
569.23	10.604
569.56	11.333
569.90	10.371
570.24	10.422
570.57	10.552
570.91	10.227
571.25	10.616
571.59	10.437
571.92	10.714
572.26	10.720
572.60	10.183
572.93	10.465
573.27	10.452
573.61	10.508
573.95	10.391
574.28	10.114
574.62	10.095
574.96	9.837
575.29	10.267
575.63	9.771
575.97	10.084
576.30	10.141
576.64	10.021
576.98	10.068
577.31	10.074
577.65	10.111
577.98	10.279
578.32	10.075
578.66	10.008
578.99	10.055
579.33	9.893
579.67	10.199
580.00	10.205
580.34	10.384
580.67	10.128
581.01	10.082
581.35	9.994
581.68	9.689
582.02	10.277
582.35	10.145
582.69	10.144
583.02	9.961
583.36	10.331
583.70	10.134
584.03	10.295
584.37	10.121
584.70	10.147
585.04	10.323
585.37	10.340
585.71	10.313
586.04	10.106
586.38	10.422
586.72	10.078
587.05	9.926
587.39	10.371
587.72	10.144
588.06	10.469
588.39	10.281
588.73	10.423
589.06	10.751
589.40	10.449
589.73	10.829
590.07	10.842
590.40	11.021
590.73	10.852
591.07	11.057
591.40	10.848
591.74	11.129
592.07	11.165
592.41	10.726
592.74	10.650
593.08	10.987
593.41	10.994
593.75	10.402
594.08	10.603
594.41	10.545
594.75	10.993
595.08	10.262
595.42	10.942
595.75	10.849
596.09	11.352
596.42	11.143
596.75	11.386
597.09	11.111
597.42	11.005
597.75	11.015
598.09	11.627
598.42	11.460
598.76	10.623
599.09	10.431
599.42	10.660
599.76	10.961
600.09	10.944
600.42	11.078
600.76	10.535
601.09	10.953
601.42	11.054
601.76	10.552
602.09	10.829
602.42	10.796
602.76	11.255
603.09	10.683
603.42	10.947
603.76	10.817
604.09	11.143
604.42	11.009
604.76	10.312
605.09	11.249
605.42	11.364
605.75	10.615
606.09	10.489
606.42	10.945
606.75	10.982
607.09	10.599
607.42	11.407
607.75	11.293
608.08	11.365
608.42	11.165
608.75	10.738
609.08	10.611
609.41	11.381
609.75	10.759
610.08	11.126
610.41	11.257
610.74	11.218
611.07	11.679
611.41	11.211
611.74	11.640
612.07	11.875
612.40	10.789
612.73	10.660
613.07	11.687
613.40	11.694
613.73	11.700
614.06	11.089
614.39	11.273
614.72	11.451
615.06	10.972
615.39	10.585
615.72	11.280
616.05	11.316
616.38	11.705
616.71	11.912
617.05	10.437
617.38	11.610
617.71	11.987
618.04	11.765
618.37	11.639
618.70	11.821
619.03	11.529
619.36	11.714
619.69	12.300
620.03	11.551
620.36	11.595
620.69	12.647
621.02	12.008
621.35	12.192
621.68	12.437
622.01	11.459
622.34	11.506
622.67	12.234
623.00	10.931
623.33	12.011
623.66	11.803
623.99	11.916
624.32	12.736
624.65	11.197
624.99	12.289
625.32	12.084
625.65	12.070
625.98	11.186
626.31	12.190
626.64	12.308
626.97	12.003
627.30	10.858
627.63	12.828
627.96	12.387
628.29	11.984
628.62	11.335
628.95	12.796
629.28	12.489
629.61	13.721
629.94	12.887
630.26	11.525
630.59	11.572
630.92	12.381
631.25	13.238
631.58	13.371
631.91	12.090
632.24	12.200
632.57	11.765
632.90	12.538
633.23	13.673
633.56	13.163
633.89	13.120
634.22	12.162
634.55	14.301
634.88	12.771
635.20	14.209
635.53	12.542
635.86	13.651
636.19	13.574
636.52	12.342
636.85	11.542
637.18	13.721
637.51	13.011
637.83	14.839
638.16	14.862
638.49	11.972
638.82	12.289
639.15	12.829
639.48	14.203
639.81	13.741
640.13	14.016
640.46	12.121
640.79	12.868
641.12	13.913
641.45	12.923
641.77	15.533
642.10	12.598
642.43	14.229
642.76	14.363
643.09	15.068
643.41	13.025
643.74	13.517
644.07	14.759
644.40	12.730
644.73	12.337
645.05	13.216
645.38	15.540
645.71	14.516
646.04	16.212
646.36	13.723
646.69	14.877
647.02	16.055
647.35	13.893
647.67	14.815
648.00	15.127
648.33	14.114
648.66	13.837
648.98	13.469
649.31	15.426
649.64	14.475
649.96	14.191
650.29	11.961
650.62	12.730
650.94	14.715
651.27	13.323
651.60	13.743
651.92	14.590
652.25	12.590
652.58	13.343
652.90	12.209
653.23	13.239
653.56	13.409
653.88	14.888
654.21	15.775
654.54	15.029
654.86	14.164
655.19	12.798
655.52	12.211
655.84	9.300
656.17	11.629
656.49	16.883
656.82	18.614
657.15	14.276
657.47	10.729
657.80	8.058
658.13	6.293
658.45	8.233
658.78	10.334
659.10	9.789
659.43	10.592
659.75	10.904
660.08	11.317
660.41	12.076
660.73	11.517
661.06	13.363
661.38	12.919
661.71	13.276
662.03	12.346
662.36	15.742
662.68	15.009
663.01	13.097
663.33	15.690
663.66	16.850
663.98	14.615
664.31	14.822
664.63	12.331
664.96	14.519
665.28	12.886
665.61	15.909
665.93	14.464
666.26	13.620
666.58	15.314
666.91	14.953
667.23	16.571
667.56	15.385
667.88	16.000
668.21	11.719
668.53	15.058
668.86	14.145
669.18	14.053
669.50	16.899
669.83	14.200
670.15	13.976
670.48	15.278
670.80	13.767
671.13	12.665
671.45	14.567
671.77	15.254
672.10	13.500
672.42	14.239
672.75	12.903
673.07	12.090
673.39	12.173
673.72	13.926
674.04	15.862
674.37	14.132
674.69	16.402
675.01	13.714
675.34	12.595
675.66	16.292
675.98	13.993
676.31	12.891
676.63	17.300
676.95	13.218
677.28	15.927
677.60	14.567
677.92	14.587
678.25	15.174
678.57	15.125
678.89	14.334
679.22	13.066
679.54	13.675
679.86	11.017
680.18	11.609
680.51	14.780
680.83	13.093
681.15	12.931
681.48	13.990
681.80	15.371
682.12	13.636
682.44	14.524
682.77	14.894
683.09	14.773
683.41	16.667
683.73	14.991
684.06	12.362
684.38	12.701
684.70	15.799
685.02	16.007
685.34	11.481
685.67	12.934
685.99	13.957
686.31	12.355
686.63	12.164
686.96	14.984
687.28	11.564
687.60	11.616
687.92	13.666
688.24	14.023
688.56	11.207
688.89	14.338
689.21	15.460
689.53	11.373
689.85	14.793
690.17	13.333
690.49	14.143
690.82	13.861
691.14	11.134
691.46	16.252
691.78	14.733
692.10	14.679
692.42	12.679
692.74	12.886
693.06	10.741
693.39	13.472
693.71	13.346
694.03	13.569
694.35	13.333
694.67	13.758
694.99	13.191
695.31	13.245
695.63	13.420
695.95	15.735
696.27	11.648
696.59	15.265
696.91	15.090
697.23	15.824
697.56	14.460
697.88	13.258
698.20	15.631
698.52	15.909
698.84	16.008
699.16	14.490
699.48	13.389
699.80	14.468
700.12	12.882
700.44	16.359
700.76	13.777
701.08	15.012
701.40	16.839
701.72	14.677
702.04	14.439
702.36	12.304
702.68	14.914
703.00	15.648
703.32	13.300
703.64	13.936
703.96	17.661
704.28	13.268
704.60	16.203
704.91	14.796
705.23	16.438
705.55	16.435
705.87	16.061
706.19	19.325
706.51	12.952
706.83	13.256
707.15	13.492
707.47	14.019
707.79	13.755
708.11	11.653
708.43	14.624
708.74	10.938
709.06	12.761
709.38	15.023
709.70	16.625
710.02	13.178
710.34	15.160
710.66	14.525
710.98	14.208
711.29	15.659
711.61	18.079
711.93	16.524
712.25	14.595
712.57	20.059
712.89	17.353
713.20	12.722
713.52	18.786
713.84	14.763
714.16	19.474
714.48	13.402
714.80	16.104
715.11	14.173
715.43	14.854
715.75	13.684
716.07	14.365
716.39	16.940
716.70	16.265
717.02	19.016
717.34	17.770
717.66	15.772
717.97	13.356
718.29	16.495
718.61	15.789
718.93	15.534
719.24	18.012
719.56	16.258
719.88	16.216
720.20	14.516
720.51	17.081
720.83	14.062
721.15	14.145
721.46	14.726
721.78	13.667
722.10	11.650
722.42	12.081
722.73	12.581
723.05	16.842
723.37	16.319
723.68	18.280
724.00	14.440
724.32	11.268
724.63	14.685
724.95	19.149
725.27	13.937
725.58	13.074
725.90	18.966
726.22	13.793
726.53	15.909
726.85	19.811
727.16	18.127
727.48	16.208
727.80	18.874
728.11	13.428
728.43	19.865
728.74	16.054
729.06	14.238
729.38	16.234
729.69	15.101
730.01	15.774
730.32	13.333
730.64	17.296
730.96	13.354
731.27	18.994
731.59	14.560
731.90	11.948
732.22	13.542
732.53	10.773
732.85	13.714
733.16	13.783
733.48	13.110
733.80	13.370
734.11	13.675
734.43	13.784
734.74	17.722
735.06	13.568
735.37	14.865
735.69	13.243
736.00	14.972
736.32	15.903
736.63	16.389
736.95	11.782
737.26	12.424
737.58	13.939
737.89	15.000
738.21	16.514
738.52	13.770
738.83	15.358
739.15	15.957
739.46	15.646
739.78	16.258
740.09	13.754
740.41	14.577
740.72	15.000
741.04	15.210
741.35	15.088
741.66	14.510
741.98	18.443
742.29	16.318
742.61	15.351
742.92	15.769
743.23	18.773
743.55	17.829
743.86	22.000
744.18	11.983
744.49	13.080
744.80	16.872
745.12	15.190
745.43	19.512
745.74	19.828
746.06	20.339
746.37	20.675
746.68	20.732
747.00	10.833
747.31	20.601
747.62	20.000
747.94	12.551
748.25	14.056
748.56	17.551
748.88	16.239
749.19	15.948
749.50	12.987
749.82	16.867
750.13	18.149
750.44	13.333
750.75	15.077
751.07	17.231
751.38	18.612
751.69	14.377
752.01	14.563
752.32	13.399
752.63	12.245
752.94	13.149
753.26	13.755
753.57	12.222
753.88	13.858
754.19	18.006
754.51	13.505
754.82	13.505
755.13	16.721
755.44	15.700
755.75	14.803
756.07	18.209
756.38	14.151
756.69	16.566
757.00	12.742
757.31	14.481
757.63	10.486
757.94	14.085
758.25	12.867
758.56	13.290
758.87	16.591
759.18	15.733
759.50	16.431
759.81	17.647
760.12	14.555
760.43	15.104
760.74	13.547
761.05	13.750
761.36	13.253
761.67	12.944
761.99	15.676
762.30	17.683
762.61	13.201
762.92	14.925
763.23	17.978
763.54	16.187
763.85	13.058
764.16	14.141
764.47	17.606
764.78	15.974
765.10	15.249
765.41	16.410
765.72	13.492
766.03	14.407
766.34	15.047
766.65	11.847
766.96	14.343
767.27	17.512
767.58	13.433
767.89	25.481
768.20	13.615
768.51	18.519
768.82	14.056
769.13	15.530
769.44	11.154
769.75	19.134
770.06	18.846
770.37	20.079
770.68	15.745
770.99	11.741
771.30	20.741
771.61	14.449
771.92	17.778
772.23	18.219
772.54	12.500
772.85	19.355
773.16	19.048
773.47	18.519
773.78	16.757
774.09	22.727
774.39	24.500
774.70	27.869
775.01	9.756
775.32	18.235
775.63	25.153
775.94	19.108
776.25	24.516
776.56	23.077
776.87	28.571
777.18	24.828
777.48	23.776
777.79	26.351
778.10	22.059
778.41	28.472
778.72	17.241
779.03	24.691
779.34	20.606
779.65	17.098
779.95	24.444
780.26	17.045
780.57	22.581
780.88	21.014
781.19	27.097
781.50	24.118
781.80	25.269
782.11	15.344
782.42	14.141
782.73	17.365
783.04	19.553
783.34	15.152
783.65	16.993
783.96	19.255
784.27	17.262
784.57	17.219
784.88	17.857
785.19	21.260
785.50	29.134
785.81	18.797
786.11	28.462
786.42	20.144
786.73	18.705
787.04	28.571
787.34	24.590
787.65	24.800
787.96	20.149
788.26	23.776
788.57	25.874
788.88	14.474
789.19	25.490
789.49	19.863
789.80	17.021
790.11	16.535
790.41	20.313
790.72	17.797
791.03	12.621
791.33	31.304
791.64	25.439
791.95	13.393
792.25	20.000
792.56	25.000
792.87	14.583
793.17	26.786
793.48	25.000
793.79	16.867
794.09	13.761
794.40	16.514
794.70	27.891
795.01	19.481
795.32	24.658
795.62	19.718
795.93	15.152
796.23	27.049
796.54	20.536
796.85	19.149
797.15	19.565
797.46	20.548
797.76	26.250
798.07	21.739
798.37	26.804
798.68	25.974
798.99	24.138
799.29	26.966
799.60	24.468
799.90	25.301
800.21	26.154
800.51	23.881
800.82	30.882
801.12	9.589
801.43	13.235
801.73	18.644
802.04	22.727
802.34	20.000
802.65	32.203
802.95	40.299
803.26	23.729
803.56	24.658
803.87	41.429
804.17	23.288
804.48	8.772
804.78	38.889
805.09	10.345
805.39	32.432
805.70	14.085
806.00	39.024
806.30	30.120
806.61	31.507
806.91	20.192
807.22	30.000
807.52	8.046
807.83	29.167
808.13	25.301
808.43	13.483
808.74	22.500
809.04	20.588
809.35	18.667
809.65	27.143
809.95	27.397
810.26	24.561
810.56	46.552
810.86	38.235
811.17	17.544
811.47	19.672
811.77	0.000
812.08	42.373
812.38	48.333
812.69	44.828
812.99	15.094
813.29	20.513
813.59	36.000
813.90	36.842
814.20	27.273
814.50	29.577
814.81	28.205
815.11	34.426
815.41	40.299
815.72	48.276
816.02	26.786
816.32	48.889
816.62	40.909
816.93	51.111
817.23	42.593
817.53	29.787
817.84	52.381
818.14	47.059
818.44	57.143
818.74	60.000
819.04	12.821
819.35	40.000
819.65	23.077
819.95	45.283
820.25	44.444
820.56	47.619
820.86	53.125
821.16	17.949
821.46	16.279
821.76	12.000
822.07	32.143
822.37	43.478
822.67	51.064
822.97	24.324
823.27	50.000
823.57	51.020
823.88	55.556
824.18	40.000
824.48	30.000
824.78	36.000
825.08	45.455
825.38	62.222
825.69	51.064
825.99	47.222
826.29	20.000
826.59	33.333
826.89	32.558
827.19	48.000
827.49	14.706
827.79	35.417
828.09	32.432
828.39	6.667
828.70	46.341
829.00	46.512
829.30	57.143
829.60	44.118
829.90	47.826
830.20	22.857
830.50	34.483
830.80	44.444
831.10	19.231
831.40	38.235
831.70	80.952
832.00	80.645
832.30	17.647
832.60	75.000
832.90	30.769
833.20	68.421
833.50	25.000
833.80	36.842
834.10	-47.619
834.40	47.222
834.70	93.750
835.00	37.143
835.30	76.471
835.60	23.333
835.90	80.000
836.20	4.545
836.50	100.000
836.80	33.333
837.10	33.333
837.40	62.963
837.70	81.250
838.00	57.143
838.30	39.130
838.60	82.759
838.90	121.429
839.19	8.696
839.49	0.000
839.79	69.565
840.09	75.000
840.39	70.000
840.69	87.097
840.99	32.143
841.29	80.000
841.59	52.632
841.88	74.359
842.18	53.846
842.48	100.000
842.78	5.000
843.08	56.667
843.38	77.419
843.68	77.778
843.97	70.588
844.27	137.500
844.57	100.000
844.87	140.000
845.17	86.667
845.47	104.762
845.76	23.810
846.06	133.333
846.36	58.824
846.66	107.692
846.96	40.000
847.25	88.235
847.55	113.043
847.85	70.000
848.15	70.588
848.44	118.182
848.74	28.571
849.04	54.167
849.34	0.000
849.63	95.652
849.93	-200.000
850.23	93.333
850.53	61.538
850.82	109.091
851.12	81.818
851.42	100.000
851.71	130.769
852.01	25.000
852.31	130.769
852.61	121.053
852.90	116.667
853.20	105.556
853.50	22.222
853.79	71.429
854.09	50.000
854.39	8.333
854.68	67.742
854.98	11.538
855.28	55.556
855.57	46.429
855.87	68.000
856.17	59.091
856.46	44.444
856.76	116.667
857.05	78.261
857.35	45.833
857.65	76.923
857.94	80.952
858.24	88.889
858.53	69.565
858.83	88.235
859.13	100.000
859.42	141.176
859.72	142.857
860.01	40.000
860.31	111.111
860.60	120.000
860.90	80.000
861.20	100.000
861.49	161.538
861.79	60.000
862.08	23.077
862.38	75.000
862.67	170.588
862.97	93.750
863.26	77.778
863.56	110.000
863.85	127.273
864.15	105.556
864.44	433.333
864.74	157.143
865.03	93.750
865.33	100.000
865.62	38.710
865.92	104.545
866.21	56.522
866.51	121.429
866.80	400.000
867.10	116.667
867.39	83.333
867.69	-300.000
867.98	242.857
868.27	94.118
868.57	500.000
868.86	20.000
869.16	28.571
869.45	79.167
869.75	127.273
870.04	214.286
870.33	141.667
870.63	-14.286
870.92	375.000
871.22	12.500
871.51	90.909
871.80	66.667
872.10	550.000
>>>>>End Processed Spectral Data<<<<<
