SpectraSuite Data File
++++++++++++++++++++++++++++++++++++
Date: Thu May 14 14:42:38 PDT 2015
User: schluterlab
Dark Spectrum Present: Yes
Reference Spectrum Present: Yes
Number of Sampled Component Spectra: 1
Spectrometers: USB2E3373
Integration Time (usec): 3000 (USB2E3373)
Spectra Averaged: 3 (USB2E3373)
Boxcar Smoothing: 0 (USB2E3373)
Correct for Electrical Dark: No (USB2E3373)
Strobe/Lamp Enabled: No (USB2E3373)
Correct for Detector Non-linearity: No (USB2E3373)
Correct for Stray Light: No (USB2E3373)
Number of Pixels in Processed Spectrum: 2048
>>>>>Begin Processed Spectral Data<<<<<
178.53	0.000
178.91	14.286
179.29	-800.000
179.67	-600.000
180.04	57.143
180.42	-10.000
180.80	240.000
181.18	-100.000
181.56	500.000
181.94	-300.000
182.31	300.000
182.69	166.667
183.07	-50.000
183.45	75.000
183.83	183.333
184.20	400.000
184.58	-1100.000
184.96	-50.000
185.34	100.000
185.72	160.000
186.09	88.889
186.47	100.000
186.85	100.000
187.23	-88.889
187.61	200.000
187.98	-160.000
188.36	-50.000
188.74	25.000
189.12	33.333
189.49	56.250
189.87	-50.000
190.25	77.778
190.63	160.000
191.00	-55.556
191.38	0.000
191.76	0.000
192.14	-33.333
192.51	-150.000
192.89	316.667
193.27	0.000
193.65	157.143
194.02	-800.000
194.40	57.143
194.78	-0.000
195.15	0.000
195.53	90.909
195.91	0.000
196.29	300.000
196.66	53.846
197.04	800.000
197.42	0.000
197.79	-300.000
198.17	37.500
198.55	14.286
198.92	122.222
199.30	0.000
199.68	145.455
200.05	50.000
200.43	-200.000
200.81	28.571
201.18	0.000
201.56	66.667
201.94	0.000
202.31	166.667
202.69	33.333
203.07	-1100.000
203.44	22.222
203.82	0.000
204.19	83.333
204.57	133.333
204.95	37.500
205.32	900.000
205.70	100.000
206.08	83.333
206.45	216.667
206.83	120.000
207.20	0.000
207.58	-100.000
207.96	0.000
208.33	216.667
208.71	-16.667
209.08	116.667
209.46	0.000
209.84	200.000
210.21	-50.000
210.59	-0.000
210.96	100.000
211.34	25.000
211.71	12.500
212.09	-100.000
212.46	0.000
212.84	650.000
213.22	0.000
213.59	325.000
213.97	140.000
214.34	100.000
214.72	-16.667
215.09	-50.000
215.47	0.000
215.84	-142.857
216.22	150.000
216.59	260.000
216.97	0.000
217.34	50.000
217.72	125.000
218.09	-200.000
218.47	25.000
218.84	0.000
219.22	-120.000
219.59	52.941
219.97	30.000
220.34	400.000
220.72	-22.222
221.09	130.769
221.47	400.000
221.84	150.000
222.22	-85.714
222.59	0.000
222.97	50.000
223.34	-300.000
223.72	800.000
224.09	-100.000
224.46	-75.000
224.84	340.000
225.21	114.286
225.59	-175.000
225.96	200.000
226.34	42.308
226.71	-0.000
227.08	200.000
227.46	60.000
227.83	-100.000
228.21	31.579
228.58	25.000
228.95	100.000
229.33	75.000
229.70	10.000
230.08	94.737
230.45	40.000
230.82	33.333
231.20	14.286
231.57	41.667
231.95	118.182
232.32	18.182
232.69	20.000
233.07	125.000
233.44	29.412
233.81	40.000
234.19	22.222
234.56	36.364
234.93	51.724
235.31	115.789
235.68	55.556
236.05	-5.000
236.43	84.615
236.80	40.000
237.17	33.333
237.55	21.212
237.92	70.000
238.29	-6.452
238.67	36.364
239.04	0.000
239.41	0.000
239.79	32.609
240.16	14.815
240.53	30.435
240.91	21.569
241.28	16.393
241.65	43.284
242.02	29.730
242.40	20.000
242.77	10.667
243.14	9.756
243.51	13.158
243.89	19.231
244.26	13.861
244.63	32.353
245.00	18.692
245.38	19.298
245.75	11.504
246.12	23.016
246.49	17.829
246.87	22.143
247.24	27.815
247.61	23.684
247.98	19.463
248.36	13.580
248.73	15.951
249.10	15.301
249.47	22.886
249.84	21.990
250.22	13.472
250.59	24.444
250.96	20.000
251.33	13.776
251.70	14.957
252.08	17.083
252.45	18.852
252.82	18.595
253.19	18.750
253.56	19.772
253.94	13.462
254.31	18.182
254.68	18.182
255.05	20.195
255.42	11.905
255.79	14.887
256.16	15.894
256.54	14.901
256.91	19.344
257.28	18.033
257.65	14.013
258.02	15.634
258.39	16.524
258.76	20.183
259.14	18.966
259.51	19.020
259.88	15.014
260.25	15.833
260.62	17.534
260.99	16.940
261.36	18.767
261.73	18.037
262.10	17.033
262.47	16.086
262.85	19.444
263.22	16.623
263.59	13.684
263.96	16.368
264.33	13.555
264.70	18.765
265.07	19.570
265.44	20.181
265.81	14.583
266.18	17.914
266.55	18.527
266.92	16.173
267.29	18.381
267.66	16.408
268.03	17.249
268.40	17.954
268.77	16.856
269.14	16.960
269.51	17.763
269.88	17.213
270.25	16.499
270.62	17.722
270.99	17.172
271.36	18.218
271.73	18.075
272.10	18.437
272.47	18.236
272.84	16.667
273.21	16.232
273.58	15.927
273.95	18.269
274.32	15.970
274.69	15.087
275.06	17.949
275.43	14.418
275.80	17.813
276.17	13.889
276.54	15.485
276.91	15.921
277.28	16.817
277.65	17.235
278.02	16.544
278.39	16.304
278.76	15.993
279.13	14.716
279.50	16.667
279.87	16.816
280.23	14.789
280.60	16.441
280.97	15.625
281.34	15.620
281.71	18.443
282.08	14.950
282.45	14.075
282.82	15.856
283.19	13.893
283.56	14.262
283.92	16.967
284.29	16.272
284.66	16.092
285.03	14.423
285.40	15.765
285.77	15.325
286.14	17.252
286.51	14.460
286.87	15.166
287.24	15.512
287.61	15.247
287.98	14.653
288.35	14.349
288.72	13.757
289.08	15.959
289.45	13.905
289.82	14.608
290.19	14.224
290.56	15.493
290.93	13.980
291.29	13.499
291.66	13.085
292.03	13.161
292.40	14.830
292.77	14.151
293.13	14.344
293.50	11.170
293.87	14.228
294.24	14.133
294.60	13.148
294.97	11.678
295.34	13.444
295.71	11.728
296.08	12.661
296.44	12.990
296.81	13.033
297.18	12.951
297.55	12.500
297.91	12.218
298.28	11.137
298.65	13.436
299.02	12.279
299.38	12.357
299.75	13.318
300.12	12.037
300.48	11.521
300.85	12.261
301.22	13.535
301.59	11.416
301.95	12.881
302.32	13.000
302.69	11.939
303.05	12.187
303.42	12.639
303.79	11.146
304.15	11.882
304.52	11.416
304.89	13.717
305.25	12.112
305.62	12.435
305.99	12.165
306.35	11.794
306.72	12.306
307.09	11.371
307.45	11.698
307.82	11.806
308.19	12.109
308.55	12.536
308.92	11.490
309.29	12.261
309.65	11.501
310.02	11.584
310.38	12.303
310.75	12.524
311.12	13.135
311.48	12.317
311.85	11.586
312.22	11.480
312.58	13.146
312.95	12.715
313.31	12.918
313.68	12.546
314.05	13.550
314.41	13.661
314.78	12.262
315.14	12.795
315.51	13.481
315.87	13.231
316.24	12.511
316.61	14.121
316.97	13.032
317.34	12.434
317.70	13.362
318.07	13.404
318.43	13.095
318.80	14.799
319.16	13.133
319.53	13.025
319.89	11.832
320.26	14.057
320.62	13.652
320.99	14.497
321.35	15.065
321.72	16.093
322.08	13.706
322.45	16.621
322.81	14.621
323.18	15.575
323.54	15.345
323.91	15.658
324.27	15.232
324.64	15.785
325.00	15.174
325.37	15.889
325.73	15.537
326.10	16.383
326.46	16.531
326.83	16.573
327.19	16.063
327.56	15.968
327.92	15.185
328.29	16.048
328.65	16.499
329.01	16.328
329.38	17.860
329.74	17.466
330.11	17.466
330.47	17.355
330.84	16.193
331.20	16.750
331.56	16.898
331.93	16.653
332.29	18.051
332.66	17.110
333.02	17.253
333.38	16.191
333.75	16.582
334.11	17.431
334.48	18.399
334.84	18.607
335.20	16.037
335.57	18.297
335.93	17.686
336.29	16.722
336.66	16.737
337.02	17.559
337.38	17.942
337.75	18.017
338.11	18.755
338.47	17.122
338.84	16.751
339.20	16.512
339.56	16.886
339.93	18.309
340.29	17.794
340.65	17.113
341.02	17.877
341.38	17.219
341.74	16.223
342.11	18.021
342.47	16.442
342.83	18.357
343.20	17.089
343.56	17.883
343.92	17.134
344.28	17.578
344.65	17.287
345.01	17.785
345.37	18.118
345.73	17.303
346.10	17.551
346.46	16.851
346.82	17.378
347.19	16.730
347.55	17.678
347.91	17.088
348.27	16.995
348.63	17.365
349.00	17.151
349.36	17.918
349.72	17.783
350.08	17.162
350.45	17.034
350.81	16.516
351.17	18.195
351.53	16.907
351.89	17.616
352.26	17.537
352.62	17.239
352.98	17.023
353.34	15.982
353.70	17.334
354.07	16.692
354.43	18.299
354.79	17.352
355.15	17.219
355.51	17.763
355.87	15.707
356.24	17.947
356.60	15.521
356.96	17.569
357.32	17.249
357.68	16.545
358.04	17.290
358.40	17.761
358.77	17.398
359.13	17.208
359.49	16.506
359.85	16.896
360.21	16.428
360.57	17.660
360.93	16.502
361.29	17.544
361.66	17.379
362.02	17.676
362.38	17.358
362.74	17.318
363.10	17.882
363.46	17.244
363.82	18.040
364.18	16.890
364.54	17.566
364.90	17.258
365.26	16.552
365.62	16.800
365.98	17.359
366.35	17.785
366.71	17.007
367.07	17.524
367.43	17.269
367.79	17.850
368.15	17.391
368.51	17.321
368.87	17.897
369.23	16.800
369.59	16.872
369.95	16.903
370.31	17.623
370.67	18.157
371.03	17.244
371.39	17.663
371.75	17.744
372.11	16.734
372.47	18.348
372.83	17.277
373.19	18.012
373.55	17.209
373.91	17.110
374.27	17.464
374.63	18.200
374.99	18.236
375.35	17.857
375.71	17.419
376.07	17.947
376.42	18.136
376.78	17.961
377.14	18.091
377.50	17.774
377.86	17.611
378.22	18.144
378.58	18.728
378.94	17.723
379.30	18.102
379.66	17.343
380.02	17.715
380.38	18.606
380.74	18.366
381.09	18.351
381.45	18.239
381.81	18.443
382.17	18.943
382.53	18.830
382.89	18.567
383.25	18.640
383.61	17.998
383.97	18.257
384.32	18.481
384.68	18.387
385.04	19.260
385.40	19.151
385.76	18.757
386.12	18.133
386.48	18.824
386.83	19.666
387.19	18.076
387.55	18.016
387.91	19.121
388.27	19.573
388.62	18.843
388.98	18.049
389.34	19.093
389.70	18.942
390.06	19.124
390.42	18.916
390.77	19.446
391.13	18.545
391.49	18.418
391.85	19.091
392.20	19.988
392.56	19.374
392.92	19.575
393.28	19.624
393.64	19.274
393.99	19.465
394.35	19.217
394.71	20.419
395.07	18.862
395.42	19.646
395.78	19.988
396.14	20.202
396.50	19.002
396.85	19.738
397.21	19.349
397.57	19.847
397.92	19.645
398.28	18.251
398.64	19.451
399.00	18.743
399.35	19.372
399.71	19.293
400.07	20.045
400.42	19.092
400.78	19.387
401.14	19.294
401.49	19.500
401.85	19.826
402.21	18.830
402.57	19.953
402.92	19.740
403.28	19.731
403.63	19.451
403.99	18.765
404.35	18.420
404.70	19.377
405.06	18.478
405.42	19.848
405.77	19.738
406.13	19.611
406.49	19.032
406.84	19.778
407.20	19.340
407.55	19.624
407.91	19.485
408.27	19.611
408.62	19.372
408.98	19.269
409.34	18.534
409.69	19.963
410.05	19.343
410.40	20.302
410.76	19.125
411.11	20.339
411.47	20.455
411.83	19.988
412.18	20.120
412.54	19.206
412.89	19.441
413.25	19.187
413.60	18.955
413.96	19.988
414.31	19.773
414.67	19.678
415.03	19.446
415.38	19.105
415.74	19.976
416.09	19.062
416.45	19.975
416.80	19.033
417.16	19.796
417.51	19.489
417.87	18.823
418.22	19.521
418.58	19.579
418.93	20.023
419.29	19.914
419.64	19.808
420.00	19.644
420.35	20.157
420.71	18.955
421.06	19.839
421.42	20.183
421.77	19.602
422.12	19.926
422.48	19.355
422.83	20.427
423.19	20.000
423.54	20.133
423.90	19.271
424.25	20.053
424.61	18.772
424.96	19.879
425.31	19.692
425.67	20.021
426.02	20.531
426.38	19.575
426.73	19.699
427.09	20.819
427.44	20.262
427.79	19.790
428.15	19.406
428.50	20.562
428.85	20.034
429.21	20.160
429.56	20.632
429.92	20.000
430.27	19.614
430.62	20.469
430.98	20.364
431.33	19.990
431.68	20.115
432.04	19.909
432.39	20.086
432.74	20.091
433.10	19.903
433.45	20.067
433.80	20.225
434.16	21.436
434.51	21.223
434.86	21.498
435.22	20.670
435.57	20.342
435.92	21.091
436.28	20.933
436.63	21.682
436.98	20.827
437.34	20.575
437.69	19.703
438.04	21.100
438.39	21.827
438.75	20.697
439.10	21.987
439.45	21.353
439.81	21.243
440.16	20.643
440.51	20.234
440.86	21.401
441.22	20.632
441.57	21.122
441.92	20.854
442.27	21.616
442.63	21.063
442.98	21.665
443.33	21.620
443.68	21.903
444.03	21.543
444.39	20.989
444.74	22.460
445.09	21.237
445.44	22.234
445.79	21.935
446.15	21.891
446.50	21.550
446.85	21.206
447.20	21.857
447.55	21.914
447.91	20.995
448.26	21.829
448.61	22.210
448.96	22.532
449.31	22.534
449.66	22.004
450.02	22.468
450.37	21.151
450.72	22.336
451.07	22.494
451.42	22.299
451.77	22.123
452.12	22.686
452.47	21.925
452.83	22.128
453.18	22.942
453.53	21.941
453.88	21.811
454.23	22.034
454.58	22.461
454.93	22.087
455.28	22.396
455.63	22.626
455.98	22.849
456.34	21.967
456.69	22.046
457.04	22.636
457.39	22.727
457.74	23.098
458.09	22.515
458.44	22.360
458.79	21.609
459.14	22.339
459.49	22.581
459.84	22.455
460.19	22.043
460.54	22.658
460.89	22.763
461.24	21.322
461.59	23.243
461.94	21.677
462.29	23.796
462.64	20.700
462.99	21.846
463.34	23.232
463.69	22.274
464.04	23.235
464.39	23.206
464.74	22.064
465.09	23.241
465.44	22.532
465.79	22.263
466.14	22.355
466.49	22.684
466.84	22.810
467.19	22.890
467.54	22.444
467.89	22.414
468.24	23.158
468.59	23.162
468.94	22.436
469.29	23.335
469.64	22.759
469.99	23.199
470.34	23.082
470.68	23.787
471.03	23.772
471.38	24.264
471.73	22.042
472.08	23.033
472.43	23.239
472.78	24.055
473.13	22.946
473.48	23.384
473.83	23.447
474.17	23.095
474.52	23.452
474.87	22.924
475.22	23.887
475.57	22.066
475.92	23.793
476.27	23.110
476.61	23.261
476.96	23.149
477.31	23.564
477.66	24.082
478.01	23.589
478.36	22.433
478.70	22.365
479.05	24.591
479.40	24.186
479.75	23.343
480.10	23.212
480.45	23.747
480.79	22.993
481.14	23.346
481.49	22.808
481.84	24.717
482.19	23.957
482.53	23.174
482.88	23.881
483.23	23.477
483.58	23.624
483.92	23.183
484.27	23.158
484.62	22.814
484.97	23.639
485.31	23.231
485.66	22.306
486.01	22.142
486.36	23.481
486.70	23.972
487.05	24.208
487.40	23.938
487.75	23.944
488.09	23.274
488.44	22.781
488.79	23.474
489.13	23.353
489.48	22.951
489.83	22.938
490.17	22.843
490.52	23.276
490.87	23.308
491.22	23.657
491.56	23.592
491.91	23.027
492.26	23.713
492.60	23.481
492.95	23.256
493.30	22.994
493.64	22.908
493.99	23.684
494.34	23.171
494.68	23.169
495.03	23.744
495.37	22.814
495.72	23.356
496.07	23.444
496.41	23.166
496.76	23.394
497.11	23.227
497.45	23.522
497.80	23.590
498.14	23.855
498.49	24.127
498.84	24.177
499.18	23.527
499.53	24.126
499.87	23.429
500.22	22.573
500.56	23.392
500.91	23.753
501.26	24.409
501.60	24.216
501.95	23.621
502.29	23.870
502.64	24.661
502.98	24.072
503.33	23.585
503.67	23.070
504.02	23.949
504.36	23.369
504.71	23.473
505.06	23.784
505.40	24.132
505.75	23.816
506.09	24.263
506.44	23.770
506.78	24.312
507.13	24.481
507.47	24.207
507.82	24.811
508.16	24.187
508.51	23.160
508.85	24.374
509.19	24.491
509.54	24.159
509.88	23.895
510.23	24.089
510.57	25.326
510.92	24.335
511.26	23.954
511.61	23.032
511.95	24.012
512.30	24.668
512.64	24.088
512.98	24.562
513.33	24.798
513.67	24.426
514.02	24.834
514.36	24.143
514.70	23.854
515.05	24.609
515.39	25.249
515.74	25.610
516.08	24.617
516.42	25.275
516.77	24.290
517.11	24.188
517.46	24.761
517.80	25.067
518.14	25.680
518.49	24.620
518.83	23.789
519.17	24.394
519.52	24.790
519.86	24.921
520.20	25.186
520.55	24.589
520.89	24.550
521.23	25.405
521.58	25.650
521.92	24.759
522.26	24.742
522.61	24.363
522.95	24.394
523.29	24.885
523.64	24.944
523.98	25.727
524.32	24.814
524.66	25.612
525.01	24.858
525.35	24.239
525.69	24.826
526.04	24.455
526.38	24.943
526.72	25.029
527.06	24.692
527.41	25.306
527.75	25.000
528.09	24.852
528.43	24.512
528.78	24.220
529.12	25.631
529.46	24.845
529.80	26.144
530.15	24.812
530.49	24.437
530.83	26.033
531.17	24.552
531.51	25.391
531.86	24.760
532.20	25.427
532.54	24.656
532.88	24.970
533.22	24.808
533.57	24.351
533.91	25.084
534.25	25.495
534.59	24.713
534.93	25.241
535.27	24.169
535.62	25.242
535.96	25.973
536.30	24.912
536.64	25.946
536.98	26.015
537.32	25.370
537.66	24.828
538.01	24.230
538.35	24.970
538.69	25.240
539.03	25.261
539.37	25.147
539.71	26.006
540.05	24.820
540.39	25.489
540.73	24.165
541.07	25.261
541.42	24.276
541.76	25.030
542.10	24.849
542.44	25.639
542.78	25.912
543.12	25.089
543.46	25.885
543.80	24.940
544.14	24.955
544.48	25.000
544.82	26.092
545.16	25.701
545.50	25.285
545.84	25.842
546.18	25.185
546.52	24.522
546.86	25.472
547.20	25.127
547.54	24.844
547.88	23.388
548.22	23.918
548.56	25.278
548.90	25.910
549.24	24.924
549.58	24.416
549.92	25.383
550.26	25.307
550.60	25.909
550.94	25.809
551.28	24.818
551.62	25.337
551.96	24.790
552.30	25.303
552.64	25.451
552.98	25.452
553.32	26.109
553.66	24.887
554.00	25.851
554.34	25.676
554.68	25.371
555.02	25.624
555.36	25.444
555.69	23.126
556.03	24.905
556.37	26.095
556.71	25.491
557.05	25.431
557.39	25.017
557.73	25.561
558.07	24.967
558.41	26.179
558.75	25.896
559.08	24.495
559.42	24.623
559.76	25.712
560.10	24.849
560.44	25.066
560.78	25.688
561.12	25.246
561.45	26.034
561.79	25.275
562.13	25.077
562.47	24.846
562.81	25.506
563.15	25.568
563.48	25.730
563.82	24.667
564.16	24.773
564.50	25.268
564.84	25.251
565.17	25.882
565.51	24.741
565.85	24.822
566.19	24.942
566.52	24.751
566.86	25.976
567.20	24.361
567.54	25.066
567.88	25.229
568.21	25.741
568.55	25.899
568.89	25.874
569.23	25.687
569.56	25.635
569.90	25.588
570.24	25.396
570.57	25.369
570.91	25.107
571.25	24.935
571.59	25.800
571.92	25.027
572.26	25.384
572.60	24.898
572.93	25.383
573.27	24.895
573.61	25.251
573.95	25.127
574.28	25.251
574.62	24.761
574.96	24.746
575.29	24.543
575.63	25.064
575.97	25.389
576.30	25.142
576.64	24.720
576.98	24.692
577.31	24.858
577.65	25.175
577.98	24.736
578.32	25.244
578.66	25.141
578.99	24.964
579.33	25.100
579.67	25.317
580.00	25.129
580.34	24.869
580.67	25.110
581.01	24.773
581.35	25.093
581.68	25.022
582.02	24.870
582.35	25.584
582.69	25.556
583.02	25.154
583.36	25.262
583.70	24.699
584.03	24.622
584.37	25.475
584.70	24.817
585.04	24.529
585.37	25.166
585.71	25.135
586.04	25.033
586.38	25.232
586.72	25.019
587.05	24.482
587.39	25.804
587.72	25.598
588.06	25.725
588.39	25.367
588.73	25.212
589.06	25.508
589.40	25.353
589.73	25.643
590.07	25.464
590.40	25.761
590.73	25.133
591.07	25.168
591.40	25.039
591.74	25.199
592.07	25.457
592.41	25.315
592.74	25.133
593.08	25.191
593.41	25.984
593.75	25.747
594.08	25.901
594.41	25.865
594.75	25.208
595.08	25.942
595.42	26.104
595.75	25.928
596.09	25.585
596.42	25.761
596.75	25.859
597.09	26.020
597.42	25.348
597.75	24.931
598.09	25.198
598.42	25.774
598.76	25.334
599.09	25.098
599.42	25.008
599.76	25.553
600.09	25.759
600.42	25.225
600.76	25.694
601.09	25.689
601.42	25.472
601.76	25.103
602.09	25.340
602.42	24.682
602.76	25.387
603.09	25.477
603.42	25.542
603.76	25.053
604.09	25.834
604.42	25.394
604.76	25.190
605.09	24.890
605.42	25.279
605.75	25.538
606.09	25.980
606.42	25.246
606.75	25.112
607.09	25.115
607.42	24.817
607.75	25.674
608.08	25.178
608.42	24.869
608.75	25.622
609.08	25.297
609.41	25.893
609.75	25.804
610.08	25.022
610.41	25.489
610.74	25.462
611.07	25.577
611.41	25.561
611.74	25.774
612.07	26.321
612.40	25.285
612.73	25.477
613.07	25.428
613.40	25.602
613.73	25.277
614.06	25.761
614.39	24.927
614.72	25.813
615.06	25.120
615.39	25.230
615.72	25.498
616.05	25.304
616.38	25.732
616.71	25.601
617.05	24.547
617.38	25.736
617.71	26.350
618.04	26.174
618.37	26.066
618.70	25.679
619.03	25.866
619.36	25.339
619.69	25.817
620.03	25.110
620.36	25.337
620.69	25.540
621.02	26.509
621.35	26.125
621.68	26.392
622.01	25.907
622.34	26.290
622.67	26.667
623.00	24.899
623.33	26.277
623.66	26.848
623.99	25.214
624.32	25.536
624.65	25.547
624.99	26.008
625.32	26.911
625.65	26.298
625.98	25.627
626.31	25.656
626.64	26.447
626.97	25.356
627.30	25.285
627.63	25.956
627.96	25.601
628.29	26.615
628.62	25.861
628.95	25.942
629.28	26.083
629.61	27.189
629.94	24.854
630.26	25.169
630.59	25.389
630.92	26.147
631.25	25.492
631.58	26.083
631.91	26.710
632.24	25.456
632.57	25.237
632.90	25.276
633.23	26.429
633.56	26.020
633.89	25.620
634.22	26.195
634.55	26.514
634.88	27.597
635.20	27.234
635.53	26.554
635.86	27.411
636.19	27.572
636.52	26.688
636.85	26.149
637.18	25.468
637.51	27.097
637.83	28.793
638.16	26.267
638.49	26.056
638.82	26.043
639.15	24.971
639.48	26.790
639.81	24.596
640.13	27.208
640.46	25.455
640.79	26.593
641.12	27.453
641.45	25.094
641.77	27.214
642.10	27.165
642.43	27.793
642.76	27.913
643.09	28.493
643.41	28.151
643.74	24.552
644.07	27.586
644.40	26.308
644.73	27.576
645.05	26.872
645.38	27.914
645.71	26.979
646.04	27.116
646.36	25.839
646.69	27.454
647.02	27.217
647.35	29.466
647.67	27.697
648.00	26.752
648.33	27.477
648.66	26.534
648.98	25.306
649.31	28.417
649.64	28.021
649.96	25.597
650.29	24.339
650.62	27.298
650.94	27.327
651.27	24.701
651.60	26.023
651.92	26.596
652.25	26.918
652.58	27.785
652.90	26.744
653.23	27.324
653.56	26.676
653.88	27.388
654.21	25.493
654.54	25.723
654.86	27.479
655.19	25.094
655.52	25.619
655.84	24.893
656.17	31.131
656.49	43.358
656.82	48.044
657.15	37.133
657.47	27.462
657.80	20.144
658.13	15.622
658.45	20.556
658.78	24.009
659.10	23.302
659.43	23.160
659.75	22.781
660.08	22.465
660.41	22.250
660.73	24.287
661.06	23.642
661.38	25.359
661.71	24.828
662.03	24.339
662.36	26.476
662.68	29.831
663.01	27.434
663.33	27.410
663.66	27.656
663.98	28.077
664.31	26.642
664.63	27.746
664.96	26.497
665.28	23.956
665.61	28.671
665.93	25.357
666.26	28.136
666.58	26.199
666.91	26.168
667.23	27.048
667.56	30.572
667.88	27.400
668.21	25.781
668.53	26.641
668.86	27.505
669.18	27.699
669.50	26.243
669.83	27.400
670.15	26.181
670.48	28.968
670.80	25.430
671.13	24.953
671.45	28.937
671.77	27.307
672.10	24.667
672.42	24.919
672.75	25.653
673.07	25.821
673.39	27.119
673.72	29.195
674.04	26.379
674.37	29.517
674.69	28.395
675.01	25.143
675.34	26.908
675.66	25.655
675.98	26.866
676.31	28.320
676.63	26.616
676.95	26.054
677.28	28.226
677.60	24.803
677.92	25.912
678.25	26.508
678.57	26.690
678.89	27.304
679.22	25.087
679.54	25.641
679.86	25.424
680.18	26.866
680.51	26.101
680.83	26.023
681.15	25.000
681.48	25.043
681.80	26.252
682.12	27.273
682.44	25.710
682.77	24.645
683.09	24.621
683.41	28.101
683.73	25.996
684.06	26.384
684.38	25.760
684.70	26.750
685.02	26.678
685.34	25.291
685.67	26.341
685.99	26.227
686.31	25.145
686.63	25.434
686.96	26.498
687.28	26.873
687.60	23.737
687.92	25.402
688.24	26.043
688.56	23.966
688.89	26.860
689.21	27.984
689.53	25.294
689.85	25.444
690.17	28.148
690.49	26.494
690.82	24.158
691.14	27.733
691.46	26.195
691.78	24.494
692.10	25.321
692.42	23.214
692.74	25.771
693.06	23.519
693.39	27.324
693.71	25.000
694.03	23.420
694.35	25.905
694.67	27.721
694.99	26.809
695.31	26.269
695.63	29.004
695.95	28.986
696.27	25.275
696.59	26.106
696.91	25.901
697.23	28.132
697.56	26.884
697.88	23.864
698.20	26.177
698.52	27.462
698.84	28.274
699.16	24.898
699.48	25.314
699.80	24.468
700.12	28.166
700.44	24.424
700.76	25.653
701.08	26.150
701.40	26.684
701.72	29.602
702.04	28.075
702.36	22.513
702.68	25.672
703.00	28.851
703.32	27.340
703.64	28.117
703.96	26.730
704.28	26.536
704.60	27.342
704.91	24.235
705.23	26.575
705.55	28.691
705.87	26.364
706.19	27.914
706.51	24.096
706.83	27.666
707.15	26.455
707.47	23.832
707.79	24.672
708.11	22.881
708.43	28.172
708.74	23.438
709.06	26.218
709.38	25.587
709.70	24.814
710.02	26.098
710.34	29.787
710.66	22.905
710.98	25.956
711.29	25.824
711.61	29.379
711.93	28.205
712.25	24.324
712.57	31.563
712.89	27.353
713.20	25.148
713.52	26.012
713.84	25.627
714.16	26.579
714.48	28.608
714.80	28.831
715.11	26.247
715.43	22.281
715.75	28.158
716.07	27.348
716.39	28.415
716.70	21.988
717.02	28.197
717.34	28.223
717.66	23.826
717.97	21.918
718.29	25.086
718.61	22.368
718.93	27.832
719.24	26.708
719.56	27.914
719.88	29.429
720.20	23.871
720.51	24.534
720.83	25.938
721.15	26.645
721.46	21.918
721.78	26.667
722.10	23.948
722.42	26.174
722.73	24.194
723.05	31.579
723.37	29.861
723.68	26.882
724.00	26.715
724.32	22.887
724.63	29.021
724.95	33.333
725.27	27.178
725.58	25.795
725.90	30.690
726.22	26.646
726.53	30.519
726.85	27.673
727.16	29.305
727.48	30.275
727.80	24.503
728.11	22.968
728.43	30.640
728.74	25.418
729.06	25.497
729.38	27.922
729.69	27.852
730.01	28.571
730.32	22.121
730.64	26.730
730.96	25.466
731.27	28.771
731.59	25.824
731.90	26.234
732.22	25.260
732.53	21.823
732.85	23.714
733.16	25.513
733.48	23.476
733.80	25.905
734.11	23.932
734.43	24.324
734.74	28.608
735.06	24.623
735.37	30.541
735.69	25.946
736.00	27.966
736.32	25.067
736.63	30.000
736.95	24.138
737.26	26.970
737.58	24.545
737.89	31.176
738.21	27.217
738.52	26.557
738.83	28.669
739.15	27.305
739.46	28.571
739.78	29.755
740.09	20.917
740.41	27.697
740.72	24.333
741.04	28.803
741.35	27.018
741.66	29.804
741.98	27.049
742.29	23.849
742.61	28.070
742.92	28.077
743.23	25.271
743.55	29.457
743.86	23.200
744.18	23.554
744.49	21.097
744.80	25.103
745.12	25.738
745.43	27.642
745.74	23.276
746.06	31.356
746.37	31.646
746.68	30.894
747.00	25.833
747.31	28.755
747.62	28.077
747.94	25.911
748.25	26.908
748.56	22.857
748.88	29.060
749.19	30.172
749.50	29.004
749.82	27.711
750.13	26.335
750.44	24.000
750.75	26.462
751.07	24.923
751.38	24.921
751.69	29.393
752.01	23.625
752.32	26.471
752.63	30.952
752.94	23.875
753.26	27.138
753.57	24.444
753.88	25.094
754.19	26.688
754.51	25.080
754.82	27.653
755.13	29.180
755.44	26.621
755.75	27.303
756.07	30.448
756.38	28.931
756.69	26.807
757.00	22.161
757.31	26.776
757.63	25.064
757.94	26.056
758.25	24.831
758.56	24.619
758.87	24.773
759.18	26.933
759.50	27.195
759.81	26.050
760.12	26.415
760.43	26.302
760.74	28.571
761.05	26.500
761.36	24.578
761.67	25.381
761.99	25.405
762.30	27.134
762.61	26.733
762.92	27.985
763.23	28.839
763.54	25.180
763.85	26.460
764.16	26.599
764.47	28.521
764.78	26.198
765.10	23.754
765.41	26.667
765.72	24.074
766.03	26.271
766.34	28.213
766.65	21.951
766.96	26.693
767.27	29.954
767.58	28.856
767.89	27.885
768.20	24.413
768.51	25.926
768.82	28.514
769.13	25.758
769.44	21.154
769.75	31.769
770.06	27.692
770.37	30.709
770.68	19.574
770.99	18.623
771.30	31.852
771.61	25.475
771.92	20.741
772.23	27.935
772.54	18.981
772.85	31.336
773.16	28.571
773.47	26.455
773.78	24.324
774.09	26.705
774.39	32.000
774.70	31.694
775.01	26.220
775.32	21.176
775.63	30.061
775.94	22.930
776.25	32.903
776.56	31.410
776.87	26.531
777.18	30.345
777.48	31.469
777.79	18.919
778.10	19.853
778.41	27.083
778.72	32.414
779.03	29.012
779.34	23.030
779.65	25.389
779.95	28.333
780.26	28.977
780.57	27.742
780.88	28.986
781.19	29.677
781.50	34.706
781.80	23.656
782.11	24.868
782.42	27.778
782.73	18.563
783.04	25.698
783.34	27.273
783.65	22.222
783.96	22.981
784.27	25.000
784.57	27.152
784.88	21.429
785.19	29.134
785.50	29.134
785.81	21.053
786.11	33.077
786.42	23.022
786.73	29.496
787.04	30.827
787.34	23.770
787.65	30.400
787.96	24.627
788.26	30.769
788.57	28.671
788.88	26.316
789.19	33.987
789.49	26.027
789.80	27.660
790.11	29.921
790.41	23.437
790.72	35.593
791.03	19.417
791.33	34.783
791.64	34.211
791.95	26.786
792.25	22.857
792.56	25.893
792.87	23.958
793.17	33.929
793.48	25.000
793.79	27.711
794.09	25.688
794.40	18.349
794.70	27.891
795.01	24.026
795.32	28.082
795.62	26.056
795.93	29.545
796.23	28.689
796.54	21.429
796.85	23.404
797.15	28.261
797.46	32.877
797.76	25.000
798.07	31.522
798.37	21.649
798.68	29.870
798.99	34.483
799.29	41.573
799.60	30.851
799.90	33.735
800.21	29.231
800.51	19.403
800.82	30.882
801.12	21.918
801.43	17.647
801.73	25.424
802.04	34.848
802.34	28.333
802.65	45.763
802.95	32.836
803.26	32.203
803.56	41.096
803.87	34.286
804.17	31.507
804.48	21.053
804.78	36.111
805.09	8.621
805.39	20.270
805.70	25.352
806.00	29.268
806.30	36.145
806.61	32.877
806.91	20.192
807.22	33.333
807.52	27.586
807.83	27.778
808.13	32.530
808.43	13.483
808.74	25.000
809.04	13.235
809.35	24.000
809.65	30.000
809.95	31.507
810.26	29.825
810.56	34.483
810.86	36.765
811.17	31.579
811.47	22.951
811.77	13.333
812.08	13.559
812.38	33.333
812.69	39.655
812.99	30.189
813.29	20.513
813.59	56.000
813.90	49.123
814.20	38.182
814.50	38.028
814.81	34.615
815.11	32.787
815.41	35.821
815.72	32.759
816.02	33.929
816.32	44.444
816.62	38.636
816.93	20.000
817.23	35.185
817.53	36.170
817.84	42.857
818.14	11.765
818.44	38.776
818.74	6.667
819.04	10.256
819.35	-5.714
819.65	23.077
819.95	45.283
820.25	15.556
820.56	19.048
820.86	34.375
821.16	41.026
821.46	18.605
821.76	14.000
822.07	16.071
822.37	28.261
822.67	23.404
822.97	8.108
823.27	22.500
823.57	46.939
823.88	57.778
824.18	47.500
824.48	26.667
824.78	12.000
825.08	39.394
825.38	48.889
825.69	25.532
825.99	38.889
826.29	-2.857
826.59	30.769
826.89	6.977
827.19	34.000
827.49	29.412
827.79	35.417
828.09	2.703
828.39	36.667
828.70	7.317
829.00	25.581
829.30	14.286
829.60	41.176
829.90	30.435
830.20	28.571
830.50	55.172
830.80	22.222
831.10	46.154
831.40	41.176
831.70	52.381
832.00	48.387
832.30	-47.059
832.60	37.500
832.90	61.538
833.20	5.263
833.50	65.000
833.80	47.368
834.10	0.000
834.40	25.000
834.70	62.500
835.00	11.429
835.30	44.118
835.60	-3.333
835.90	40.000
836.20	4.545
836.50	24.000
836.80	6.061
837.10	51.852
837.40	33.333
837.70	-12.500
838.00	3.571
838.30	8.696
838.60	31.034
838.90	71.429
839.19	-21.739
839.49	-25.000
839.79	8.696
840.09	-31.250
840.39	-10.000
840.69	64.516
840.99	32.143
841.29	-20.000
841.59	68.421
841.88	51.282
842.18	34.615
842.48	-30.000
842.78	50.000
843.08	53.333
843.38	48.387
843.68	38.889
843.97	32.353
844.27	75.000
844.57	0.000
844.87	30.000
845.17	33.333
845.47	66.667
845.76	23.810
846.06	155.556
846.36	17.647
846.66	34.615
846.96	-33.333
847.25	29.412
847.55	73.913
847.85	50.000
848.15	35.294
848.44	118.182
848.74	42.857
849.04	33.333
849.34	37.500
849.63	34.783
849.93	550.000
850.23	46.667
850.53	61.538
850.82	109.091
851.12	86.364
851.42	36.364
851.71	23.077
852.01	30.000
852.31	30.769
852.61	15.789
852.90	91.667
853.20	38.889
853.50	-77.778
853.79	9.524
854.09	72.727
854.39	66.667
854.68	25.806
854.98	-3.846
855.28	50.000
855.57	32.143
855.87	88.000
856.17	81.818
856.46	62.963
856.76	66.667
857.05	52.174
857.35	62.500
857.65	38.462
857.94	90.476
858.24	59.259
858.53	91.304
858.83	23.529
859.13	17.647
859.42	70.588
859.72	78.571
860.01	35.000
860.31	77.778
860.60	70.000
860.90	86.667
861.20	50.000
861.49	-7.692
861.79	43.333
862.08	30.769
862.38	53.125
862.67	64.706
862.97	43.750
863.26	111.111
863.56	60.000
863.85	90.909
864.15	94.444
864.44	-33.333
864.74	78.571
865.03	37.500
865.33	-70.000
865.62	-3.226
865.92	22.727
866.21	56.522
866.51	57.143
866.80	60.000
867.10	16.667
867.39	8.333
867.69	900.000
867.98	42.857
868.27	41.176
868.57	-800.000
868.86	-20.000
869.16	47.619
869.45	79.167
869.75	72.727
870.04	300.000
870.33	100.000
870.63	-100.000
870.92	325.000
871.22	-125.000
871.51	27.273
871.80	-600.000
872.10	0.000
>>>>>End Processed Spectral Data<<<<<
