SpectraSuite Data File
++++++++++++++++++++++++++++++++++++
Date: Thu May 14 15:18:01 PDT 2015
User: schluterlab
Dark Spectrum Present: Yes
Reference Spectrum Present: Yes
Number of Sampled Component Spectra: 1
Spectrometers: USB2E3373
Integration Time (usec): 3000 (USB2E3373)
Spectra Averaged: 3 (USB2E3373)
Boxcar Smoothing: 0 (USB2E3373)
Correct for Electrical Dark: No (USB2E3373)
Strobe/Lamp Enabled: No (USB2E3373)
Correct for Detector Non-linearity: No (USB2E3373)
Correct for Stray Light: No (USB2E3373)
Number of Pixels in Processed Spectrum: 2048
>>>>>Begin Processed Spectral Data<<<<<
178.53	0.000
178.91	600.000
179.29	-4700.000
179.67	-4600.000
180.04	342.857
180.42	380.000
180.80	800.000
181.18	-4400.000
181.56	-3600.000
181.94	1025.000
182.31	-975.000
182.69	1433.333
183.07	-1850.000
183.45	1000.000
183.83	-650.000
184.20	-1433.333
184.58	3000.000
184.96	-1100.000
185.34	-422.222
185.72	-700.000
186.09	555.556
186.47	1850.000
186.85	960.000
187.23	-466.667
187.61	-5300.000
187.98	820.000
188.36	1100.000
188.74	-825.000
189.12	-1133.333
189.49	-225.000
189.87	-525.000
190.25	-411.111
190.63	-900.000
191.00	-544.444
191.38	0.000
191.76	-1175.000
192.14	-733.333
192.51	2050.000
192.89	-616.667
193.27	0.000
193.65	-471.429
194.02	-4200.000
194.40	-628.571
194.78	657.143
195.15	0.000
195.53	-336.364
195.91	0.000
196.29	-1100.000
196.66	-253.846
197.04	-4300.000
197.42	-571.429
197.79	-2250.000
198.17	-562.500
198.55	-442.857
198.92	-411.111
199.30	-500.000
199.68	-263.636
200.05	-250.000
200.43	-2550.000
200.81	628.571
201.18	0.000
201.56	600.000
201.94	0.000
202.31	1533.333
202.69	-522.222
203.07	4000.000
203.44	-455.556
203.82	-1200.000
204.19	-375.000
204.57	-650.000
204.95	-562.500
205.32	-4400.000
205.70	1000.000
206.08	-700.000
206.45	-700.000
206.83	920.000
207.20	-766.667
207.58	-980.000
207.96	-650.000
208.33	-650.000
208.71	341.667
209.08	-550.000
209.46	0.000
209.84	683.333
210.21	1750.000
210.59	2100.000
210.96	1466.667
211.34	-1075.000
211.71	-437.500
212.09	-3800.000
212.46	0.000
212.84	2450.000
213.22	-820.000
213.59	-900.000
213.97	-410.000
214.34	-1366.667
214.72	683.333
215.09	-1000.000
215.47	0.000
215.84	657.143
216.22	2350.000
216.59	-820.000
216.97	-860.000
217.34	-750.000
217.72	-387.500
218.09	-1075.000
218.47	-1125.000
218.84	0.000
219.22	840.000
219.59	-211.765
219.97	-175.000
220.34	2300.000
220.72	-522.222
221.09	-284.615
221.47	-1200.000
221.84	-350.000
222.22	-700.000
222.59	0.000
222.97	-525.000
223.34	-1080.000
223.72	-4400.000
224.09	-1275.000
224.46	-925.000
224.84	-680.000
225.21	-614.286
225.59	-1075.000
225.96	-1200.000
226.34	-134.615
226.71	750.000
227.08	-1800.000
227.46	-246.667
227.83	-1050.000
228.21	-194.737
228.58	525.000
228.95	2000.000
229.33	-258.333
229.70	-360.000
230.08	-136.842
230.45	450.000
230.82	-1233.333
231.20	-235.714
231.57	-308.333
231.95	-390.909
232.32	-336.364
232.69	-175.000
233.07	-925.000
233.44	-211.765
233.81	-410.000
234.19	-161.111
234.56	-122.727
234.93	-65.517
235.31	-194.737
235.68	-261.111
236.05	-240.000
236.43	-103.846
236.80	-112.000
237.17	-114.815
237.55	-106.061
237.92	-480.000
238.29	-116.129
238.67	-68.182
239.04	-102.778
239.41	-109.524
239.79	-69.565
240.16	-72.222
240.53	-97.826
240.91	-96.078
241.28	-67.213
241.65	-47.761
242.02	-36.486
242.40	-52.308
242.77	-37.333
243.14	-47.561
243.51	-59.211
243.89	-56.410
244.26	-34.653
244.63	-26.471
245.00	-31.776
245.38	-29.825
245.75	-36.283
246.12	-26.984
246.49	-26.357
246.87	-17.857
247.24	-17.881
247.61	-15.789
247.98	-22.148
248.36	-17.901
248.73	-19.632
249.10	-13.661
249.47	-7.463
249.84	-5.759
250.22	-13.990
250.59	-18.333
250.96	-12.727
251.33	-13.776
251.70	-6.838
252.08	-9.167
252.45	-6.967
252.82	-7.025
253.19	-9.766
253.56	-5.323
253.94	-11.154
254.31	-6.439
254.68	-4.895
255.05	-2.280
255.42	-6.803
255.79	-8.414
256.16	-7.285
256.54	-6.954
256.91	-5.902
257.28	-6.885
257.65	-7.962
258.02	-5.015
258.39	-4.558
258.76	-1.835
259.14	-5.460
259.51	-8.069
259.88	-6.232
260.25	-4.167
260.62	-2.192
260.99	-2.186
261.36	-3.485
261.73	-6.366
262.10	-4.121
262.47	-4.826
262.85	-0.253
263.22	-4.935
263.59	-4.737
263.96	-3.069
264.33	-4.348
264.70	-1.481
265.07	-0.239
265.44	0.454
265.81	-3.241
266.18	-2.268
266.55	-2.009
266.92	-3.417
267.29	-1.094
267.66	-3.104
268.03	-0.218
268.40	-0.626
268.77	-2.961
269.14	-4.846
269.51	-2.412
269.88	0.000
270.25	-1.006
270.62	-0.422
270.99	-0.404
271.36	-1.584
271.73	-1.179
272.10	0.000
272.47	0.200
272.84	-2.610
273.21	-1.804
273.58	-2.419
273.95	-0.962
274.32	-1.901
274.69	-1.741
275.06	0.366
275.43	0.185
275.80	0.176
276.17	-2.037
276.54	-2.239
276.91	-1.073
277.28	-0.181
277.65	-1.257
278.02	-1.838
278.39	-1.268
278.76	0.527
279.13	-1.596
279.50	-1.031
279.87	-1.252
280.23	-3.697
280.60	1.186
280.97	0.164
281.34	-2.207
281.71	1.523
282.08	0.332
282.45	-0.327
282.82	-0.628
283.19	-2.908
283.56	-1.311
283.92	1.201
284.29	3.476
284.66	0.000
285.03	-2.564
285.40	0.618
285.77	-0.464
286.14	0.763
286.51	2.131
286.87	-0.632
287.24	0.000
287.61	-0.448
287.98	-0.755
288.35	-0.296
288.72	0.592
289.08	1.025
289.45	-1.627
289.82	0.602
290.19	0.144
290.56	0.282
290.93	0.713
291.29	1.102
291.66	-0.275
292.03	-0.814
292.40	1.497
292.77	-0.809
293.13	1.353
293.50	-1.445
293.87	-0.134
294.24	1.867
294.60	0.759
294.97	-1.208
295.34	0.640
295.71	0.757
296.08	0.129
296.44	0.613
296.81	0.365
297.18	0.000
297.55	-0.943
297.91	0.000
298.28	-2.014
298.65	0.238
299.02	-1.063
299.38	0.343
299.75	1.051
300.12	-0.347
300.48	0.461
300.85	0.450
301.22	1.007
301.59	0.457
301.95	-0.226
302.32	1.222
302.69	1.424
303.05	0.871
303.42	0.776
303.79	0.625
304.15	1.998
304.52	0.106
304.89	0.628
305.25	2.174
305.62	0.209
305.99	0.928
306.35	1.714
306.72	1.344
307.09	0.508
307.45	1.035
307.82	1.211
308.19	0.101
308.55	2.218
308.92	1.071
309.29	1.245
309.65	1.559
310.02	0.990
310.38	0.591
310.75	1.845
311.12	3.260
311.48	1.955
311.85	1.899
312.22	1.423
312.58	2.066
312.95	2.103
313.31	2.168
313.68	3.297
314.05	3.613
314.41	3.279
314.78	2.997
315.14	2.904
315.51	4.524
315.87	3.780
316.24	4.384
316.61	3.464
316.97	2.715
317.34	3.704
317.70	3.843
318.07	4.321
318.43	5.272
318.80	6.522
319.16	4.979
319.53	3.856
319.89	4.557
320.26	5.872
320.62	6.028
320.99	6.187
321.35	5.915
321.72	6.884
322.08	7.304
322.45	6.052
322.81	6.137
323.18	6.283
323.54	6.466
323.91	6.762
324.27	8.176
324.64	8.564
325.00	7.463
325.37	7.535
325.73	8.099
326.10	9.408
326.46	9.202
326.83	9.287
327.19	8.504
327.56	9.565
327.92	8.655
328.29	8.952
328.65	8.626
329.01	9.983
329.38	10.194
329.74	9.675
330.11	10.017
330.47	10.194
330.84	9.905
331.20	11.000
331.56	10.572
331.93	11.046
332.29	11.102
332.66	10.465
333.02	11.474
333.38	10.822
333.75	11.448
334.11	11.593
334.48	10.891
334.84	11.895
335.20	10.747
335.57	11.467
335.93	12.893
336.29	10.732
336.66	11.186
337.02	11.789
337.38	11.990
337.75	11.653
338.11	11.354
338.47	12.572
338.84	10.575
339.20	10.952
339.56	11.532
339.93	12.808
340.29	13.043
340.65	10.624
341.02	12.530
341.38	12.611
341.74	11.945
342.11	11.987
342.47	10.723
342.83	13.285
343.20	11.284
343.56	12.350
343.92	12.330
344.28	12.734
344.65	12.868
345.01	12.793
345.37	13.219
345.73	11.691
346.10	11.934
346.46	12.342
346.82	13.558
347.19	11.765
347.55	12.443
347.91	12.704
348.27	12.898
348.63	13.024
349.00	12.453
349.36	13.457
349.72	13.244
350.08	13.150
350.45	12.700
350.81	12.821
351.17	13.910
351.53	12.964
351.89	14.503
352.26	12.537
352.62	12.537
352.98	13.664
353.34	12.920
353.70	13.713
354.07	14.754
354.43	12.756
354.79	12.715
355.15	13.466
355.51	13.743
355.87	14.510
356.24	14.068
356.60	12.639
356.96	13.121
357.32	13.086
357.68	12.738
358.04	13.847
358.40	13.134
358.77	13.304
359.13	13.516
359.49	12.491
359.85	13.633
360.21	14.204
360.57	14.070
360.93	13.893
361.29	14.035
361.66	14.772
362.02	14.962
362.38	14.758
362.74	14.735
363.10	14.856
363.46	15.028
363.82	14.276
364.18	13.934
364.54	14.592
364.90	15.652
365.26	14.207
365.62	15.733
365.98	15.521
366.35	15.503
366.71	15.646
367.07	14.682
367.43	15.233
367.79	15.660
368.15	15.385
368.51	15.968
368.87	14.958
369.23	14.867
369.59	15.984
369.95	15.416
370.31	15.800
370.67	16.094
371.03	15.720
371.39	15.850
371.75	15.337
372.11	15.989
372.47	15.843
372.83	16.558
373.19	15.744
373.55	15.921
373.91	16.087
374.27	16.559
374.63	17.118
374.99	16.114
375.35	16.753
375.71	16.258
376.07	17.043
376.42	17.317
376.78	17.464
377.14	17.093
377.50	17.078
377.86	18.350
378.22	18.563
378.58	18.371
378.94	19.131
379.30	18.102
379.66	18.401
380.02	19.042
380.38	18.548
380.74	19.155
381.09	19.512
381.45	18.636
381.81	19.965
382.17	20.071
382.53	18.947
382.89	19.526
383.25	20.223
383.61	20.197
383.97	18.787
384.32	21.053
384.68	19.722
385.04	20.821
385.40	20.625
385.76	20.692
386.12	20.347
386.48	21.235
386.83	21.216
387.19	20.452
387.55	21.068
387.91	21.062
388.27	21.709
388.62	21.191
388.98	21.320
389.34	22.039
389.70	22.255
390.06	22.084
390.42	22.651
390.77	22.396
391.13	21.420
391.49	21.558
391.85	21.758
392.20	22.005
392.56	22.859
392.92	22.246
393.28	22.167
393.64	22.235
393.99	23.242
394.35	23.773
394.71	22.695
395.07	22.036
395.42	22.901
395.78	24.741
396.14	23.292
396.50	22.922
396.85	22.182
397.21	22.249
397.57	22.733
397.92	23.253
398.28	22.868
398.64	23.112
399.00	22.984
399.35	22.932
399.71	23.261
400.07	23.526
400.42	23.632
400.78	22.975
401.14	23.563
401.49	23.138
401.85	23.023
402.21	24.276
402.57	24.120
402.92	23.522
403.28	22.834
403.63	23.270
403.99	23.278
404.35	23.877
404.70	22.946
405.06	23.424
405.42	22.951
405.77	23.828
406.13	23.447
406.49	23.818
406.84	23.601
407.20	22.862
407.55	22.229
407.91	23.821
408.27	23.498
408.62	23.560
408.98	24.434
409.34	22.874
409.69	23.918
410.05	24.150
410.40	24.130
410.76	23.163
411.11	23.963
411.47	23.649
411.83	24.339
412.18	23.193
412.54	24.659
412.89	24.272
413.25	23.871
413.60	23.262
413.96	23.193
414.31	24.419
414.67	24.747
415.03	23.631
415.38	24.338
415.74	23.946
416.09	23.998
416.45	23.607
416.80	24.541
417.16	23.755
417.51	24.844
417.87	24.280
418.22	24.311
418.58	24.535
418.93	25.320
419.29	24.846
419.64	24.850
420.00	25.045
420.35	25.267
420.71	24.871
421.06	25.244
421.42	24.943
421.77	24.556
422.12	26.216
422.48	25.704
422.83	26.396
423.19	26.684
423.54	25.498
423.90	26.560
424.25	26.560
424.61	25.718
424.96	26.414
425.31	26.592
425.67	26.302
426.02	26.951
426.38	27.325
426.73	27.065
427.09	28.201
427.44	27.307
427.79	26.645
428.15	27.283
428.50	26.573
428.85	26.866
429.21	28.457
429.56	28.875
429.92	28.059
430.27	28.578
430.62	28.676
430.98	29.218
431.33	28.201
431.68	28.209
432.04	29.101
432.39	28.388
432.74	28.824
433.10	28.935
433.45	29.599
433.80	28.755
434.16	28.874
434.51	30.216
434.86	29.913
435.22	31.190
435.57	30.071
435.92	30.495
436.28	28.612
436.63	29.711
436.98	30.059
437.34	30.722
437.69	30.105
438.04	30.037
438.39	30.500
438.75	30.216
439.10	30.550
439.45	30.799
439.81	30.282
440.16	30.134
440.51	30.881
440.86	30.573
441.22	30.493
441.57	30.922
441.92	31.038
442.27	31.414
442.63	31.942
442.98	31.003
443.33	32.036
443.68	31.368
444.03	32.596
444.39	32.316
444.74	32.312
445.09	31.424
445.44	32.139
445.79	32.375
446.15	31.501
446.50	31.421
446.85	33.074
447.20	32.495
447.55	32.531
447.91	31.780
448.26	33.298
448.61	31.456
448.96	32.994
449.31	32.025
449.66	32.190
450.02	32.700
450.37	32.658
450.72	32.777
451.07	32.688
451.42	32.062
451.77	32.629
452.12	34.537
452.47	32.799
452.83	33.502
453.18	33.508
453.53	33.372
453.88	32.413
454.23	33.446
454.58	33.662
454.93	32.949
455.28	33.052
455.63	33.712
455.98	34.134
456.34	33.098
456.69	33.862
457.04	34.102
457.39	33.315
457.74	34.172
458.09	33.169
458.44	33.782
458.79	33.161
459.14	33.770
459.49	33.786
459.84	34.523
460.19	32.426
460.54	33.958
460.89	34.674
461.24	32.931
461.59	34.422
461.94	32.858
462.29	33.819
462.64	34.218
462.99	33.082
463.34	35.042
463.69	33.587
464.04	34.575
464.39	35.482
464.74	33.067
465.09	33.910
465.44	34.227
465.79	34.056
466.14	34.184
466.49	33.895
466.84	34.656
467.19	34.798
467.54	33.490
467.89	33.448
468.24	34.349
468.59	33.874
468.94	34.266
469.29	34.793
469.64	33.821
469.99	34.162
470.34	34.282
470.68	35.748
471.03	34.840
471.38	34.402
471.73	33.680
472.08	35.343
472.43	34.979
472.78	34.383
473.13	34.893
473.48	35.770
473.83	35.461
474.17	34.877
474.52	35.298
474.87	34.718
475.22	35.155
475.57	34.735
475.92	35.192
476.27	35.304
476.61	34.943
476.96	34.411
477.31	34.950
477.66	35.467
478.01	35.130
478.36	34.247
478.70	36.158
479.05	36.759
479.40	36.032
479.75	35.014
480.10	34.912
480.45	35.232
480.79	35.465
481.14	35.662
481.49	34.984
481.84	36.249
482.19	35.828
482.53	35.592
482.88	36.021
483.23	36.372
483.58	34.934
483.92	35.151
484.27	35.902
484.62	35.272
484.97	35.303
485.31	33.826
485.66	31.893
486.01	32.262
486.36	34.119
486.70	36.288
487.05	37.302
487.40	35.802
487.75	34.936
488.09	34.545
488.44	33.878
488.79	34.469
489.13	34.468
489.48	34.874
489.83	35.533
490.17	35.115
490.52	35.714
490.87	36.337
491.22	36.135
491.56	36.263
491.91	36.372
492.26	36.088
492.60	35.899
492.95	36.551
493.30	36.351
493.64	35.480
493.99	36.009
494.34	35.801
494.68	36.060
495.03	36.652
495.37	37.372
495.72	36.871
496.07	35.933
496.41	35.736
496.76	37.531
497.11	35.966
497.45	37.505
497.80	37.050
498.14	37.370
498.49	36.857
498.84	36.426
499.18	37.337
499.53	36.771
499.87	38.110
500.22	36.198
500.56	36.842
500.91	36.476
501.26	37.500
501.60	35.572
501.95	37.299
502.29	36.288
502.64	36.992
502.98	36.713
503.33	36.415
503.67	35.761
504.02	36.515
504.36	37.668
504.71	36.840
505.06	36.880
505.40	36.700
505.75	36.566
506.09	37.247
506.44	37.326
506.78	37.706
507.13	36.745
507.47	37.944
507.82	37.169
508.16	36.950
508.51	36.521
508.85	38.026
509.19	37.234
509.54	37.704
509.88	37.542
510.23	38.222
510.57	37.893
510.92	38.462
511.26	37.326
511.61	37.228
511.95	38.360
512.30	38.799
512.64	37.731
512.98	37.319
513.33	38.458
513.67	38.858
514.02	38.068
514.36	38.568
514.70	38.802
515.05	39.155
515.39	38.845
515.74	39.873
516.08	38.933
516.42	39.874
516.77	38.801
517.11	37.906
517.46	39.024
517.80	40.406
518.14	40.044
518.49	39.588
518.83	38.265
519.17	38.018
519.52	39.046
519.86	38.490
520.20	39.830
520.55	38.938
520.89	39.921
521.23	38.582
521.58	39.661
521.92	38.414
522.26	39.061
522.61	40.104
522.95	39.389
523.29	39.195
523.64	39.574
523.98	40.901
524.32	40.630
524.66	40.694
525.01	39.864
525.35	39.747
525.69	39.501
526.04	38.806
526.38	39.713
526.72	39.619
527.06	39.296
527.41	40.816
527.75	39.905
528.09	39.079
528.43	39.195
528.78	38.613
529.12	38.589
529.46	38.898
529.80	40.217
530.15	38.957
530.49	40.214
530.83	39.847
531.17	39.188
531.51	40.132
531.86	40.805
532.20	40.915
532.54	38.719
532.88	39.818
533.22	39.305
533.57	38.950
533.91	38.833
534.25	39.401
534.59	39.770
534.93	38.257
535.27	38.310
535.62	39.682
535.96	39.279
536.30	38.660
536.64	39.339
536.98	39.791
537.32	40.556
537.66	39.301
538.01	37.583
538.35	39.099
538.69	39.363
539.03	39.730
539.37	39.282
539.71	38.739
540.05	38.549
540.39	38.447
540.73	37.826
541.07	39.730
541.42	38.925
541.76	37.663
542.10	38.118
542.44	38.611
542.78	39.051
543.12	38.915
543.46	38.462
543.80	38.909
544.14	38.779
544.48	38.948
544.82	39.437
545.16	39.475
545.50	38.766
545.84	39.008
546.18	39.444
546.52	39.745
546.86	38.679
547.20	40.331
547.54	38.265
547.88	38.939
548.22	38.070
548.56	38.853
548.90	38.567
549.24	40.122
549.58	40.189
549.92	38.393
550.26	39.806
550.60	39.056
550.94	38.486
551.28	39.274
551.62	41.375
551.96	39.159
552.30	40.217
552.64	39.390
552.98	39.676
553.32	40.772
553.66	39.678
554.00	39.660
554.34	40.862
554.68	39.122
555.02	38.699
555.36	39.645
555.69	38.757
556.03	39.155
556.37	40.300
556.71	39.822
557.05	39.936
557.39	39.018
557.73	38.639
558.07	40.397
558.41	40.532
558.75	40.027
559.08	42.171
559.42	39.918
559.76	39.620
560.10	40.790
560.44	39.710
560.78	40.188
561.12	38.978
561.45	40.146
561.79	40.171
562.13	41.590
562.47	39.149
562.81	40.190
563.15	40.467
563.48	39.838
563.82	40.024
564.16	38.522
564.50	38.617
564.84	40.354
565.17	40.235
565.51	39.125
565.85	40.202
566.19	39.574
566.52	39.438
566.86	38.879
567.20	37.140
567.54	38.396
567.88	38.991
568.21	39.032
568.55	39.041
568.89	38.221
569.23	37.812
569.56	37.476
569.90	37.669
570.24	36.391
570.57	36.466
570.91	36.252
571.25	36.245
571.59	35.959
571.92	35.634
572.26	35.601
572.60	35.545
572.93	35.653
573.27	35.825
573.61	34.648
573.95	35.251
574.28	34.641
574.62	34.698
574.96	33.988
575.29	34.545
575.63	34.742
575.97	35.042
576.30	34.271
576.64	34.670
576.98	34.055
577.31	34.560
577.65	34.771
577.98	34.582
578.32	34.418
578.66	34.791
578.99	34.794
579.33	34.438
579.67	34.633
580.00	34.187
580.34	34.184
580.67	34.157
581.01	34.055
581.35	33.957
581.68	34.073
582.02	34.397
582.35	35.432
582.69	34.759
583.02	34.517
583.36	34.340
583.70	34.924
584.03	34.365
584.37	34.288
584.70	33.667
585.04	34.085
585.37	34.688
585.71	34.498
586.04	34.897
586.38	35.283
586.72	34.570
587.05	34.843
587.39	35.677
587.72	35.335
588.06	35.542
588.39	35.126
588.73	35.106
589.06	35.356
589.40	35.741
589.73	35.990
590.07	36.340
590.40	36.173
590.73	35.878
591.07	36.337
591.40	35.731
591.74	35.731
592.07	36.460
592.41	36.475
592.74	36.741
593.08	36.433
593.41	36.950
593.75	36.006
594.08	36.716
594.41	36.635
594.75	36.333
595.08	35.666
595.42	36.526
595.75	36.390
596.09	36.327
596.42	36.259
596.75	35.971
597.09	37.253
597.42	36.194
597.75	36.456
598.09	36.032
598.42	37.153
598.76	36.263
599.09	36.775
599.42	36.071
599.76	36.018
600.09	36.703
600.42	36.336
600.76	36.889
601.09	36.674
601.42	36.011
601.76	36.586
602.09	36.812
602.42	35.478
602.76	36.827
603.09	37.115
603.42	37.572
603.76	36.047
604.09	36.622
604.42	36.550
604.76	35.845
605.09	36.657
605.42	37.360
605.75	36.154
606.09	36.469
606.42	36.775
606.75	36.169
607.09	36.790
607.42	36.301
607.75	37.202
608.08	36.622
608.42	36.356
608.75	37.396
609.08	36.418
609.41	37.230
609.75	37.232
610.08	37.511
610.41	37.468
610.74	37.899
611.07	38.188
611.41	38.206
611.74	38.568
612.07	38.569
612.40	38.451
612.73	38.044
613.07	38.826
613.40	37.777
613.73	37.554
614.06	38.420
614.39	37.707
614.72	38.331
615.06	37.632
615.39	37.264
615.72	37.630
616.05	37.591
616.38	38.698
616.71	39.185
617.05	38.445
617.38	38.630
617.71	38.985
618.04	38.802
618.37	38.798
618.70	39.649
619.03	38.769
619.36	39.766
619.69	39.142
620.03	39.925
620.36	38.773
620.69	39.420
621.02	40.486
621.35	41.219
621.68	41.649
622.01	40.641
622.34	40.795
622.67	40.137
623.00	40.283
623.33	40.013
623.66	39.883
623.99	39.171
624.32	40.741
624.65	40.605
624.99	40.442
625.32	41.607
625.65	41.537
625.98	41.153
626.31	40.822
626.64	41.099
626.97	40.360
627.30	41.762
627.63	40.135
627.96	41.441
628.29	43.035
628.62	42.653
628.95	44.172
629.28	42.311
629.61	42.424
629.94	41.925
630.26	43.220
630.59	43.264
630.92	41.385
631.25	44.991
631.58	43.974
631.91	43.580
632.24	44.476
632.57	44.592
632.90	44.534
633.23	44.796
633.56	45.408
633.89	43.802
634.22	45.530
634.55	45.511
634.88	44.372
635.20	43.703
635.53	46.780
635.86	44.529
636.19	43.796
636.52	43.882
636.85	45.148
637.18	44.179
637.51	43.548
637.83	45.293
638.16	45.968
638.49	46.244
638.82	43.968
639.15	42.383
639.48	46.189
639.81	44.111
640.13	46.643
640.46	45.697
640.79	46.078
641.12	44.969
641.45	46.299
641.77	47.625
642.10	45.407
642.43	48.005
642.76	45.799
643.09	45.479
643.41	46.078
643.74	46.897
644.07	46.759
644.40	46.535
644.73	47.460
645.05	48.458
645.38	47.914
645.71	45.161
646.04	46.915
646.36	44.964
646.69	46.779
647.02	48.318
647.35	50.687
647.67	49.275
648.00	48.248
648.33	48.799
648.66	46.362
648.98	47.211
649.31	44.520
649.64	46.348
649.96	45.889
650.29	46.314
650.62	43.281
650.94	45.495
651.27	42.814
651.60	46.491
651.92	46.809
652.25	46.310
652.58	45.392
652.90	45.349
653.23	45.634
653.56	47.076
653.88	45.365
654.21	44.648
654.54	44.509
654.86	45.184
655.19	43.664
655.52	44.453
655.84	41.456
656.17	45.110
656.49	61.565
656.82	64.546
657.15	49.542
657.47	37.367
657.80	27.320
658.13	20.728
658.45	26.922
658.78	31.569
659.10	29.742
659.43	28.366
659.75	28.050
660.08	29.188
660.41	30.604
660.73	36.830
661.06	39.648
661.38	44.338
661.71	44.310
662.03	47.619
662.36	49.195
662.68	46.529
663.01	46.549
663.33	47.259
663.66	49.267
663.98	52.115
664.31	47.467
664.63	44.123
664.96	47.550
665.28	47.368
665.61	48.951
665.93	45.893
666.26	46.416
666.58	45.387
666.91	51.963
667.23	46.857
667.56	44.970
667.88	50.600
668.21	44.922
668.53	44.015
668.86	47.544
669.18	49.084
669.50	47.117
669.83	44.400
670.15	46.850
670.48	48.810
670.80	46.845
671.13	44.991
671.45	47.244
671.77	49.906
672.10	42.000
672.42	44.337
672.75	41.935
673.07	42.985
673.39	44.838
673.72	45.805
674.04	45.345
674.37	47.048
674.69	47.972
675.01	44.571
675.34	47.137
675.66	41.199
675.98	46.455
676.31	46.094
676.63	47.148
676.95	47.510
677.28	46.774
677.60	42.323
677.92	46.065
678.25	46.801
678.57	46.797
678.89	44.539
679.22	43.902
679.54	45.128
679.86	44.068
680.18	45.108
680.51	45.440
680.83	42.390
681.15	45.345
681.48	44.732
681.80	45.250
682.12	45.804
682.44	41.903
682.77	43.972
683.09	44.886
683.41	47.093
683.73	44.402
684.06	42.435
684.38	45.081
684.70	44.704
685.02	46.816
685.34	42.596
685.67	42.744
685.99	42.485
686.31	40.552
686.63	42.180
686.96	41.956
687.28	41.857
687.60	41.246
687.92	41.158
688.24	41.235
688.56	39.138
688.89	41.924
689.21	43.444
689.53	44.706
689.85	43.393
690.17	44.630
690.49	43.625
690.82	41.782
691.14	42.105
691.46	43.212
691.78	45.672
692.10	43.670
692.42	44.821
692.74	41.924
693.06	36.852
693.39	43.264
693.71	43.985
694.03	40.520
694.35	40.952
694.67	42.094
694.99	41.702
695.31	46.137
695.63	44.805
695.95	42.236
696.27	43.297
696.59	43.805
696.91	43.919
697.23	48.132
697.56	41.752
697.88	43.182
698.20	39.171
698.52	45.833
698.84	45.738
699.16	44.694
699.48	40.795
699.80	44.043
700.12	42.576
700.44	44.240
700.76	47.981
701.08	44.310
701.40	45.596
701.72	47.264
702.04	47.861
702.36	46.335
702.68	41.809
703.00	44.743
703.32	42.611
703.64	40.831
703.96	41.050
704.28	40.541
704.60	43.544
704.91	40.306
705.23	43.562
705.55	45.961
705.87	45.455
706.19	48.466
706.51	43.675
706.83	41.499
707.15	44.444
707.47	41.355
707.79	40.393
708.11	36.653
708.43	40.645
708.74	39.955
709.06	39.675
709.38	42.254
709.70	40.695
710.02	40.310
710.34	43.351
710.66	40.503
710.98	39.891
711.29	39.011
711.61	43.220
711.93	42.450
712.25	41.622
712.57	43.953
712.89	45.294
713.20	40.828
713.52	42.197
713.84	42.897
714.16	42.895
714.48	38.402
714.80	43.896
715.11	41.207
715.43	38.727
715.75	42.105
716.07	39.503
716.39	42.077
716.70	37.952
717.02	44.262
717.34	43.206
717.66	42.617
717.97	37.671
718.29	38.832
718.61	42.434
718.93	38.835
719.24	37.578
719.56	43.865
719.88	34.535
720.20	41.935
720.51	35.714
720.83	38.750
721.15	38.487
721.46	36.301
721.78	42.000
722.10	36.246
722.42	34.564
722.73	36.774
723.05	40.351
723.37	37.500
723.68	44.803
724.00	40.433
724.32	37.324
724.63	36.014
724.95	43.262
725.27	38.328
725.58	40.636
725.90	38.966
726.22	34.483
726.53	39.935
726.85	41.824
727.16	37.462
727.48	37.920
727.80	38.411
728.11	36.042
728.43	36.027
728.74	36.455
729.06	36.093
729.38	43.506
729.69	37.248
730.01	36.012
730.32	33.030
730.64	37.421
730.96	36.335
731.27	38.268
731.59	39.560
731.90	37.403
732.22	35.937
732.53	33.149
732.85	35.714
733.16	38.416
733.48	38.720
733.80	34.819
734.11	36.467
734.43	40.541
734.74	38.228
735.06	36.181
735.37	41.351
735.69	35.946
736.00	39.548
736.32	33.962
736.63	38.056
736.95	36.494
737.26	40.606
737.58	39.697
737.89	34.412
738.21	36.697
738.52	32.131
738.83	36.519
739.15	33.333
739.46	41.837
739.78	36.196
740.09	35.530
740.41	35.569
740.72	36.667
741.04	36.570
741.35	36.491
741.66	37.647
741.98	32.787
742.29	33.473
742.61	42.544
742.92	36.538
743.23	37.906
743.55	36.434
743.86	36.400
744.18	35.537
744.49	33.333
744.80	32.922
745.12	38.819
745.43	36.585
745.74	32.328
746.06	38.559
746.37	37.131
746.68	40.244
747.00	37.917
747.31	39.056
747.62	33.462
747.94	36.437
748.25	32.932
748.56	37.143
748.88	35.897
749.19	40.517
749.50	32.035
749.82	40.562
750.13	38.078
750.44	37.667
750.75	34.462
751.07	40.308
751.38	35.331
751.69	35.144
752.01	35.599
752.32	35.294
752.63	34.014
752.94	37.716
753.26	32.714
753.57	39.630
753.88	37.828
754.19	35.691
754.51	33.119
754.82	39.228
755.13	35.082
755.44	35.154
755.75	38.816
756.07	35.821
756.38	36.792
756.69	35.843
757.00	34.072
757.31	33.333
757.63	31.714
757.94	34.272
758.25	34.312
758.56	31.155
758.87	33.182
759.18	34.667
759.50	35.411
759.81	36.975
760.12	36.119
760.43	34.115
760.74	33.990
761.05	35.000
761.36	32.048
761.67	29.949
761.99	33.784
762.30	33.232
762.61	33.333
762.92	35.821
763.23	32.210
763.54	30.216
763.85	30.241
764.16	30.976
764.47	30.634
764.78	33.866
765.10	32.845
765.41	32.821
765.72	30.423
766.03	35.311
766.34	28.213
766.65	29.268
766.96	30.677
767.27	36.406
767.58	26.866
767.89	37.019
768.20	32.394
768.51	35.648
768.82	36.145
769.13	29.924
769.44	29.231
769.75	29.964
770.06	28.846
770.37	33.858
770.68	28.085
770.99	24.291
771.30	32.593
771.61	31.179
771.92	29.259
772.23	31.174
772.54	27.315
772.85	31.797
773.16	33.810
773.47	25.397
773.78	21.081
774.09	25.000
774.39	30.000
774.70	29.508
775.01	21.951
775.32	18.824
775.63	25.767
775.94	20.382
776.25	30.323
776.56	35.897
776.87	30.612
777.18	26.207
777.48	32.168
777.79	30.405
778.10	22.059
778.41	24.306
778.72	25.517
779.03	28.395
779.34	27.273
779.65	24.870
779.95	27.222
780.26	23.864
780.57	23.871
780.88	18.841
781.19	31.613
781.50	29.412
781.80	28.495
782.11	26.455
782.42	21.717
782.73	18.563
783.04	19.553
783.34	20.000
783.65	20.261
783.96	22.360
784.27	18.452
784.57	19.205
784.88	17.857
785.19	22.835
785.50	21.260
785.81	20.301
786.11	18.462
786.42	5.036
786.73	17.986
787.04	19.549
787.34	14.754
787.65	8.000
787.96	20.896
788.26	20.979
788.57	25.874
788.88	19.737
789.19	20.261
789.49	22.603
789.80	22.695
790.11	14.961
790.41	14.844
790.72	9.322
791.03	1.942
791.33	8.696
791.64	21.930
791.95	8.929
792.25	19.048
792.56	13.393
792.87	7.292
793.17	12.500
793.48	7.292
793.79	2.410
794.09	14.679
794.40	20.183
794.70	20.408
795.01	14.286
795.32	18.493
795.62	18.310
795.93	6.818
796.23	22.131
796.54	5.357
796.85	-7.447
797.15	-5.435
797.46	-2.740
797.76	5.000
798.07	10.870
798.37	-4.124
798.68	-9.091
798.99	4.598
799.29	2.247
799.60	6.383
799.90	-3.614
800.21	-15.385
800.51	11.940
800.82	-1.471
801.12	-34.247
801.43	-10.294
801.73	-10.169
802.04	-9.091
802.34	-8.333
802.65	-25.424
802.95	0.000
803.26	-13.559
803.56	-15.068
803.87	-11.429
804.17	0.000
804.48	-12.281
804.78	-18.056
805.09	-22.414
805.39	-9.459
805.70	-23.944
806.00	6.098
806.30	-12.048
806.61	-9.589
806.91	7.692
807.22	-5.556
807.52	-9.195
807.83	-2.778
808.13	-2.410
808.43	-2.247
808.74	-6.250
809.04	-10.294
809.35	-21.333
809.65	-21.429
809.95	1.370
810.26	-26.316
810.56	-22.414
810.86	-20.588
811.17	-3.509
811.47	-14.754
811.77	-35.556
812.08	-32.203
812.38	-18.333
812.69	-10.345
812.99	-26.415
813.29	-41.026
813.59	-30.000
813.90	-1.754
814.20	-21.818
814.50	-7.042
814.81	-14.103
815.11	-3.279
815.41	-11.940
815.72	-13.793
816.02	-26.786
816.32	-15.556
816.62	-20.455
816.93	-31.111
817.23	-25.926
817.53	-19.149
817.84	-26.190
818.14	-47.059
818.44	-30.612
818.74	-33.333
819.04	-74.359
819.35	-68.571
819.65	-119.231
819.95	-32.075
820.25	-35.556
820.56	-50.000
820.86	-78.125
821.16	-48.718
821.46	-46.512
821.76	-44.000
822.07	-10.714
822.37	-45.652
822.67	-53.191
822.97	-86.486
823.27	-80.000
823.57	-10.204
823.88	-33.333
824.18	-45.000
824.48	-76.667
824.78	-100.000
825.08	-75.758
825.38	-40.000
825.69	-46.809
825.99	-61.111
826.29	-120.000
826.59	-71.795
826.89	-48.837
827.19	-48.000
827.49	-47.059
827.79	-45.833
828.09	-75.676
828.39	-76.667
828.70	-56.098
829.00	-48.837
829.30	-100.000
829.60	-58.824
829.90	-63.043
830.20	-60.000
830.50	-120.690
830.80	-133.333
831.10	-92.308
831.40	-52.941
831.70	-119.048
832.00	-61.290
832.30	-241.176
832.60	-137.500
832.90	-261.538
833.20	-152.632
833.50	-170.000
833.80	-157.895
834.10	-223.810
834.40	-72.222
834.70	-46.875
835.00	-82.857
835.30	-79.412
835.60	-103.333
835.90	-96.000
836.20	-154.545
836.50	-72.000
836.80	-78.788
837.10	-100.000
837.40	-111.111
837.70	-231.250
838.00	-85.714
838.30	-139.130
838.60	-82.759
838.90	-235.714
839.19	-160.870
839.49	-266.667
839.79	-117.391
840.09	-225.000
840.39	-170.000
840.69	-77.419
840.99	-128.571
841.29	-220.000
841.59	-147.368
841.88	-53.846
842.18	-119.231
842.48	-340.000
842.78	-160.000
843.08	-106.667
843.38	-83.871
843.68	-177.778
843.97	-47.059
844.27	-162.500
844.57	-184.211
844.87	-380.000
845.17	-166.667
845.47	-119.048
845.76	-152.381
846.06	-344.444
846.36	-194.118
846.66	-142.308
846.96	-266.667
847.25	-205.882
847.55	-126.087
847.85	-165.000
848.15	-211.765
848.44	-318.182
848.74	-138.095
849.04	-125.000
849.34	-212.500
849.63	-139.130
849.93	2450.000
850.23	-220.000
850.53	-84.615
850.82	-254.545
851.12	-68.182
851.42	-336.364
851.71	-192.308
852.01	-180.000
852.31	-246.154
852.61	-173.684
852.90	-316.667
853.20	-183.333
853.50	-455.556
853.79	-190.476
854.09	-177.273
854.39	-383.333
854.68	-106.452
854.98	-153.846
855.28	-166.667
855.57	-92.857
855.87	-100.000
856.17	-136.364
856.46	-74.074
856.76	-194.444
857.05	-147.826
857.35	-120.833
857.65	-261.538
857.94	-147.619
858.24	-103.704
858.53	-139.130
858.83	-188.235
859.13	-147.059
859.42	-170.588
859.72	-200.000
860.01	-220.000
860.31	-455.556
860.60	-400.000
860.90	-213.333
861.20	-166.667
861.49	-230.769
861.79	-86.667
862.08	-315.385
862.38	-75.000
862.67	-152.941
862.97	-206.250
863.26	-444.444
863.56	-420.000
863.85	-281.818
864.15	-166.667
864.44	-1200.000
864.74	-214.286
865.03	-212.500
865.33	-420.000
865.62	-125.806
865.92	-113.636
866.21	-130.435
866.51	-264.286
866.80	-800.000
867.10	-358.333
867.39	-308.333
867.69	3500.000
867.98	-471.429
868.27	-158.824
868.57	-4100.000
868.86	-430.000
869.16	-152.381
869.45	-120.833
869.75	-327.273
870.04	-500.000
870.33	-233.333
870.63	-571.429
870.92	-875.000
871.22	-475.000
871.51	-318.182
871.80	-1466.667
872.10	-1800.000
>>>>>End Processed Spectral Data<<<<<
