SpectraSuite Data File
++++++++++++++++++++++++++++++++++++
Date: Thu May 14 14:34:56 PDT 2015
User: schluterlab
Dark Spectrum Present: Yes
Reference Spectrum Present: Yes
Number of Sampled Component Spectra: 1
Spectrometers: USB2E3373
Integration Time (usec): 3000 (USB2E3373)
Spectra Averaged: 3 (USB2E3373)
Boxcar Smoothing: 0 (USB2E3373)
Correct for Electrical Dark: No (USB2E3373)
Strobe/Lamp Enabled: No (USB2E3373)
Correct for Detector Non-linearity: No (USB2E3373)
Correct for Stray Light: No (USB2E3373)
Number of Pixels in Processed Spectrum: 2048
>>>>>Begin Processed Spectral Data<<<<<
178.53	0.000
178.91	-257.143
179.29	700.000
179.67	1300.000
180.04	-35.714
180.42	-280.000
180.80	-280.000
181.18	2400.000
181.56	2500.000
181.94	-375.000
182.31	650.000
182.69	-300.000
183.07	850.000
183.45	-375.000
183.83	183.333
184.20	466.667
184.58	-1400.000
184.96	100.000
185.34	188.889
185.72	440.000
186.09	-111.111
186.47	-650.000
186.85	-220.000
187.23	166.667
187.61	300.000
187.98	-360.000
188.36	-275.000
188.74	375.000
189.12	800.000
189.49	143.750
189.87	250.000
190.25	177.778
190.63	260.000
191.00	233.333
191.38	0.000
191.76	225.000
192.14	283.333
192.51	-600.000
192.89	283.333
193.27	0.000
193.65	200.000
194.02	-200.000
194.40	171.429
194.78	-228.571
195.15	0.000
195.53	200.000
195.91	0.000
196.29	750.000
196.66	146.154
197.04	1800.000
197.42	214.286
197.79	750.000
198.17	125.000
198.55	100.000
198.92	288.889
199.30	200.000
199.68	181.818
200.05	178.571
200.43	600.000
200.81	-157.143
201.18	0.000
201.56	-133.333
201.94	0.000
202.31	-366.667
202.69	144.444
203.07	-1700.000
203.44	155.556
203.82	375.000
204.19	166.667
204.57	333.333
204.95	275.000
205.32	2000.000
205.70	-550.000
206.08	266.667
206.45	283.333
206.83	-20.000
207.20	200.000
207.58	280.000
207.96	300.000
208.33	466.667
208.71	-66.667
209.08	366.667
209.46	0.000
209.84	-150.000
210.21	-1050.000
210.59	-600.000
210.96	-466.667
211.34	600.000
211.71	175.000
212.09	900.000
212.46	0.000
212.84	-400.000
213.22	220.000
213.59	550.000
213.97	230.000
214.34	500.000
214.72	-216.667
215.09	300.000
215.47	0.000
215.84	-142.857
216.22	-550.000
216.59	360.000
216.97	280.000
217.34	375.000
217.72	112.500
218.09	525.000
218.47	375.000
218.84	0.000
219.22	-440.000
219.59	76.471
219.97	150.000
220.34	-950.000
220.72	222.222
221.09	161.538
221.47	900.000
221.84	220.000
222.22	85.714
222.59	0.000
222.97	200.000
223.34	220.000
223.72	1700.000
224.09	525.000
224.46	275.000
224.84	440.000
225.21	285.714
225.59	350.000
225.96	475.000
226.34	80.769
226.71	-116.667
227.08	1150.000
227.46	120.000
227.83	625.000
228.21	84.211
228.58	-287.500
228.95	-500.000
229.33	133.333
229.70	230.000
230.08	226.316
230.45	-150.000
230.82	433.333
231.20	107.143
231.57	191.667
231.95	245.455
232.32	127.273
232.69	155.000
233.07	325.000
233.44	76.471
233.81	200.000
234.19	138.889
234.56	90.909
234.93	127.586
235.31	89.474
235.68	111.111
236.05	70.000
236.43	103.846
236.80	128.000
237.17	88.889
237.55	57.576
237.92	130.000
238.29	67.742
238.67	45.455
239.04	52.778
239.41	26.190
239.79	52.174
240.16	35.185
240.53	36.957
240.91	13.725
241.28	27.869
241.65	58.209
242.02	39.189
242.40	40.000
242.77	42.667
243.14	19.512
243.51	27.632
243.89	26.923
244.26	36.634
244.63	33.333
245.00	28.972
245.38	25.439
245.75	20.354
246.12	29.365
246.49	13.953
246.87	22.857
247.24	28.477
247.61	27.632
247.98	19.463
248.36	15.432
248.73	20.245
249.10	12.568
249.47	21.891
249.84	21.466
250.22	21.244
250.59	21.111
250.96	22.273
251.33	16.327
251.70	20.513
252.08	17.917
252.45	22.951
252.82	14.876
253.19	14.844
253.56	18.631
253.94	14.615
254.31	20.455
254.68	21.678
255.05	17.915
255.42	17.687
255.79	15.210
256.16	17.550
256.54	15.232
256.91	18.361
257.28	15.410
257.65	16.242
258.02	13.569
258.39	17.949
258.76	20.489
259.14	17.529
259.51	15.274
259.88	16.431
260.25	17.222
260.62	16.438
260.99	17.486
261.36	16.622
261.73	15.650
262.10	16.209
262.47	17.426
262.85	17.424
263.22	13.247
263.59	11.579
263.96	17.903
264.33	15.090
264.70	15.062
265.07	17.900
265.44	18.141
265.81	16.204
266.18	16.553
266.55	13.616
266.92	13.667
267.29	16.411
267.66	15.299
268.03	18.777
268.40	13.779
268.77	14.806
269.14	12.115
269.51	15.789
269.88	15.574
270.25	14.688
270.62	15.190
270.99	16.364
271.36	14.257
271.73	14.931
272.10	14.429
272.47	13.427
272.84	13.052
273.21	14.429
273.58	14.919
273.95	12.500
274.32	14.639
274.69	15.474
275.06	14.103
275.43	12.754
275.80	14.286
276.17	11.852
276.54	13.433
276.91	14.311
277.28	13.562
277.65	12.388
278.02	14.890
278.39	12.862
278.76	12.654
279.13	11.879
279.50	14.605
279.87	15.027
280.23	10.387
280.60	13.220
280.97	14.967
281.34	13.922
281.71	12.690
282.08	12.791
282.45	12.602
282.82	13.187
283.19	12.116
283.56	12.295
283.92	13.363
284.29	13.428
284.66	14.614
285.03	12.500
285.40	12.828
285.77	14.396
286.14	14.046
286.51	13.851
286.87	11.690
287.24	13.253
287.61	13.752
287.98	12.387
288.35	11.538
288.72	11.982
289.08	12.738
289.45	11.982
289.82	10.241
290.19	12.069
290.56	12.394
290.93	11.412
291.29	11.295
291.66	12.397
292.03	11.533
292.40	13.741
292.77	10.108
293.13	12.449
293.50	10.644
293.87	11.007
294.24	13.467
294.60	12.389
294.97	9.799
295.34	12.420
295.71	10.845
296.08	9.432
296.44	11.029
296.81	9.257
297.18	10.959
297.55	10.377
297.91	9.846
298.28	9.360
298.65	10.939
299.02	11.216
299.38	10.183
299.75	10.514
300.12	9.375
300.48	10.599
300.85	9.899
301.22	11.521
301.59	10.959
301.95	9.944
302.32	11.222
302.69	9.858
303.05	10.446
303.42	9.313
303.79	10.208
304.15	9.884
304.52	10.994
304.89	9.529
305.25	9.317
305.62	9.091
305.99	10.206
306.35	8.972
306.72	10.962
307.09	9.442
307.45	10.559
307.82	9.384
308.19	9.384
308.55	11.090
308.92	9.932
309.29	10.632
309.65	9.747
310.02	9.505
310.38	9.252
310.75	8.932
311.12	9.971
311.48	9.971
311.85	10.731
312.22	10.247
312.58	9.859
312.95	10.038
313.31	10.388
313.68	10.531
314.05	9.937
314.41	10.565
314.78	10.899
315.14	10.617
315.51	11.450
315.87	11.071
316.24	10.868
316.61	10.835
316.97	10.498
317.34	10.935
317.70	11.616
318.07	9.965
318.43	12.160
318.80	11.204
319.16	11.588
319.53	9.340
319.89	11.218
320.26	11.388
320.62	9.929
320.99	11.265
321.35	11.183
321.72	12.000
322.08	10.730
322.45	11.382
322.81	11.823
323.18	11.593
323.54	11.379
323.91	12.544
324.27	10.929
324.64	13.182
325.00	11.692
325.37	12.285
325.73	12.975
326.10	12.652
326.46	13.762
326.83	13.131
327.19	12.835
327.56	13.123
327.92	12.903
328.29	12.419
328.65	12.982
329.01	11.506
329.38	12.468
329.74	13.870
330.11	14.298
330.47	13.227
330.84	13.523
331.20	14.333
331.56	13.605
331.93	12.720
332.29	13.220
332.66	13.704
333.02	13.484
333.38	12.752
333.75	12.795
334.11	13.845
334.48	13.779
334.84	14.359
335.20	13.098
335.57	13.406
335.93	13.554
336.29	13.394
336.66	12.027
337.02	13.462
337.38	13.946
337.75	13.802
338.11	13.457
338.47	13.730
338.84	13.367
339.20	12.637
339.56	12.273
339.93	12.726
340.29	13.446
340.65	13.463
341.02	13.887
341.38	14.390
341.74	13.398
342.11	13.435
342.47	11.914
342.83	13.688
343.20	13.737
343.56	13.312
343.92	12.810
344.28	13.906
344.65	14.264
345.01	14.119
345.37	13.530
345.73	13.172
346.10	13.729
346.46	13.608
346.82	14.307
347.19	13.751
347.55	13.961
347.91	12.779
348.27	13.354
348.63	13.557
349.00	14.243
349.36	14.498
349.72	13.690
350.08	13.596
350.45	13.384
350.81	14.178
351.17	13.534
351.53	14.177
351.89	14.275
352.26	14.030
352.62	12.985
352.98	13.053
353.34	12.771
353.70	14.022
354.07	13.934
354.43	14.123
354.79	13.837
355.15	14.202
355.51	14.912
355.87	13.164
356.24	13.916
356.60	13.895
356.96	14.010
357.32	13.383
357.68	12.958
358.04	13.174
358.40	13.582
358.77	14.035
359.13	13.589
359.49	12.639
359.85	13.488
360.21	13.199
360.57	13.568
360.93	13.681
361.29	13.404
361.66	13.324
362.02	14.753
362.38	14.336
362.74	13.827
363.10	14.512
363.46	13.850
363.82	13.281
364.18	13.863
364.54	14.730
364.90	14.047
365.26	13.172
365.62	14.333
365.98	14.023
366.35	14.161
366.71	14.762
367.07	13.938
367.43	14.642
367.79	13.935
368.15	14.582
368.51	14.614
368.87	13.586
369.23	14.067
369.59	14.208
369.95	13.725
370.31	13.639
370.67	14.168
371.03	14.127
371.39	14.506
371.75	14.305
372.11	15.176
372.47	14.218
372.83	14.987
373.19	15.210
373.55	15.108
373.91	14.519
374.27	14.295
374.63	13.938
374.99	14.456
375.35	14.740
375.71	15.677
376.07	15.688
376.42	15.239
376.78	15.413
377.14	15.034
377.50	14.042
377.86	15.764
378.22	15.210
378.58	16.350
378.94	14.437
379.30	15.583
379.66	15.226
380.02	15.638
380.38	15.265
380.74	15.887
381.09	15.738
381.45	16.080
381.81	16.218
382.17	16.152
382.53	15.731
382.89	16.422
383.25	16.061
383.61	16.030
383.97	15.960
384.32	16.926
384.68	15.603
385.04	17.004
385.40	16.441
385.76	17.644
386.12	17.235
386.48	16.706
386.83	16.865
387.19	17.207
387.55	15.669
387.91	16.781
388.27	17.263
388.62	17.010
388.98	16.920
389.34	18.209
389.70	17.780
390.06	17.348
390.42	17.892
390.77	17.941
391.13	17.606
391.49	18.056
391.85	17.273
392.20	18.031
392.56	18.370
392.92	18.484
393.28	17.358
393.64	18.101
393.99	18.013
394.35	18.867
394.71	18.503
395.07	17.186
395.42	18.389
395.78	19.866
396.14	18.479
396.50	17.755
396.85	18.545
397.21	18.402
397.57	18.198
397.92	18.041
398.28	18.034
398.64	18.593
399.00	18.743
399.35	18.010
399.71	18.098
400.07	19.090
400.42	18.335
400.78	18.461
401.14	18.497
401.49	18.533
401.85	17.965
402.21	18.540
402.57	19.601
402.92	18.676
403.28	18.794
403.63	17.840
403.99	19.062
404.35	18.078
404.70	18.357
405.06	18.207
405.42	18.443
405.77	19.084
406.13	18.693
406.49	18.018
406.84	18.947
407.20	19.061
407.55	18.837
407.91	18.982
408.27	18.610
408.62	19.372
408.98	19.559
409.34	18.006
409.69	18.541
410.05	18.406
410.40	20.070
410.76	19.293
411.11	19.638
411.47	19.103
411.83	19.283
412.18	19.277
412.54	19.561
412.89	18.917
413.25	19.808
413.60	18.438
413.96	19.755
414.31	18.924
414.67	19.380
415.03	19.262
415.38	20.050
415.74	19.304
416.09	20.173
416.45	18.472
416.80	20.012
417.16	18.582
417.51	20.548
417.87	19.742
418.22	19.401
418.58	19.269
418.93	20.256
419.29	19.236
419.64	19.688
420.00	19.881
420.35	19.820
420.71	19.759
421.06	19.091
421.42	19.782
421.77	18.686
422.12	19.080
422.48	19.764
422.83	19.606
423.19	19.682
423.54	20.299
423.90	20.099
424.25	19.627
424.61	19.231
424.96	19.440
425.31	20.435
425.67	19.860
426.02	19.646
426.38	20.092
426.73	19.308
427.09	20.877
427.44	19.825
427.79	19.127
428.15	19.521
428.50	19.438
428.85	19.173
429.21	20.426
429.56	18.657
429.92	19.410
430.27	19.518
430.62	19.443
430.98	19.626
431.33	19.795
431.68	19.301
432.04	19.553
432.39	20.514
432.74	20.148
433.10	20.227
433.45	19.287
433.80	20.225
434.16	19.938
434.51	19.681
434.86	19.544
435.22	19.713
435.57	19.811
435.92	20.367
436.28	21.104
436.63	20.863
436.98	19.646
437.34	20.011
437.69	21.079
438.04	20.254
438.39	21.022
438.75	20.365
439.10	20.613
439.45	20.794
439.81	19.774
440.16	19.732
440.51	21.070
440.86	20.623
441.22	20.954
441.57	20.597
441.92	20.417
442.27	20.859
442.63	20.368
442.98	20.971
443.33	20.779
443.68	21.556
444.03	21.496
444.39	20.943
444.74	20.929
445.09	21.338
445.44	21.391
445.79	20.833
446.15	21.583
446.50	20.930
446.85	20.914
447.20	22.147
447.55	20.973
447.91	20.942
448.26	20.877
448.61	20.563
448.96	22.425
449.31	20.732
449.66	21.133
450.02	21.150
450.37	21.151
450.72	21.529
451.07	21.298
451.42	20.393
451.77	21.345
452.12	22.460
452.47	21.628
452.83	21.565
453.18	21.600
453.53	20.908
453.88	21.425
454.23	21.921
454.58	22.171
454.93	22.209
455.28	22.456
455.63	21.319
455.98	21.229
456.34	21.084
456.69	21.046
457.04	21.395
457.39	21.508
457.74	21.756
458.09	21.252
458.44	21.175
458.79	20.732
459.14	21.814
459.49	21.505
459.84	21.511
460.19	20.988
460.54	22.033
460.89	21.599
461.24	21.092
461.59	21.859
461.94	21.620
462.29	22.060
462.64	21.364
462.99	22.097
463.34	21.869
463.69	22.274
464.04	22.568
464.39	21.469
464.74	22.463
465.09	21.626
465.44	21.727
465.79	22.105
466.14	22.303
466.49	21.947
466.84	22.865
467.19	22.081
467.54	22.444
467.89	22.299
468.24	22.327
468.59	21.540
468.94	21.911
469.29	22.675
469.64	22.441
469.99	22.371
470.34	22.215
470.68	23.240
471.03	22.462
471.38	23.022
471.73	23.212
472.08	22.525
472.43	23.119
472.78	23.048
473.13	22.503
473.48	23.565
473.83	23.680
474.17	23.036
474.52	23.632
474.87	23.699
475.22	24.056
475.57	23.832
475.92	22.648
476.27	22.737
476.61	22.586
476.96	23.201
477.31	23.119
477.66	23.505
478.01	22.522
478.36	22.483
478.70	23.103
479.05	23.466
479.40	23.692
479.75	23.007
480.10	23.401
480.45	23.428
480.79	23.129
481.14	22.886
481.49	22.581
481.84	23.499
482.19	23.484
482.53	23.000
482.88	23.837
483.23	23.166
483.58	23.057
483.92	22.917
484.27	22.650
484.62	22.277
484.97	22.667
485.31	22.492
485.66	21.766
486.01	21.311
486.36	20.664
486.70	21.195
487.05	21.276
487.40	21.337
487.75	22.163
488.09	22.429
488.44	21.887
488.79	22.530
489.13	23.316
489.48	22.680
489.83	23.581
490.17	22.681
490.52	23.153
490.87	23.477
491.22	23.224
491.56	24.104
491.91	23.201
492.26	23.496
492.60	23.655
492.95	23.651
493.30	23.891
493.64	23.697
493.99	23.202
494.34	23.650
494.68	23.041
495.03	23.833
495.37	23.347
495.72	24.127
496.07	23.620
496.41	23.552
496.76	23.812
497.11	23.779
497.45	23.997
497.80	24.478
498.14	24.671
498.49	24.908
498.84	24.634
499.18	23.752
499.53	24.126
499.87	24.659
500.22	24.265
500.56	24.202
500.91	24.211
501.26	24.864
501.60	24.923
501.95	24.837
502.29	24.748
502.64	24.486
502.98	25.065
503.33	24.363
503.67	24.379
504.02	24.518
504.36	24.307
504.71	24.621
505.06	24.784
505.40	25.137
505.75	24.727
506.09	25.967
506.44	26.277
506.78	26.055
507.13	26.879
507.47	26.101
507.82	26.278
508.16	25.813
508.51	26.395
508.85	26.736
509.19	26.433
509.54	26.273
509.88	26.469
510.23	26.421
510.57	27.308
510.92	26.657
511.26	26.263
511.61	26.074
511.95	25.964
512.30	27.129
512.64	25.887
512.98	27.364
513.33	28.175
513.67	28.098
514.02	28.002
514.36	28.133
514.70	28.490
515.05	28.780
515.39	28.976
515.74	29.003
516.08	28.685
516.42	29.932
516.77	27.655
517.11	28.262
517.46	28.685
517.80	29.503
518.14	29.706
518.49	29.176
518.83	29.963
519.17	28.487
519.52	29.350
519.86	28.775
520.20	29.020
520.55	29.025
520.89	29.617
521.23	29.872
521.58	30.791
521.92	29.405
522.26	28.923
522.61	29.977
522.95	29.758
523.29	29.540
523.64	30.774
523.98	30.747
524.32	30.544
524.66	30.563
525.01	30.691
525.35	29.925
525.69	30.220
526.04	30.023
526.38	31.034
526.72	30.969
527.06	30.440
527.41	30.904
527.75	31.116
528.09	30.992
528.43	30.610
528.78	30.289
529.12	30.906
529.46	30.523
529.80	30.206
530.15	29.333
530.49	30.664
530.83	31.405
531.17	30.824
531.51	30.866
531.86	31.010
532.20	31.402
532.54	30.999
532.88	31.576
533.22	31.232
533.57	31.102
533.91	31.033
534.25	30.921
534.59	31.092
534.93	30.108
535.27	30.930
535.62	31.609
535.96	31.726
536.30	30.964
536.64	31.832
536.98	31.919
537.32	31.728
537.66	31.254
538.01	30.332
538.35	29.963
538.69	31.611
539.03	31.330
539.37	31.508
539.71	31.532
540.05	31.475
540.39	30.440
540.73	30.965
541.07	31.576
541.42	30.419
541.76	30.308
542.10	30.941
542.44	30.024
542.78	30.049
543.12	31.526
543.46	31.136
543.80	30.036
544.14	30.640
544.48	31.738
544.82	31.538
545.16	30.829
545.50	30.737
545.84	31.292
546.18	32.407
546.52	30.255
546.86	31.069
547.20	29.898
547.54	31.648
547.88	30.500
548.22	30.585
548.56	30.427
548.90	30.627
549.24	30.760
549.58	30.978
549.92	30.357
550.26	31.780
550.60	30.951
550.94	31.565
551.28	31.287
551.62	31.132
551.96	29.709
552.30	32.250
552.64	30.554
552.98	31.503
553.32	31.897
553.66	31.704
554.00	31.337
554.34	31.081
554.68	31.504
555.02	31.209
555.36	32.216
555.69	30.365
556.03	30.895
556.37	31.602
556.71	31.516
557.05	31.502
557.39	30.723
557.73	31.308
558.07	31.589
558.41	32.691
558.75	32.319
559.08	32.498
559.42	32.510
559.76	32.497
560.10	32.552
560.44	31.728
560.78	31.875
561.12	31.219
561.45	30.353
561.79	31.624
562.13	31.978
562.47	31.689
562.81	30.759
563.15	30.366
563.48	31.635
563.82	30.895
564.16	30.830
564.50	30.572
564.84	30.737
565.17	31.000
565.51	30.667
565.85	31.235
566.19	30.184
566.52	30.720
566.86	30.900
567.20	30.343
567.54	30.696
567.88	30.071
568.21	30.188
568.55	29.688
568.89	28.416
569.23	29.911
569.56	29.035
569.90	28.974
570.24	27.926
570.57	27.550
570.91	27.710
571.25	27.741
571.59	28.249
571.92	27.212
572.26	26.919
572.60	27.191
572.93	27.414
573.27	28.042
573.61	27.369
573.95	26.778
574.28	27.260
574.62	26.739
574.96	26.378
575.29	26.570
575.63	26.473
575.97	27.018
576.30	26.277
576.64	26.676
576.98	26.492
577.31	26.807
577.65	26.950
577.98	26.337
578.32	26.218
578.66	25.989
578.99	26.050
579.33	26.545
579.67	26.768
580.00	26.096
580.34	27.051
580.67	26.456
581.01	26.655
581.35	26.359
581.68	26.353
582.02	25.782
582.35	26.373
582.69	26.599
583.02	26.350
583.36	26.350
583.70	26.653
584.03	26.590
584.37	26.240
584.70	26.430
585.04	26.575
585.37	26.889
585.71	26.321
586.04	26.442
586.38	26.880
586.72	26.648
587.05	26.912
587.39	27.400
587.72	27.010
588.06	26.789
588.39	27.259
588.73	27.063
589.06	27.398
589.40	28.119
589.73	28.213
590.07	28.084
590.40	28.364
590.73	28.349
591.07	28.369
591.40	27.683
591.74	28.458
592.07	28.177
592.41	28.391
592.74	27.867
593.08	27.803
593.41	27.792
593.75	27.471
594.08	27.598
594.41	27.885
594.75	27.300
595.08	27.187
595.42	28.377
595.75	27.478
596.09	27.821
596.42	28.269
596.75	27.943
597.09	29.253
597.42	28.089
597.75	28.303
598.09	28.611
598.42	28.790
598.76	27.933
599.09	27.269
599.42	27.690
599.76	27.369
600.09	28.095
600.42	28.028
600.76	27.972
601.09	26.950
601.42	28.287
601.76	28.138
602.09	27.806
602.42	27.808
602.76	28.118
603.09	28.671
603.42	27.999
603.76	28.436
604.09	28.424
604.42	28.257
604.76	28.615
605.09	28.959
605.42	28.309
605.75	28.500
606.09	28.145
606.42	27.946
606.75	27.361
607.09	27.765
607.42	28.324
607.75	29.074
608.08	27.822
608.42	28.295
608.75	29.063
609.08	27.971
609.41	28.011
609.75	28.438
610.08	28.760
610.41	28.887
610.74	28.739
611.07	27.975
611.41	29.148
611.74	29.515
612.07	29.126
612.40	29.468
612.73	29.535
613.07	28.606
613.40	29.355
613.73	28.984
614.06	28.705
614.39	28.960
614.72	28.772
615.06	28.730
615.39	28.806
615.72	28.199
616.05	28.703
616.38	30.373
616.71	28.736
617.05	28.754
617.38	30.016
617.71	30.184
618.04	29.358
618.37	29.563
618.70	30.486
619.03	29.928
619.36	29.840
619.69	31.070
620.03	30.634
620.36	30.307
620.69	29.981
621.02	31.037
621.35	32.366
621.68	31.670
622.01	31.459
622.34	30.474
622.67	30.859
623.00	29.285
623.33	30.790
623.66	31.064
623.99	30.678
624.32	31.319
624.65	30.888
624.99	32.185
625.32	31.613
625.65	31.895
625.98	30.712
626.31	30.333
626.64	32.015
626.97	31.508
627.30	30.676
627.63	31.208
627.96	31.607
628.29	31.518
628.62	33.417
628.95	32.691
629.28	32.285
629.61	32.492
629.94	32.803
630.26	33.390
630.59	33.247
630.92	32.641
631.25	33.363
631.58	33.616
631.91	32.709
632.24	33.429
632.57	33.871
632.90	35.005
633.23	33.265
633.56	34.388
633.89	33.884
634.22	34.927
634.55	33.612
634.88	34.740
635.20	34.984
635.53	36.271
635.86	35.753
636.19	34.358
636.52	33.966
636.85	33.810
637.18	34.407
637.51	34.301
637.83	35.659
638.16	36.521
638.49	34.390
638.82	35.513
639.15	33.792
639.48	35.681
639.81	34.758
640.13	35.925
640.46	34.545
640.79	34.559
641.12	35.404
641.45	35.885
641.77	37.612
642.10	35.171
642.43	36.037
642.76	35.501
643.09	36.027
643.41	37.535
643.74	37.655
644.07	38.759
644.40	35.926
644.73	37.591
645.05	36.711
645.38	39.568
645.71	36.364
646.04	37.590
646.36	38.248
646.69	37.270
647.02	37.615
647.35	36.489
647.67	40.741
648.00	39.490
648.33	38.889
648.66	36.234
648.98	36.190
649.31	36.671
649.64	36.919
649.96	35.676
650.29	35.605
650.62	36.492
650.94	36.186
651.27	35.329
651.60	36.988
651.92	35.562
652.25	33.864
652.58	35.488
652.90	35.756
653.23	36.761
653.56	35.093
653.88	38.343
654.21	35.211
654.54	36.272
654.86	36.827
655.19	31.995
655.52	29.210
655.84	23.562
656.17	29.426
656.49	41.949
656.82	47.154
657.15	36.726
657.47	27.224
657.80	20.221
658.13	15.970
658.45	21.020
658.78	25.357
659.10	25.176
659.43	25.703
659.75	26.632
660.08	27.395
660.41	29.280
660.73	33.181
661.06	34.361
661.38	36.045
661.71	37.069
662.03	37.743
662.36	38.819
662.68	39.587
663.01	36.814
663.33	38.374
663.66	39.560
663.98	36.154
664.31	39.212
664.63	37.572
664.96	38.475
665.28	36.116
665.61	38.811
665.93	38.571
666.26	37.993
666.58	36.162
666.91	37.383
667.23	39.238
667.56	39.842
667.88	39.200
668.21	40.039
668.53	36.293
668.86	40.668
669.18	39.715
669.50	38.370
669.83	38.800
670.15	37.795
670.48	39.881
670.80	36.711
671.13	35.539
671.45	41.339
671.77	38.230
672.10	37.000
672.42	35.922
672.75	36.098
673.07	35.224
673.39	35.131
673.72	38.591
674.04	34.483
674.37	39.177
674.69	40.035
675.01	38.095
675.34	37.405
675.66	36.330
675.98	36.754
676.31	38.477
676.63	37.262
676.95	40.038
677.28	38.911
677.60	35.827
677.92	38.004
678.25	37.294
678.57	36.655
678.89	35.836
679.22	33.101
679.54	35.214
679.86	33.898
680.18	33.333
680.51	36.792
680.83	36.661
681.15	34.310
681.48	38.169
681.80	35.579
682.12	34.441
682.44	35.225
682.77	37.589
683.09	36.932
683.41	39.341
683.73	37.571
684.06	36.531
684.38	36.673
684.70	35.368
685.02	34.079
685.34	32.113
685.67	33.754
685.99	33.589
686.31	33.285
686.63	33.965
686.96	34.543
687.28	35.016
687.60	35.354
687.92	31.833
688.24	34.057
688.56	34.138
688.89	37.205
689.21	36.399
689.53	35.098
689.85	36.686
690.17	36.852
690.49	33.267
690.82	37.426
691.14	34.413
691.46	34.034
691.78	37.201
692.10	37.431
692.42	33.750
692.74	34.664
693.06	34.815
693.39	36.243
693.71	34.774
694.03	33.829
694.35	36.762
694.67	37.372
694.99	35.532
695.31	36.203
695.63	36.364
695.95	36.232
696.27	33.846
696.59	36.947
696.91	35.360
697.23	39.341
697.56	36.660
697.88	36.174
698.20	35.593
698.52	37.121
698.84	38.462
699.16	35.714
699.48	34.519
699.80	34.468
700.12	37.991
700.44	38.479
700.76	39.667
701.08	39.467
701.40	41.192
701.72	38.806
702.04	41.711
702.36	36.126
702.68	38.875
703.00	34.474
703.32	38.670
703.64	36.430
703.96	36.993
704.28	35.381
704.60	38.481
704.91	36.224
705.23	40.000
705.55	38.997
705.87	43.333
706.19	42.331
706.51	34.639
706.83	40.922
707.15	34.127
707.47	35.280
707.79	31.004
708.11	33.263
708.43	35.699
708.74	32.813
709.06	38.283
709.38	38.498
709.70	39.206
710.02	36.951
710.34	39.628
710.66	38.827
710.98	37.432
711.29	40.110
711.61	37.853
711.93	41.880
712.25	36.486
712.57	39.823
712.89	40.882
713.20	40.237
713.52	36.994
713.84	36.490
714.16	38.421
714.48	37.113
714.80	38.701
715.11	36.220
715.43	37.666
715.75	37.105
716.07	40.055
716.39	39.617
716.70	39.458
717.02	38.361
717.34	40.767
717.66	39.597
717.97	40.753
718.29	37.457
718.61	36.513
718.93	39.159
719.24	37.888
719.56	38.957
719.88	36.937
720.20	41.613
720.51	37.888
720.83	36.250
721.15	36.513
721.46	35.616
721.78	37.667
722.10	37.217
722.42	41.946
722.73	40.323
723.05	40.000
723.37	40.972
723.68	43.011
724.00	44.404
724.32	38.732
724.63	38.462
724.95	42.553
725.27	39.373
725.58	39.576
725.90	45.172
726.22	35.737
726.53	40.909
726.85	38.994
727.16	36.254
727.48	38.226
727.80	39.404
728.11	36.749
728.43	37.037
728.74	38.462
729.06	36.093
729.38	39.935
729.69	38.591
730.01	37.798
730.32	36.667
730.64	37.107
730.96	34.472
731.27	37.151
731.59	34.890
731.90	32.208
732.22	33.073
732.53	31.492
732.85	36.000
733.16	36.364
733.48	35.366
733.80	34.540
734.11	36.182
734.43	35.135
734.74	37.468
735.06	30.653
735.37	35.405
735.69	32.973
736.00	36.158
736.32	33.693
736.63	34.167
736.95	34.483
737.26	39.394
737.58	33.939
737.89	35.294
738.21	36.086
738.52	36.066
738.83	43.003
739.15	34.043
739.46	39.456
739.78	32.209
740.09	34.670
740.41	36.152
740.72	39.000
741.04	38.835
741.35	39.298
741.66	38.039
741.98	43.443
742.29	37.238
742.61	42.105
742.92	36.154
743.23	41.516
743.55	38.760
743.86	41.600
744.18	35.950
744.49	37.975
744.80	45.679
745.12	40.084
745.43	42.276
745.74	37.069
746.06	34.746
746.37	41.772
746.68	41.870
747.00	41.250
747.31	39.914
747.62	40.000
747.94	40.891
748.25	33.333
748.56	36.327
748.88	38.034
749.19	44.828
749.50	36.797
749.82	37.751
750.13	40.569
750.44	37.333
750.75	36.923
751.07	36.308
751.38	34.385
751.69	38.658
752.01	35.275
752.32	40.850
752.63	37.755
752.94	35.294
753.26	34.944
753.57	31.852
753.88	32.584
754.19	38.264
754.51	37.299
754.82	33.441
755.13	40.656
755.44	36.860
755.75	36.513
756.07	35.821
756.38	33.333
756.69	36.446
757.00	28.809
757.31	36.066
757.63	29.668
757.94	31.221
758.25	30.700
758.56	31.590
758.87	28.864
759.18	32.533
759.50	33.711
759.81	33.894
760.12	30.997
760.43	31.250
760.74	32.512
761.05	31.750
761.36	31.807
761.67	28.680
761.99	33.243
762.30	32.927
762.61	31.023
762.92	36.940
763.23	39.326
763.54	34.892
763.85	31.615
764.16	32.997
764.47	39.085
764.78	34.185
765.10	34.018
765.41	34.359
765.72	30.159
766.03	32.768
766.34	33.856
766.65	32.404
766.96	35.857
767.27	36.866
767.58	40.299
767.89	43.750
768.20	44.601
768.51	41.667
768.82	36.145
769.13	34.091
769.44	34.615
769.75	35.740
770.06	38.077
770.37	36.220
770.68	31.489
770.99	30.364
771.30	40.000
771.61	33.840
771.92	32.222
772.23	38.866
772.54	31.944
772.85	38.249
773.16	37.143
773.47	38.095
773.78	43.243
774.09	39.773
774.39	46.000
774.70	44.809
775.01	40.854
775.32	37.647
775.63	39.264
775.94	41.401
776.25	41.935
776.56	41.667
776.87	53.741
777.18	39.310
777.48	48.951
777.79	35.135
778.10	41.176
778.41	41.667
778.72	46.897
779.03	35.802
779.34	44.242
779.65	39.378
779.95	40.000
780.26	35.795
780.57	43.871
780.88	55.072
781.19	38.710
781.50	47.647
781.80	39.247
782.11	42.328
782.42	30.808
782.73	31.138
783.04	44.134
783.34	33.939
783.65	37.908
783.96	37.267
784.27	38.690
784.57	47.020
784.88	36.429
785.19	46.457
785.50	37.795
785.81	47.368
786.11	43.846
786.42	33.813
786.73	40.288
787.04	50.376
787.34	38.525
787.65	39.200
787.96	33.582
788.26	54.545
788.57	48.951
788.88	40.789
789.19	45.098
789.49	31.507
789.80	41.135
790.11	44.882
790.41	42.969
790.72	49.153
791.03	35.922
791.33	41.739
791.64	41.228
791.95	37.500
792.25	38.095
792.56	51.786
792.87	57.292
793.17	39.286
793.48	42.708
793.79	45.783
794.09	44.037
794.40	41.284
794.70	35.374
795.01	36.364
795.32	36.986
795.62	34.507
795.93	45.455
796.23	36.066
796.54	36.607
796.85	45.745
797.15	38.043
797.46	53.425
797.76	56.250
798.07	43.478
798.37	42.268
798.68	44.156
798.99	48.276
799.29	43.820
799.60	50.000
799.90	59.036
800.21	44.615
800.51	67.164
800.82	48.529
801.12	41.096
801.43	45.588
801.73	66.102
802.04	63.636
802.34	53.333
802.65	42.373
802.95	61.194
803.26	71.186
803.56	61.644
803.87	52.857
804.17	49.315
804.48	43.860
804.78	51.389
805.09	56.897
805.39	48.649
805.70	50.704
806.00	51.220
806.30	42.169
806.61	43.836
806.91	44.231
807.22	52.222
807.52	41.379
807.83	69.444
808.13	57.831
808.43	52.809
808.74	53.750
809.04	38.235
809.35	60.000
809.65	58.571
809.95	49.315
810.26	35.088
810.56	60.345
810.86	61.765
811.17	45.614
811.47	39.344
811.77	46.667
812.08	57.627
812.38	70.000
812.69	51.724
812.99	64.151
813.29	71.795
813.59	70.000
813.90	91.228
814.20	60.000
814.50	61.972
814.81	47.436
815.11	60.656
815.41	52.239
815.72	55.172
816.02	62.500
816.32	93.333
816.62	70.455
816.93	66.667
817.23	90.741
817.53	44.681
817.84	73.810
818.14	64.706
818.44	69.388
818.74	55.556
819.04	33.333
819.35	54.286
819.65	76.923
819.95	67.925
820.25	73.333
820.56	73.810
820.86	84.375
821.16	61.538
821.46	74.419
821.76	52.000
822.07	66.071
822.37	60.870
822.67	72.340
822.97	27.027
823.27	55.000
823.57	63.265
823.88	77.778
824.18	90.000
824.48	93.333
824.78	76.000
825.08	78.788
825.38	66.667
825.69	76.596
825.99	80.556
826.29	57.143
826.59	64.103
826.89	67.442
827.19	62.000
827.49	73.529
827.79	50.000
828.09	72.973
828.39	80.000
828.70	53.659
829.00	74.419
829.30	117.857
829.60	91.176
829.90	60.870
830.20	62.857
830.50	58.621
830.80	177.778
831.10	76.923
831.40	58.824
831.70	104.762
832.00	112.903
832.30	41.176
832.60	104.167
832.90	138.462
833.20	121.053
833.50	125.000
833.80	84.211
834.10	19.048
834.40	63.889
834.70	109.375
835.00	54.286
835.30	85.294
835.60	96.667
835.90	84.000
836.20	40.909
836.50	96.000
836.80	60.606
837.10	129.630
837.40	44.444
837.70	68.750
838.00	75.000
838.30	73.913
838.60	103.448
838.90	164.286
839.19	65.217
839.49	33.333
839.79	108.696
840.09	112.500
840.39	125.000
840.69	122.581
840.99	60.714
841.29	153.333
841.59	152.632
841.88	92.308
842.18	80.769
842.48	150.000
842.78	105.000
843.08	110.000
843.38	93.548
843.68	55.556
843.97	73.529
844.27	125.000
844.57	110.526
844.87	210.000
845.17	100.000
845.47	142.857
845.76	85.714
846.06	211.111
846.36	117.647
846.66	92.308
846.96	86.667
847.25	100.000
847.55	139.130
847.85	70.000
848.15	152.941
848.44	236.364
848.74	119.048
849.04	58.333
849.34	137.500
849.63	108.696
849.93	-850.000
850.23	140.000
850.53	126.923
850.82	100.000
851.12	122.727
851.42	200.000
851.71	207.692
852.01	85.000
852.31	161.538
852.61	105.263
852.90	183.333
853.20	161.111
853.50	144.444
853.79	104.762
854.09	136.364
854.39	141.667
854.68	100.000
854.98	65.385
855.28	127.778
855.57	67.857
855.87	144.000
856.17	86.364
856.46	96.296
856.76	116.667
857.05	113.043
857.35	79.167
857.65	69.231
857.94	119.048
858.24	100.000
858.53	126.087
858.83	147.059
859.13	47.059
859.42	205.882
859.72	235.714
860.01	110.000
860.31	200.000
860.60	160.000
860.90	146.667
861.20	100.000
861.49	238.462
861.79	86.667
862.08	115.385
862.38	100.000
862.67	135.294
862.97	193.750
863.26	122.222
863.56	230.000
863.85	154.545
864.15	144.444
864.44	500.000
864.74	171.429
865.03	118.750
865.33	-40.000
865.62	67.742
865.92	86.364
866.21	152.174
866.51	128.571
866.80	180.000
867.10	250.000
867.39	108.333
867.69	-1300.000
867.98	500.000
868.27	170.588
868.57	800.000
868.86	120.000
869.16	123.810
869.45	129.167
869.75	309.091
870.04	342.857
870.33	183.333
870.63	100.000
870.92	675.000
871.22	250.000
871.51	190.909
871.80	166.667
872.10	550.000
>>>>>End Processed Spectral Data<<<<<
