SpectraSuite Data File
++++++++++++++++++++++++++++++++++++
Date: Thu May 14 15:02:42 PDT 2015
User: schluterlab
Dark Spectrum Present: Yes
Reference Spectrum Present: Yes
Number of Sampled Component Spectra: 1
Spectrometers: USB2E3373
Integration Time (usec): 3000 (USB2E3373)
Spectra Averaged: 3 (USB2E3373)
Boxcar Smoothing: 0 (USB2E3373)
Correct for Electrical Dark: No (USB2E3373)
Strobe/Lamp Enabled: No (USB2E3373)
Correct for Detector Non-linearity: No (USB2E3373)
Correct for Stray Light: No (USB2E3373)
Number of Pixels in Processed Spectrum: 2048
>>>>>Begin Processed Spectral Data<<<<<
178.53	0.000
178.91	242.857
179.29	-2900.000
179.67	-2400.000
180.04	292.857
180.42	250.000
180.80	640.000
181.18	-3400.000
181.56	-900.000
181.94	500.000
182.31	-425.000
182.69	633.333
183.07	-1100.000
183.45	575.000
183.83	-433.333
184.20	-700.000
184.58	1900.000
184.96	-700.000
185.34	-311.111
185.72	-240.000
186.09	411.111
186.47	1350.000
186.85	720.000
187.23	-288.889
187.61	-2300.000
187.98	560.000
188.36	750.000
188.74	-700.000
189.12	-533.333
189.49	-87.500
189.87	-275.000
190.25	-188.889
190.63	-520.000
191.00	-322.222
191.38	0.000
191.76	-775.000
192.14	-450.000
192.51	1700.000
192.89	-316.667
193.27	0.000
193.65	-257.143
194.02	-3100.000
194.40	-314.286
194.78	271.429
195.15	0.000
195.53	-200.000
195.91	0.000
196.29	-600.000
196.66	-200.000
197.04	-2200.000
197.42	-400.000
197.79	-1600.000
198.17	-162.500
198.55	-242.857
198.92	-233.333
199.30	-350.000
199.68	-145.455
200.05	-78.571
200.43	-1300.000
200.81	385.714
201.18	0.000
201.56	333.333
201.94	0.000
202.31	1066.667
202.69	-311.111
203.07	1700.000
203.44	-266.667
203.82	-650.000
204.19	-133.333
204.57	-550.000
204.95	-362.500
205.32	-2300.000
205.70	600.000
206.08	-250.000
206.45	-283.333
206.83	660.000
207.20	-333.333
207.58	-460.000
207.96	-483.333
208.33	-400.000
208.71	241.667
209.08	-300.000
209.46	0.000
209.84	583.333
210.21	950.000
210.59	1300.000
210.96	800.000
211.34	-375.000
211.71	-312.500
212.09	-2200.000
212.46	0.000
212.84	2200.000
213.22	-280.000
213.59	-525.000
213.97	-160.000
214.34	-766.667
214.72	383.333
215.09	-725.000
215.47	0.000
215.84	342.857
216.22	1250.000
216.59	-340.000
216.97	-640.000
217.34	-525.000
217.72	-275.000
218.09	-650.000
218.47	-775.000
218.84	0.000
219.22	500.000
219.59	-152.941
219.97	-105.000
220.34	950.000
220.72	-266.667
221.09	-76.923
221.47	-833.333
221.84	-240.000
222.22	-342.857
222.59	0.000
222.97	-350.000
223.34	-580.000
223.72	-2900.000
224.09	-825.000
224.46	-650.000
224.84	-480.000
225.21	-471.429
225.59	-475.000
225.96	-700.000
226.34	-65.385
226.71	416.667
227.08	-1250.000
227.46	-120.000
227.83	-725.000
228.21	-89.474
228.58	375.000
228.95	1250.000
229.33	-108.333
229.70	-150.000
230.08	5.263
230.45	270.000
230.82	-733.333
231.20	-150.000
231.57	-158.333
231.95	-200.000
232.32	-236.364
232.69	-75.000
233.07	-525.000
233.44	-176.471
233.81	-280.000
234.19	-94.444
234.56	-90.909
234.93	-86.207
235.31	-121.053
235.68	-133.333
236.05	-175.000
236.43	-42.308
236.80	-52.000
237.17	-77.778
237.55	-30.303
237.92	-330.000
238.29	-51.613
238.67	-61.364
239.04	-58.333
239.41	-57.143
239.79	-76.087
240.16	-40.741
240.53	-45.652
240.91	-60.784
241.28	-39.344
241.65	-23.881
242.02	-31.081
242.40	-40.000
242.77	-33.333
243.14	-20.732
243.51	-31.579
243.89	-37.179
244.26	-21.782
244.63	-8.824
245.00	-15.888
245.38	-22.807
245.75	-28.319
246.12	-10.317
246.49	-13.953
246.87	-7.857
247.24	-5.298
247.61	-6.579
247.98	-10.738
248.36	-9.877
248.73	-11.656
249.10	-4.918
249.47	0.498
249.84	1.047
250.22	-4.663
250.59	-5.000
250.96	-0.909
251.33	-12.245
251.70	-5.128
252.08	-3.333
252.45	-5.738
252.82	-8.678
253.19	-1.563
253.56	0.000
253.94	-6.538
254.31	-0.758
254.68	-2.448
255.05	-2.280
255.42	-4.082
255.79	-7.767
256.16	-4.636
256.54	-2.649
256.91	-3.934
257.28	-4.590
257.65	-5.414
258.02	-0.885
258.39	-1.709
258.76	-2.141
259.14	-0.287
259.51	-2.017
259.88	-5.666
260.25	-0.556
260.62	0.822
260.99	0.273
261.36	-0.804
261.73	-1.857
262.10	-5.220
262.47	-3.485
262.85	0.253
263.22	-5.195
263.59	-6.053
263.96	-1.023
264.33	-5.115
264.70	0.741
265.07	1.909
265.44	2.721
265.81	-1.620
266.18	-1.361
266.55	-1.339
266.92	-5.695
267.29	-0.438
267.66	-0.887
268.03	-0.873
268.40	-1.253
268.77	-4.556
269.14	-2.863
269.51	-1.974
269.88	1.434
270.25	0.000
270.62	-1.899
270.99	1.010
271.36	0.792
271.73	0.393
272.10	0.200
272.47	0.401
272.84	-0.201
273.21	-1.002
273.58	0.000
273.95	-0.769
274.32	0.000
274.69	-1.934
275.06	0.916
275.43	-2.033
275.80	0.705
276.17	-1.667
276.54	-0.560
276.91	1.431
277.28	-1.085
277.65	-1.077
278.02	-0.919
278.39	-0.362
278.76	-0.351
279.13	-1.596
279.50	0.687
279.87	-1.789
280.23	-3.873
280.60	0.169
280.97	0.658
281.34	-2.547
281.71	0.169
282.08	-0.332
282.45	-0.982
282.82	-0.785
283.19	-1.292
283.56	-0.328
283.92	1.201
284.29	1.106
284.66	1.642
285.03	-1.282
285.40	0.000
285.77	0.619
286.14	2.137
286.51	-0.304
286.87	1.106
287.24	-0.602
287.61	-0.598
287.98	-0.453
288.35	1.036
288.72	1.775
289.08	0.732
289.45	0.296
289.82	0.301
290.19	1.293
290.56	0.986
290.93	0.285
291.29	1.515
291.66	3.168
292.03	-0.136
292.40	1.633
292.77	0.674
293.13	3.248
293.50	1.577
293.87	1.074
294.24	2.933
294.60	2.276
294.97	1.342
295.34	2.433
295.71	1.387
296.08	2.842
296.44	2.083
296.81	3.289
297.18	0.996
297.55	1.887
297.91	2.135
298.28	1.777
298.65	3.329
299.02	2.361
299.38	3.204
299.75	1.986
300.12	2.894
300.48	2.650
300.85	2.587
301.22	4.474
301.59	1.598
301.95	2.373
302.32	3.667
302.69	1.643
303.05	3.373
303.42	3.659
303.79	4.062
304.15	3.785
304.52	2.854
304.89	4.188
305.25	3.106
305.62	3.657
305.99	4.227
306.35	3.629
306.72	3.723
307.09	3.452
307.45	4.141
307.82	4.339
308.19	2.825
308.55	4.822
308.92	3.019
309.29	3.640
309.65	3.801
310.02	4.059
310.38	4.331
310.75	4.369
311.12	4.890
311.48	3.715
311.85	3.799
312.22	4.080
312.58	3.474
312.95	3.537
313.31	4.788
313.68	5.586
314.05	5.420
314.41	6.011
314.78	4.541
315.14	4.719
315.51	5.263
315.87	6.481
316.24	6.119
316.61	5.417
316.97	4.344
317.34	5.820
317.70	5.939
318.07	5.467
318.43	5.952
318.80	7.358
319.16	5.579
319.53	4.370
319.89	4.119
320.26	5.071
320.62	5.408
320.99	6.094
321.35	5.823
321.72	6.419
322.08	5.681
322.45	6.865
322.81	5.596
323.18	6.018
323.54	6.638
323.91	8.096
324.27	5.852
324.64	7.053
325.00	6.136
325.37	8.272
325.73	7.190
326.10	6.894
326.46	7.736
326.83	7.926
327.19	7.953
327.56	8.617
327.92	7.868
328.29	7.903
328.65	8.543
329.01	7.360
329.38	8.256
329.74	9.589
330.11	9.075
330.47	9.604
330.84	8.441
331.20	9.667
331.56	9.272
331.93	9.456
332.29	9.576
332.66	8.970
333.02	9.715
333.38	8.305
333.75	10.606
334.11	10.092
334.48	9.901
334.84	10.195
335.20	9.236
335.57	9.781
335.93	9.256
336.29	9.068
336.66	9.336
337.02	9.532
337.38	10.204
337.75	9.008
338.11	8.999
338.47	9.677
338.84	9.898
339.20	9.267
339.56	8.896
339.93	9.934
340.29	9.984
340.65	9.246
341.02	10.056
341.38	10.024
341.74	9.605
342.11	10.217
342.47	8.975
342.83	10.225
343.20	9.403
343.56	8.982
343.92	9.928
344.28	10.078
344.65	10.775
345.01	9.828
345.37	9.098
345.73	8.106
346.10	9.984
346.46	9.256
346.82	9.513
347.19	9.931
347.55	10.091
347.91	9.807
348.27	9.408
348.63	9.749
349.00	9.545
349.36	10.186
349.72	10.342
350.08	10.698
350.45	9.430
350.81	9.502
351.17	9.699
351.53	10.008
351.89	10.326
352.26	9.627
352.62	9.925
352.98	8.931
353.34	10.232
353.70	9.399
354.07	10.656
354.43	9.415
354.79	8.601
355.15	9.492
355.51	10.965
355.87	9.723
356.24	9.886
356.60	10.347
356.96	10.007
357.32	9.665
357.68	10.029
358.04	8.907
358.40	9.179
358.77	9.868
359.13	10.266
359.49	9.294
359.85	9.137
360.21	9.828
360.57	10.050
360.93	9.944
361.29	10.667
361.66	9.341
362.02	10.230
362.38	10.682
362.74	10.265
363.10	10.454
363.46	9.349
363.82	9.872
364.18	9.219
364.54	9.889
364.90	9.833
365.26	10.207
365.62	10.200
365.98	9.530
366.35	11.007
366.71	10.408
367.07	11.028
367.43	10.965
367.79	10.949
368.15	11.371
368.51	10.825
368.87	9.863
369.23	11.067
369.59	11.134
369.95	11.697
370.31	11.614
370.67	11.692
371.03	12.119
371.39	10.947
371.75	12.311
372.11	11.247
372.47	10.900
372.83	12.042
373.19	11.941
373.55	10.637
373.91	11.043
374.27	11.449
374.63	11.773
374.99	10.544
375.35	12.078
375.71	11.355
376.07	11.879
376.42	12.531
376.78	12.244
377.14	12.601
377.50	12.081
377.86	14.039
378.22	12.515
378.58	12.545
378.94	13.263
379.30	12.537
379.66	13.521
380.02	13.214
380.38	13.882
380.74	13.127
381.09	12.950
381.45	13.523
381.81	14.637
382.17	13.895
382.53	13.626
382.89	13.883
383.25	13.716
383.61	14.120
383.97	14.016
384.32	14.354
384.68	13.689
385.04	14.806
385.40	15.616
385.76	15.592
386.12	14.782
386.48	14.647
386.83	15.912
387.19	14.600
387.55	15.317
387.91	15.925
388.27	15.242
388.62	16.323
388.98	14.439
389.34	16.971
389.70	16.270
390.06	15.631
390.42	15.602
390.77	17.158
391.13	15.904
391.49	16.486
391.85	15.939
392.20	16.370
392.56	17.070
392.92	17.666
393.28	16.915
393.64	17.039
393.99	17.199
394.35	17.465
394.71	17.006
395.07	15.988
395.42	17.476
395.78	17.002
396.14	17.053
396.50	15.855
396.85	16.935
397.21	16.154
397.57	16.372
397.92	17.411
398.28	16.133
398.64	16.648
399.00	15.916
399.35	17.330
399.71	17.065
400.07	17.181
400.42	17.462
400.78	16.667
401.14	17.871
401.49	17.339
401.85	17.674
402.21	17.787
402.57	17.195
402.92	17.494
403.28	16.979
403.63	16.706
403.99	17.518
404.35	17.226
404.70	17.054
405.06	17.011
405.42	17.330
405.77	18.375
406.13	17.612
406.49	16.779
406.84	17.784
407.20	18.222
407.55	17.081
407.91	17.096
408.27	17.020
408.62	17.685
408.98	17.876
409.34	17.654
409.69	17.985
410.05	18.347
410.40	17.575
410.76	17.835
411.11	18.293
411.47	17.506
411.83	17.578
412.18	17.349
412.54	18.079
412.89	17.928
413.25	18.002
413.60	16.829
413.96	17.599
414.31	17.960
414.67	17.651
415.03	17.415
415.38	17.339
415.74	16.677
416.09	18.199
416.45	17.721
416.80	17.931
417.16	17.369
417.51	17.808
417.87	17.351
418.22	17.186
418.58	17.410
418.93	17.986
419.29	17.818
419.64	16.867
420.00	17.923
420.35	17.574
420.71	17.519
421.06	17.136
421.42	17.661
421.77	17.609
422.12	17.442
422.48	18.689
422.83	17.853
423.19	17.825
423.54	18.197
423.90	17.559
424.25	18.453
424.61	17.681
424.96	17.847
425.31	18.047
425.67	17.928
426.02	18.484
426.38	18.714
426.73	17.411
427.09	18.627
427.44	16.603
427.79	17.413
428.15	17.865
428.50	17.640
428.85	17.910
429.21	18.245
429.56	18.164
429.92	18.575
430.27	17.928
430.62	18.026
430.98	17.511
431.33	17.791
431.68	17.529
432.04	17.877
432.39	18.157
432.74	17.466
433.10	17.956
433.45	18.004
433.80	17.972
434.16	17.252
434.51	18.140
434.86	18.024
435.22	18.650
435.57	18.160
435.92	17.919
436.28	17.861
436.63	19.170
436.98	17.660
437.34	18.095
437.69	17.832
438.04	17.980
438.39	18.438
438.75	17.930
439.10	17.865
439.45	17.552
439.81	17.853
440.16	17.426
440.51	18.506
440.86	17.176
441.22	18.060
441.57	18.449
441.92	17.701
442.27	18.384
442.63	17.735
442.98	18.517
443.33	18.201
443.68	18.335
444.03	19.050
444.39	18.816
444.74	18.428
445.09	17.993
445.44	18.599
445.79	18.391
446.15	18.294
446.50	18.450
446.85	19.553
447.20	18.327
447.55	18.933
447.91	18.063
448.26	17.759
448.61	18.278
448.96	18.938
449.31	17.762
449.66	17.048
450.02	18.460
450.37	18.860
450.72	18.730
451.07	18.337
451.42	18.833
451.77	18.010
452.12	18.567
452.47	17.469
452.83	18.975
453.18	18.272
453.53	18.093
453.88	18.609
454.23	18.927
454.58	18.456
454.93	17.354
455.28	18.483
455.63	18.874
455.98	18.771
456.34	18.963
456.69	18.342
457.04	19.031
457.39	18.958
457.74	18.960
458.09	18.012
458.44	19.127
458.79	18.051
459.14	18.983
459.49	18.789
459.84	18.206
460.19	17.768
460.54	19.250
460.89	18.740
461.24	16.609
461.59	18.428
461.94	18.140
462.29	17.749
462.64	17.924
462.99	18.016
463.34	18.624
463.69	17.702
464.04	19.511
464.39	18.274
464.74	18.472
465.09	17.993
465.44	19.099
465.79	19.090
466.14	18.343
466.49	18.158
466.84	18.788
467.19	19.422
467.54	18.038
467.89	17.414
468.24	19.280
468.59	18.066
468.94	18.765
469.29	18.596
469.64	18.373
469.99	18.483
470.34	19.059
470.68	18.729
471.03	19.057
471.38	18.116
471.73	18.140
472.08	18.782
472.43	18.362
472.78	18.766
473.13	18.268
473.48	19.335
473.83	18.804
474.17	18.581
474.52	19.423
474.87	19.601
475.22	18.873
475.57	18.588
475.92	18.815
476.27	19.489
476.61	19.159
476.96	18.874
477.31	18.713
477.66	18.993
478.01	18.454
478.36	18.146
478.70	18.670
479.05	20.041
479.40	18.954
479.75	18.780
480.10	18.617
480.45	18.459
480.79	19.229
481.14	18.888
481.49	18.991
481.84	19.582
482.19	19.312
482.53	18.977
482.88	18.919
483.23	19.742
483.58	18.777
483.92	18.706
484.27	18.628
484.62	18.688
484.97	18.663
485.31	18.691
485.66	17.688
486.01	17.636
486.36	18.674
486.70	19.942
487.05	20.384
487.40	19.225
487.75	19.618
488.09	19.273
488.44	18.527
488.79	18.853
489.13	18.248
489.48	18.214
489.83	18.672
490.17	18.591
490.52	18.555
490.87	19.036
491.22	18.544
491.56	19.411
491.91	19.363
492.26	18.823
492.60	19.195
492.95	19.394
493.30	18.691
493.64	19.010
493.99	19.035
494.34	19.207
494.68	19.272
495.03	19.824
495.37	18.997
495.72	18.322
496.07	19.544
496.41	18.533
496.76	19.224
497.11	18.599
497.45	19.076
497.80	19.502
498.14	19.410
498.49	18.658
498.84	18.784
499.18	19.118
499.53	18.610
499.87	19.209
500.22	19.012
500.56	18.893
500.91	18.810
501.26	19.500
501.60	18.736
501.95	19.279
502.29	18.956
502.64	19.021
502.98	18.939
503.33	18.402
503.67	19.189
504.02	18.870
504.36	19.616
504.71	19.614
505.06	18.372
505.40	18.601
505.75	18.033
506.09	19.245
506.44	19.359
506.78	19.633
507.13	19.318
507.47	19.801
507.82	19.176
508.16	18.977
508.51	18.425
508.85	19.509
509.19	18.569
509.54	19.597
509.88	19.718
510.23	19.281
510.57	20.058
510.92	19.594
511.26	19.288
511.61	18.397
511.95	18.985
512.30	19.547
512.64	18.941
512.98	19.110
513.33	19.456
513.67	19.837
514.02	19.724
514.36	20.102
514.70	19.479
515.05	19.239
515.39	19.738
515.74	19.936
516.08	19.387
516.42	20.251
516.77	18.822
517.11	19.134
517.46	20.467
517.80	20.417
518.14	20.131
518.49	20.282
518.83	19.851
519.17	19.602
519.52	19.811
519.86	20.327
520.20	20.021
520.55	19.277
520.89	19.707
521.23	19.486
521.58	20.678
521.92	19.377
522.26	19.931
522.61	18.750
522.95	19.608
523.29	19.828
523.64	20.235
523.98	20.365
524.32	20.745
524.66	20.433
525.01	19.875
525.35	19.127
525.69	20.128
526.04	18.542
526.38	20.172
526.72	20.300
527.06	20.000
527.41	19.767
527.75	20.784
528.09	19.658
528.43	19.420
528.78	19.191
529.12	19.094
529.46	20.236
529.80	20.366
530.15	20.580
530.49	19.514
530.83	19.835
531.17	19.773
531.51	20.457
531.86	20.312
532.20	20.671
532.54	20.168
532.88	19.576
533.22	19.800
533.57	20.081
533.91	19.809
534.25	21.255
534.59	20.402
534.93	19.242
535.27	19.437
535.62	20.239
535.96	19.349
536.30	18.978
536.64	19.700
536.98	19.865
537.32	20.741
537.66	19.651
538.01	20.000
538.35	19.671
538.69	19.471
539.03	20.233
539.37	20.141
539.71	20.300
540.05	20.324
540.39	19.254
540.73	19.369
541.07	20.172
541.42	19.138
541.76	19.514
542.10	18.697
542.44	19.001
542.78	18.917
543.12	19.130
543.46	18.498
543.80	19.065
544.14	19.150
544.48	19.149
544.82	20.168
545.16	19.439
545.50	18.274
545.84	18.800
546.18	20.802
546.52	18.280
546.86	19.434
547.20	18.766
547.54	19.351
547.88	18.927
548.22	18.830
548.56	18.724
548.90	19.045
549.24	19.453
549.58	18.991
549.92	18.495
550.26	19.288
550.60	19.528
550.94	20.116
551.28	18.746
551.62	19.542
551.96	19.159
552.30	19.503
552.64	19.851
552.98	18.964
553.32	19.550
553.66	18.971
554.00	19.546
554.34	19.434
554.68	19.045
555.02	19.777
555.36	19.987
555.69	18.706
556.03	19.168
556.37	19.274
556.71	19.404
557.05	19.233
557.39	18.115
557.73	18.890
558.07	18.543
558.41	18.870
558.75	19.270
559.08	18.232
559.42	18.244
559.76	19.267
560.10	19.089
560.44	18.865
560.78	19.500
561.12	18.719
561.45	19.769
561.79	18.987
562.13	19.162
562.47	18.249
562.81	18.987
563.15	19.571
563.48	19.640
563.82	18.682
564.16	19.079
564.50	18.713
564.84	18.879
565.17	19.706
565.51	18.009
565.85	19.537
566.19	18.894
566.52	18.315
566.86	18.336
567.20	18.760
567.54	18.428
567.88	19.164
568.21	18.824
568.55	18.657
568.89	18.974
569.23	19.223
569.56	18.484
569.90	17.997
570.24	18.381
570.57	18.121
570.91	17.912
571.25	18.253
571.59	18.480
571.92	18.284
572.26	18.237
572.60	18.564
572.93	18.146
573.27	17.898
573.61	18.105
573.95	18.451
574.28	18.127
574.62	18.099
574.96	17.578
575.29	18.088
575.63	17.279
575.97	18.036
576.30	17.715
576.64	18.230
576.98	17.813
577.31	18.200
577.65	18.097
577.98	18.392
578.32	17.963
578.66	18.243
578.99	18.165
579.33	17.986
579.67	17.588
580.00	17.914
580.34	18.085
580.67	17.564
581.01	17.763
581.35	17.650
581.68	17.693
582.02	17.752
582.35	18.037
582.69	18.064
583.02	17.997
583.36	18.012
583.70	17.769
584.03	17.399
584.37	18.020
584.70	17.237
585.04	17.182
585.37	17.786
585.71	17.605
586.04	17.657
586.38	17.897
586.72	17.448
587.05	17.319
587.39	17.627
587.72	17.847
588.06	17.553
588.39	18.123
588.73	17.672
589.06	17.607
589.40	17.640
589.73	17.834
590.07	17.938
590.40	18.188
590.73	17.886
591.07	18.243
591.40	17.418
591.74	17.409
592.07	17.986
592.41	17.232
592.74	17.359
593.08	17.834
593.41	18.664
593.75	18.247
594.08	18.297
594.41	18.173
594.75	17.868
595.08	17.059
595.42	17.468
595.75	17.372
596.09	17.926
596.42	17.556
596.75	17.677
597.09	17.535
597.42	17.163
597.75	17.523
598.09	17.976
598.42	17.933
598.76	16.928
599.09	17.408
599.42	17.466
599.76	17.564
600.09	18.085
600.42	17.918
600.76	17.536
601.09	16.893
601.42	16.958
601.76	18.069
602.09	17.513
602.42	17.703
602.76	17.269
603.09	17.878
603.42	17.919
603.76	17.371
604.09	18.346
604.42	17.505
604.76	17.390
605.09	17.471
605.42	17.663
605.75	17.192
606.09	17.133
606.42	16.892
606.75	16.942
607.09	17.243
607.42	17.110
607.75	17.663
608.08	16.890
608.42	17.332
608.75	17.579
609.08	17.105
609.41	17.512
609.75	16.830
610.08	17.370
610.41	16.737
610.74	17.353
611.07	17.362
611.41	17.578
611.74	17.321
612.07	17.532
612.40	17.538
612.73	17.408
613.07	17.115
613.40	18.191
613.73	16.899
614.06	17.125
614.39	17.930
614.72	18.098
615.06	16.603
615.39	16.868
615.72	17.346
616.05	16.999
616.38	17.306
616.71	17.503
617.05	17.465
617.38	17.603
617.71	17.279
618.04	17.755
618.37	17.596
618.70	17.930
619.03	17.264
619.36	16.215
619.69	16.912
620.03	17.137
620.36	16.994
620.69	17.212
621.02	17.388
621.35	17.707
621.68	18.221
622.01	18.363
622.34	16.597
622.67	17.801
623.00	16.397
623.33	17.120
623.66	17.769
623.99	17.380
624.32	18.064
624.65	16.924
624.99	17.945
625.32	18.615
625.65	17.734
625.98	17.492
626.31	17.647
626.64	18.681
626.97	17.029
627.30	16.856
627.63	17.854
627.96	18.243
628.29	17.276
628.62	17.296
628.95	17.528
629.28	15.718
629.61	17.003
629.94	16.736
630.26	16.525
630.59	17.012
630.92	16.970
631.25	17.174
631.58	17.326
631.91	17.713
632.24	16.138
632.57	17.647
632.90	17.151
633.23	17.041
633.56	18.776
633.89	17.149
634.22	17.879
634.55	17.015
634.88	17.532
635.20	17.976
635.53	18.757
635.86	16.793
636.19	18.982
636.52	18.354
636.85	16.650
637.18	16.112
637.51	18.280
637.83	18.051
638.16	17.972
638.49	17.136
638.82	17.362
639.15	16.724
639.48	17.898
639.81	17.552
640.13	18.257
640.46	17.212
640.79	16.667
641.12	16.770
641.45	17.942
641.77	18.614
642.10	16.667
642.43	18.484
642.76	16.938
643.09	17.260
643.41	15.546
643.74	17.655
644.07	18.345
644.40	17.256
644.73	17.126
645.05	17.768
645.38	16.691
645.71	16.129
646.04	19.225
646.36	16.496
646.69	18.712
647.02	16.667
647.35	19.542
647.67	18.035
648.00	17.357
648.33	17.568
648.66	18.117
648.98	16.735
649.31	15.832
649.64	18.327
649.96	16.446
650.29	12.935
650.62	15.983
650.94	18.018
651.27	15.719
651.60	16.813
651.92	17.477
652.25	17.800
652.58	18.294
652.90	15.262
653.23	16.056
653.56	17.261
653.88	18.539
654.21	17.183
654.54	18.064
654.86	16.856
655.19	16.186
655.52	17.398
655.84	17.614
656.17	20.680
656.49	28.936
656.82	31.272
657.15	24.045
657.47	18.260
657.80	13.189
658.13	10.220
658.45	13.045
658.78	15.257
659.10	14.801
659.43	14.303
659.75	13.417
660.08	13.333
660.41	13.648
660.73	13.797
661.06	13.656
661.38	17.065
661.71	17.414
662.03	17.989
662.36	18.605
662.68	15.760
663.01	16.460
663.33	18.526
663.66	18.864
663.98	15.000
664.31	17.261
664.63	15.607
664.96	16.697
665.28	14.882
665.61	17.483
665.93	17.500
666.26	16.846
666.58	18.635
666.91	20.187
667.23	18.095
667.56	17.949
667.88	15.400
668.21	13.867
668.53	14.672
668.86	15.914
669.18	14.868
669.50	17.694
669.83	17.200
670.15	15.945
670.48	17.659
670.80	17.782
671.13	13.422
671.45	15.354
671.77	16.949
672.10	14.167
672.42	16.019
672.75	14.900
673.07	16.716
673.39	15.100
673.72	15.940
674.04	17.069
674.37	14.669
674.69	16.931
675.01	15.048
675.34	15.267
675.66	16.105
675.98	16.791
676.31	15.234
676.63	17.110
676.95	16.284
677.28	16.532
677.60	14.961
677.92	16.891
678.25	17.733
678.57	16.726
678.89	17.406
679.22	15.331
679.54	16.752
679.86	14.237
680.18	17.745
680.51	17.296
680.83	17.185
681.15	16.379
681.48	18.480
681.80	16.926
682.12	16.608
682.44	15.359
682.77	13.652
683.09	17.045
683.41	18.217
683.73	17.078
684.06	14.760
684.38	14.669
684.70	17.774
685.02	16.007
685.34	14.642
685.67	15.300
685.99	15.184
686.31	14.535
686.63	13.270
686.96	17.350
687.28	14.984
687.60	14.646
687.92	13.505
688.24	16.194
688.56	12.931
688.89	14.519
689.21	16.047
689.53	14.510
689.85	15.976
690.17	14.444
690.49	14.542
690.82	16.238
691.14	16.194
691.46	17.208
691.78	16.759
692.10	15.046
692.42	15.179
692.74	15.608
693.06	13.148
693.39	17.268
693.71	15.602
694.03	14.126
694.35	16.000
694.67	14.784
694.99	15.532
695.31	15.011
695.63	16.667
695.95	13.043
696.27	14.505
696.59	18.584
696.91	12.387
697.23	14.505
697.56	13.238
697.88	13.258
698.20	14.689
698.52	17.045
698.84	17.256
699.16	13.878
699.48	15.063
699.80	13.191
700.12	15.939
700.44	12.673
700.76	14.252
701.08	13.801
701.40	13.731
701.72	15.672
702.04	13.636
702.36	13.089
702.68	12.714
703.00	14.425
703.32	14.286
703.64	13.447
703.96	15.752
704.28	12.776
704.60	14.177
704.91	15.816
705.23	15.068
705.55	14.485
705.87	13.333
706.19	15.031
706.51	10.843
706.83	12.392
707.15	13.757
707.47	14.720
707.79	13.100
708.11	12.288
708.43	10.968
708.74	13.616
709.06	12.529
709.38	16.667
709.70	15.136
710.02	13.437
710.34	14.894
710.66	11.453
710.98	12.842
711.29	12.637
711.61	14.407
711.93	13.675
712.25	13.243
712.57	14.454
712.89	15.882
713.20	12.426
713.52	15.896
713.84	12.535
714.16	14.474
714.48	13.918
714.80	14.286
715.11	13.648
715.43	15.119
715.75	13.947
716.07	10.497
716.39	15.847
716.70	12.349
717.02	14.426
717.34	9.756
717.66	15.101
717.97	10.616
718.29	10.653
718.61	9.868
718.93	14.563
719.24	12.422
719.56	11.043
719.88	12.613
720.20	9.677
720.51	10.870
720.83	15.313
721.15	10.855
721.46	5.479
721.78	12.667
722.10	9.061
722.42	10.738
722.73	11.935
723.05	10.877
723.37	10.417
723.68	13.978
724.00	14.801
724.32	9.155
724.63	10.490
724.95	9.929
725.27	11.150
725.58	10.247
725.90	14.483
726.22	13.480
726.53	13.961
726.85	10.377
727.16	12.085
727.48	14.067
727.80	15.232
728.11	10.247
728.43	12.458
728.74	14.047
729.06	13.245
729.38	12.013
729.69	13.087
730.01	11.607
730.32	9.091
730.64	12.264
730.96	6.522
731.27	14.804
731.59	11.538
731.90	9.351
732.22	14.062
732.53	10.773
732.85	10.857
733.16	11.437
733.48	10.061
733.80	11.978
734.11	10.541
734.43	10.541
734.74	17.722
735.06	12.563
735.37	12.432
735.69	9.730
736.00	9.322
736.32	11.590
736.63	11.667
736.95	10.920
737.26	11.818
737.58	9.091
737.89	13.824
738.21	11.009
738.52	9.180
738.83	10.580
739.15	10.284
739.46	12.585
739.78	13.497
740.09	11.748
740.41	13.411
740.72	12.000
741.04	10.680
741.35	12.982
741.66	13.333
741.98	13.115
742.29	10.460
742.61	11.842
742.92	11.923
743.23	15.884
743.55	12.403
743.86	12.000
744.18	5.372
744.49	4.641
744.80	9.465
745.12	15.190
745.43	14.228
745.74	10.345
746.06	6.780
746.37	9.705
746.68	10.569
747.00	12.500
747.31	12.017
747.62	13.462
747.94	7.692
748.25	9.237
748.56	6.939
748.88	10.684
749.19	15.086
749.50	5.195
749.82	10.442
750.13	11.388
750.44	14.000
750.75	13.538
751.07	9.846
751.38	13.249
751.69	11.182
752.01	10.356
752.32	14.706
752.63	9.524
752.94	11.419
753.26	11.152
753.57	12.593
753.88	7.865
754.19	12.219
754.51	11.254
754.82	13.505
755.13	13.770
755.44	13.311
755.75	13.487
756.07	11.642
756.38	7.233
756.69	13.253
757.00	8.864
757.31	10.929
757.63	9.207
757.94	12.207
758.25	10.384
758.56	11.111
758.87	12.955
759.18	12.000
759.50	12.465
759.81	11.765
760.12	12.668
760.43	9.375
760.74	14.778
761.05	11.250
761.36	11.325
761.67	11.929
761.99	9.730
762.30	9.451
762.61	7.921
762.92	9.701
763.23	11.236
763.54	11.511
763.85	9.966
764.16	12.458
764.47	9.507
764.78	11.821
765.10	10.850
765.41	12.051
765.72	9.788
766.03	13.277
766.34	8.464
766.65	5.923
766.96	7.171
767.27	6.912
767.58	6.468
767.89	12.500
768.20	11.737
768.51	9.259
768.82	11.245
769.13	7.955
769.44	3.077
769.75	11.913
770.06	13.077
770.37	16.142
770.68	8.511
770.99	9.717
771.30	13.333
771.61	8.365
771.92	6.296
772.23	9.717
772.54	7.407
772.85	6.912
773.16	10.476
773.47	3.175
773.78	2.162
774.09	3.409
774.39	16.000
774.70	9.836
775.01	2.439
775.32	2.941
775.63	4.294
775.94	-0.637
776.25	4.516
776.56	5.769
776.87	8.844
777.18	8.966
777.48	4.895
777.79	8.784
778.10	-4.412
778.41	4.861
778.72	4.138
779.03	5.556
779.34	4.242
779.65	9.845
779.95	8.333
780.26	5.682
780.57	1.935
780.88	13.768
781.19	7.097
781.50	10.000
781.80	9.677
782.11	4.233
782.42	4.040
782.73	2.395
783.04	3.911
783.34	0.000
783.65	-3.268
783.96	3.727
784.27	4.167
784.57	-1.325
784.88	7.857
785.19	-4.724
785.50	-0.787
785.81	1.504
786.11	8.462
786.42	-6.475
786.73	1.439
787.04	1.504
787.34	-1.639
787.65	0.000
787.96	8.955
788.26	3.497
788.57	2.797
788.88	1.974
789.19	3.268
789.49	-0.685
789.80	0.709
790.11	0.000
790.41	6.250
790.72	-9.322
791.03	-16.505
791.33	0.870
791.64	7.018
791.95	-4.464
792.25	-4.762
792.56	-0.893
792.87	-15.625
793.17	9.821
793.48	-10.417
793.79	-8.434
794.09	4.587
794.40	1.835
794.70	2.721
795.01	0.000
795.32	0.000
795.62	1.408
795.93	-3.788
796.23	-1.639
796.54	-2.679
796.85	-12.766
797.15	-10.870
797.46	-21.918
797.76	-30.000
798.07	-7.609
798.37	-14.433
798.68	-23.377
798.99	-12.644
799.29	-10.112
799.60	3.191
799.90	-7.229
800.21	-30.769
800.51	-25.373
800.82	-23.529
801.12	-30.137
801.43	-25.000
801.73	-25.424
802.04	-19.697
802.34	-26.667
802.65	-22.034
802.95	-16.418
803.26	-13.559
803.56	-19.178
803.87	-8.571
804.17	-15.068
804.48	-33.333
804.78	-23.611
805.09	-36.207
805.39	-10.811
805.70	-33.803
806.00	-10.976
806.30	-12.048
806.61	-19.178
806.91	-0.962
807.22	-14.444
807.52	-18.391
807.83	-4.167
808.13	-12.048
808.43	-3.371
808.74	-11.250
809.04	-33.824
809.35	-17.333
809.65	-2.857
809.95	-16.438
810.26	-31.579
810.56	-12.069
810.86	-20.588
811.17	-22.807
811.47	-36.066
811.77	-60.000
812.08	-18.644
812.38	-28.333
812.69	-17.241
812.99	-47.170
813.29	-53.846
813.59	-32.000
813.90	-38.596
814.20	-36.364
814.50	-15.493
814.81	-21.795
815.11	-14.754
815.41	-13.433
815.72	-24.138
816.02	-16.071
816.32	-35.556
816.62	-52.273
816.93	-40.000
817.23	-22.222
817.53	-42.553
817.84	-30.952
818.14	-55.882
818.44	-26.531
818.74	-13.333
819.04	-41.026
819.35	-60.000
819.65	-119.231
819.95	-32.075
820.25	-17.778
820.56	-33.333
820.86	-93.750
821.16	-38.462
821.46	-62.791
821.76	-46.000
822.07	-21.429
822.37	-39.130
822.67	-40.426
822.97	-70.270
823.27	-47.500
823.57	-32.653
823.88	-40.000
824.18	-47.500
824.48	-76.667
824.78	-84.000
825.08	-72.727
825.38	-33.333
825.69	-19.149
825.99	-77.778
826.29	-91.429
826.59	-51.282
826.89	-23.256
827.19	-18.000
827.49	-29.412
827.79	-20.833
828.09	-56.757
828.39	-80.000
828.70	-39.024
829.00	-44.186
829.30	-57.143
829.60	-38.235
829.90	-50.000
830.20	-45.714
830.50	-51.724
830.80	-127.778
831.10	-88.462
831.40	-38.235
831.70	-47.619
832.00	-32.258
832.30	-170.588
832.60	-54.167
832.90	-169.231
833.20	-136.842
833.50	-85.000
833.80	-115.789
834.10	-152.381
834.40	-33.333
834.70	-46.875
835.00	-94.286
835.30	-58.824
835.60	-70.000
835.90	-56.000
836.20	-131.818
836.50	-44.000
836.80	-87.879
837.10	-70.370
837.40	-100.000
837.70	-206.250
838.00	-78.571
838.30	-86.957
838.60	-51.724
838.90	-142.857
839.19	-139.130
839.49	-233.333
839.79	-91.304
840.09	-225.000
840.39	-110.000
840.69	-22.581
840.99	-75.000
841.29	-166.667
841.59	-100.000
841.88	-10.256
842.18	-100.000
842.48	-250.000
842.78	-115.000
843.08	-50.000
843.38	-58.065
843.68	-138.889
843.97	-44.118
844.27	-143.750
844.57	-131.579
844.87	-370.000
845.17	-160.000
845.47	-52.381
845.76	-66.667
846.06	-244.444
846.36	-158.824
846.66	-65.385
846.96	-193.333
847.25	-111.765
847.55	-52.174
847.85	-70.000
848.15	-94.118
848.44	-172.727
848.74	-61.905
849.04	-95.833
849.34	-137.500
849.63	-82.609
849.93	1550.000
850.23	-113.333
850.53	-38.462
850.82	-118.182
851.12	-86.364
851.42	-154.545
851.71	-153.846
852.01	-145.000
852.31	-146.154
852.61	-115.789
852.90	-158.333
853.20	-94.444
853.50	-311.111
853.79	-123.810
854.09	-140.909
854.39	-216.667
854.68	-54.839
854.98	-103.846
855.28	-105.556
855.57	-82.143
855.87	-100.000
856.17	-113.636
856.46	-77.778
856.76	-144.444
857.05	-104.348
857.35	-70.833
857.65	-207.692
857.94	-119.048
858.24	-22.222
858.53	-56.522
858.83	-135.294
859.13	-141.176
859.42	-100.000
859.72	-100.000
860.01	-100.000
860.31	-211.111
860.60	-270.000
860.90	-120.000
861.20	-116.667
861.49	-215.385
861.79	-56.667
862.08	-246.154
862.38	-46.875
862.67	-88.235
862.97	-112.500
863.26	-255.556
863.56	-210.000
863.85	-190.909
864.15	-105.556
864.44	-433.333
864.74	-192.857
865.03	-118.750
865.33	-410.000
865.62	-100.000
865.92	-50.000
866.21	-43.478
866.51	-142.857
866.80	-520.000
867.10	-158.333
867.39	-125.000
867.69	2900.000
867.98	-328.571
868.27	-88.235
868.57	-3500.000
868.86	-290.000
869.16	-100.000
869.45	-95.833
869.75	-118.182
870.04	-300.000
870.33	-158.333
870.63	-485.714
870.92	-750.000
871.22	-400.000
871.51	-227.273
871.80	-1066.667
872.10	-1450.000
>>>>>End Processed Spectral Data<<<<<
