SpectraSuite Data File
++++++++++++++++++++++++++++++++++++
Date: Thu May 14 15:25:21 PDT 2015
User: schluterlab
Dark Spectrum Present: Yes
Reference Spectrum Present: Yes
Number of Sampled Component Spectra: 1
Spectrometers: USB2E3373
Integration Time (usec): 3000 (USB2E3373)
Spectra Averaged: 3 (USB2E3373)
Boxcar Smoothing: 0 (USB2E3373)
Correct for Electrical Dark: No (USB2E3373)
Strobe/Lamp Enabled: No (USB2E3373)
Correct for Detector Non-linearity: No (USB2E3373)
Correct for Stray Light: No (USB2E3373)
Number of Pixels in Processed Spectrum: 2048
>>>>>Begin Processed Spectral Data<<<<<
178.53	0.000
178.91	700.000
179.29	-5600.000
179.67	-5600.000
180.04	471.429
180.42	440.000
180.80	1060.000
181.18	-4400.000
181.56	-3300.000
181.94	1200.000
182.31	-1175.000
182.69	1700.000
183.07	-2400.000
183.45	1200.000
183.83	-716.667
184.20	-1500.000
184.58	4200.000
184.96	-1450.000
185.34	-511.111
185.72	-960.000
186.09	711.111
186.47	2500.000
186.85	1080.000
187.23	-633.333
187.61	-5400.000
187.98	1020.000
188.36	1175.000
188.74	-950.000
189.12	-1433.333
189.49	-293.750
189.87	-650.000
190.25	-511.111
190.63	-1000.000
191.00	-466.667
191.38	0.000
191.76	-1425.000
192.14	-966.667
192.51	2350.000
192.89	-650.000
193.27	0.000
193.65	-528.571
194.02	-5300.000
194.40	-514.286
194.78	742.857
195.15	0.000
195.53	-345.455
195.91	0.000
196.29	-1050.000
196.66	-284.615
197.04	-5200.000
197.42	-657.143
197.79	-2550.000
198.17	-587.500
198.55	-614.286
198.92	-488.889
199.30	-687.500
199.68	-372.727
200.05	-314.286
200.43	-2400.000
200.81	757.143
201.18	0.000
201.56	644.444
201.94	0.000
202.31	1733.333
202.69	-622.222
203.07	4000.000
203.44	-455.556
203.82	-1125.000
204.19	-408.333
204.57	-816.667
204.95	-650.000
205.32	-4500.000
205.70	1250.000
206.08	-883.333
206.45	-700.000
206.83	1160.000
207.20	-583.333
207.58	-1000.000
207.96	-883.333
208.33	-783.333
208.71	433.333
209.08	-716.667
209.46	0.000
209.84	900.000
210.21	2050.000
210.59	2300.000
210.96	1733.333
211.34	-1100.000
211.71	-725.000
212.09	-5200.000
212.46	0.000
212.84	2700.000
213.22	-1020.000
213.59	-900.000
213.97	-380.000
214.34	-1633.333
214.72	783.333
215.09	-1225.000
215.47	0.000
215.84	800.000
216.22	2700.000
216.59	-860.000
216.97	-980.000
217.34	-1200.000
217.72	-487.500
218.09	-1250.000
218.47	-1325.000
218.84	0.000
219.22	960.000
219.59	-300.000
219.97	-215.000
220.34	2450.000
220.72	-522.222
221.09	-269.231
221.47	-1266.667
221.84	-520.000
222.22	-714.286
222.59	0.000
222.97	-575.000
223.34	-940.000
223.72	-4900.000
224.09	-1025.000
224.46	-1200.000
224.84	-940.000
225.21	-700.000
225.59	-1300.000
225.96	-1325.000
226.34	-169.231
226.71	883.333
227.08	-2500.000
227.46	-253.333
227.83	-1200.000
228.21	-205.263
228.58	587.500
228.95	2750.000
229.33	-291.667
229.70	-450.000
230.08	-215.789
230.45	500.000
230.82	-1566.667
231.20	-350.000
231.57	-375.000
231.95	-418.182
232.32	-400.000
232.69	-200.000
233.07	-975.000
233.44	-258.824
233.81	-410.000
234.19	-222.222
234.56	-168.182
234.93	-100.000
235.31	-221.053
235.68	-216.667
236.05	-260.000
236.43	-142.308
236.80	-148.000
237.17	-185.185
237.55	-139.394
237.92	-520.000
238.29	-161.290
238.67	-118.182
239.04	-155.556
239.41	-104.762
239.79	-100.000
240.16	-79.630
240.53	-97.826
240.91	-90.196
241.28	-73.770
241.65	-55.224
242.02	-58.108
242.40	-76.923
242.77	-62.667
243.14	-58.537
243.51	-63.158
243.89	-71.795
244.26	-51.485
244.63	-39.216
245.00	-38.318
245.38	-45.614
245.75	-53.982
246.12	-31.746
246.49	-35.659
246.87	-30.714
247.24	-26.490
247.61	-20.395
247.98	-25.503
248.36	-28.395
248.73	-31.288
249.10	-22.404
249.47	-16.915
249.84	-18.848
250.22	-22.280
250.59	-25.556
250.96	-14.545
251.33	-23.980
251.70	-17.094
252.08	-16.667
252.45	-11.475
252.82	-17.355
253.19	-18.359
253.56	-13.688
253.94	-20.769
254.31	-18.561
254.68	-10.140
255.05	-8.795
255.42	-13.605
255.79	-15.858
256.16	-12.252
256.54	-15.894
256.91	-14.426
257.28	-14.098
257.65	-14.968
258.02	-12.684
258.39	-9.402
258.76	-10.398
259.14	-10.920
259.51	-10.375
259.88	-13.031
260.25	-13.333
260.62	-9.041
260.99	-6.831
261.36	-9.920
261.73	-11.671
262.10	-14.011
262.47	-10.456
262.85	-6.818
263.22	-11.948
263.59	-12.105
263.96	-8.184
264.33	-12.788
264.70	-9.383
265.07	-5.489
265.44	-5.896
265.81	-11.574
266.18	-6.349
266.55	-7.813
266.92	-11.845
267.29	-8.753
267.66	-9.091
268.03	-10.044
268.40	-7.516
268.77	-11.162
269.14	-10.573
269.51	-8.991
269.88	-6.967
270.25	-6.439
270.62	-6.329
270.99	-7.677
271.36	-5.743
271.73	-7.859
272.10	-6.012
272.47	-8.016
272.84	-7.631
273.21	-6.613
273.58	-7.661
273.95	-9.038
274.32	-6.464
274.69	-8.317
275.06	-6.227
275.43	-7.948
275.80	-5.996
276.17	-6.111
276.54	-7.463
276.91	-8.408
277.28	-6.329
277.65	-5.745
278.02	-7.721
278.39	-7.065
278.76	-7.733
279.13	-7.979
279.50	-5.670
279.87	-6.261
280.23	-10.035
280.60	-4.915
280.97	-6.414
281.34	-8.829
281.71	-3.215
282.08	-5.316
282.45	-5.565
282.82	-5.495
283.19	-7.108
283.56	-5.574
283.92	-2.102
284.29	-3.160
284.66	-4.598
285.03	-6.891
285.40	-4.328
285.77	-5.418
286.14	-3.817
286.51	-5.632
286.87	-5.845
287.24	-4.367
287.61	-5.082
287.98	-4.683
288.35	-4.882
288.72	-4.882
289.08	-5.564
289.45	-6.805
289.82	-4.970
290.19	-5.460
290.56	-3.944
290.93	-4.993
291.29	-4.683
291.66	-4.132
292.03	-4.749
292.40	-4.082
292.77	-4.313
293.13	-4.060
293.50	-5.782
293.87	-4.564
294.24	-3.067
294.60	-3.793
294.97	-5.906
295.34	-3.457
295.71	-4.414
296.08	-5.168
296.44	-3.554
296.81	-3.289
297.18	-4.483
297.55	-5.071
297.91	-5.101
298.28	-5.095
298.65	-2.616
299.02	-3.306
299.38	-3.204
299.75	-3.972
300.12	-4.282
300.48	-2.074
300.85	-2.587
301.22	-2.349
301.59	-3.311
301.95	-3.729
302.32	-1.667
302.69	-2.738
303.05	-2.503
303.42	-2.993
303.79	-3.125
304.15	-2.208
304.52	-2.854
304.89	-2.618
305.25	-1.760
305.62	-3.030
305.99	-2.371
306.35	-2.520
306.72	-1.448
307.09	-2.944
307.45	-1.967
307.82	-2.422
308.19	-1.514
308.55	-0.675
308.92	-1.363
309.29	-1.245
309.65	-1.754
310.02	-1.287
310.38	-1.575
310.75	-1.262
311.12	0.096
311.48	-1.271
311.85	-1.330
312.22	-1.328
312.58	-1.502
312.95	-1.721
313.31	0.181
313.68	-0.183
314.05	0.813
314.41	0.455
314.78	0.363
315.14	0.363
315.51	0.277
315.87	1.080
316.24	1.279
316.61	2.487
316.97	0.362
317.34	2.028
317.70	2.271
318.07	2.646
318.43	2.891
318.80	3.428
319.16	3.262
319.53	1.285
319.89	2.805
320.26	3.915
320.62	2.837
320.99	3.139
321.35	3.235
321.72	4.093
322.08	3.246
322.45	3.884
322.81	4.603
323.18	4.690
323.54	6.207
323.91	5.605
324.27	5.938
324.64	7.809
325.00	6.716
325.37	7.535
325.73	8.347
326.10	9.732
326.46	9.283
326.83	10.248
327.19	10.315
327.56	9.960
327.92	10.149
328.29	10.484
328.65	10.134
329.01	12.267
329.38	12.384
329.74	12.671
330.11	12.414
330.47	12.131
330.84	13.178
331.20	14.583
331.56	13.432
331.93	15.146
332.29	13.898
332.66	15.116
333.02	13.819
333.38	14.262
333.75	14.983
334.11	14.178
334.48	13.861
334.84	16.228
335.20	13.938
335.57	15.683
335.93	15.950
336.29	15.557
336.66	15.643
337.02	14.967
337.38	15.986
337.75	14.793
338.11	15.812
338.47	15.715
338.84	14.552
339.20	15.501
339.56	14.086
339.93	15.353
340.29	15.942
340.65	15.572
341.02	16.600
341.38	16.896
341.74	16.303
342.11	16.734
342.47	14.853
342.83	16.506
343.20	16.190
343.56	15.798
343.92	16.493
344.28	16.328
344.65	16.899
345.01	17.473
345.37	15.785
345.73	14.497
346.10	16.693
346.46	15.981
346.82	17.079
347.19	17.341
347.55	17.375
347.91	16.419
348.27	17.147
348.63	17.289
349.00	16.629
349.36	17.770
349.72	17.485
350.08	17.385
350.45	16.502
350.81	16.591
351.17	16.541
351.53	16.907
351.89	17.616
352.26	17.985
352.62	17.388
352.98	18.092
353.34	15.982
353.70	17.180
354.07	17.362
354.43	17.084
354.79	16.904
355.15	17.734
355.51	18.640
355.87	16.904
356.24	18.403
356.60	17.369
356.96	18.384
357.32	17.472
357.68	18.082
358.04	18.787
358.40	17.687
358.77	18.640
359.13	18.390
359.49	17.249
359.85	19.144
360.21	18.938
360.57	18.521
360.93	18.618
361.29	19.649
361.66	18.972
362.02	20.946
362.38	19.536
362.74	19.344
363.10	20.289
363.46	19.460
363.82	19.389
364.18	20.267
364.54	20.194
364.90	21.137
365.26	19.862
365.62	20.533
365.98	21.171
366.35	21.074
366.71	20.476
367.07	20.095
367.43	20.486
367.79	21.433
368.15	21.204
368.51	21.042
368.87	21.489
369.23	21.600
369.59	21.516
369.95	21.298
370.31	21.945
370.67	22.490
371.03	21.607
371.39	21.222
371.75	22.421
372.11	22.629
372.47	23.629
372.83	22.971
373.19	23.215
373.55	22.967
373.91	21.336
374.27	22.962
374.63	22.801
374.99	23.276
375.35	23.831
375.71	23.871
376.07	23.564
376.42	24.181
376.78	24.922
377.14	24.392
377.50	25.806
377.86	25.616
378.22	25.509
378.58	26.635
378.94	26.056
379.30	26.538
379.66	26.749
380.02	27.236
380.38	27.419
380.74	27.606
381.09	27.642
381.45	27.898
381.81	28.689
382.17	27.969
382.53	28.304
382.89	28.781
383.25	29.894
383.61	29.861
383.97	29.976
384.32	29.366
384.68	29.176
385.04	30.711
385.40	30.701
385.76	31.946
386.12	29.803
386.48	31.353
386.83	31.764
387.19	31.228
387.55	31.162
387.91	31.336
388.27	32.102
388.62	32.474
388.98	31.585
389.34	32.764
389.70	33.295
390.06	33.215
390.42	33.554
390.77	33.233
391.13	32.629
391.49	33.816
391.85	33.636
392.20	33.393
392.56	33.727
392.92	35.278
393.28	34.439
393.64	34.190
393.99	35.503
394.35	35.572
394.71	34.910
395.07	34.970
395.42	34.951
395.78	36.624
396.14	35.294
396.50	35.214
396.85	35.242
397.21	35.444
397.57	35.925
397.92	35.796
398.28	35.578
398.64	34.897
399.00	35.393
399.35	36.859
399.71	35.815
400.07	35.261
400.42	35.623
400.78	35.185
401.14	36.483
401.49	36.555
401.85	36.337
402.21	37.254
402.57	37.559
402.92	36.998
403.28	35.363
403.63	35.561
403.99	36.223
404.35	35.816
404.70	36.374
405.06	36.685
405.42	37.354
405.77	37.350
406.13	37.277
406.49	36.318
406.84	36.676
407.20	36.836
407.55	36.766
407.91	35.764
408.27	36.337
408.62	36.940
408.98	36.506
409.34	36.598
409.69	37.268
410.05	36.870
410.40	37.587
410.76	37.465
411.11	36.762
411.47	37.408
411.83	37.978
412.18	37.892
412.54	37.226
412.89	37.194
413.25	36.682
413.60	37.163
413.96	38.112
414.31	37.847
414.67	36.255
415.03	36.738
415.38	37.453
415.74	37.996
416.09	37.323
416.45	34.627
416.80	36.597
417.16	36.654
417.51	37.360
417.87	37.032
418.22	37.545
418.58	37.918
418.93	36.671
419.29	38.101
419.64	35.774
420.00	38.338
420.35	37.956
420.71	38.024
421.06	37.263
421.42	37.213
421.77	38.018
422.12	37.051
422.48	38.710
422.83	39.047
423.19	38.992
423.54	38.993
423.90	37.880
424.25	40.213
424.61	38.175
424.96	38.276
425.31	39.278
425.67	38.272
426.02	39.513
426.38	39.150
426.73	39.007
427.09	39.792
427.44	39.214
427.79	39.580
428.15	39.098
428.50	38.539
428.85	38.117
429.21	39.840
429.56	38.302
429.92	39.017
430.27	39.373
430.62	38.740
430.98	39.695
431.33	39.687
431.68	39.703
432.04	40.477
432.39	39.850
432.74	39.669
433.10	39.481
433.45	39.353
433.80	39.646
434.16	40.238
434.51	40.031
434.86	41.802
435.22	41.392
435.57	42.512
435.92	40.902
436.28	39.534
436.63	41.726
436.98	40.043
437.34	40.248
437.69	40.451
438.04	40.296
438.39	40.092
438.75	41.007
439.10	41.755
439.45	40.861
439.81	41.864
440.16	40.054
440.51	40.635
440.86	40.133
441.22	40.622
441.57	39.937
441.92	40.398
442.27	41.010
442.63	40.735
442.98	41.035
443.33	41.241
443.68	41.378
444.03	42.051
444.39	42.164
444.74	40.429
445.09	41.004
445.44	41.570
445.79	42.385
446.15	41.881
446.50	41.240
446.85	40.078
447.20	40.522
447.55	41.266
447.91	41.257
448.26	41.543
448.61	41.020
448.96	41.899
449.31	40.350
449.66	40.142
450.02	41.350
450.37	40.757
450.72	40.527
451.07	41.230
451.42	41.248
451.77	40.022
452.12	41.140
452.47	40.642
452.83	41.554
453.18	40.455
453.53	40.953
453.88	40.420
454.23	41.356
454.58	41.149
454.93	40.959
455.28	41.300
455.63	41.103
455.98	41.006
456.34	40.754
456.69	41.035
457.04	41.785
457.39	41.131
457.74	42.170
458.09	40.472
458.44	41.810
458.79	40.897
459.14	40.115
459.49	41.030
459.84	41.081
460.19	40.700
460.54	40.886
460.89	41.609
461.24	40.805
461.59	40.620
461.94	40.673
462.29	42.273
462.64	40.978
462.99	40.804
463.34	41.402
463.69	40.328
464.04	40.523
464.39	40.807
464.74	40.764
465.09	40.773
465.44	41.255
465.79	40.984
466.14	39.917
466.49	40.684
466.84	40.716
467.19	41.387
467.54	39.130
467.89	39.885
468.24	40.055
468.59	40.764
468.94	39.103
469.29	39.532
469.64	40.051
469.99	39.834
470.34	40.037
470.68	40.602
471.03	40.013
471.38	39.438
471.73	39.597
472.08	40.482
472.43	39.856
472.78	40.617
473.13	39.191
473.48	40.604
473.83	40.685
474.17	39.566
474.52	41.371
474.87	38.760
475.22	39.944
475.57	39.927
475.92	40.767
476.27	39.510
476.61	39.460
476.96	39.416
477.31	39.604
477.66	40.923
478.01	39.756
478.36	39.681
478.70	40.296
479.05	40.235
479.40	39.980
479.75	39.962
480.10	38.986
480.45	40.201
480.79	39.683
481.14	39.798
481.49	40.164
481.84	40.296
482.19	39.570
482.53	41.277
482.88	40.319
483.23	38.728
483.58	39.782
483.92	39.583
484.27	39.204
484.62	38.861
484.97	39.774
485.31	38.402
485.66	36.079
486.01	35.697
486.36	38.145
486.70	41.265
487.05	42.452
487.40	41.166
487.75	39.847
488.09	39.617
488.44	38.255
488.79	38.685
489.13	37.618
489.48	37.282
489.83	38.431
490.17	38.599
490.52	37.767
490.87	39.340
491.22	39.298
491.56	39.292
491.91	39.250
492.26	39.593
492.60	38.653
492.95	39.315
493.30	38.324
493.64	39.290
493.99	38.947
494.34	38.589
494.68	38.373
495.03	39.383
495.37	40.302
495.72	38.458
496.07	38.650
496.41	38.739
496.76	39.825
497.11	38.726
497.45	39.707
497.80	39.938
498.14	38.367
498.49	38.419
498.84	39.260
499.18	38.372
499.53	38.251
499.87	37.890
500.22	38.201
500.56	38.552
500.91	38.398
501.26	38.182
501.60	38.312
501.95	38.037
502.29	37.999
502.64	38.828
502.98	38.395
503.33	38.013
503.67	37.767
504.02	38.179
504.36	39.500
504.71	38.447
505.06	37.881
505.40	37.843
505.75	38.980
506.09	37.707
506.44	37.419
506.78	38.028
507.13	37.483
507.47	38.607
507.82	37.642
508.16	38.241
508.51	36.099
508.85	38.687
509.19	38.039
509.54	38.425
509.88	37.980
510.23	38.222
510.57	38.473
510.92	38.123
511.26	38.047
511.61	36.842
511.95	37.677
512.30	38.109
512.64	37.681
512.98	37.169
513.33	37.802
513.67	38.450
514.02	38.222
514.36	38.210
514.70	37.292
515.05	37.226
515.39	38.268
515.74	38.229
516.08	38.774
516.42	38.043
516.77	38.644
517.11	37.287
517.46	37.752
517.80	37.680
518.14	37.758
518.49	38.612
518.83	37.041
519.17	37.588
519.52	37.421
519.86	37.698
520.20	37.487
520.55	38.499
520.89	38.401
521.23	36.907
521.58	37.119
521.92	37.167
522.26	37.400
522.61	38.773
522.95	37.659
523.29	37.816
523.64	36.547
523.98	37.136
524.32	38.797
524.66	37.336
525.01	36.863
525.35	37.163
525.69	38.225
526.04	36.165
526.38	37.701
526.72	37.255
527.06	38.240
527.41	37.551
527.75	36.995
528.09	38.135
528.43	36.945
528.78	36.647
529.12	36.124
529.46	36.931
529.80	36.442
530.15	37.913
530.49	36.773
530.83	37.013
531.17	36.141
531.51	38.267
531.86	37.079
532.20	37.683
532.54	35.787
532.88	36.182
533.22	36.299
533.57	35.545
533.91	36.981
534.25	36.518
534.59	37.069
534.93	36.333
535.27	37.014
535.62	37.749
535.96	36.316
536.30	36.016
536.64	36.456
536.98	36.101
537.32	36.420
537.66	37.305
538.01	34.743
538.35	35.018
538.69	35.517
539.03	36.174
539.37	35.512
539.71	35.375
540.05	36.031
540.39	35.941
540.73	35.580
541.07	35.193
541.42	35.617
541.76	34.638
542.10	35.223
542.44	35.323
542.78	35.645
543.12	34.029
543.46	34.554
543.80	34.472
544.14	33.812
544.48	34.574
544.82	36.206
545.16	36.255
545.50	35.590
545.84	35.089
546.18	35.741
546.52	35.223
546.86	35.346
547.20	35.751
547.54	35.268
547.88	35.262
548.22	33.860
548.56	34.231
548.90	35.343
549.24	35.319
549.58	35.647
549.92	35.395
550.26	35.469
550.60	34.397
550.94	35.511
551.28	34.983
551.62	34.838
551.96	35.146
552.30	34.990
552.64	35.594
552.98	35.434
553.32	35.113
553.66	35.563
554.00	35.435
554.34	34.942
554.68	34.861
555.02	34.494
555.36	35.832
555.69	34.529
556.03	34.678
556.37	35.106
556.71	34.496
557.05	34.696
557.39	35.501
557.73	34.148
558.07	34.503
558.41	34.684
558.75	35.294
559.08	36.256
559.42	35.802
559.76	34.735
560.10	34.561
560.44	35.224
560.78	34.875
561.12	34.544
561.45	34.976
561.79	34.005
562.13	34.997
562.47	33.046
562.81	34.241
563.15	34.470
563.48	34.307
563.82	34.825
564.16	33.798
564.50	33.909
564.84	33.805
565.17	34.118
565.51	33.429
565.85	34.857
566.19	33.813
566.52	33.236
566.86	33.447
567.20	33.442
567.54	33.510
567.88	34.251
568.21	34.190
568.55	33.621
568.89	32.819
569.23	34.305
569.56	32.552
569.90	32.965
570.24	32.513
570.57	32.328
570.91	32.547
571.25	32.629
571.59	32.202
571.92	32.916
572.26	32.319
572.60	32.624
572.93	32.480
573.27	32.256
573.61	32.160
573.95	31.998
574.28	32.142
574.62	31.332
574.96	31.385
575.29	31.791
575.63	32.248
575.97	31.952
576.30	31.582
576.64	31.305
576.98	31.162
577.31	31.603
577.65	32.171
577.98	31.984
578.32	31.348
578.66	31.983
578.99	31.456
579.33	31.814
579.67	31.845
580.00	31.333
580.34	31.719
580.67	30.759
581.01	31.199
581.35	30.996
581.68	30.896
582.02	31.775
582.35	32.226
582.69	32.364
583.02	31.957
583.36	31.896
583.70	31.379
584.03	31.126
584.37	31.572
584.70	30.244
585.04	30.598
585.37	30.822
585.71	31.413
586.04	31.550
586.38	31.801
586.72	31.311
587.05	31.159
587.39	31.538
587.72	31.483
588.06	32.012
588.39	31.914
588.73	31.296
589.06	31.603
589.40	32.084
589.73	31.395
590.07	31.267
590.40	31.778
590.73	32.379
591.07	30.901
591.40	31.532
591.74	31.121
592.07	31.872
592.41	31.822
592.74	31.594
593.08	31.369
593.41	31.904
593.75	32.069
594.08	31.627
594.41	32.083
594.75	31.219
595.08	31.898
595.42	31.591
595.75	31.708
596.09	31.684
596.42	31.315
596.75	31.957
597.09	32.162
597.42	31.029
597.75	30.929
598.09	31.825
598.42	31.604
598.76	31.143
599.09	31.185
599.42	30.976
599.76	31.363
600.09	31.732
600.42	30.864
600.76	31.110
601.09	31.265
601.42	31.205
601.76	31.345
602.09	31.165
602.42	31.625
602.76	31.328
603.09	30.617
603.42	31.467
603.76	31.078
604.09	31.263
604.42	31.706
604.76	31.240
605.09	31.272
605.42	31.220
605.75	31.577
606.09	31.019
606.42	29.916
606.75	30.810
607.09	30.876
607.42	31.137
607.75	31.262
608.08	30.900
608.42	30.109
608.75	30.721
609.08	30.730
609.41	30.701
609.75	31.295
610.08	31.970
610.41	30.246
610.74	31.261
611.07	31.261
611.41	31.256
611.74	31.085
612.07	31.884
612.40	30.656
612.73	30.954
613.07	30.465
613.40	31.809
613.73	30.477
614.06	30.569
614.39	30.466
614.72	30.859
615.06	31.617
615.39	31.078
615.72	30.521
616.05	30.840
616.38	31.231
616.71	31.348
617.05	30.032
617.38	30.551
617.71	31.911
618.04	31.031
618.37	31.093
618.70	31.278
619.03	31.601
619.36	30.333
619.69	30.685
620.03	30.006
620.36	30.245
620.69	30.598
621.02	31.496
621.35	31.567
621.68	32.176
622.01	30.890
622.34	31.032
622.67	32.027
623.00	31.039
623.33	31.453
623.66	31.842
623.99	31.336
624.32	32.229
624.65	30.631
624.99	32.640
625.32	32.724
625.65	31.895
625.98	31.390
626.31	31.254
626.64	31.062
626.97	31.658
627.30	31.739
627.63	31.583
627.96	31.006
628.29	31.440
628.62	31.234
628.95	31.727
629.28	31.606
629.61	31.818
629.94	30.879
630.26	30.000
630.59	31.347
630.92	29.697
631.25	31.395
631.58	32.392
631.91	32.615
632.24	31.892
632.57	32.163
632.90	32.598
633.23	31.429
633.56	32.143
633.89	29.649
634.22	32.225
634.55	32.881
634.88	32.359
635.20	31.432
635.53	32.768
635.86	31.528
636.19	33.086
636.52	29.325
636.85	30.235
637.18	31.913
637.51	30.215
637.83	33.112
638.16	31.797
638.49	30.282
638.82	31.567
639.15	30.241
639.48	30.831
639.81	30.831
640.13	32.627
640.46	30.667
640.79	30.760
641.12	32.174
641.45	30.364
641.77	34.531
642.10	30.840
642.43	31.782
642.76	30.081
643.09	32.055
643.41	31.513
643.74	29.517
644.07	32.276
644.40	30.976
644.73	30.624
645.05	30.690
645.38	30.935
645.71	31.378
646.04	31.420
646.36	28.029
646.69	33.282
647.02	33.333
647.35	30.687
647.67	32.045
648.00	31.369
648.33	30.330
648.66	32.810
648.98	29.524
649.31	31.394
649.64	31.076
649.96	30.239
650.29	28.790
650.62	30.127
650.94	30.180
651.27	29.940
651.60	28.947
651.92	29.483
652.25	32.127
652.58	28.611
652.90	30.523
653.23	31.408
653.56	29.244
653.88	30.899
654.21	30.000
654.54	28.324
654.86	28.187
655.19	27.227
655.52	32.642
655.84	31.975
656.17	35.533
656.49	49.283
656.82	52.507
657.15	40.944
657.47	31.278
657.80	23.257
658.13	17.624
658.45	22.942
658.78	26.255
659.10	24.684
659.43	24.237
659.75	22.619
660.08	21.625
660.41	21.671
660.73	24.401
661.06	25.844
661.38	26.475
661.71	29.828
662.03	26.631
662.36	32.558
662.68	28.705
663.01	29.558
663.33	28.355
663.66	31.502
663.98	30.577
664.31	29.268
664.63	26.397
664.96	28.312
665.28	27.223
665.61	30.769
665.93	29.286
666.26	29.570
666.58	25.461
666.91	30.280
667.23	28.000
667.56	26.233
667.88	30.600
668.21	25.586
668.53	26.834
668.86	28.291
669.18	28.921
669.50	29.225
669.83	29.600
670.15	27.559
670.48	29.365
670.80	27.725
671.13	28.355
671.45	29.331
671.77	29.379
672.10	25.333
672.42	28.479
672.75	27.343
673.07	25.970
673.39	26.040
673.72	29.362
674.04	29.483
674.37	28.265
674.69	28.395
675.01	26.667
675.34	25.763
675.66	25.281
675.98	29.851
676.31	27.930
676.63	26.616
676.95	30.460
677.28	25.806
677.60	23.031
677.92	24.952
678.25	28.154
678.57	28.292
678.89	27.986
679.22	29.094
679.54	27.179
679.86	26.441
680.18	25.373
680.51	26.572
680.83	28.642
681.15	26.897
681.48	26.252
681.80	27.979
682.12	26.748
682.44	25.543
682.77	25.532
683.09	25.758
683.41	26.744
683.73	25.427
684.06	24.539
684.38	25.224
684.70	26.571
685.02	25.473
685.34	22.962
685.67	24.921
685.99	25.920
686.31	25.727
686.63	24.171
686.96	24.606
687.28	25.733
687.60	26.094
687.92	25.402
688.24	28.548
688.56	25.172
688.89	24.864
689.21	26.614
689.53	23.333
689.85	25.641
690.17	23.704
690.49	24.104
690.82	25.347
691.14	25.506
691.46	23.901
691.78	27.993
692.10	24.587
692.42	25.179
692.74	23.775
693.06	23.519
693.39	25.806
693.71	23.872
694.03	24.535
694.35	25.143
694.67	24.641
694.99	25.532
695.31	24.503
695.63	26.840
695.95	23.602
696.27	25.495
696.59	24.115
696.91	23.649
697.23	24.176
697.56	25.051
697.88	24.811
698.20	25.424
698.52	26.705
698.84	26.611
699.16	24.490
699.48	26.569
699.80	24.043
700.12	22.489
700.44	22.811
700.76	24.941
701.08	23.002
701.40	22.539
701.72	24.627
702.04	24.599
702.36	22.513
702.68	22.005
703.00	22.494
703.32	23.892
703.64	22.005
703.96	23.628
704.28	21.867
704.60	24.557
704.91	20.918
705.23	22.466
705.55	16.713
705.87	18.485
706.19	24.847
706.51	19.880
706.83	22.478
707.15	19.312
707.47	22.430
707.79	22.489
708.11	20.127
708.43	21.075
708.74	16.964
709.06	21.578
709.38	22.066
709.70	23.077
710.02	18.605
710.34	18.351
710.66	24.022
710.98	19.945
711.29	18.407
711.61	21.469
711.93	20.228
712.25	22.162
712.57	17.404
712.89	18.529
713.20	16.568
713.52	20.520
713.84	17.549
714.16	18.684
714.48	19.330
714.80	23.636
715.11	18.898
715.43	21.220
715.75	18.684
716.07	19.890
716.39	18.579
716.70	17.771
717.02	21.639
717.34	16.028
717.66	17.785
717.97	19.178
718.29	19.588
718.61	18.092
718.93	14.887
719.24	18.634
719.56	17.791
719.88	18.018
720.20	18.387
720.51	18.012
720.83	18.438
721.15	14.145
721.46	14.726
721.78	17.667
722.10	10.356
722.42	15.772
722.73	15.161
723.05	15.088
723.37	17.708
723.68	17.204
724.00	16.606
724.32	11.620
724.63	16.783
724.95	18.794
725.27	17.770
725.58	14.841
725.90	18.621
726.22	14.734
726.53	17.857
726.85	19.497
727.16	16.918
727.48	15.596
727.80	19.868
728.11	14.134
728.43	16.835
728.74	17.057
729.06	14.570
729.38	17.532
729.69	18.792
730.01	13.988
730.32	18.182
730.64	17.610
730.96	16.460
731.27	18.715
731.59	16.209
731.90	17.403
732.22	15.365
732.53	17.680
732.85	13.714
733.16	15.249
733.48	11.890
733.80	16.435
734.11	13.960
734.43	17.297
734.74	21.266
735.06	17.337
735.37	18.378
735.69	15.946
736.00	18.927
736.32	14.286
736.63	16.111
736.95	16.954
737.26	14.848
737.58	13.939
737.89	17.647
738.21	12.232
738.52	13.443
738.83	13.993
739.15	11.348
739.46	18.027
739.78	17.178
740.09	14.613
740.41	18.076
740.72	18.333
741.04	13.592
741.35	15.789
741.66	12.941
741.98	12.295
742.29	14.226
742.61	9.649
742.92	14.231
743.23	13.357
743.55	13.953
743.86	10.800
744.18	8.678
744.49	10.549
744.80	10.700
745.12	13.924
745.43	15.447
745.74	8.621
746.06	16.102
746.37	11.392
746.68	11.382
747.00	13.333
747.31	11.588
747.62	14.231
747.94	12.955
748.25	13.253
748.56	8.163
748.88	5.983
749.19	12.931
749.50	9.524
749.82	18.072
750.13	17.794
750.44	14.667
750.75	15.385
751.07	17.538
751.38	14.826
751.69	13.738
752.01	11.327
752.32	13.399
752.63	7.483
752.94	12.803
753.26	10.781
753.57	11.481
753.88	12.360
754.19	13.183
754.51	13.505
754.82	14.791
755.13	16.393
755.44	10.922
755.75	13.158
756.07	17.015
756.38	14.780
756.69	19.880
757.00	10.526
757.31	14.481
757.63	14.322
757.94	13.615
758.25	14.898
758.56	16.776
758.87	13.636
759.18	17.867
759.50	16.147
759.81	13.725
760.12	14.286
760.43	14.844
760.74	17.980
761.05	16.000
761.36	12.289
761.67	11.421
761.99	14.324
762.30	11.280
762.61	10.561
762.92	13.433
763.23	16.105
763.54	12.230
763.85	11.340
764.16	12.795
764.47	8.803
764.78	13.099
765.10	14.956
765.41	17.436
765.72	11.905
766.03	13.559
766.34	11.599
766.65	9.408
766.96	13.147
767.27	6.912
767.58	0.000
767.89	9.135
768.20	8.451
768.51	13.889
768.82	10.843
769.13	4.545
769.44	4.615
769.75	12.635
770.06	7.308
770.37	12.205
770.68	4.255
770.99	4.453
771.30	16.667
771.61	11.787
771.92	11.481
772.23	9.717
772.54	4.630
772.85	8.756
773.16	7.143
773.47	6.349
773.78	1.622
774.09	5.114
774.39	10.000
774.70	7.104
775.01	0.610
775.32	-4.706
775.63	-2.454
775.94	-8.280
776.25	0.000
776.56	-1.923
776.87	2.041
777.18	1.379
777.48	-0.699
777.79	-1.351
778.10	-0.735
778.41	-4.861
778.72	-2.069
779.03	-4.321
779.34	7.879
779.65	9.845
779.95	10.556
780.26	2.841
780.57	0.645
780.88	1.449
781.19	-1.935
781.50	10.000
781.80	1.613
782.11	-1.587
782.42	2.020
782.73	-4.790
783.04	3.352
783.34	-1.212
783.65	-5.229
783.96	-5.590
784.27	-5.952
784.57	-1.325
784.88	-2.143
785.19	-12.598
785.50	-7.087
785.81	-3.759
786.11	-13.077
786.42	-13.669
786.73	-10.072
787.04	-4.511
787.34	-4.098
787.65	-12.000
787.96	-10.448
788.26	-8.392
788.57	-6.294
788.88	-3.289
789.19	-1.307
789.49	-6.849
789.80	-2.128
790.11	-8.661
790.41	-3.906
790.72	-11.864
791.03	-30.097
791.33	-13.043
791.64	-7.895
791.95	-17.857
792.25	-20.952
792.56	-16.071
792.87	-20.833
793.17	-18.750
793.48	-25.000
793.79	-37.349
794.09	-24.771
794.40	-16.514
794.70	-3.401
795.01	-10.390
795.32	-4.795
795.62	-7.042
795.93	-15.152
796.23	-9.836
796.54	-20.536
796.85	-24.468
797.15	-29.348
797.46	-31.507
797.76	-28.750
798.07	-18.478
798.37	-29.897
798.68	-48.052
798.99	-26.437
799.29	-20.225
799.60	-25.532
799.90	-26.506
800.21	-56.923
800.51	-46.269
800.82	-42.647
801.12	-56.164
801.43	-45.588
801.73	-59.322
802.04	-36.364
802.34	-60.000
802.65	-57.627
802.95	-43.284
803.26	-40.678
803.56	-31.507
803.87	-22.857
804.17	-28.767
804.48	-78.947
804.78	-50.000
805.09	-67.241
805.39	-44.595
805.70	-50.704
806.00	-30.488
806.30	-37.349
806.61	-43.836
806.91	-20.192
807.22	-24.444
807.52	-37.931
807.83	-25.000
808.13	-30.120
808.43	-26.966
808.74	-28.750
809.04	-63.235
809.35	-40.000
809.65	-41.429
809.95	-41.096
810.26	-64.912
810.56	-55.172
810.86	-38.235
811.17	-57.895
811.47	-55.738
811.77	-77.778
812.08	-59.322
812.38	-48.333
812.69	-41.379
812.99	-58.491
813.29	-112.821
813.59	-72.000
813.90	-49.123
814.20	-61.818
814.50	-36.620
814.81	-30.769
815.11	-59.016
815.41	-46.269
815.72	-51.724
816.02	-53.571
816.32	-80.000
816.62	-95.455
816.93	-86.667
817.23	-72.222
817.53	-89.362
817.84	-54.762
818.14	-102.941
818.44	-65.306
818.74	-80.000
819.04	-128.205
819.35	-134.286
819.65	-169.231
819.95	-58.491
820.25	-71.111
820.56	-90.476
820.86	-118.750
821.16	-97.436
821.46	-104.651
821.76	-84.000
822.07	-73.214
822.37	-86.957
822.67	-70.213
822.97	-127.027
823.27	-80.000
823.57	-53.061
823.88	-48.889
824.18	-92.500
824.48	-136.667
824.78	-172.000
825.08	-118.182
825.38	-68.889
825.69	-82.979
825.99	-83.333
826.29	-131.429
826.59	-107.692
826.89	-102.326
827.19	-72.000
827.49	-126.471
827.79	-62.500
828.09	-83.784
828.39	-126.667
828.70	-104.878
829.00	-81.395
829.30	-160.714
829.60	-85.294
829.90	-76.087
830.20	-128.571
830.50	-155.172
830.80	-188.889
831.10	-192.308
831.40	-117.647
831.70	-195.238
832.00	-90.323
832.30	-305.882
832.60	-179.167
832.90	-392.308
833.20	-221.053
833.50	-215.000
833.80	-273.684
834.10	-252.381
834.40	-102.778
834.70	-112.500
835.00	-145.714
835.30	-67.647
835.60	-136.667
835.90	-116.000
836.20	-227.273
836.50	-152.000
836.80	-169.697
837.10	-170.370
837.40	-170.370
837.70	-287.500
838.00	-142.857
838.30	-200.000
838.60	-134.483
838.90	-321.429
839.19	-234.783
839.49	-516.667
839.79	-247.826
840.09	-293.750
840.39	-240.000
840.69	-129.032
840.99	-171.429
841.29	-300.000
841.59	-242.105
841.88	-84.615
842.18	-173.077
842.48	-490.000
842.78	-270.000
843.08	-150.000
843.38	-112.903
843.68	-261.111
843.97	-100.000
844.27	-275.000
844.57	-236.842
844.87	-480.000
845.17	-300.000
845.47	-152.381
845.76	-200.000
846.06	-466.667
846.36	-288.235
846.66	-153.846
846.96	-300.000
847.25	-288.235
847.55	-182.609
847.85	-215.000
848.15	-258.824
848.44	-372.727
848.74	-176.190
849.04	-183.333
849.34	-287.500
849.63	-134.783
849.93	2350.000
850.23	-300.000
850.53	-134.615
850.82	-400.000
851.12	-163.636
851.42	-372.727
851.71	-307.692
852.01	-245.000
852.31	-323.077
852.61	-194.737
852.90	-341.667
853.20	-261.111
853.50	-511.111
853.79	-233.333
854.09	-204.545
854.39	-458.333
854.68	-103.226
854.98	-153.846
855.28	-277.778
855.57	-150.000
855.87	-168.000
856.17	-204.545
856.46	-159.259
856.76	-227.778
857.05	-191.304
857.35	-191.667
857.65	-369.231
857.94	-214.286
858.24	-129.630
858.53	-182.609
858.83	-235.294
859.13	-311.765
859.42	-247.059
859.72	-300.000
860.01	-240.000
860.31	-566.667
860.60	-400.000
860.90	-260.000
861.20	-283.333
861.49	-253.846
861.79	-120.000
862.08	-384.615
862.38	-115.625
862.67	-264.706
862.97	-287.500
863.26	-511.111
863.56	-430.000
863.85	-454.545
864.15	-283.333
864.44	-1533.333
864.74	-250.000
865.03	-293.750
865.33	-500.000
865.62	-158.065
865.92	-154.545
866.21	-191.304
866.51	-314.286
866.80	-1160.000
867.10	-400.000
867.39	-391.667
867.69	5200.000
867.98	-657.143
868.27	-247.059
868.57	-5800.000
868.86	-510.000
869.16	-223.810
869.45	-175.000
869.75	-381.818
870.04	-642.857
870.33	-333.333
870.63	-814.286
870.92	-1275.000
871.22	-700.000
871.51	-436.364
871.80	-1600.000
872.10	-2300.000
>>>>>End Processed Spectral Data<<<<<
