SpectraSuite Data File
++++++++++++++++++++++++++++++++++++
Date: Thu May 14 14:41:18 PDT 2015
User: schluterlab
Dark Spectrum Present: Yes
Reference Spectrum Present: Yes
Number of Sampled Component Spectra: 1
Spectrometers: USB2E3373
Integration Time (usec): 3000 (USB2E3373)
Spectra Averaged: 3 (USB2E3373)
Boxcar Smoothing: 0 (USB2E3373)
Correct for Electrical Dark: No (USB2E3373)
Strobe/Lamp Enabled: No (USB2E3373)
Correct for Detector Non-linearity: No (USB2E3373)
Correct for Stray Light: No (USB2E3373)
Number of Pixels in Processed Spectrum: 2048
>>>>>Begin Processed Spectral Data<<<<<
178.53	0.000
178.91	-42.857
179.29	700.000
179.67	700.000
180.04	35.714
180.42	10.000
180.80	-0.000
181.18	400.000
181.56	1800.000
181.94	-75.000
182.31	250.000
182.69	-200.000
183.07	300.000
183.45	-75.000
183.83	133.333
184.20	566.667
184.58	-300.000
184.96	200.000
185.34	111.111
185.72	380.000
186.09	11.111
186.47	-550.000
186.85	-120.000
187.23	11.111
187.61	200.000
187.98	-240.000
188.36	-200.000
188.74	275.000
189.12	-166.667
189.49	75.000
189.87	62.500
190.25	66.667
190.63	300.000
191.00	44.444
191.38	0.000
191.76	350.000
192.14	66.667
192.51	-300.000
192.89	266.667
193.27	0.000
193.65	128.571
194.02	500.000
194.40	114.286
194.78	28.571
195.15	0.000
195.53	63.636
195.91	0.000
196.29	175.000
196.66	107.692
197.04	400.000
197.42	0.000
197.79	250.000
198.17	187.500
198.55	0.000
198.92	211.111
199.30	112.500
199.68	154.545
200.05	157.143
200.43	150.000
200.81	42.857
201.18	0.000
201.56	-44.444
201.94	0.000
202.31	-300.000
202.69	33.333
203.07	-1800.000
203.44	144.444
203.82	250.000
204.19	-50.000
204.57	83.333
204.95	75.000
205.32	400.000
205.70	-100.000
206.08	183.333
206.45	266.667
206.83	60.000
207.20	166.667
207.58	60.000
207.96	100.000
208.33	350.000
208.71	-25.000
209.08	100.000
209.46	0.000
209.84	16.667
210.21	-1050.000
210.59	-300.000
210.96	66.667
211.34	225.000
211.71	137.500
212.09	1500.000
212.46	0.000
212.84	-0.000
213.22	40.000
213.59	475.000
213.97	110.000
214.34	266.667
214.72	83.333
215.09	350.000
215.47	0.000
215.84	-14.286
216.22	300.000
216.59	300.000
216.97	280.000
217.34	25.000
217.72	112.500
218.09	375.000
218.47	200.000
218.84	0.000
219.22	-60.000
219.59	70.588
219.97	110.000
220.34	-400.000
220.72	22.222
221.09	107.692
221.47	366.667
221.84	210.000
222.22	185.714
222.59	0.000
222.97	250.000
223.34	120.000
223.72	1100.000
224.09	200.000
224.46	75.000
224.84	320.000
225.21	0.000
225.59	100.000
225.96	300.000
226.34	53.846
226.71	-83.333
227.08	700.000
227.46	66.667
227.83	350.000
228.21	68.421
228.58	-37.500
228.95	100.000
229.33	125.000
229.70	160.000
230.08	84.211
230.45	-60.000
230.82	233.333
231.20	92.857
231.57	183.333
231.95	145.455
232.32	100.000
232.69	110.000
233.07	225.000
233.44	76.471
233.81	140.000
234.19	88.889
234.56	81.818
234.93	75.862
235.31	105.263
235.68	138.889
236.05	90.000
236.43	92.308
236.80	116.000
237.17	74.074
237.55	81.818
237.92	120.000
238.29	83.871
238.67	65.909
239.04	83.333
239.41	66.667
239.79	73.913
240.16	46.296
240.53	60.870
240.91	62.745
241.28	70.492
241.65	71.642
242.02	62.162
242.40	63.077
242.77	50.667
243.14	41.463
243.51	44.737
243.89	61.538
244.26	63.366
244.63	53.922
245.00	55.140
245.38	63.158
245.75	47.788
246.12	53.175
246.49	45.736
246.87	55.000
247.24	45.033
247.61	48.684
247.98	53.020
248.36	52.469
248.73	50.920
249.10	53.552
249.47	53.731
249.84	52.880
250.22	53.886
250.59	51.667
250.96	49.091
251.33	42.347
251.70	46.154
252.08	47.917
252.45	49.590
252.82	45.455
253.19	47.656
253.56	44.867
253.94	50.769
254.31	47.727
254.68	50.000
255.05	47.231
255.42	44.898
255.79	47.573
256.16	48.013
256.54	45.695
256.91	48.525
257.28	49.836
257.65	45.541
258.02	43.363
258.39	48.148
258.76	51.070
259.14	52.299
259.51	46.110
259.88	45.892
260.25	46.667
260.62	49.041
260.99	50.546
261.36	49.598
261.73	46.154
262.10	50.824
262.47	46.381
262.85	50.000
263.22	48.571
263.59	46.842
263.96	49.361
264.33	45.524
264.70	49.383
265.07	47.255
265.44	50.794
265.81	43.287
266.18	45.125
266.55	46.429
266.92	48.519
267.29	48.140
267.66	45.676
268.03	44.978
268.40	46.138
268.77	48.292
269.14	47.577
269.51	48.904
269.88	46.516
270.25	45.272
270.62	47.257
270.99	46.263
271.36	46.337
271.73	45.187
272.10	46.493
272.47	45.090
272.84	44.177
273.21	45.090
273.58	47.782
273.95	44.808
274.32	44.677
274.69	45.648
275.06	47.985
275.43	42.514
275.80	44.092
276.17	43.333
276.54	45.522
276.91	42.039
277.28	44.485
277.65	46.499
278.02	43.750
278.39	46.739
278.76	43.937
279.13	45.390
279.50	43.814
279.87	42.755
280.23	42.077
280.60	45.085
280.97	41.118
281.34	44.143
281.71	42.640
282.08	43.189
282.45	43.699
282.82	42.229
283.19	39.580
283.56	42.951
283.92	42.943
284.29	43.286
284.66	43.186
285.03	41.346
285.40	42.504
285.77	40.557
286.14	42.901
286.51	43.075
286.87	44.550
287.24	42.922
287.61	42.750
287.98	42.145
288.35	41.568
288.72	39.497
289.08	41.581
289.45	39.793
289.82	40.211
290.19	40.661
290.56	39.437
290.93	40.228
291.29	39.807
291.66	40.083
292.03	37.992
292.40	40.408
292.77	37.601
293.13	37.618
293.50	37.582
293.87	37.450
294.24	38.533
294.60	36.662
294.97	36.510
295.34	36.236
295.71	36.192
296.08	34.238
296.44	36.275
296.81	35.201
297.18	35.990
297.55	33.255
297.91	34.994
298.28	33.175
298.65	33.650
299.02	32.822
299.38	34.439
299.75	33.879
300.12	34.144
300.48	35.023
300.85	34.196
301.22	34.116
301.59	33.105
301.95	34.802
302.32	32.889
302.69	33.078
303.05	34.168
303.42	34.701
303.79	33.333
304.15	32.072
304.52	33.721
304.89	32.670
305.25	31.470
305.62	32.288
305.99	34.330
306.35	32.460
306.72	34.953
307.09	32.284
307.45	33.644
307.82	32.896
308.19	32.593
308.55	30.955
308.92	32.619
309.29	31.897
309.65	33.236
310.02	33.564
310.38	32.480
310.75	32.816
311.12	33.557
311.48	33.431
311.85	33.618
312.22	34.535
312.58	34.366
312.95	32.983
313.31	34.598
313.68	34.707
314.05	33.604
314.41	35.246
314.78	35.422
315.14	35.118
315.51	34.995
315.87	34.743
316.24	35.342
316.61	37.922
316.97	35.656
317.34	33.951
317.70	35.895
318.07	34.744
318.43	36.735
318.80	36.288
319.16	36.996
319.53	35.219
319.89	35.846
320.26	37.100
320.62	37.145
320.99	36.842
321.35	35.305
321.72	37.395
322.08	37.241
322.45	38.934
322.81	40.433
323.18	39.735
323.54	39.828
323.91	39.769
324.27	37.435
324.64	39.043
325.00	39.303
325.37	39.312
325.73	39.091
326.10	39.092
326.46	38.925
326.83	39.151
327.19	39.449
327.56	39.842
327.92	38.474
328.29	39.274
328.65	38.777
329.01	39.848
329.38	40.691
329.74	41.096
330.11	42.123
330.47	41.449
330.84	41.171
331.20	40.250
331.56	40.381
331.93	41.674
332.29	42.203
332.66	40.365
333.02	39.615
333.38	40.352
333.75	39.983
334.11	40.867
334.48	39.769
334.84	41.801
335.20	40.638
335.57	41.315
335.93	41.240
336.29	39.601
336.66	40.622
337.02	40.301
337.38	41.241
337.75	41.736
338.11	41.632
338.47	41.026
338.84	40.102
339.20	39.764
339.56	40.280
339.93	40.312
340.29	39.694
340.65	40.146
341.02	40.223
341.38	41.956
341.74	40.678
342.11	40.708
342.47	40.508
342.83	42.110
343.20	42.764
343.56	40.738
343.92	40.913
344.28	40.391
344.65	40.930
345.01	41.186
345.37	40.824
345.73	39.049
346.10	40.328
346.46	40.981
346.82	40.899
347.19	41.176
347.55	39.833
347.91	40.490
348.27	40.592
348.63	40.137
349.00	39.746
349.36	39.926
349.72	39.509
350.08	40.267
350.45	40.989
350.81	39.668
351.17	39.398
351.53	39.879
351.89	41.002
352.26	40.448
352.62	41.343
352.98	40.763
353.34	39.881
353.70	42.219
354.07	41.803
354.43	40.850
354.79	40.389
355.15	39.367
355.51	40.716
355.87	40.165
356.24	41.521
356.60	40.207
356.96	39.437
357.32	39.554
357.68	39.605
358.04	40.569
358.40	40.746
358.77	40.570
359.13	40.842
359.49	40.000
359.85	40.827
360.21	41.248
360.57	39.268
360.93	40.903
361.29	41.544
361.66	41.636
362.02	41.962
362.38	40.618
362.74	42.249
363.10	41.609
363.46	41.413
363.82	40.341
364.18	41.309
364.54	40.595
364.90	41.204
365.26	41.241
365.62	41.133
365.98	40.776
366.35	40.738
366.71	42.245
367.07	42.152
367.43	41.628
367.79	42.004
368.15	42.140
368.51	42.760
368.87	42.848
369.23	40.800
369.59	42.486
369.95	42.326
370.31	42.741
370.67	42.160
371.03	41.482
371.39	41.370
371.75	44.223
372.11	42.276
372.47	42.451
372.83	43.063
373.19	42.095
373.55	43.699
373.91	43.217
374.27	41.138
374.63	44.317
374.99	43.103
375.35	44.481
375.71	43.677
376.07	43.447
376.42	44.144
376.78	44.624
377.14	43.231
377.50	44.213
377.86	43.842
378.22	45.030
378.58	44.946
378.94	44.484
379.30	44.640
379.66	45.561
380.02	45.413
380.38	46.371
380.74	45.859
381.09	45.412
381.45	46.705
381.81	48.185
382.17	47.090
382.53	46.667
382.89	45.316
383.25	47.479
383.61	46.181
383.97	47.114
384.32	48.146
384.68	47.216
385.04	47.889
385.40	47.613
385.76	48.417
386.12	48.055
386.48	49.412
386.83	49.046
387.19	48.552
387.55	48.709
387.91	49.315
388.27	48.903
388.62	49.771
388.98	48.731
389.34	50.383
389.70	49.680
390.06	49.734
390.42	48.916
390.77	50.512
391.13	51.291
391.49	51.812
391.85	50.667
392.20	51.246
392.56	51.742
392.92	50.654
393.28	51.686
393.64	51.564
393.99	51.772
394.35	51.343
394.71	51.677
395.07	51.856
395.42	52.085
395.78	53.504
396.14	52.228
396.50	52.613
396.85	52.892
397.21	52.663
397.57	52.650
397.92	52.806
398.28	52.580
398.64	52.403
399.00	52.042
399.35	52.932
399.71	53.098
400.07	53.509
400.42	54.540
400.78	53.646
401.14	53.956
401.49	53.383
401.85	53.663
402.21	53.071
402.57	53.638
402.92	54.374
403.28	53.747
403.63	53.162
403.99	54.157
404.35	53.610
404.70	54.334
405.06	53.370
405.42	54.098
405.77	53.762
406.13	55.754
406.49	54.955
406.84	53.740
407.20	53.941
407.55	55.300
407.91	55.311
408.27	55.536
408.62	54.683
408.98	53.453
409.34	54.897
409.69	56.551
410.05	55.979
410.40	55.858
410.76	55.300
411.11	56.341
411.47	56.327
411.83	55.791
412.18	56.446
412.54	54.594
412.89	55.239
413.25	56.264
413.60	55.773
413.96	57.576
414.31	56.034
414.67	55.516
415.03	55.815
415.38	57.503
415.74	55.467
416.09	57.557
416.45	55.792
416.80	55.936
417.16	57.982
417.51	57.534
417.87	57.756
418.22	56.766
418.58	56.258
418.93	57.858
419.29	57.337
419.64	57.803
420.00	57.626
420.35	56.822
420.71	56.347
421.06	58.194
421.42	57.913
421.77	57.620
422.12	57.981
422.48	57.348
422.83	59.255
423.19	59.045
423.54	58.407
423.90	59.194
424.25	58.987
424.61	59.185
424.96	59.418
425.31	59.820
425.67	58.561
426.02	60.266
426.38	60.103
426.73	59.152
427.09	60.150
427.44	59.148
427.79	59.149
428.15	60.103
428.50	59.270
428.85	58.840
429.21	60.372
429.56	60.711
429.92	60.344
430.27	59.663
430.62	60.039
430.98	60.698
431.33	59.531
431.68	61.303
432.04	61.859
432.39	60.204
432.74	60.331
433.10	62.683
433.45	60.033
433.80	60.622
434.16	59.866
434.51	62.641
434.86	63.138
435.22	63.124
435.57	63.149
435.92	63.050
436.28	63.140
436.63	63.681
436.98	61.514
437.34	63.021
437.69	62.631
438.04	62.401
438.39	61.804
438.75	62.203
439.10	63.372
439.45	62.437
439.81	62.994
440.16	64.075
440.51	64.548
440.86	63.202
441.22	63.023
441.57	63.784
441.92	63.094
442.27	64.697
442.63	63.388
442.98	63.394
443.33	62.651
443.68	64.866
444.03	64.581
444.39	64.078
444.74	63.757
445.09	63.507
445.44	64.910
445.79	64.224
446.15	64.029
446.50	65.116
446.85	64.105
447.20	64.507
447.55	64.331
447.91	65.026
448.26	64.905
448.61	65.037
448.96	66.094
449.31	64.422
449.66	63.617
450.02	64.979
450.37	63.879
450.72	64.909
451.07	65.205
451.42	64.760
451.77	63.924
452.12	66.479
452.47	65.359
452.83	67.793
453.18	64.974
453.53	64.273
453.88	64.826
454.23	65.706
454.58	65.932
454.93	66.869
455.28	66.285
455.63	65.321
455.98	65.978
456.34	65.960
456.69	65.197
457.04	67.080
457.39	65.798
457.74	66.443
458.09	65.953
458.44	65.571
458.79	65.807
459.14	64.237
459.49	66.667
459.84	65.268
460.19	65.741
460.54	67.121
460.89	65.590
461.24	65.805
461.59	66.353
461.94	64.290
462.29	66.461
462.64	64.575
462.99	66.792
463.34	66.385
463.69	65.064
464.04	67.148
464.39	65.359
464.74	65.336
465.09	65.975
465.44	67.275
465.79	65.680
466.14	65.920
466.49	67.053
466.84	66.777
467.19	65.491
467.54	65.981
467.89	66.552
468.24	65.817
468.59	63.984
468.94	65.967
469.29	65.627
469.64	65.099
469.99	68.260
470.34	67.141
470.68	67.738
471.03	67.518
471.38	67.168
471.73	67.295
472.08	67.132
472.43	66.586
472.78	66.562
473.13	66.561
473.48	67.915
473.83	67.382
474.17	65.182
474.52	68.370
474.87	66.224
475.22	67.324
475.57	65.992
475.92	65.455
476.27	67.146
476.61	66.355
476.96	66.528
477.31	67.426
477.66	68.311
478.01	67.311
478.36	66.550
478.70	68.128
479.05	69.325
479.40	67.769
479.75	67.483
480.10	67.219
480.45	67.411
480.79	66.576
481.14	67.739
481.49	67.787
481.84	66.406
482.19	67.570
482.53	68.999
482.88	67.966
483.23	68.875
483.58	67.729
483.92	66.090
484.27	66.003
484.62	66.997
484.97	67.302
485.31	66.279
485.66	64.488
486.01	63.509
486.36	65.284
486.70	68.031
487.05	70.127
487.40	69.166
487.75	69.466
488.09	69.653
488.44	68.342
488.79	67.960
489.13	67.958
489.48	67.456
489.83	66.076
490.17	65.897
490.52	65.640
490.87	67.640
491.22	68.198
491.56	66.510
491.91	67.553
492.26	67.373
492.60	67.643
492.95	67.179
493.30	66.965
493.64	66.973
493.99	67.895
494.34	66.507
494.68	67.495
495.03	66.652
495.37	68.309
495.72	67.302
496.07	67.528
496.41	66.581
496.76	68.140
497.11	67.558
497.45	67.458
497.80	68.103
498.14	66.712
498.49	68.015
498.84	68.876
499.18	66.757
499.53	67.489
499.87	67.736
500.22	67.320
500.56	66.667
500.91	67.872
501.26	67.818
501.60	66.858
501.95	68.606
502.29	66.915
502.64	68.124
502.98	67.429
503.33	67.171
503.67	67.771
504.02	67.557
504.36	68.409
504.71	69.224
505.06	68.349
505.40	67.916
505.75	67.077
506.09	67.541
506.44	68.663
506.78	69.128
507.13	69.156
507.47	69.351
507.82	67.992
508.16	68.499
508.51	66.948
508.85	69.674
509.19	69.493
509.54	68.636
509.88	68.480
510.23	70.520
510.57	70.082
510.92	69.134
511.26	68.735
511.61	67.310
511.95	69.302
512.30	69.473
512.64	70.265
512.98	68.134
513.33	69.758
513.67	69.199
514.02	70.261
514.36	70.281
514.70	69.635
515.05	69.708
515.39	69.764
515.74	71.103
516.08	69.731
516.42	69.702
516.77	70.294
517.11	69.520
517.46	71.262
517.80	71.245
518.14	71.708
518.49	71.800
518.83	70.463
519.17	68.498
519.52	69.602
519.86	70.380
520.20	71.353
520.55	69.934
520.89	70.495
521.23	70.463
521.58	71.243
521.92	70.595
522.26	70.619
522.61	71.412
522.95	71.569
523.29	70.805
523.64	70.740
523.98	72.961
524.32	71.691
524.66	72.510
525.01	69.819
525.35	71.855
525.69	71.868
526.04	70.666
526.38	72.414
526.72	70.531
527.06	73.079
527.41	70.496
527.75	72.268
528.09	71.133
528.43	71.226
528.78	71.387
529.12	71.617
529.46	72.007
529.80	73.112
530.15	72.348
530.49	73.132
530.83	71.606
531.17	71.744
531.51	72.984
531.86	73.918
532.20	72.927
532.54	72.053
532.88	71.879
533.22	70.772
533.57	70.975
533.91	71.549
534.25	72.414
534.59	73.333
534.93	72.269
535.27	72.282
535.62	71.973
535.96	73.388
536.30	71.445
536.64	71.351
536.98	71.894
537.32	71.481
537.66	73.986
538.01	70.816
538.35	71.924
538.69	70.433
539.03	73.942
539.37	71.790
539.71	72.432
540.05	72.422
540.39	70.905
540.73	71.342
541.07	72.900
541.42	70.880
541.76	72.242
542.10	71.472
542.44	71.864
542.78	72.689
543.12	71.692
543.46	72.589
543.80	71.583
544.14	70.916
544.48	72.754
544.82	72.651
545.16	73.763
545.50	73.577
545.84	73.484
546.18	73.333
546.52	71.847
546.86	71.447
547.20	72.837
547.54	72.597
547.88	72.031
548.22	71.579
548.56	70.860
548.90	72.537
549.24	71.429
549.58	72.303
549.92	72.130
550.26	72.880
550.60	71.729
550.94	72.510
551.28	72.937
551.62	74.259
551.96	71.715
552.30	72.658
552.64	72.060
552.98	72.801
553.32	74.791
553.66	73.826
554.00	72.068
554.34	72.780
554.68	71.853
555.02	73.193
555.36	72.913
555.69	71.685
556.03	72.699
556.37	73.029
556.71	75.079
557.05	72.716
557.39	72.528
557.73	73.184
558.07	73.642
558.41	73.422
558.75	72.481
559.08	75.226
559.42	74.074
559.76	74.423
560.10	71.601
560.44	72.691
560.78	73.875
561.12	72.599
561.45	73.479
561.79	73.993
562.13	72.705
562.47	71.147
562.81	74.557
563.15	73.737
563.48	74.518
563.82	74.426
564.16	72.925
564.50	71.871
564.84	72.507
565.17	73.118
565.51	71.289
565.85	73.575
566.19	71.774
566.52	73.435
566.86	72.949
567.20	72.322
567.54	72.969
567.88	72.426
568.21	72.727
568.55	73.813
568.89	72.401
569.23	72.243
569.56	72.294
569.90	72.773
570.24	71.130
570.57	72.322
570.91	71.004
571.25	71.102
571.59	71.945
571.92	71.189
572.26	71.784
572.60	72.427
572.93	72.279
573.27	72.071
573.61	71.043
573.95	71.377
574.28	71.549
574.62	71.351
574.96	69.541
575.29	70.324
575.63	71.264
575.97	71.497
576.30	70.812
576.64	71.725
576.98	70.934
577.31	70.959
577.65	71.688
577.98	70.670
578.32	70.491
578.66	71.221
578.99	71.534
579.33	72.365
579.67	71.940
580.00	71.229
580.34	71.815
580.67	70.962
581.01	71.614
581.35	70.777
581.68	69.831
582.02	70.358
582.35	71.572
582.69	72.066
583.02	72.454
583.36	72.643
583.70	73.211
584.03	71.850
584.37	72.575
584.70	71.711
585.04	70.704
585.37	71.498
585.71	71.133
586.04	71.246
586.38	72.145
586.72	71.772
587.05	72.064
587.39	72.501
587.72	71.986
588.06	72.582
588.39	72.218
588.73	72.063
589.06	72.630
589.40	73.356
589.73	72.333
590.07	72.812
590.40	72.515
590.73	72.499
591.07	74.348
591.40	72.939
591.74	72.456
592.07	72.716
592.41	70.978
592.74	71.282
593.08	72.834
593.41	71.449
593.75	72.701
594.08	72.493
594.41	72.917
594.75	71.969
595.08	72.847
595.42	72.045
595.75	72.877
596.09	73.534
596.42	72.913
596.75	72.945
597.09	73.899
597.42	74.056
597.75	71.227
598.09	71.508
598.42	72.095
598.76	72.144
599.09	71.449
599.42	71.103
599.76	71.707
600.09	71.138
600.42	71.238
600.76	72.490
601.09	72.519
601.42	72.262
601.76	71.862
602.09	72.516
602.42	72.337
602.76	71.845
603.09	72.137
603.42	73.374
603.76	71.529
604.09	74.344
604.42	72.404
604.76	71.385
605.09	71.719
605.42	72.129
605.75	71.885
606.09	71.146
606.42	71.543
606.75	71.852
607.09	71.006
607.42	71.175
607.75	73.036
608.08	72.021
608.42	69.891
608.75	72.595
609.08	71.520
609.41	72.166
609.75	71.875
610.08	72.603
610.41	71.410
610.74	71.555
611.07	72.869
611.41	72.332
611.74	72.148
612.07	72.931
612.40	73.194
612.73	73.154
613.07	72.665
613.40	74.062
613.73	72.316
614.06	73.307
614.39	72.692
614.72	71.858
615.06	70.500
615.39	71.629
615.72	72.133
616.05	73.094
616.38	73.613
616.71	71.891
617.05	71.725
617.38	72.499
617.71	72.948
618.04	72.585
618.37	72.951
618.70	73.190
619.03	71.983
619.36	74.229
619.69	72.966
620.03	72.442
620.36	72.822
620.69	72.795
621.02	74.475
621.35	77.649
621.68	73.391
622.01	72.313
622.34	72.943
622.67	73.265
623.00	73.009
623.33	73.656
623.66	73.411
623.99	73.206
624.32	73.879
624.65	72.136
624.99	74.252
625.32	74.135
625.65	74.107
625.98	73.627
626.31	73.352
626.64	73.993
626.97	74.344
627.30	74.412
627.63	73.293
627.96	73.799
628.29	73.541
628.62	74.055
628.95	76.862
629.28	73.832
629.61	73.906
629.94	73.054
630.26	73.305
630.59	73.748
630.92	73.853
631.25	73.614
631.58	76.930
631.91	76.195
632.24	76.465
632.57	75.142
632.90	75.928
633.23	75.306
633.56	75.000
633.89	74.690
634.22	75.052
634.55	76.305
634.88	75.325
635.20	76.749
635.53	77.740
635.86	74.865
636.19	74.125
636.52	74.051
636.85	72.932
637.18	73.285
637.51	77.849
637.83	76.190
638.16	77.189
638.49	77.230
638.82	75.874
639.15	76.060
639.48	76.328
639.81	73.903
640.13	75.736
640.46	74.182
640.79	75.245
641.12	76.894
641.45	73.777
641.77	77.920
642.10	76.378
642.43	78.457
642.76	78.184
643.09	75.616
643.41	76.611
643.74	75.448
644.07	73.931
644.40	75.955
644.73	75.036
645.05	76.799
645.38	76.978
645.71	76.393
646.04	75.753
646.36	74.891
646.69	74.693
647.02	77.829
647.35	76.031
647.67	77.295
648.00	76.752
648.33	77.177
648.66	76.890
648.98	74.150
649.31	74.425
649.64	73.971
649.96	75.464
650.29	72.740
650.62	75.389
650.94	74.474
651.27	76.347
651.60	72.515
651.92	75.076
652.25	76.266
652.58	71.527
652.90	75.727
653.23	76.761
653.56	75.892
653.88	76.966
654.21	72.676
654.54	76.156
654.86	76.346
655.19	72.146
655.52	69.673
655.84	64.377
656.17	78.599
656.49	100.042
656.82	100.008
657.15	100.000
657.47	99.779
657.80	61.841
658.13	45.221
658.45	60.728
658.78	73.960
659.10	72.529
659.43	71.963
659.75	71.220
660.08	68.908
660.41	68.569
660.73	70.125
661.06	75.477
661.38	75.120
661.71	76.207
662.03	75.132
662.36	74.776
662.68	78.799
663.01	74.159
663.33	77.505
663.66	74.176
663.98	78.846
664.31	77.298
664.63	76.493
664.96	76.225
665.28	75.681
665.61	73.252
665.93	73.571
666.26	72.401
666.58	74.723
666.91	77.570
667.23	75.429
667.56	77.318
667.88	77.400
668.21	74.414
668.53	73.745
668.86	74.656
669.18	77.393
669.50	74.553
669.83	75.400
670.15	75.197
670.48	79.563
670.80	74.379
671.13	75.047
671.45	75.197
671.77	78.908
672.10	71.167
672.42	72.168
672.75	72.657
673.07	72.388
673.39	73.344
673.72	73.658
674.04	75.517
674.37	75.134
674.69	76.896
675.01	74.667
675.34	76.145
675.66	71.348
675.98	76.493
676.31	77.734
676.63	76.616
676.95	76.054
677.28	76.210
677.60	75.197
677.92	75.432
678.25	72.943
678.57	77.580
678.89	75.256
679.22	71.429
679.54	71.966
679.86	72.881
680.18	71.808
680.51	73.113
680.83	73.977
681.15	75.000
681.48	74.093
681.80	75.993
682.12	72.902
682.44	71.119
682.77	72.872
683.09	75.000
683.41	77.519
683.73	74.573
684.06	73.432
684.38	72.809
684.70	74.686
685.02	71.429
685.34	71.048
685.67	72.397
685.99	71.933
686.31	67.442
686.63	72.828
686.96	73.502
687.28	72.638
687.60	73.906
687.92	70.579
688.24	72.788
688.56	70.000
688.89	73.503
689.21	73.777
689.53	70.588
689.85	74.162
690.17	71.296
690.49	73.307
690.82	73.465
691.14	74.089
691.46	71.319
691.78	74.217
692.10	70.826
692.42	71.607
692.74	69.510
693.06	70.556
693.39	72.296
693.71	72.744
694.03	72.491
694.35	73.143
694.67	73.101
694.99	74.468
695.31	74.614
695.63	73.377
695.95	70.600
696.27	70.549
696.59	73.894
696.91	72.297
697.23	74.066
697.56	72.505
697.88	71.023
698.20	72.128
698.52	74.242
698.84	74.220
699.16	74.082
699.48	70.711
699.80	75.319
700.12	72.489
700.44	72.581
700.76	74.822
701.08	73.608
701.40	76.166
701.72	72.139
702.04	74.866
702.36	73.037
702.68	73.105
703.00	70.905
703.32	71.675
703.64	72.616
703.96	70.644
704.28	70.516
704.60	72.911
704.91	69.388
705.23	75.890
705.55	70.474
705.87	76.667
706.19	78.834
706.51	71.386
706.83	74.640
707.15	73.545
707.47	73.598
707.79	67.686
708.11	68.220
708.43	69.677
708.74	68.750
709.06	70.070
709.38	76.291
709.70	71.712
710.02	72.351
710.34	72.872
710.66	74.302
710.98	72.404
711.29	68.956
711.61	74.294
711.93	74.074
712.25	69.459
712.57	74.336
712.89	72.353
713.20	69.527
713.52	71.965
713.84	67.409
714.16	68.158
714.48	69.330
714.80	77.403
715.11	72.178
715.43	67.639
715.75	73.684
716.07	68.785
716.39	70.492
716.70	66.566
717.02	75.738
717.34	76.307
717.66	73.490
717.97	70.205
718.29	78.007
718.61	66.776
718.93	74.434
719.24	71.739
719.56	69.018
719.88	71.471
720.20	71.935
720.51	71.739
720.83	71.563
721.15	72.697
721.46	68.836
721.78	74.333
722.10	70.874
722.42	68.792
722.73	67.419
723.05	74.737
723.37	75.347
723.68	69.534
724.00	73.285
724.32	71.127
724.63	68.531
724.95	70.213
725.27	66.202
725.58	73.145
725.90	78.276
726.22	69.592
726.53	70.130
726.85	72.013
727.16	69.789
727.48	68.502
727.80	71.854
728.11	67.845
728.43	70.370
728.74	68.896
729.06	67.219
729.38	70.779
729.69	69.463
730.01	68.155
730.32	65.758
730.64	70.755
730.96	68.944
731.27	67.598
731.59	68.407
731.90	63.896
732.22	66.667
732.53	66.851
732.85	65.143
733.16	68.035
733.48	70.427
733.80	66.017
734.11	67.806
734.43	67.297
734.74	70.380
735.06	62.060
735.37	69.459
735.69	68.919
736.00	63.842
736.32	64.960
736.63	63.611
736.95	64.080
737.26	68.788
737.58	69.394
737.89	67.647
738.21	70.031
738.52	66.557
738.83	70.307
739.15	69.858
739.46	69.388
739.78	65.337
740.09	65.616
740.41	64.140
740.72	73.000
741.04	70.227
741.35	69.825
741.66	67.451
741.98	70.492
742.29	70.711
742.61	78.509
742.92	72.692
743.23	65.704
743.55	71.705
743.86	67.600
744.18	64.463
744.49	67.511
744.80	71.193
745.12	72.152
745.43	69.512
745.74	75.862
746.06	72.034
746.37	73.418
746.68	67.073
747.00	72.500
747.31	69.099
747.62	66.538
747.94	71.660
748.25	69.880
748.56	63.673
748.88	69.658
749.19	74.569
749.50	67.965
749.82	70.281
750.13	69.395
750.44	71.333
750.75	66.462
751.07	63.077
751.38	65.615
751.69	62.620
752.01	65.372
752.32	70.261
752.63	70.408
752.94	70.934
753.26	69.517
753.57	61.852
753.88	68.165
754.19	67.203
754.51	64.309
754.82	67.846
755.13	63.607
755.44	65.188
755.75	72.368
756.07	67.463
756.38	66.981
756.69	67.169
757.00	61.496
757.31	60.656
757.63	62.148
757.94	60.563
758.25	62.528
758.56	62.963
758.87	58.636
759.18	60.800
759.50	67.139
759.81	62.745
760.12	62.264
760.43	61.458
760.74	62.808
761.05	61.500
761.36	60.482
761.67	62.944
761.99	63.784
762.30	63.110
762.61	60.396
762.92	64.925
763.23	67.790
763.54	60.432
763.85	63.918
764.16	64.310
764.47	67.254
764.78	67.412
765.10	64.516
765.41	64.615
765.72	61.640
766.03	61.582
766.34	63.323
766.65	60.627
766.96	65.339
767.27	66.820
767.58	69.154
767.89	64.423
768.20	63.850
768.51	59.259
768.82	60.643
769.13	62.121
769.44	63.846
769.75	62.816
770.06	63.846
770.37	63.780
770.68	68.511
770.99	58.300
771.30	71.111
771.61	63.878
771.92	60.000
772.23	61.538
772.54	68.519
772.85	73.272
773.16	63.810
773.47	67.725
773.78	63.784
774.09	69.886
774.39	64.500
774.70	62.295
775.01	65.244
775.32	60.588
775.63	64.417
775.94	63.057
776.25	61.290
776.56	71.795
776.87	70.748
777.18	62.759
777.48	69.930
777.79	58.108
778.10	59.559
778.41	70.833
778.72	58.621
779.03	61.111
779.34	70.303
779.65	56.995
779.95	69.444
780.26	57.955
780.57	64.516
780.88	72.464
781.19	70.968
781.50	75.294
781.80	62.366
782.11	63.492
782.42	57.071
782.73	59.880
783.04	63.687
783.34	53.333
783.65	63.399
783.96	65.217
784.27	64.881
784.57	64.238
784.88	63.571
785.19	71.654
785.50	74.016
785.81	66.917
786.11	73.077
786.42	67.626
786.73	61.871
787.04	66.165
787.34	64.754
787.65	68.800
787.96	73.134
788.26	72.727
788.57	66.434
788.88	59.211
789.19	62.092
789.49	70.548
789.80	65.957
790.11	66.929
790.41	62.500
790.72	65.254
791.03	60.194
791.33	62.609
791.64	68.421
791.95	52.679
792.25	56.190
792.56	59.821
792.87	64.583
793.17	59.821
793.48	57.292
793.79	67.470
794.09	57.798
794.40	64.220
794.70	61.905
795.01	59.091
795.32	53.425
795.62	54.225
795.93	53.030
796.23	63.934
796.54	67.857
796.85	56.383
797.15	54.348
797.46	67.123
797.76	68.750
798.07	69.565
798.37	61.856
798.68	67.532
798.99	60.920
799.29	64.045
799.60	60.638
799.90	68.675
800.21	76.923
800.51	65.672
800.82	66.176
801.12	58.904
801.43	55.882
801.73	77.966
802.04	59.091
802.34	66.667
802.65	71.186
802.95	70.149
803.26	59.322
803.56	71.233
803.87	67.143
804.17	60.274
804.48	64.912
804.78	73.611
805.09	51.724
805.39	56.757
805.70	56.338
806.00	60.976
806.30	66.265
806.61	68.493
806.91	61.538
807.22	58.889
807.52	52.874
807.83	77.778
808.13	68.675
808.43	62.921
808.74	67.500
809.04	67.647
809.35	54.667
809.65	62.857
809.95	56.164
810.26	71.930
810.56	62.069
810.86	70.588
811.17	49.123
811.47	57.377
811.77	60.000
812.08	62.712
812.38	63.333
812.69	68.966
812.99	60.377
813.29	87.179
813.59	56.000
813.90	66.667
814.20	74.545
814.50	61.972
814.81	69.231
815.11	49.180
815.41	56.716
815.72	53.448
816.02	67.857
816.32	93.333
816.62	86.364
816.93	86.667
817.23	81.481
817.53	97.872
817.84	69.048
818.14	88.235
818.44	67.347
818.74	88.889
819.04	64.103
819.35	94.286
819.65	80.769
819.95	52.830
820.25	66.667
820.56	69.048
820.86	75.000
821.16	71.795
821.46	67.442
821.76	48.000
822.07	62.500
822.37	52.174
822.67	72.340
822.97	56.757
823.27	57.500
823.57	65.306
823.88	82.222
824.18	75.000
824.48	90.000
824.78	84.000
825.08	57.576
825.38	84.444
825.69	63.830
825.99	61.111
826.29	54.286
826.59	82.051
826.89	72.093
827.19	50.000
827.49	82.353
827.79	66.667
828.09	83.784
828.39	73.333
828.70	75.610
829.00	67.442
829.30	71.429
829.60	88.235
829.90	69.565
830.20	74.286
830.50	82.759
830.80	122.222
831.10	61.538
831.40	88.235
831.70	66.667
832.00	83.871
832.30	11.765
832.60	100.000
832.90	115.385
833.20	147.368
833.50	70.000
833.80	110.526
834.10	23.810
834.40	69.444
834.70	96.875
835.00	65.714
835.30	67.647
835.60	70.000
835.90	108.000
836.20	31.818
836.50	84.000
836.80	51.515
837.10	70.370
837.40	48.148
837.70	68.750
838.00	82.143
838.30	78.261
838.60	96.552
838.90	185.714
839.19	13.043
839.49	125.000
839.79	108.696
840.09	18.750
840.39	25.000
840.69	77.419
840.99	78.571
841.29	146.667
841.59	94.737
841.88	58.974
842.18	107.692
842.48	120.000
842.78	80.000
843.08	70.000
843.38	93.548
843.68	55.556
843.97	64.706
844.27	100.000
844.57	78.947
844.87	140.000
845.17	113.333
845.47	119.048
845.76	47.619
846.06	211.111
846.36	111.765
846.66	15.385
846.96	73.333
847.25	94.118
847.55	91.304
847.85	85.000
848.15	76.471
848.44	0.000
848.74	71.429
849.04	66.667
849.34	56.250
849.63	56.522
849.93	-600.000
850.23	126.667
850.53	84.615
850.82	236.364
851.12	100.000
851.42	154.545
851.71	192.308
852.01	-15.000
852.31	115.385
852.61	73.684
852.90	150.000
853.20	38.889
853.50	88.889
853.79	28.571
854.09	45.455
854.39	58.333
854.68	87.097
854.98	69.231
855.28	77.778
855.57	46.429
855.87	80.000
856.17	63.636
856.46	51.852
856.76	122.222
857.05	34.783
857.35	79.167
857.65	115.385
857.94	61.905
858.24	70.370
858.53	108.696
858.83	117.647
859.13	141.176
859.42	82.353
859.72	142.857
860.01	25.000
860.31	100.000
860.60	190.000
860.90	100.000
861.20	122.222
861.49	123.077
861.79	60.000
862.08	84.615
862.38	62.500
862.67	105.882
862.97	137.500
863.26	44.444
863.56	270.000
863.85	45.455
864.15	77.778
864.44	100.000
864.74	142.857
865.03	25.000
865.33	150.000
865.62	35.484
865.92	95.455
866.21	60.870
866.51	57.143
866.80	240.000
867.10	58.333
867.39	-25.000
867.69	300.000
867.98	200.000
868.27	117.647
868.57	-700.000
868.86	60.000
869.16	52.381
869.45	50.000
869.75	136.364
870.04	157.143
870.33	125.000
870.63	-142.857
870.92	275.000
871.22	25.000
871.51	45.455
871.80	300.000
872.10	300.000
>>>>>End Processed Spectral Data<<<<<
