SpectraSuite Data File
++++++++++++++++++++++++++++++++++++
Date: Thu May 14 14:56:29 PDT 2015
User: schluterlab
Dark Spectrum Present: Yes
Reference Spectrum Present: Yes
Number of Sampled Component Spectra: 1
Spectrometers: USB2E3373
Integration Time (usec): 3000 (USB2E3373)
Spectra Averaged: 3 (USB2E3373)
Boxcar Smoothing: 0 (USB2E3373)
Correct for Electrical Dark: No (USB2E3373)
Strobe/Lamp Enabled: No (USB2E3373)
Correct for Detector Non-linearity: No (USB2E3373)
Correct for Stray Light: No (USB2E3373)
Number of Pixels in Processed Spectrum: 2048
>>>>>Begin Processed Spectral Data<<<<<
178.53	0.000
178.91	242.857
179.29	-2800.000
179.67	-2400.000
180.04	235.714
180.42	150.000
180.80	440.000
181.18	-2300.000
181.56	-1100.000
181.94	325.000
182.31	-475.000
182.69	533.333
183.07	-1200.000
183.45	550.000
183.83	-216.667
184.20	-566.667
184.58	1700.000
184.96	-400.000
185.34	-144.444
185.72	-280.000
186.09	388.889
186.47	1300.000
186.85	520.000
187.23	-322.222
187.61	-2400.000
187.98	620.000
188.36	750.000
188.74	-525.000
189.12	-566.667
189.49	-100.000
189.87	-212.500
190.25	-244.444
190.63	-400.000
191.00	-300.000
191.38	0.000
191.76	-575.000
192.14	-416.667
192.51	1250.000
192.89	-233.333
193.27	0.000
193.65	-242.857
194.02	-2000.000
194.40	-200.000
194.78	128.571
195.15	0.000
195.53	-227.273
195.91	0.000
196.29	-175.000
196.66	-130.769
197.04	-2100.000
197.42	-300.000
197.79	-1450.000
198.17	-312.500
198.55	-271.429
198.92	-166.667
199.30	-325.000
199.68	-118.182
200.05	-114.286
200.43	-850.000
200.81	171.429
201.18	0.000
201.56	266.667
201.94	0.000
202.31	666.667
202.69	-188.889
203.07	1600.000
203.44	-200.000
203.82	-525.000
204.19	-91.667
204.57	-383.333
204.95	-262.500
205.32	-2000.000
205.70	375.000
206.08	-350.000
206.45	-266.667
206.83	580.000
207.20	-333.333
207.58	-380.000
207.96	-300.000
208.33	-100.000
208.71	225.000
209.08	-216.667
209.46	0.000
209.84	316.667
210.21	750.000
210.59	850.000
210.96	666.667
211.34	-350.000
211.71	-287.500
212.09	-2400.000
212.46	0.000
212.84	1250.000
213.22	-580.000
213.59	-350.000
213.97	-110.000
214.34	-700.000
214.72	366.667
215.09	-475.000
215.47	0.000
215.84	271.429
216.22	1500.000
216.59	-220.000
216.97	-360.000
217.34	-425.000
217.72	-37.500
218.09	-500.000
218.47	-600.000
218.84	0.000
219.22	340.000
219.59	-100.000
219.97	30.000
220.34	350.000
220.72	-211.111
221.09	-92.308
221.47	-266.667
221.84	-200.000
222.22	-357.143
222.59	0.000
222.97	-150.000
223.34	-500.000
223.72	-2300.000
224.09	-500.000
224.46	-350.000
224.84	-200.000
225.21	-314.286
225.59	-600.000
225.96	-450.000
226.34	-30.769
226.71	566.667
227.08	-850.000
227.46	-20.000
227.83	-400.000
228.21	-47.368
228.58	262.500
228.95	650.000
229.33	-125.000
229.70	-200.000
230.08	21.053
230.45	220.000
230.82	-433.333
231.20	-185.714
231.57	-33.333
231.95	-218.182
232.32	-145.455
232.69	-70.000
233.07	-375.000
233.44	-88.235
233.81	-100.000
234.19	-11.111
234.56	-54.545
234.93	-10.345
235.31	-36.842
235.68	-77.778
236.05	-90.000
236.43	-7.692
236.80	-16.000
237.17	-7.407
237.55	-33.333
237.92	-130.000
238.29	-29.032
238.67	-18.182
239.04	-11.111
239.41	-7.143
239.79	2.174
240.16	-1.852
240.53	-21.739
240.91	-9.804
241.28	1.639
241.65	17.910
242.02	17.568
242.40	9.231
242.77	8.000
243.14	4.878
243.51	6.579
243.89	12.821
244.26	22.772
244.63	5.882
245.00	13.084
245.38	20.175
245.75	12.389
246.12	21.429
246.49	20.930
246.87	25.714
247.24	23.841
247.61	24.342
247.98	24.161
248.36	23.457
248.73	18.405
249.10	23.497
249.47	23.881
249.84	29.843
250.22	25.907
250.59	33.333
250.96	23.636
251.33	22.449
251.70	26.068
252.08	28.333
252.45	26.639
252.82	27.273
253.19	23.047
253.56	33.080
253.94	27.692
254.31	27.273
254.68	29.371
255.05	27.036
255.42	25.510
255.79	26.214
256.16	29.139
256.54	30.795
256.91	29.508
257.28	26.885
257.65	26.115
258.02	25.664
258.39	27.066
258.76	33.333
259.14	30.460
259.51	30.259
259.88	28.045
260.25	27.778
260.62	29.589
260.99	27.869
261.36	30.295
261.73	30.504
262.10	31.044
262.47	27.614
262.85	31.313
263.22	28.571
263.59	29.211
263.96	27.877
264.33	29.668
264.70	30.864
265.07	30.072
265.44	31.973
265.81	32.176
266.18	31.973
266.55	31.250
266.92	27.335
267.29	33.260
267.66	30.155
268.03	30.349
268.40	28.601
268.77	29.841
269.14	28.634
269.51	30.921
269.88	30.533
270.25	30.785
270.62	32.278
270.99	34.141
271.36	30.891
271.73	29.273
272.10	32.665
272.47	30.060
272.84	31.325
273.21	28.858
273.58	29.637
273.95	28.077
274.32	27.376
274.69	31.721
275.06	28.388
275.43	28.281
275.80	30.159
276.17	28.519
276.54	29.664
276.91	29.875
277.28	29.476
277.65	27.828
278.02	32.721
278.39	28.986
278.76	29.701
279.13	29.433
279.50	28.866
279.87	28.801
280.23	25.176
280.60	31.017
280.97	28.947
281.34	29.372
281.71	28.426
282.08	29.568
282.45	28.969
282.82	27.473
283.19	29.241
283.56	28.197
283.92	30.030
284.29	29.700
284.66	28.079
285.03	28.205
285.40	27.048
285.77	27.709
286.14	29.924
286.51	28.006
286.87	28.436
287.24	27.711
287.61	28.700
287.98	25.831
288.35	27.811
288.72	27.811
289.08	28.404
289.45	25.000
289.82	25.000
290.19	27.299
290.56	27.746
290.93	25.963
291.29	26.584
291.66	26.309
292.03	23.202
292.40	27.075
292.77	24.124
293.13	24.222
293.50	23.127
293.87	24.966
294.24	24.800
294.60	23.515
294.97	21.745
295.34	25.608
295.71	22.825
296.08	22.351
296.44	22.672
296.81	23.508
297.18	24.159
297.55	21.698
297.91	23.013
298.28	22.867
298.65	21.046
299.02	21.606
299.38	22.540
299.75	23.014
300.12	22.801
300.48	22.350
300.85	21.372
301.22	22.148
301.59	22.032
301.95	22.034
302.32	23.333
302.69	22.015
303.05	21.436
303.42	21.508
303.79	22.188
304.15	22.608
304.52	21.564
304.89	20.105
305.25	22.464
305.62	21.421
305.99	20.825
306.35	20.665
306.72	20.476
307.09	20.203
307.45	22.050
307.82	20.585
308.19	20.888
308.55	21.697
308.92	20.545
309.29	20.785
309.65	20.955
310.02	19.703
310.38	19.783
310.75	21.553
311.12	21.668
311.48	20.137
311.85	21.178
312.22	21.252
312.58	21.033
312.95	21.128
313.31	21.048
313.68	21.337
314.05	22.493
314.41	21.038
314.78	20.981
315.14	20.508
315.51	22.345
315.87	22.502
316.24	21.187
316.61	21.403
316.97	20.724
317.34	21.517
317.70	21.310
318.07	21.164
318.43	21.173
318.80	21.739
319.16	21.803
319.53	20.994
319.89	22.086
320.26	22.687
320.62	20.301
320.99	21.699
321.35	22.366
321.72	22.977
322.08	22.092
322.45	22.042
322.81	21.661
323.18	21.593
323.54	21.293
323.91	22.776
324.27	22.892
324.64	24.013
325.00	22.637
325.37	23.423
325.73	22.397
326.10	23.195
326.46	24.104
326.83	24.259
327.19	24.094
327.56	23.715
327.92	21.951
328.29	23.468
328.65	22.529
329.01	23.012
329.38	23.252
329.74	22.774
330.11	24.058
330.47	22.662
330.84	23.600
331.20	24.500
331.56	24.437
331.93	23.682
332.29	24.322
332.66	24.419
333.02	23.199
333.38	24.832
333.75	24.074
334.11	24.771
334.48	23.185
334.84	23.789
335.20	23.929
335.57	23.693
335.93	24.711
336.29	23.461
336.66	23.129
337.02	24.164
337.38	22.704
337.75	24.711
338.11	24.138
338.47	24.318
338.84	23.012
339.20	23.336
339.56	21.993
339.93	23.645
340.29	23.269
340.65	23.195
341.02	24.661
341.38	24.333
341.74	23.487
342.11	23.813
342.47	23.272
342.83	24.396
343.20	23.385
343.56	23.897
343.92	24.099
344.28	22.500
344.65	23.953
345.01	22.855
345.37	24.495
345.73	23.539
346.10	23.479
346.46	24.288
346.82	24.270
347.19	23.147
347.55	23.900
347.91	23.477
348.27	24.127
348.63	23.610
349.00	23.266
349.36	23.866
349.72	23.512
350.08	23.328
350.45	23.878
350.81	22.700
351.17	23.684
351.53	23.806
351.89	24.450
352.26	23.209
352.62	23.731
352.98	23.740
353.34	23.674
353.70	23.729
354.07	23.100
354.43	22.779
354.79	22.663
355.15	22.884
355.51	23.538
355.87	23.111
356.24	25.551
356.60	22.912
356.96	23.054
357.32	23.494
357.68	22.767
358.04	22.305
358.40	22.463
358.77	22.953
359.13	22.304
359.49	23.048
359.85	23.713
360.21	24.175
360.57	23.259
360.93	23.554
361.29	23.579
361.66	24.185
362.02	24.356
362.38	22.839
362.74	23.883
363.10	24.278
363.46	22.992
363.82	22.727
364.18	24.279
364.54	23.859
364.90	22.943
365.26	24.414
365.62	24.733
365.98	23.553
366.35	23.826
366.71	23.946
367.07	25.304
367.43	24.688
367.79	24.751
368.15	24.749
368.51	23.884
368.87	23.906
369.23	23.933
369.59	24.727
369.95	24.544
370.31	25.456
370.67	24.140
371.03	24.446
371.39	24.513
371.75	24.966
372.11	24.458
372.47	24.577
372.83	25.196
373.19	24.550
373.55	25.678
373.91	23.177
374.27	25.032
374.63	26.116
374.99	25.066
375.35	25.779
375.71	25.290
376.07	25.694
376.42	25.000
376.78	25.420
377.14	25.639
377.50	26.123
377.86	26.232
378.22	26.407
378.58	26.694
378.94	26.937
379.30	26.128
379.66	25.691
380.02	26.890
380.38	26.440
380.74	27.324
381.09	26.132
381.45	26.591
381.81	26.756
382.17	27.257
382.53	27.427
382.89	26.129
383.25	28.019
383.61	27.025
383.97	26.914
384.32	27.452
384.68	26.740
385.04	27.473
385.40	28.580
385.76	28.312
386.12	28.127
386.48	28.118
386.83	28.784
387.19	27.462
387.55	27.758
387.91	28.139
388.27	28.176
388.62	27.663
388.98	28.314
389.34	28.992
389.70	28.704
390.06	29.011
390.42	28.554
390.77	29.380
391.13	28.697
391.49	28.986
391.85	29.758
392.20	30.308
392.56	30.006
392.92	28.899
393.28	29.574
393.64	29.385
393.99	30.970
394.35	30.607
394.71	30.240
395.07	29.042
395.42	29.640
395.78	30.347
396.14	30.897
396.50	29.394
396.85	29.398
397.21	29.231
397.57	29.623
397.92	30.699
398.28	30.147
398.64	30.092
399.00	29.058
399.35	30.366
399.71	30.217
400.07	29.590
400.42	30.151
400.78	30.440
401.14	30.222
401.49	30.301
401.85	31.686
402.21	30.939
402.57	30.458
402.92	31.147
403.28	30.269
403.63	30.310
403.99	30.463
404.35	30.813
404.70	30.198
405.06	29.837
405.42	30.679
405.77	30.916
406.13	30.200
406.49	30.968
406.84	30.471
407.20	31.470
407.55	30.285
407.91	30.610
408.27	31.331
408.62	31.588
408.98	31.050
409.34	30.792
409.69	30.902
410.05	30.481
410.40	30.858
410.76	31.071
411.11	30.918
411.47	30.835
411.83	30.864
412.18	31.988
412.54	30.883
412.89	30.384
413.25	30.926
413.60	31.706
413.96	31.294
414.31	30.312
414.67	31.067
415.03	30.277
415.38	31.967
415.74	29.444
416.09	31.092
416.45	30.369
416.80	29.988
417.16	32.567
417.51	31.943
417.87	30.533
418.22	30.958
418.58	30.979
418.93	31.898
419.29	31.073
419.64	30.912
420.00	31.098
420.35	32.117
420.71	30.385
421.06	31.627
421.42	31.307
421.77	30.910
422.12	31.395
422.48	31.695
422.83	32.311
423.19	31.618
423.54	32.080
423.90	31.088
424.25	32.533
424.61	30.597
424.96	32.180
425.31	32.272
425.67	31.830
426.02	32.208
426.38	32.606
426.73	32.254
427.09	32.526
427.44	32.059
427.79	31.786
428.15	32.021
428.50	32.697
428.85	31.803
429.21	33.404
429.56	32.231
429.92	32.236
430.27	32.675
430.62	31.607
430.98	32.415
431.33	31.769
431.68	31.753
432.04	32.707
432.39	31.869
432.74	31.107
433.10	32.125
433.45	31.884
433.80	32.189
434.16	32.645
434.51	32.734
434.86	32.899
435.22	32.731
435.57	32.429
435.92	32.721
436.28	32.025
436.63	32.933
436.98	32.099
437.34	33.258
437.69	32.746
438.04	32.575
438.39	32.797
438.75	31.821
439.10	32.875
439.45	32.756
439.81	32.260
440.16	32.225
440.51	32.832
440.86	31.795
441.22	32.476
441.57	32.442
441.92	32.396
442.27	33.788
442.63	32.688
442.98	32.337
443.33	32.720
443.68	33.548
444.03	33.678
444.39	33.703
444.74	32.772
445.09	31.931
445.44	32.771
445.79	33.094
446.15	32.939
446.50	32.713
446.85	32.733
447.20	32.689
447.55	32.584
447.91	32.984
448.26	32.558
448.61	32.465
448.96	33.047
449.31	32.450
449.66	32.298
450.02	32.489
450.37	33.191
450.72	32.293
451.07	33.030
451.42	31.831
451.77	32.129
452.12	32.506
452.47	32.561
452.83	32.939
453.18	32.983
453.53	32.223
453.88	32.523
454.23	33.390
454.58	33.546
454.93	32.464
455.28	33.293
455.63	33.371
455.98	33.073
456.34	33.451
456.69	32.922
457.04	32.151
457.39	33.426
457.74	32.327
458.09	33.059
458.44	32.866
458.79	32.800
459.14	32.354
459.49	32.711
459.84	33.841
460.19	33.037
460.54	33.049
460.89	33.933
461.24	32.701
461.59	33.204
461.94	32.459
462.29	32.027
462.64	32.227
462.99	31.890
463.34	32.511
463.69	31.243
464.04	33.630
464.39	32.567
464.74	31.984
465.09	32.411
465.44	32.028
465.79	33.051
466.14	32.465
466.49	32.316
466.84	32.837
467.19	32.486
467.54	31.962
467.89	32.471
468.24	32.022
468.59	31.847
468.94	31.935
469.29	32.274
469.64	31.024
469.99	32.250
470.34	31.188
470.68	32.536
471.03	31.958
471.38	31.916
471.73	31.795
472.08	32.043
472.43	31.668
472.78	32.809
473.13	32.238
473.48	32.447
473.83	34.010
474.17	32.708
474.52	32.291
474.87	32.614
475.22	32.394
475.57	32.139
475.92	32.952
476.27	32.481
476.61	32.139
476.96	31.387
477.31	31.832
477.66	33.211
478.01	32.537
478.36	32.253
478.70	32.709
479.05	33.078
479.40	32.478
479.75	31.748
480.10	32.923
480.45	32.270
480.79	32.245
481.14	32.399
481.49	32.576
481.84	32.463
482.19	32.129
482.53	33.013
482.88	32.610
483.23	32.237
483.58	31.747
483.92	31.738
484.27	32.134
484.62	32.550
484.97	32.154
485.31	31.116
485.66	30.732
486.01	31.837
486.36	33.338
486.70	35.260
487.05	35.460
487.40	33.666
487.75	32.545
488.09	32.263
488.44	31.319
488.79	31.467
489.13	30.992
489.48	30.252
489.83	31.107
490.17	31.592
490.52	31.240
490.87	31.768
491.22	31.629
491.56	32.210
491.91	31.967
492.26	31.458
492.60	31.001
492.95	31.461
493.30	30.524
493.64	31.318
493.99	31.886
494.34	30.836
494.68	30.964
495.03	31.410
495.37	31.158
495.72	30.975
496.07	30.719
496.41	31.103
496.76	30.484
497.11	31.890
497.45	31.463
497.80	31.719
498.14	30.567
498.49	31.112
498.84	31.307
499.18	31.219
499.53	31.570
499.87	31.560
500.22	30.810
500.56	31.399
500.91	31.121
501.26	32.455
501.60	30.932
501.95	31.003
502.29	31.417
502.64	31.613
502.98	32.053
503.33	30.583
503.67	31.662
504.02	31.042
504.36	31.725
504.71	31.144
505.06	30.605
505.40	30.759
505.75	31.603
506.09	31.400
506.44	31.616
506.78	31.881
507.13	31.351
507.47	31.407
507.82	31.676
508.16	31.310
508.51	31.505
508.85	31.176
509.19	30.981
509.54	31.220
509.88	30.306
510.23	31.569
510.57	32.238
510.92	31.205
511.26	31.506
511.61	30.420
511.95	31.381
512.30	31.512
512.64	30.985
512.98	31.016
513.33	32.107
513.67	31.362
514.02	31.375
514.36	31.560
514.70	30.937
515.05	31.439
515.39	32.126
515.74	31.124
516.08	31.167
516.42	31.606
516.77	31.546
517.11	31.202
517.46	31.495
517.80	31.855
518.14	31.774
518.49	31.833
518.83	31.506
519.17	30.910
519.52	30.503
519.86	31.521
520.20	31.150
520.55	30.997
520.89	30.856
521.23	31.323
521.58	31.017
521.92	31.501
522.26	30.298
522.61	31.655
522.95	31.603
523.29	32.069
523.64	31.334
523.98	31.489
524.32	32.607
524.66	31.531
525.01	30.804
525.35	31.304
525.69	30.916
526.04	31.171
526.38	31.092
526.72	30.565
527.06	31.085
527.41	31.837
527.75	31.829
528.09	31.405
528.43	30.018
528.78	31.156
529.12	31.709
529.46	31.422
529.80	31.007
530.15	31.768
530.49	31.376
530.83	31.110
531.17	31.123
531.51	30.927
531.86	31.250
532.20	31.585
532.54	30.700
532.88	30.727
533.22	30.466
533.57	31.160
533.91	31.033
534.25	32.165
534.59	31.954
534.93	30.447
535.27	30.873
535.62	31.779
535.96	30.912
536.30	31.727
536.64	31.892
536.98	31.427
537.32	30.123
537.66	31.628
538.01	30.514
538.35	29.963
538.69	31.070
539.03	31.392
539.37	31.037
539.71	30.390
540.05	31.295
540.39	31.174
540.73	30.844
541.07	30.166
541.42	30.242
541.76	30.961
542.10	30.820
542.44	30.694
542.78	30.231
543.12	30.155
543.46	29.853
543.80	29.796
544.14	31.418
544.48	29.610
544.82	31.239
545.16	30.292
545.50	30.677
545.84	30.435
546.18	31.358
546.52	30.446
546.86	30.000
547.20	29.707
547.54	29.588
547.88	29.355
548.22	30.175
548.56	30.837
548.90	29.910
549.24	31.003
549.58	29.716
549.92	28.635
550.26	29.385
550.60	29.355
550.94	29.301
551.28	29.637
551.62	30.121
551.96	28.932
552.30	30.593
552.64	30.180
552.98	31.004
553.32	30.932
553.66	29.968
554.00	30.328
554.34	29.858
554.68	28.728
555.02	30.223
555.36	29.586
555.69	28.571
556.03	29.823
556.37	29.662
556.71	30.564
557.05	29.712
557.39	28.666
557.73	28.864
558.07	29.139
558.41	28.704
558.75	28.736
559.08	29.784
559.42	29.150
559.76	28.494
560.10	29.337
560.44	29.683
560.78	30.375
561.12	29.557
561.45	28.954
561.79	29.731
562.13	30.437
562.47	28.607
562.81	29.051
563.15	29.482
563.48	29.273
563.82	29.746
564.16	28.770
564.50	29.440
564.84	28.909
565.17	30.294
565.51	28.078
565.85	28.563
566.19	28.859
566.52	30.661
566.86	30.221
567.20	28.766
567.54	30.165
567.88	30.275
568.21	30.089
568.55	30.408
568.89	30.549
569.23	30.714
569.56	29.934
569.90	30.043
570.24	30.826
570.57	31.110
570.91	30.527
571.25	30.489
571.59	30.893
571.92	30.597
572.26	30.334
572.60	30.057
572.93	29.947
573.27	30.233
573.61	30.148
573.95	30.007
574.28	30.133
574.62	30.650
574.96	30.040
575.29	30.139
575.63	29.684
575.97	30.180
576.30	29.558
576.64	29.683
576.98	29.932
577.31	30.377
577.65	30.437
577.98	30.459
578.32	30.502
578.66	30.305
578.99	29.920
579.33	30.191
579.67	29.782
580.00	29.782
580.34	29.494
580.67	29.545
581.01	29.273
581.35	30.080
581.68	30.293
582.02	30.847
582.35	31.569
582.69	30.859
583.02	30.667
583.36	29.903
583.70	29.175
584.03	29.086
584.37	29.129
584.70	28.851
585.04	28.924
585.37	29.850
585.71	29.558
586.04	29.833
586.38	29.782
586.72	29.481
587.05	29.240
587.39	29.943
587.72	30.048
588.06	29.570
588.39	29.176
588.73	28.810
589.06	29.430
589.40	29.779
589.73	28.792
590.07	29.078
590.40	29.310
590.73	29.162
591.07	29.337
591.40	28.266
591.74	28.299
592.07	28.867
592.41	28.628
592.74	29.606
593.08	29.140
593.41	29.863
593.75	29.540
594.08	29.415
594.41	30.032
594.75	28.994
595.08	28.970
595.42	29.091
595.75	29.157
596.09	29.075
596.42	28.807
596.75	27.750
597.09	29.091
597.42	28.129
597.75	28.616
598.09	28.413
598.42	28.267
598.76	28.238
599.09	28.124
599.42	29.098
599.76	28.590
600.09	28.862
600.42	29.296
600.76	29.458
601.09	28.775
601.42	27.772
601.76	28.345
602.09	28.592
602.42	27.626
602.76	28.007
603.09	28.120
603.42	28.721
603.76	28.330
604.09	28.708
604.42	28.587
604.76	28.044
605.09	27.643
605.42	28.150
605.75	27.808
606.09	28.294
606.42	27.545
606.75	27.661
607.09	27.343
607.42	28.593
607.75	28.292
608.08	28.611
608.42	27.771
608.75	28.151
609.08	26.910
609.41	27.481
609.75	26.964
610.08	27.968
610.41	27.655
610.74	27.815
611.07	27.620
611.41	28.027
611.74	28.129
612.07	27.910
612.40	27.376
612.73	27.971
613.07	27.042
613.40	28.104
613.73	27.203
614.06	27.233
614.39	27.405
614.72	27.074
615.06	27.671
615.39	27.453
615.72	28.199
616.05	26.761
616.38	27.447
616.71	27.273
617.05	26.571
617.38	27.180
617.71	26.566
618.04	27.577
618.37	27.104
618.70	27.262
619.03	26.941
619.36	26.326
619.69	27.226
620.03	26.993
620.36	26.074
620.69	25.293
621.02	26.772
621.35	25.762
621.68	26.753
622.01	26.335
622.34	26.709
622.67	25.704
623.00	25.304
623.33	27.671
623.66	26.329
623.99	26.794
624.32	27.290
624.65	26.705
624.99	26.788
625.32	27.106
625.65	26.568
625.98	26.508
626.31	26.790
626.64	26.813
626.97	25.656
627.30	25.664
627.63	25.506
627.96	26.577
628.29	25.214
628.62	26.113
628.95	24.715
629.28	24.384
629.61	25.673
629.94	25.439
630.26	25.254
630.59	25.907
630.92	24.329
631.25	25.134
631.58	24.482
631.91	25.117
632.24	25.360
632.57	24.478
632.90	24.774
633.23	24.388
633.56	26.020
633.89	24.380
634.22	25.676
634.55	25.052
634.88	25.433
635.20	25.404
635.53	24.520
635.86	24.269
636.19	25.769
636.52	25.000
636.85	24.208
637.18	24.012
637.51	24.409
637.83	25.028
638.16	24.885
638.49	23.709
638.82	24.577
639.15	22.337
639.48	25.866
639.81	22.979
640.13	24.971
640.46	23.636
640.79	22.917
641.12	24.596
641.45	24.718
641.77	24.390
642.10	24.672
642.43	23.803
642.76	22.900
643.09	23.014
643.41	24.370
643.74	23.862
644.07	24.690
644.40	22.914
644.73	22.351
645.05	22.173
645.38	24.029
645.71	22.874
646.04	24.821
646.36	22.628
646.69	21.933
647.02	22.936
647.35	23.664
647.67	22.061
648.00	22.611
648.33	25.676
648.66	24.536
648.98	23.537
649.31	25.304
649.64	25.498
649.96	24.005
650.29	23.227
650.62	23.621
650.94	22.973
651.27	21.557
651.60	21.930
651.92	22.644
652.25	24.168
652.58	22.971
652.90	22.529
653.23	25.493
653.56	22.539
653.88	25.843
654.21	24.366
654.54	22.399
654.86	24.221
655.19	23.463
655.52	28.731
655.84	32.090
656.17	37.594
656.49	51.320
656.82	53.763
657.15	40.536
657.47	29.353
657.80	20.908
658.13	15.758
658.45	19.629
658.78	23.618
659.10	21.850
659.43	20.646
659.75	20.024
660.08	18.207
660.41	19.272
660.73	20.296
661.06	18.502
661.38	21.850
661.71	23.793
662.03	20.106
662.36	21.825
662.68	21.764
663.01	21.770
663.33	23.440
663.66	22.894
663.98	20.962
664.31	21.576
664.63	21.387
664.96	21.779
665.28	21.779
665.61	22.378
665.93	19.286
666.26	22.581
666.58	19.926
666.91	20.935
667.23	22.476
667.56	21.499
667.88	21.800
668.21	21.484
668.53	19.884
668.86	19.253
669.18	22.200
669.50	22.465
669.83	20.800
670.15	20.472
670.48	23.810
670.80	19.885
671.13	20.794
671.45	23.425
671.77	24.859
672.10	22.333
672.42	22.816
672.75	23.195
673.07	21.940
673.39	20.955
673.72	22.651
674.04	22.069
674.37	20.572
674.69	21.693
675.01	19.048
675.34	22.519
675.66	21.723
675.98	21.455
676.31	20.313
676.63	21.483
676.95	22.989
677.28	20.968
677.60	18.307
677.92	20.729
678.25	24.680
678.57	23.310
678.89	23.891
679.22	19.861
679.54	20.513
679.86	20.678
680.18	22.554
680.51	20.597
680.83	23.241
681.15	21.379
681.48	22.107
681.80	22.280
682.12	20.629
682.44	21.703
682.77	21.099
683.09	21.212
683.41	20.930
683.73	19.355
684.06	21.402
684.38	21.646
684.70	21.903
685.02	24.785
685.34	19.800
685.67	21.609
685.99	22.086
686.31	22.529
686.63	22.275
686.96	22.082
687.28	24.267
687.60	21.549
687.92	21.061
688.24	23.372
688.56	19.655
688.89	23.049
689.21	21.135
689.53	21.765
689.85	20.907
690.17	21.667
690.49	19.124
690.82	17.822
691.14	19.838
691.46	21.224
691.78	22.468
692.10	23.853
692.42	19.821
692.74	19.419
693.06	19.444
693.39	21.632
693.71	21.617
694.03	21.004
694.35	18.667
694.67	20.534
694.99	19.574
695.31	19.647
695.63	21.429
695.95	20.704
696.27	20.440
696.59	21.018
696.91	19.144
697.23	20.659
697.56	20.774
697.88	22.348
698.20	23.164
698.52	21.780
698.84	20.582
699.16	22.857
699.48	18.619
699.80	21.064
700.12	21.397
700.44	18.664
700.76	19.477
701.08	18.402
701.40	18.653
701.72	20.896
702.04	17.914
702.36	20.942
702.68	18.582
703.00	18.582
703.32	18.473
703.64	18.826
703.96	21.241
704.28	19.410
704.60	20.000
704.91	20.153
705.23	22.466
705.55	18.663
705.87	18.485
706.19	18.712
706.51	15.964
706.83	15.850
707.15	20.106
707.47	19.159
707.79	20.087
708.11	19.280
708.43	18.495
708.74	17.634
709.06	19.258
709.38	20.892
709.70	18.362
710.02	22.222
710.34	20.745
710.66	15.084
710.98	19.399
711.29	16.209
711.61	23.164
711.93	19.088
712.25	19.730
712.57	18.879
712.89	21.765
713.20	17.456
713.52	16.763
713.84	19.220
714.16	20.526
714.48	19.588
714.80	23.377
715.11	19.423
715.43	20.159
715.75	20.263
716.07	18.232
716.39	20.219
716.70	16.265
717.02	16.066
717.34	16.376
717.66	18.121
717.97	14.726
718.29	14.777
718.61	14.803
718.93	18.123
719.24	14.286
719.56	18.405
719.88	16.216
720.20	16.129
720.51	17.702
720.83	19.063
721.15	18.092
721.46	13.356
721.78	17.333
722.10	15.210
722.42	15.436
722.73	14.839
723.05	19.298
723.37	14.583
723.68	16.846
724.00	18.412
724.32	12.676
724.63	16.434
724.95	18.794
725.27	14.286
725.58	16.608
725.90	23.793
726.22	17.868
726.53	17.532
726.85	20.755
727.16	20.544
727.48	22.018
727.80	20.530
728.11	17.314
728.43	20.202
728.74	17.391
729.06	18.543
729.38	22.403
729.69	21.141
730.01	21.726
730.32	16.667
730.64	18.868
730.96	20.807
731.27	19.832
731.59	20.879
731.90	17.662
732.22	17.708
732.53	17.680
732.85	19.714
733.16	18.475
733.48	16.463
733.80	18.663
734.11	18.519
734.43	21.892
734.74	19.747
735.06	21.357
735.37	22.432
735.69	20.000
736.00	20.056
736.32	18.329
736.63	20.000
736.95	22.126
737.26	19.091
737.58	20.909
737.89	22.059
738.21	18.960
738.52	13.770
738.83	19.113
739.15	18.794
739.46	18.027
739.78	19.939
740.09	18.052
740.41	19.242
740.72	20.333
741.04	21.036
741.35	16.140
741.66	15.686
741.98	17.623
742.29	15.481
742.61	15.351
742.92	12.308
743.23	18.412
743.55	20.543
743.86	17.600
744.18	15.289
744.49	12.658
744.80	17.695
745.12	17.722
745.43	19.106
745.74	15.517
746.06	13.559
746.37	19.409
746.68	18.293
747.00	17.917
747.31	18.026
747.62	20.385
747.94	17.814
748.25	20.080
748.56	16.327
748.88	12.393
749.19	19.828
749.50	15.152
749.82	23.695
750.13	22.064
750.44	17.333
750.75	19.692
751.07	20.923
751.38	20.820
751.69	18.530
752.01	16.505
752.32	18.954
752.63	14.626
752.94	13.841
753.26	15.613
753.57	16.667
753.88	17.228
754.19	19.936
754.51	18.971
754.82	21.222
755.13	20.656
755.44	20.819
755.75	18.750
756.07	23.582
756.38	19.811
756.69	21.386
757.00	19.391
757.31	19.672
757.63	19.693
757.94	18.310
758.25	22.348
758.56	19.608
758.87	19.318
759.18	19.733
759.50	22.096
759.81	18.768
760.12	21.024
760.43	18.490
760.74	21.921
761.05	20.750
761.36	17.349
761.67	20.051
761.99	18.649
762.30	15.854
762.61	14.191
762.92	16.418
763.23	18.727
763.54	18.705
763.85	17.869
764.16	22.896
764.47	22.183
764.78	20.447
765.10	19.062
765.41	24.103
765.72	19.048
766.03	18.079
766.34	16.614
766.65	16.725
766.96	13.944
767.27	17.512
767.58	16.418
767.89	14.423
768.20	11.268
768.51	16.204
768.82	20.080
769.13	14.773
769.44	15.000
769.75	19.134
770.06	18.462
770.37	18.110
770.68	14.468
770.99	11.336
771.30	22.593
771.61	18.251
771.92	16.667
772.23	21.053
772.54	10.185
772.85	15.207
773.16	19.048
773.47	16.402
773.78	9.189
774.09	13.068
774.39	18.000
774.70	15.301
775.01	14.024
775.32	10.000
775.63	14.724
775.94	8.280
776.25	6.452
776.56	17.308
776.87	14.286
777.18	7.586
777.48	15.385
777.79	11.486
778.10	6.618
778.41	8.333
778.72	13.103
779.03	16.049
779.34	12.121
779.65	13.472
779.95	15.000
780.26	11.932
780.57	16.129
780.88	18.116
781.19	17.419
781.50	18.235
781.80	18.280
782.11	12.169
782.42	10.101
782.73	10.778
783.04	13.966
783.34	9.697
783.65	9.804
783.96	14.286
784.27	10.714
784.57	13.245
784.88	5.000
785.19	12.598
785.50	4.724
785.81	12.782
786.11	13.846
786.42	3.597
786.73	5.755
787.04	11.278
787.34	1.639
787.65	8.800
787.96	13.433
788.26	25.874
788.57	14.685
788.88	9.211
789.19	16.340
789.49	8.904
789.80	9.220
790.11	17.323
790.41	8.594
790.72	5.932
791.03	3.883
791.33	6.957
791.64	14.912
791.95	9.821
792.25	8.571
792.56	8.929
792.87	-1.042
793.17	12.500
793.48	2.083
793.79	-4.819
794.09	4.587
794.40	11.009
794.70	11.565
795.01	9.091
795.32	1.370
795.62	14.085
795.93	9.091
796.23	11.475
796.54	0.893
796.85	-3.191
797.15	3.261
797.46	-10.959
797.76	2.500
798.07	3.261
798.37	-10.309
798.68	-3.896
798.99	1.149
799.29	1.124
799.60	6.383
799.90	-8.434
800.21	-7.692
800.51	-13.433
800.82	-20.588
801.12	-30.137
801.43	-13.235
801.73	-27.119
802.04	10.606
802.34	-8.333
802.65	-5.085
802.95	1.493
803.26	-20.339
803.56	-8.219
803.87	-1.429
804.17	12.329
804.48	-21.053
804.78	-6.944
805.09	-20.690
805.39	-1.351
805.70	-22.535
806.00	-12.195
806.30	3.614
806.61	1.370
806.91	8.654
807.22	0.000
807.52	-4.598
807.83	0.000
808.13	0.000
808.43	1.124
808.74	5.000
809.04	-11.765
809.35	5.333
809.65	-2.857
809.95	-19.178
810.26	-17.544
810.56	-15.517
810.86	-5.882
811.17	-12.281
811.47	-9.836
811.77	-35.556
812.08	-8.475
812.38	8.333
812.69	6.897
812.99	-26.415
813.29	-56.410
813.59	0.000
813.90	8.772
814.20	-3.636
814.50	5.634
814.81	16.667
815.11	1.639
815.41	-2.985
815.72	10.345
816.02	-10.714
816.32	-4.444
816.62	15.909
816.93	-11.111
817.23	0.000
817.53	-17.021
817.84	-2.381
818.14	-11.765
818.44	-4.082
818.74	0.000
819.04	-48.718
819.35	-40.000
819.65	-57.692
819.95	3.774
820.25	-20.000
820.56	-38.095
820.86	-18.750
821.16	-12.821
821.46	-11.628
821.76	-16.000
822.07	-7.143
822.37	-21.739
822.67	-10.638
822.97	-54.054
823.27	-40.000
823.57	-24.490
823.88	6.667
824.18	-20.000
824.48	-23.333
824.78	-76.000
825.08	-24.242
825.38	2.222
825.69	2.128
825.99	-27.778
826.29	-45.714
826.59	-46.154
826.89	-27.907
827.19	-24.000
827.49	-11.765
827.79	10.417
828.09	-27.027
828.39	-56.667
828.70	-17.073
829.00	-23.256
829.30	-50.000
829.60	-32.353
829.90	6.522
830.20	-42.857
830.50	-44.828
830.80	-100.000
831.10	-57.692
831.40	-32.353
831.70	-33.333
832.00	-25.806
832.30	-111.765
832.60	-79.167
832.90	-223.077
833.20	-47.368
833.50	-50.000
833.80	-94.737
834.10	-109.524
834.40	-8.333
834.70	-28.125
835.00	-54.286
835.30	-29.412
835.60	-33.333
835.90	-36.000
836.20	-104.545
836.50	-52.000
836.80	-39.394
837.10	-55.556
837.40	-44.444
837.70	-137.500
838.00	-35.714
838.30	-65.217
838.60	-44.828
838.90	-150.000
839.19	-126.087
839.49	-208.333
839.79	-73.913
840.09	-156.250
840.39	-110.000
840.69	-25.806
840.99	-64.286
841.29	-80.000
841.59	-68.421
841.88	0.000
842.18	-3.846
842.48	-100.000
842.78	-75.000
843.08	-36.667
843.38	0.000
843.68	-144.444
843.97	-20.588
844.27	-106.250
844.57	-121.053
844.87	-90.000
845.17	-153.333
845.47	-52.381
845.76	-71.429
846.06	-133.333
846.36	-141.176
846.66	-23.077
846.96	-120.000
847.25	-152.941
847.55	-26.087
847.85	-30.000
848.15	-76.471
848.44	-127.273
848.74	-61.905
849.04	-91.667
849.34	-125.000
849.63	-69.565
849.93	1100.000
850.23	-80.000
850.53	-26.923
850.82	-127.273
851.12	-36.364
851.42	-118.182
851.71	-53.846
852.01	-90.000
852.31	-123.077
852.61	-84.211
852.90	-100.000
853.20	-33.333
853.50	-155.556
853.79	-71.429
854.09	-109.091
854.39	-250.000
854.68	-12.903
854.98	-34.615
855.28	-72.222
855.57	-25.000
855.87	-60.000
856.17	-63.636
856.46	-37.037
856.76	-77.778
857.05	-4.348
857.35	-20.833
857.65	-123.077
857.94	-119.048
858.24	-48.148
858.53	-43.478
858.83	-88.235
859.13	-23.529
859.42	-47.059
859.72	-107.143
860.01	-30.000
860.31	-200.000
860.60	-100.000
860.90	-66.667
861.20	-55.556
861.49	-169.231
861.79	-50.000
862.08	-146.154
862.38	-15.625
862.67	-5.882
862.97	-106.250
863.26	-255.556
863.56	-140.000
863.85	-118.182
864.15	-27.778
864.44	-433.333
864.74	-85.714
865.03	-156.250
865.33	-210.000
865.62	-64.516
865.92	-36.364
866.21	-47.826
866.51	-42.857
866.80	-400.000
867.10	-100.000
867.39	-166.667
867.69	1800.000
867.98	-185.714
868.27	-58.824
868.57	-2900.000
868.86	-250.000
869.16	-52.381
869.45	-54.167
869.75	-127.273
870.04	-171.429
870.33	-50.000
870.63	-285.714
870.92	-400.000
871.22	-312.500
871.51	-145.455
871.80	-1066.667
872.10	-1200.000
>>>>>End Processed Spectral Data<<<<<
