SpectraSuite Data File
++++++++++++++++++++++++++++++++++++
Date: Thu May 14 14:33:05 PDT 2015
User: schluterlab
Dark Spectrum Present: Yes
Reference Spectrum Present: Yes
Number of Sampled Component Spectra: 1
Spectrometers: USB2E3373
Integration Time (usec): 3000 (USB2E3373)
Spectra Averaged: 3 (USB2E3373)
Boxcar Smoothing: 0 (USB2E3373)
Correct for Electrical Dark: No (USB2E3373)
Strobe/Lamp Enabled: No (USB2E3373)
Correct for Detector Non-linearity: No (USB2E3373)
Correct for Stray Light: No (USB2E3373)
Number of Pixels in Processed Spectrum: 2048
>>>>>Begin Processed Spectral Data<<<<<
178.53	0.000
178.91	-200.000
179.29	1300.000
179.67	1600.000
180.04	-0.000
180.42	-170.000
180.80	-200.000
181.18	1300.000
181.56	2800.000
181.94	-350.000
182.31	450.000
182.69	-733.333
183.07	1200.000
183.45	-300.000
183.83	516.667
184.20	700.000
184.58	-1700.000
184.96	375.000
185.34	244.444
185.72	540.000
186.09	-155.556
186.47	-450.000
186.85	-180.000
187.23	111.111
187.61	600.000
187.98	-440.000
188.36	-350.000
188.74	400.000
189.12	600.000
189.49	225.000
189.87	212.500
190.25	277.778
190.63	440.000
191.00	211.111
191.38	0.000
191.76	300.000
192.14	300.000
192.51	-650.000
192.89	466.667
193.27	0.000
193.65	271.429
194.02	1500.000
194.40	285.714
194.78	-342.857
195.15	0.000
195.53	218.182
195.91	0.000
196.29	575.000
196.66	146.154
197.04	1600.000
197.42	285.714
197.79	1000.000
198.17	262.500
198.55	214.286
198.92	277.778
199.30	262.500
199.68	209.091
200.05	157.143
200.43	1050.000
200.81	-242.857
201.18	0.000
201.56	-55.556
201.94	0.000
202.31	-433.333
202.69	233.333
203.07	-1900.000
203.44	200.000
203.82	275.000
204.19	216.667
204.57	150.000
204.95	275.000
205.32	2200.000
205.70	-525.000
206.08	366.667
206.45	383.333
206.83	-180.000
207.20	316.667
207.58	180.000
207.96	150.000
208.33	383.333
208.71	-150.000
209.08	483.333
209.46	0.000
209.84	-116.667
210.21	-1200.000
210.59	-1250.000
210.96	-433.333
211.34	625.000
211.71	187.500
212.09	1200.000
212.46	0.000
212.84	-700.000
213.22	220.000
213.59	400.000
213.97	280.000
214.34	566.667
214.72	-300.000
215.09	275.000
215.47	0.000
215.84	-228.571
216.22	-850.000
216.59	320.000
216.97	420.000
217.34	550.000
217.72	262.500
218.09	250.000
218.47	400.000
218.84	0.000
219.22	-340.000
219.59	129.412
219.97	100.000
220.34	-650.000
220.72	200.000
221.09	200.000
221.47	600.000
221.84	170.000
222.22	114.286
222.59	0.000
222.97	287.500
223.34	160.000
223.72	1600.000
224.09	375.000
224.46	200.000
224.84	400.000
225.21	457.143
225.59	225.000
225.96	625.000
226.34	103.846
226.71	-16.667
227.08	700.000
227.46	140.000
227.83	375.000
228.21	163.158
228.58	-325.000
228.95	-750.000
229.33	100.000
229.70	260.000
230.08	189.474
230.45	-80.000
230.82	333.333
231.20	207.143
231.57	191.667
231.95	136.364
232.32	209.091
232.69	125.000
233.07	550.000
233.44	117.647
233.81	210.000
234.19	166.667
234.56	145.455
234.93	117.241
235.31	94.737
235.68	116.667
236.05	40.000
236.43	115.385
236.80	160.000
237.17	111.111
237.55	69.697
237.92	170.000
238.29	77.419
238.67	61.364
239.04	69.444
239.41	78.571
239.79	67.391
240.16	61.111
240.53	69.565
240.91	39.216
241.28	52.459
241.65	61.194
242.02	51.351
242.40	41.538
242.77	53.333
243.14	39.024
243.51	30.263
243.89	53.846
244.26	44.554
244.63	44.118
245.00	42.991
245.38	41.228
245.75	31.858
246.12	34.921
246.49	38.760
246.87	39.286
247.24	35.099
247.61	38.816
247.98	32.886
248.36	40.741
248.73	34.356
249.10	35.519
249.47	35.323
249.84	37.696
250.22	34.715
250.59	37.778
250.96	30.455
251.33	29.592
251.70	30.769
252.08	29.583
252.45	30.738
252.82	30.992
253.19	28.906
253.56	33.080
253.94	27.308
254.31	32.197
254.68	32.867
255.05	27.687
255.42	30.272
255.79	26.861
256.16	31.126
256.54	28.477
256.91	31.803
257.28	28.852
257.65	30.892
258.02	24.484
258.39	29.060
258.76	33.028
259.14	33.333
259.51	27.954
259.88	29.462
260.25	28.056
260.62	27.945
260.99	33.333
261.36	30.027
261.73	28.117
262.10	29.121
262.47	31.635
262.85	31.313
263.22	27.273
263.59	27.368
263.96	30.691
264.33	25.575
264.70	31.605
265.07	28.401
265.44	30.385
265.81	28.009
266.18	30.159
266.55	27.902
266.92	27.790
267.29	28.228
267.66	28.160
268.03	29.258
268.40	29.019
268.77	26.196
269.14	26.211
269.51	28.728
269.88	30.533
270.25	27.163
270.62	26.793
270.99	30.707
271.36	26.139
271.73	28.487
272.10	30.261
272.47	25.050
272.84	27.108
273.21	26.253
273.58	27.218
273.95	26.731
274.32	25.475
274.69	25.725
275.06	24.542
275.43	23.290
275.80	27.160
276.17	27.037
276.54	27.799
276.91	25.581
277.28	26.763
277.65	27.289
278.02	26.471
278.39	26.268
278.76	26.362
279.13	25.532
279.50	26.460
279.87	28.623
280.23	23.063
280.60	26.780
280.97	25.000
281.34	24.958
281.71	25.888
282.08	24.751
282.45	25.859
282.82	24.647
283.19	23.748
283.56	25.246
283.92	24.625
284.29	26.856
284.66	27.586
285.03	22.917
285.40	25.348
285.77	24.458
286.14	26.412
286.51	25.266
286.87	24.013
287.24	24.548
287.61	23.916
287.98	24.169
288.35	23.077
288.72	22.633
289.08	22.694
289.45	21.006
289.82	23.343
290.19	23.132
290.56	22.817
290.93	21.683
291.29	23.140
291.66	22.865
292.03	23.066
292.40	23.537
292.77	20.216
293.13	21.245
293.50	22.076
293.87	21.879
294.24	22.933
294.60	22.630
294.97	21.208
295.34	22.151
295.71	20.177
296.08	20.284
296.44	21.078
296.81	19.123
297.18	20.548
297.55	21.698
297.91	19.692
298.28	19.550
298.65	19.144
299.02	18.654
299.38	19.451
299.75	19.977
300.12	18.287
300.48	18.664
300.85	20.472
301.22	19.351
301.59	18.493
301.95	19.209
302.32	19.889
302.69	18.510
303.05	19.151
303.42	18.182
303.79	18.125
304.15	18.822
304.52	18.499
304.89	19.895
305.25	18.737
305.62	20.272
305.99	19.794
306.35	17.540
306.72	19.131
307.09	17.360
307.45	18.737
307.82	19.374
308.19	17.558
308.55	18.997
308.92	19.279
309.29	19.923
309.65	17.836
310.02	19.109
310.38	18.307
310.75	18.544
311.12	19.847
311.48	19.062
311.85	20.608
312.22	19.829
312.58	18.779
312.95	20.076
313.31	19.693
313.68	20.330
314.05	20.777
314.41	20.583
314.78	21.253
315.14	20.690
315.51	21.884
315.87	20.162
316.24	21.918
316.61	22.114
316.97	20.543
317.34	21.164
317.70	22.707
318.07	22.487
318.43	22.874
318.80	24.080
319.16	24.549
319.53	21.851
319.89	22.962
320.26	24.377
320.62	24.291
320.99	25.946
321.35	26.155
321.72	26.047
322.08	24.617
322.45	25.565
322.81	26.354
323.18	25.221
323.54	26.466
323.91	28.203
324.27	26.506
324.64	27.960
325.00	27.363
325.37	27.846
325.73	27.934
326.10	28.629
326.46	29.560
326.83	30.184
327.19	28.976
327.56	30.988
327.92	29.976
328.29	29.274
328.65	31.072
329.01	30.034
329.38	31.003
329.74	31.336
330.11	31.336
330.47	30.834
330.84	31.955
331.20	31.583
331.56	31.629
331.93	31.799
332.29	32.627
332.66	32.392
333.02	32.747
333.38	33.138
333.75	32.828
334.11	32.777
334.48	34.323
334.84	32.710
335.20	33.333
335.57	33.558
335.93	33.306
336.29	33.611
336.66	33.474
337.02	32.274
337.38	33.503
337.75	33.058
338.11	33.305
338.47	34.160
338.84	33.333
339.20	32.603
339.56	33.773
339.93	33.580
340.29	33.092
340.65	32.603
341.02	34.238
341.38	34.276
341.74	33.737
342.11	33.950
342.47	32.804
342.83	34.138
343.20	34.342
343.56	34.563
343.92	33.227
344.28	33.906
344.65	33.411
345.01	33.541
345.37	34.448
345.73	32.736
346.10	34.711
346.46	34.256
346.82	34.082
347.19	33.766
347.55	33.536
347.91	34.695
348.27	33.991
348.63	35.187
349.00	33.184
349.36	33.829
349.72	34.524
350.08	33.730
350.45	33.764
350.81	34.917
351.17	33.759
351.53	35.254
351.89	33.637
352.26	33.881
352.62	34.925
352.98	34.427
353.34	33.981
353.70	34.977
354.07	34.352
354.43	35.004
354.79	33.508
355.15	34.879
355.51	34.795
355.87	34.480
356.24	33.916
356.60	34.146
356.96	35.360
357.32	34.275
357.68	33.968
358.04	34.805
358.40	34.925
358.77	34.576
359.13	35.229
359.49	34.944
359.85	34.663
360.21	34.935
360.57	34.673
360.93	34.838
361.29	35.789
361.66	35.192
362.02	36.256
362.38	36.191
362.74	35.405
363.10	35.970
363.46	35.319
363.82	36.577
364.18	36.242
364.54	36.169
364.90	36.187
365.26	36.414
365.62	36.000
365.98	36.011
366.35	35.436
366.71	36.871
367.07	37.145
367.43	36.638
367.79	37.890
368.15	37.391
368.51	37.145
368.87	36.055
369.23	36.467
369.59	37.568
369.95	37.390
370.31	38.285
370.67	37.827
371.03	37.673
371.39	36.535
371.75	38.721
372.11	37.940
372.47	38.524
372.83	38.089
373.19	38.959
373.55	37.737
373.91	37.969
374.27	37.646
374.63	39.783
374.99	39.390
375.35	40.195
375.71	39.935
376.07	39.445
376.42	39.421
376.78	41.392
377.14	39.863
377.50	41.429
377.86	41.502
378.22	41.796
378.58	41.736
378.94	41.608
379.30	41.652
379.66	42.446
380.02	43.335
380.38	43.145
380.74	42.592
381.09	43.380
381.45	44.034
381.81	45.023
382.17	42.874
382.53	43.684
382.89	43.454
383.25	45.897
383.61	45.370
383.97	44.935
384.32	46.232
384.68	45.824
385.04	46.038
385.40	46.022
385.76	46.717
386.12	46.559
386.48	47.588
386.83	47.914
387.19	47.625
387.55	47.535
387.91	48.174
388.27	47.979
388.62	47.881
388.98	47.265
389.34	49.087
389.70	49.157
390.06	48.017
390.42	49.337
390.77	49.849
391.13	49.648
391.49	51.993
391.85	50.545
392.20	50.771
392.56	49.970
392.92	50.273
393.28	50.415
393.64	49.665
393.99	51.772
394.35	51.285
394.71	50.299
395.07	52.695
395.42	50.885
395.78	52.651
396.14	52.585
396.50	51.900
396.85	52.892
397.21	51.834
397.57	52.238
397.92	52.520
398.28	51.385
398.64	51.201
399.00	51.414
399.35	52.147
399.71	51.848
400.07	53.622
400.42	52.910
400.78	53.646
401.14	53.557
401.49	53.894
401.85	54.593
402.21	55.272
402.57	54.343
402.92	54.137
403.28	53.923
403.63	54.475
403.99	53.919
404.35	54.179
404.70	53.598
405.06	52.772
405.42	54.742
405.77	55.344
406.13	55.105
406.49	55.011
406.84	54.958
407.20	54.164
407.55	54.694
407.91	56.191
408.27	55.418
408.62	55.963
408.98	54.556
409.34	55.953
409.69	55.995
410.05	55.451
410.40	56.381
410.76	55.468
411.11	57.276
411.47	55.897
411.83	57.025
412.18	56.627
412.54	55.661
412.89	56.519
413.25	55.587
413.60	56.519
413.96	56.876
414.31	55.127
414.67	57.245
415.03	56.677
415.38	57.125
415.74	56.872
416.09	57.372
416.45	56.230
416.80	56.120
417.16	57.599
417.51	57.659
417.87	56.959
418.22	57.425
418.58	56.939
418.93	57.159
419.29	58.385
419.64	56.783
420.00	57.151
420.35	57.608
420.71	57.840
421.06	57.447
421.42	57.798
421.77	57.189
422.12	57.505
422.48	57.040
422.83	58.434
423.19	56.923
423.54	58.352
423.90	58.476
424.25	58.400
424.61	57.922
424.96	57.386
425.31	58.705
425.67	58.884
426.02	58.052
426.38	58.496
426.73	58.705
427.09	59.689
427.44	58.875
427.79	58.596
428.15	59.475
428.50	59.157
428.85	58.094
429.21	59.043
429.56	59.724
429.92	58.280
430.27	59.663
430.62	58.720
430.98	58.534
431.33	57.869
431.68	58.238
432.04	58.253
432.39	59.239
432.74	59.532
433.10	59.924
433.45	58.974
433.80	59.120
434.16	59.298
434.51	60.175
434.86	59.338
435.22	60.361
435.57	60.554
435.92	60.490
436.28	60.637
436.63	60.459
436.98	59.742
437.34	60.767
437.69	59.218
438.04	59.387
438.39	60.999
438.75	60.598
439.10	61.152
439.45	60.145
439.81	60.000
440.16	59.357
440.51	61.037
440.86	58.310
441.22	60.397
441.57	62.474
441.92	60.233
442.27	61.162
442.63	60.159
442.98	60.672
443.33	60.126
443.68	60.803
444.03	61.900
444.39	60.888
444.74	60.031
445.09	59.199
445.44	61.275
445.79	61.446
446.15	60.586
446.50	61.654
446.85	60.944
447.20	60.880
447.55	60.565
447.91	60.576
448.26	60.624
448.61	59.989
448.96	62.446
449.31	59.915
449.66	61.111
450.02	60.390
450.37	60.416
450.72	60.603
451.07	59.567
451.42	61.641
451.77	59.589
452.12	61.287
452.47	60.844
452.83	61.374
453.18	59.778
453.53	62.033
453.88	60.906
454.23	62.203
454.58	61.753
454.93	61.711
455.28	60.807
455.63	61.171
455.98	61.620
456.34	61.013
456.69	61.611
457.04	61.820
457.39	59.812
457.74	62.472
458.09	60.516
458.44	60.884
458.79	60.392
459.14	60.566
459.49	61.969
459.84	60.178
460.19	59.634
460.54	61.499
460.89	61.938
461.24	61.264
461.59	61.871
461.94	61.495
462.29	61.198
462.64	60.652
462.99	61.268
463.34	61.648
463.69	60.844
464.04	60.812
464.39	61.155
464.74	59.692
465.09	60.554
465.44	61.105
465.79	60.656
466.14	60.917
466.49	60.737
466.84	61.543
467.19	60.983
467.54	60.400
467.89	59.770
468.24	59.058
468.59	59.004
468.94	59.907
469.29	59.928
469.64	61.411
469.99	60.931
470.34	60.334
470.68	61.039
471.03	61.428
471.38	61.151
471.73	60.988
472.08	61.041
472.43	61.650
472.78	60.957
473.13	60.430
473.48	60.967
473.83	60.998
474.17	60.199
474.52	59.952
474.87	60.908
475.22	60.620
475.57	59.190
475.92	60.478
476.27	59.212
476.61	59.969
476.96	59.593
477.31	60.050
477.66	60.336
478.01	60.193
478.36	59.023
478.70	60.394
479.05	60.838
479.40	60.760
479.75	59.606
480.10	60.114
480.45	59.253
480.79	59.864
481.14	59.926
481.49	60.018
481.84	59.878
482.19	59.742
482.53	59.379
482.88	60.833
483.23	60.249
483.58	60.349
483.92	59.397
484.27	58.764
484.62	58.705
484.97	59.565
485.31	60.120
485.66	60.032
486.01	59.169
486.36	59.437
486.70	58.927
487.05	58.776
487.40	58.486
487.75	58.728
488.09	58.495
488.44	57.922
488.79	59.022
489.13	59.269
489.48	58.641
489.83	58.592
490.17	57.351
490.52	57.923
490.87	59.137
491.22	58.882
491.56	59.556
491.91	58.657
492.26	58.979
492.60	58.723
492.95	59.280
493.30	58.853
493.64	58.914
493.99	58.289
494.34	58.667
494.68	58.758
495.03	58.722
495.37	59.876
495.72	58.685
496.07	58.633
496.41	58.945
496.76	59.133
497.11	58.981
497.45	58.136
497.80	57.885
498.14	57.642
498.49	58.778
498.84	59.598
499.18	59.334
499.53	58.386
499.87	59.516
500.22	58.905
500.56	58.435
500.91	58.719
501.26	59.045
501.60	58.153
501.95	59.053
502.29	59.193
502.64	59.685
502.98	57.506
503.33	58.661
503.67	57.741
504.02	58.012
504.36	58.266
504.71	59.118
505.06	57.890
505.40	58.455
505.75	58.698
506.09	58.840
506.44	58.774
506.78	59.083
507.13	58.322
507.47	58.598
507.82	58.333
508.16	58.891
508.51	58.228
508.85	58.668
509.19	58.171
509.54	58.069
509.88	59.155
510.23	58.864
510.57	59.256
510.92	58.104
511.26	57.431
511.61	56.639
511.95	57.199
512.30	59.133
512.64	57.271
512.98	57.979
513.33	59.173
513.67	57.777
514.02	58.508
514.36	58.261
514.70	58.646
515.05	58.394
515.39	58.425
515.74	58.749
516.08	58.162
516.42	58.870
516.77	59.148
517.11	57.298
517.46	59.014
517.80	58.418
518.14	59.630
518.49	59.219
518.83	58.595
519.17	57.566
519.52	58.229
519.86	57.656
520.20	57.401
520.55	57.667
520.89	57.939
521.23	56.951
521.58	58.814
521.92	57.847
522.26	57.904
522.61	59.086
522.95	58.016
523.29	59.425
523.64	57.679
523.98	58.585
524.32	60.115
524.66	59.476
525.01	57.418
525.35	57.553
525.69	58.063
526.04	56.831
526.38	57.586
526.72	57.728
527.06	58.358
527.41	58.950
527.75	58.314
528.09	59.327
528.43	57.904
528.78	57.688
529.12	58.830
529.46	58.347
529.80	58.867
530.15	58.783
530.49	59.846
530.83	58.737
531.17	58.722
531.51	57.942
531.86	58.534
532.20	58.049
532.54	57.510
532.88	59.455
533.22	56.924
533.57	58.107
533.91	58.193
534.25	58.168
534.59	58.908
534.93	57.385
535.27	58.535
535.62	58.613
535.96	58.861
536.30	57.991
536.64	58.438
536.98	59.164
537.32	58.580
537.66	58.016
538.01	57.341
538.35	58.222
538.69	59.014
539.03	58.860
539.37	57.774
539.71	57.718
540.05	57.314
540.39	58.007
540.73	57.681
541.07	59.227
541.42	56.409
541.76	58.007
542.10	58.384
542.44	58.648
542.78	57.786
543.12	57.688
543.46	55.922
543.80	57.794
544.14	57.630
544.48	58.983
544.82	58.947
545.16	58.795
545.50	57.340
545.84	57.991
546.18	58.580
546.52	58.153
546.86	56.478
547.20	58.079
547.54	56.991
547.88	58.409
548.22	56.667
548.56	57.929
548.90	57.970
549.24	57.751
549.58	57.666
549.92	58.355
550.26	57.799
550.60	58.073
550.94	59.120
551.28	58.086
551.62	58.356
551.96	57.023
552.30	58.190
552.64	58.370
552.98	58.203
553.32	58.457
553.66	59.486
554.00	58.134
554.34	58.044
554.68	57.134
555.02	57.424
555.36	58.448
555.69	57.783
556.03	59.332
556.37	58.698
556.71	57.387
557.05	58.211
557.39	59.788
557.73	58.190
558.07	58.411
558.41	58.206
558.75	58.824
559.08	58.038
559.42	57.545
559.76	57.123
560.10	57.535
560.44	59.235
560.78	57.750
561.12	59.544
561.45	58.394
561.79	58.425
562.13	59.643
562.47	57.830
562.81	58.481
563.15	57.639
563.48	57.551
563.82	58.585
564.16	58.268
564.50	58.701
564.84	58.702
565.17	58.471
565.51	57.710
565.85	58.789
566.19	57.604
566.52	57.987
566.86	58.291
567.20	57.368
567.54	58.258
567.88	57.492
568.21	58.202
568.55	57.362
568.89	58.375
569.23	58.090
569.56	57.249
569.90	57.876
570.24	58.415
570.57	57.537
570.91	57.226
571.25	56.783
571.59	57.863
571.92	57.036
572.26	57.253
572.60	56.811
572.93	56.666
573.27	56.308
573.61	56.326
573.95	58.000
574.28	56.762
574.62	57.640
574.96	56.198
575.29	56.290
575.63	55.925
575.97	57.078
576.30	56.008
576.64	56.550
576.98	56.697
577.31	57.337
577.65	57.222
577.98	56.947
578.32	56.996
578.66	56.295
578.99	56.564
579.33	56.892
579.67	56.301
580.00	56.417
580.34	56.283
580.67	56.267
581.01	56.426
581.35	56.361
581.68	56.823
582.02	57.101
582.35	57.793
582.69	56.928
583.02	56.943
583.36	56.357
583.70	56.692
584.03	56.827
584.37	56.900
584.70	56.650
585.04	56.731
585.37	57.269
585.71	56.980
586.04	56.627
586.38	56.755
586.72	56.631
587.05	57.483
587.39	56.894
587.72	57.129
588.06	57.785
588.39	56.510
588.73	56.852
589.06	57.026
589.40	57.253
589.73	57.519
590.07	57.692
590.40	57.167
590.73	57.476
591.07	57.893
591.40	57.271
591.74	57.075
592.07	57.775
592.41	57.256
592.74	57.366
593.08	57.516
593.41	57.305
593.75	56.724
594.08	58.164
594.41	57.372
594.75	57.190
595.08	57.974
595.42	58.182
595.75	57.217
596.09	57.574
596.42	57.005
596.75	56.928
597.09	58.020
597.42	57.529
597.75	55.939
598.09	57.183
598.42	56.655
598.76	57.279
599.09	56.355
599.42	56.219
599.76	56.553
600.09	57.457
600.42	56.823
600.76	56.869
601.09	56.190
601.42	56.608
601.76	56.276
602.09	57.577
602.42	56.125
602.76	56.421
603.09	57.416
603.42	58.815
603.76	57.611
604.09	58.517
604.42	58.752
604.76	57.306
605.09	56.362
605.42	57.257
605.75	57.423
606.09	57.186
606.42	56.330
606.75	57.121
607.09	56.528
607.42	57.495
607.75	57.327
608.08	58.011
608.42	56.792
608.75	57.587
609.08	57.003
609.41	56.286
609.75	57.634
610.08	57.388
610.41	57.434
610.74	58.151
611.07	58.437
611.41	58.027
611.74	57.737
612.07	57.363
612.40	57.510
612.73	58.484
613.07	57.848
613.40	57.603
613.73	57.390
614.06	57.949
614.39	56.948
614.72	57.351
615.06	57.748
615.39	57.999
615.72	57.915
616.05	57.407
616.38	58.174
616.71	57.889
617.05	57.242
617.38	57.410
617.71	56.911
618.04	58.068
618.37	58.470
618.70	58.032
619.03	57.527
619.36	57.522
619.69	58.296
620.03	59.071
620.36	57.669
620.69	58.297
621.02	59.121
621.35	61.321
621.68	58.785
622.01	58.292
622.34	58.020
622.67	58.282
623.00	57.962
623.33	60.385
623.66	59.533
623.99	59.447
624.32	59.324
624.65	57.979
624.99	59.233
625.32	59.634
625.65	59.272
625.98	57.627
626.31	58.186
626.64	58.022
626.97	59.865
627.30	58.846
627.63	58.365
627.96	59.084
628.29	58.054
628.62	57.515
628.95	58.457
629.28	60.663
629.61	59.764
629.94	59.331
630.26	58.305
630.59	59.413
630.92	61.126
631.25	59.213
631.58	59.793
631.91	59.513
632.24	59.942
632.57	58.918
632.90	59.077
633.23	59.490
633.56	59.796
633.89	58.058
634.22	60.811
634.55	60.960
634.88	59.957
635.20	60.065
635.53	60.791
635.86	59.047
636.19	60.233
636.52	58.966
636.85	58.631
637.18	60.603
637.51	60.000
637.83	60.354
638.16	61.290
638.49	58.099
638.82	59.639
639.15	59.908
639.48	61.894
639.81	60.739
640.13	59.364
640.46	60.000
640.79	60.049
641.12	59.255
641.45	60.602
641.77	64.056
642.10	60.630
642.43	61.037
642.76	59.214
643.09	61.507
643.41	60.784
643.74	59.448
644.07	58.621
644.40	61.810
644.73	60.813
645.05	59.178
645.38	62.878
645.71	60.117
646.04	62.410
646.36	61.460
646.69	59.816
647.02	61.927
647.35	61.527
647.67	62.641
648.00	64.490
648.33	63.363
648.66	60.770
648.98	60.952
649.31	58.863
649.64	60.027
649.96	59.151
650.29	60.083
650.62	60.113
650.94	60.511
651.27	61.826
651.60	57.018
651.92	60.030
652.25	59.479
652.58	59.560
652.90	59.884
653.23	62.817
653.56	58.916
653.88	60.674
654.21	59.437
654.54	60.260
654.86	61.190
655.19	57.842
655.52	55.626
655.84	54.272
656.17	68.920
656.49	96.104
656.82	100.008
657.15	87.413
657.47	61.072
657.80	44.444
658.13	34.874
658.45	45.911
658.78	55.382
659.10	54.918
659.43	55.386
659.75	56.425
660.08	56.807
660.41	58.974
660.73	59.521
661.06	61.380
661.38	59.171
661.71	57.931
662.03	62.434
662.36	62.075
662.68	63.602
663.01	59.469
663.33	62.382
663.66	63.187
663.98	63.077
664.31	63.039
664.63	64.355
664.96	60.799
665.28	58.984
665.61	59.441
665.93	62.143
666.26	61.470
666.58	62.362
666.91	61.869
667.23	63.429
667.56	61.736
667.88	63.400
668.21	61.328
668.53	57.529
668.86	60.314
669.18	61.303
669.50	62.624
669.83	64.200
670.15	61.811
670.48	64.881
670.80	60.421
671.13	59.924
671.45	62.008
671.77	63.653
672.10	58.500
672.42	59.547
672.75	59.601
673.07	59.403
673.39	63.020
673.72	62.752
674.04	60.172
674.37	64.401
674.69	61.199
675.01	59.429
675.34	60.687
675.66	59.738
675.98	61.940
676.31	61.914
676.63	65.399
676.95	60.920
677.28	62.500
677.60	60.039
677.92	60.269
678.25	61.060
678.57	62.989
678.89	63.823
679.22	60.453
679.54	62.735
679.86	60.678
680.18	61.692
680.51	60.535
680.83	61.047
681.15	61.379
681.48	62.694
681.80	61.485
682.12	60.140
682.44	58.598
682.77	61.702
683.09	60.038
683.41	62.016
683.73	59.013
684.06	60.332
684.38	58.855
684.70	65.171
685.02	61.274
685.34	58.902
685.67	59.148
685.99	58.742
686.31	58.721
686.63	60.664
686.96	59.779
687.28	61.238
687.60	61.111
687.92	59.807
688.24	60.601
688.56	59.483
688.89	60.980
689.21	61.644
689.53	58.824
689.85	61.144
690.17	58.333
690.49	63.147
690.82	60.594
691.14	60.121
691.46	61.950
691.78	62.247
692.10	63.119
692.42	59.464
692.74	60.980
693.06	59.259
693.39	62.429
693.71	60.902
694.03	61.896
694.35	60.000
694.67	60.780
694.99	59.787
695.31	63.797
695.63	64.069
695.95	61.077
696.27	59.341
696.59	59.956
696.91	62.162
697.23	62.637
697.56	61.914
697.88	62.311
698.20	63.277
698.52	63.068
698.84	61.538
699.16	62.245
699.48	62.552
699.80	61.915
700.12	59.607
700.44	60.138
700.76	66.271
701.08	61.985
701.40	61.917
701.72	60.945
702.04	68.182
702.36	63.089
702.68	60.636
703.00	63.570
703.32	64.039
703.64	59.902
703.96	60.621
704.28	57.248
704.60	60.506
704.91	64.286
705.23	64.110
705.55	64.067
705.87	64.242
706.19	66.564
706.51	62.651
706.83	66.571
707.15	59.788
707.47	60.748
707.79	61.572
708.11	58.263
708.43	61.290
708.74	58.036
709.06	57.309
709.38	65.493
709.70	63.027
710.02	62.532
710.34	64.628
710.66	63.966
710.98	62.022
711.29	64.011
711.61	66.949
711.93	62.963
712.25	61.351
712.57	60.767
712.89	65.882
713.20	59.467
713.52	61.561
713.84	61.003
714.16	63.158
714.48	64.691
714.80	62.597
715.11	62.205
715.43	61.804
715.75	61.053
716.07	60.773
716.39	62.022
716.70	63.253
717.02	66.557
717.34	62.021
717.66	64.765
717.97	59.247
718.29	60.825
718.61	61.513
718.93	59.547
719.24	64.286
719.56	63.804
719.88	60.661
720.20	69.677
720.51	61.801
720.83	65.625
721.15	61.513
721.46	63.699
721.78	67.667
722.10	60.194
722.42	62.416
722.73	64.516
723.05	69.825
723.37	62.500
723.68	64.875
724.00	66.426
724.32	64.085
724.63	64.336
724.95	66.312
725.27	59.582
725.58	59.364
725.90	68.621
726.22	64.577
726.53	67.208
726.85	67.925
727.16	59.215
727.48	66.055
727.80	63.907
728.11	62.544
728.43	60.943
728.74	62.876
729.06	66.887
729.38	61.039
729.69	68.121
730.01	65.774
730.32	61.212
730.64	61.006
730.96	63.043
731.27	61.453
731.59	64.286
731.90	58.182
732.22	60.677
732.53	61.602
732.85	62.857
733.16	62.757
733.48	60.671
733.80	61.560
734.11	63.533
734.43	64.324
734.74	64.304
735.06	61.055
735.37	62.973
735.69	64.595
736.00	61.864
736.32	60.377
736.63	58.889
736.95	59.770
737.26	66.667
737.58	61.818
737.89	60.882
738.21	62.385
738.52	60.328
738.83	62.116
739.15	63.121
739.46	61.565
739.78	65.031
740.09	59.312
740.41	59.475
740.72	67.000
741.04	63.754
741.35	65.263
741.66	66.275
741.98	65.574
742.29	66.946
742.61	69.298
742.92	61.538
743.23	57.762
743.55	64.341
743.86	65.200
744.18	61.983
744.49	64.979
744.80	64.198
745.12	63.291
745.43	65.447
745.74	65.517
746.06	66.525
746.37	70.886
746.68	67.886
747.00	67.083
747.31	68.240
747.62	63.462
747.94	63.968
748.25	69.478
748.56	62.857
748.88	63.675
749.19	74.138
749.50	61.472
749.82	65.462
750.13	67.260
750.44	58.667
750.75	61.538
751.07	63.692
751.38	63.407
751.69	64.856
752.01	64.078
752.32	64.379
752.63	61.224
752.94	67.820
753.26	64.684
753.57	62.222
753.88	63.296
754.19	65.595
754.51	63.023
754.82	64.309
755.13	66.230
755.44	66.894
755.75	63.158
756.07	64.179
756.38	62.893
756.69	64.759
757.00	56.787
757.31	61.202
757.63	59.335
757.94	59.390
758.25	61.400
758.56	56.209
758.87	58.409
759.18	58.133
759.50	62.040
759.81	58.263
760.12	62.803
760.43	58.854
760.74	60.837
761.05	62.250
761.36	63.133
761.67	58.376
761.99	57.027
762.30	61.890
762.61	57.756
762.92	60.821
763.23	65.543
763.54	61.511
763.85	57.732
764.16	63.973
764.47	61.268
764.78	64.856
765.10	57.771
765.41	57.692
765.72	60.847
766.03	62.147
766.34	62.069
766.65	55.749
766.96	60.558
767.27	67.742
767.58	60.697
767.89	68.750
768.20	64.789
768.51	57.870
768.82	58.635
769.13	62.121
769.44	63.846
769.75	65.704
770.06	59.615
770.37	68.504
770.68	57.021
770.99	61.943
771.30	66.296
771.61	63.878
771.92	61.852
772.23	64.777
772.54	61.574
772.85	68.203
773.16	68.095
773.47	68.254
773.78	68.108
774.09	71.023
774.39	72.500
774.70	68.852
775.01	63.415
775.32	55.294
775.63	65.031
775.94	64.968
776.25	62.581
776.56	62.821
776.87	70.748
777.18	55.172
777.48	68.531
777.79	60.135
778.10	63.235
778.41	69.444
778.72	68.276
779.03	69.753
779.34	77.576
779.65	58.549
779.95	62.222
780.26	64.205
780.57	65.806
780.88	75.362
781.19	69.677
781.50	60.588
781.80	58.065
782.11	68.783
782.42	58.586
782.73	64.671
783.04	58.659
783.34	55.758
783.65	71.242
783.96	71.429
784.27	62.500
784.57	75.497
784.88	67.143
785.19	61.417
785.50	67.717
785.81	69.173
786.11	73.846
786.42	66.906
786.73	69.784
787.04	69.925
787.34	66.393
787.65	65.600
787.96	67.164
788.26	70.629
788.57	66.434
788.88	67.105
789.19	67.320
789.49	65.068
789.80	68.085
790.11	75.591
790.41	63.281
790.72	69.492
791.03	69.903
791.33	65.217
791.64	64.912
791.95	72.321
792.25	67.619
792.56	65.179
792.87	68.750
793.17	63.393
793.48	65.625
793.79	69.880
794.09	68.807
794.40	73.394
794.70	63.265
795.01	57.792
795.32	64.384
795.62	67.606
795.93	62.121
796.23	65.574
796.54	66.071
796.85	70.213
797.15	64.130
797.46	71.233
797.76	65.000
798.07	83.696
798.37	59.794
798.68	70.130
798.99	82.759
799.29	60.674
799.60	74.468
799.90	69.880
800.21	67.692
800.51	82.090
800.82	76.471
801.12	63.014
801.43	63.235
801.73	84.746
802.04	77.273
802.34	71.667
802.65	96.610
802.95	86.567
803.26	89.831
803.56	69.863
803.87	77.143
804.17	79.452
804.48	52.632
804.78	72.222
805.09	77.586
805.39	74.324
805.70	71.831
806.00	70.732
806.30	61.446
806.61	69.863
806.91	75.962
807.22	57.778
807.52	64.368
807.83	87.500
808.13	69.880
808.43	67.416
808.74	78.750
809.04	70.588
809.35	56.000
809.65	84.286
809.95	82.192
810.26	70.175
810.56	79.310
810.86	83.824
811.17	77.193
811.47	65.574
811.77	91.111
812.08	69.492
812.38	88.333
812.69	84.483
812.99	75.472
813.29	107.692
813.59	90.000
813.90	63.158
814.20	80.000
814.50	77.465
814.81	80.769
815.11	86.885
815.41	86.567
815.72	93.103
816.02	78.571
816.32	117.778
816.62	102.273
816.93	62.222
817.23	92.593
817.53	74.468
817.84	114.286
818.14	114.706
818.44	79.592
818.74	93.333
819.04	107.692
819.35	71.429
819.65	119.231
819.95	79.245
820.25	106.667
820.56	73.810
820.86	106.250
821.16	92.308
821.46	88.372
821.76	58.000
822.07	71.429
822.37	97.826
822.67	76.596
822.97	75.676
823.27	75.000
823.57	95.918
823.88	82.222
824.18	102.500
824.48	110.000
824.78	168.000
825.08	90.909
825.38	95.556
825.69	91.489
825.99	122.222
826.29	77.143
826.59	100.000
826.89	74.419
827.19	66.000
827.49	100.000
827.79	64.583
828.09	67.568
828.39	120.000
828.70	92.683
829.00	74.419
829.30	96.429
829.60	114.706
829.90	93.478
830.20	85.714
830.50	82.759
830.80	155.556
831.10	126.923
831.40	79.412
831.70	142.857
832.00	96.774
832.30	88.235
832.60	112.500
832.90	223.077
833.20	110.526
833.50	125.000
833.80	168.421
834.10	109.524
834.40	108.333
834.70	96.875
835.00	68.571
835.30	94.118
835.60	103.333
835.90	128.000
836.20	68.182
836.50	144.000
836.80	100.000
837.10	111.111
837.40	100.000
837.70	112.500
838.00	128.571
838.30	95.652
838.60	58.621
838.90	214.286
839.19	113.043
839.49	166.667
839.79	121.739
840.09	93.750
840.39	105.000
840.69	109.677
840.99	85.714
841.29	153.333
841.59	163.158
841.88	94.872
842.18	88.462
842.48	250.000
842.78	110.000
843.08	103.333
843.38	100.000
843.68	94.444
843.97	117.647
844.27	206.250
844.57	115.789
844.87	210.000
845.17	153.333
845.47	157.143
845.76	104.762
846.06	266.667
846.36	76.471
846.66	88.462
846.96	126.667
847.25	135.294
847.55	147.826
847.85	165.000
848.15	182.353
848.44	118.182
848.74	109.524
849.04	50.000
849.34	162.500
849.63	130.435
849.93	-600.000
850.23	93.333
850.53	100.000
850.82	136.364
851.12	145.455
851.42	190.909
851.71	230.769
852.01	130.000
852.31	161.538
852.61	152.632
852.90	216.667
853.20	172.222
853.50	88.889
853.79	114.286
854.09	95.455
854.39	116.667
854.68	122.581
854.98	92.308
855.28	166.667
855.57	96.429
855.87	92.000
856.17	95.455
856.46	118.519
856.76	111.111
857.05	160.870
857.35	137.500
857.65	184.615
857.94	109.524
858.24	118.519
858.53	104.348
858.83	170.588
859.13	135.294
859.42	164.706
859.72	207.143
860.01	105.000
860.31	277.778
860.60	240.000
860.90	193.333
861.20	122.222
861.49	169.231
861.79	83.333
862.08	100.000
862.38	90.625
862.67	147.059
862.97	150.000
863.26	155.556
863.56	290.000
863.85	227.273
864.15	161.111
864.44	633.333
864.74	178.571
865.03	175.000
865.33	150.000
865.62	80.645
865.92	104.545
866.21	95.652
866.51	185.714
866.80	240.000
867.10	116.667
867.39	125.000
867.69	-1400.000
867.98	414.286
868.27	147.059
868.57	1700.000
868.86	180.000
869.16	80.952
869.45	91.667
869.75	145.455
870.04	328.571
870.33	133.333
870.63	85.714
870.92	700.000
871.22	100.000
871.51	154.545
871.80	333.333
872.10	950.000
>>>>>End Processed Spectral Data<<<<<
