SpectraSuite Data File
++++++++++++++++++++++++++++++++++++
Date: Thu May 14 15:00:45 PDT 2015
User: schluterlab
Dark Spectrum Present: Yes
Reference Spectrum Present: Yes
Number of Sampled Component Spectra: 1
Spectrometers: USB2E3373
Integration Time (usec): 3000 (USB2E3373)
Spectra Averaged: 3 (USB2E3373)
Boxcar Smoothing: 0 (USB2E3373)
Correct for Electrical Dark: No (USB2E3373)
Strobe/Lamp Enabled: No (USB2E3373)
Correct for Detector Non-linearity: No (USB2E3373)
Correct for Stray Light: No (USB2E3373)
Number of Pixels in Processed Spectrum: 2048
>>>>>Begin Processed Spectral Data<<<<<
178.53	0.000
178.91	371.429
179.29	-3200.000
179.67	-2500.000
180.04	228.571
180.42	290.000
180.80	660.000
181.18	-3300.000
181.56	-1900.000
181.94	600.000
182.31	-425.000
182.69	566.667
183.07	-750.000
183.45	675.000
183.83	-433.333
184.20	-733.333
184.58	2100.000
184.96	-625.000
185.34	-177.778
185.72	-440.000
186.09	322.222
186.47	1300.000
186.85	620.000
187.23	-300.000
187.61	-2900.000
187.98	320.000
188.36	625.000
188.74	-625.000
189.12	-600.000
189.49	-131.250
189.87	-337.500
190.25	-233.333
190.63	-500.000
191.00	-233.333
191.38	0.000
191.76	-750.000
192.14	-550.000
192.51	750.000
192.89	-366.667
193.27	0.000
193.65	-200.000
194.02	-3000.000
194.40	-228.571
194.78	328.571
195.15	0.000
195.53	-109.091
195.91	0.000
196.29	-650.000
196.66	-146.154
197.04	-3000.000
197.42	-400.000
197.79	-900.000
198.17	-300.000
198.55	-428.571
198.92	-233.333
199.30	-362.500
199.68	-254.545
200.05	-150.000
200.43	-1250.000
200.81	500.000
201.18	0.000
201.56	300.000
201.94	0.000
202.31	833.333
202.69	-322.222
203.07	1500.000
203.44	-277.778
203.82	-650.000
204.19	-125.000
204.57	-450.000
204.95	-312.500
205.32	-2300.000
205.70	550.000
206.08	-333.333
206.45	-333.333
206.83	640.000
207.20	-383.333
207.58	-540.000
207.96	-416.667
208.33	-283.333
208.71	233.333
209.08	-266.667
209.46	0.000
209.84	483.333
210.21	600.000
210.59	1250.000
210.96	666.667
211.34	-550.000
211.71	-312.500
212.09	-2200.000
212.46	0.000
212.84	1450.000
213.22	-480.000
213.59	-600.000
213.97	-160.000
214.34	-633.333
214.72	500.000
215.09	-475.000
215.47	0.000
215.84	285.714
216.22	1250.000
216.59	-400.000
216.97	-540.000
217.34	-375.000
217.72	-325.000
218.09	-675.000
218.47	-650.000
218.84	0.000
219.22	460.000
219.59	-70.588
219.97	-100.000
220.34	1250.000
220.72	-300.000
221.09	-169.231
221.47	-766.667
221.84	-210.000
222.22	-385.714
222.59	0.000
222.97	-300.000
223.34	-600.000
223.72	-1300.000
224.09	-425.000
224.46	-575.000
224.84	-300.000
225.21	-357.143
225.59	-575.000
225.96	-575.000
226.34	-73.077
226.71	466.667
227.08	-1050.000
227.46	-86.667
227.83	-675.000
228.21	-52.632
228.58	212.500
228.95	1100.000
229.33	-133.333
229.70	-220.000
230.08	5.263
230.45	270.000
230.82	-433.333
231.20	-150.000
231.57	-200.000
231.95	-181.818
232.32	-227.273
232.69	-80.000
233.07	-475.000
233.44	-141.176
233.81	-190.000
234.19	-77.778
234.56	-50.000
234.93	-58.621
235.31	-78.947
235.68	-72.222
236.05	-170.000
236.43	-26.923
236.80	-20.000
237.17	-55.556
237.55	-48.485
237.92	-210.000
238.29	-48.387
238.67	-38.636
239.04	-22.222
239.41	-47.619
239.79	-41.304
240.16	-9.259
240.53	-8.696
240.91	-15.686
241.28	-3.279
241.65	0.000
242.02	0.000
242.40	-9.231
242.77	-1.333
243.14	1.220
243.51	-13.158
243.89	-2.564
244.26	18.812
244.63	11.765
245.00	14.953
245.38	18.421
245.75	5.310
246.12	13.492
246.49	13.953
246.87	25.000
247.24	19.205
247.61	15.132
247.98	18.792
248.36	18.519
248.73	15.337
249.10	19.126
249.47	24.876
249.84	23.560
250.22	21.244
250.59	25.000
250.96	26.818
251.33	22.449
251.70	26.923
252.08	24.167
252.45	25.410
252.82	22.727
253.19	22.656
253.56	20.532
253.94	20.769
254.31	28.030
254.68	29.720
255.05	26.059
255.42	25.170
255.79	25.566
256.16	25.828
256.54	23.510
256.91	27.869
257.28	26.230
257.65	23.885
258.02	21.829
258.39	25.071
258.76	26.911
259.14	28.448
259.51	24.496
259.88	26.912
260.25	27.500
260.62	26.575
260.99	31.421
261.36	27.346
261.73	25.729
262.10	28.022
262.47	27.882
262.85	27.525
263.22	25.714
263.59	23.158
263.96	27.366
264.33	28.133
264.70	29.630
265.07	29.833
265.44	29.932
265.81	28.704
266.18	30.612
266.55	28.571
266.92	27.107
267.29	32.604
267.66	26.164
268.03	30.131
268.40	29.019
268.77	24.829
269.14	26.872
269.51	29.605
269.88	29.098
270.25	26.962
270.62	30.169
270.99	33.131
271.36	29.703
271.73	27.898
272.10	29.259
272.47	26.253
272.84	29.116
273.21	27.455
273.58	26.613
273.95	27.885
274.32	25.856
274.69	27.853
275.06	29.670
275.43	25.323
275.80	28.748
276.17	25.556
276.54	24.627
276.91	29.517
277.28	24.412
277.65	26.750
278.02	29.596
278.39	28.080
278.76	27.592
279.13	27.660
279.50	26.289
279.87	29.159
280.23	24.472
280.60	28.305
280.97	28.289
281.34	25.297
281.71	30.118
282.08	25.914
282.45	25.205
282.82	27.630
283.19	25.202
283.56	26.557
283.92	28.679
284.29	28.120
284.66	28.900
285.03	24.519
285.40	29.212
285.77	26.625
286.14	26.260
286.51	28.311
286.87	26.382
287.24	28.614
287.61	27.504
287.98	25.529
288.35	24.556
288.72	27.515
289.08	27.818
289.45	23.964
289.82	23.795
290.19	24.138
290.56	26.197
290.93	25.107
291.29	26.584
291.66	26.722
292.03	25.916
292.40	28.163
292.77	24.663
293.13	25.304
293.50	23.390
293.87	25.638
294.24	26.267
294.60	24.526
294.97	22.685
295.34	25.352
295.71	21.816
296.08	23.902
296.44	22.549
296.81	23.995
297.18	24.035
297.55	23.467
297.91	23.369
298.28	21.209
298.65	22.711
299.02	22.432
299.38	22.654
299.75	20.678
300.12	21.528
300.48	23.963
300.85	21.260
301.22	22.036
301.59	21.804
301.95	22.373
302.32	21.778
302.69	21.906
303.05	22.416
303.42	21.286
303.79	22.083
304.15	22.292
304.52	21.987
304.89	21.361
305.25	21.739
305.62	21.421
305.99	21.753
306.35	21.472
306.72	21.820
307.09	21.421
307.45	21.946
307.82	22.099
308.19	20.283
308.55	21.215
308.92	22.006
309.29	21.264
309.65	22.027
310.02	21.188
310.38	21.358
310.75	22.233
311.12	22.531
311.48	20.430
311.85	21.368
312.22	21.347
312.58	19.718
312.95	21.702
313.31	20.596
313.68	21.520
314.05	21.500
314.41	22.951
314.78	22.162
315.14	21.960
315.51	22.345
315.87	21.782
316.24	22.192
316.61	22.291
316.97	21.900
317.34	21.164
317.70	23.231
318.07	23.721
318.43	22.279
318.80	22.324
319.16	22.747
319.53	20.651
319.89	21.472
320.26	22.153
320.62	21.454
320.99	21.699
321.35	22.828
321.72	22.605
322.08	23.354
322.45	22.674
322.81	23.646
323.18	21.770
323.54	21.293
323.91	23.221
324.27	22.461
324.64	23.006
325.00	22.056
325.37	23.669
325.73	23.554
326.10	23.925
326.46	23.779
326.83	24.339
327.19	24.646
327.56	22.688
327.92	23.603
328.29	23.710
328.65	22.613
329.01	23.858
329.38	23.926
329.74	24.401
330.11	23.202
330.47	23.926
330.84	23.945
331.20	23.583
331.56	24.697
331.93	24.184
332.29	24.492
332.66	23.920
333.02	24.121
333.38	23.322
333.75	23.401
334.11	23.353
334.48	23.762
334.84	23.110
335.20	23.846
335.57	23.777
335.93	23.884
336.29	22.463
336.66	23.886
337.02	22.910
337.38	24.150
337.75	23.140
338.11	23.886
338.47	25.310
338.84	23.181
339.20	22.409
339.56	21.746
339.93	22.906
340.29	23.591
340.65	23.114
341.02	23.543
341.38	24.171
341.74	23.002
342.11	23.492
342.47	23.431
342.83	24.718
343.20	24.039
343.56	23.095
343.92	25.060
344.28	23.984
344.65	23.721
345.01	22.699
345.37	23.795
345.73	23.071
346.10	24.259
346.46	23.576
346.82	24.120
347.19	23.759
347.55	23.824
347.91	23.328
348.27	24.810
348.63	25.209
349.00	23.192
349.36	25.651
349.72	23.586
350.08	24.294
350.45	23.270
350.81	23.077
351.17	23.684
351.53	24.488
351.89	24.753
352.26	23.657
352.62	23.657
352.98	24.351
353.34	22.479
353.70	25.116
354.07	24.292
354.43	23.462
354.79	24.682
355.15	23.841
355.51	24.635
355.87	23.261
356.24	24.487
356.60	23.208
356.96	24.759
357.32	23.048
357.68	24.671
358.04	23.428
358.40	24.478
358.77	24.123
359.13	25.037
359.49	22.677
359.85	24.583
360.21	25.179
360.57	23.331
360.93	23.907
361.29	24.491
361.66	23.389
362.02	24.983
362.38	24.947
362.74	24.372
363.10	24.691
363.46	25.485
363.82	24.432
364.18	25.897
364.54	25.173
364.90	24.548
365.26	24.483
365.62	25.000
365.98	24.030
366.35	25.235
366.71	26.259
367.07	25.507
367.43	24.557
367.79	24.685
368.15	25.217
368.51	25.372
368.87	25.082
369.23	25.733
369.59	25.546
369.95	24.544
370.31	26.199
370.67	24.622
371.03	25.693
371.39	25.520
371.75	25.034
372.11	25.339
372.47	25.525
372.83	26.309
373.19	24.950
373.55	24.322
373.91	24.744
374.27	25.873
374.63	26.252
374.99	25.597
375.35	26.429
375.71	24.774
376.07	25.048
376.42	25.819
376.78	26.538
377.14	25.764
377.50	26.629
377.86	26.663
378.22	25.808
378.58	26.159
378.94	25.880
379.30	26.362
379.66	26.102
380.02	25.620
380.38	26.671
380.74	26.704
381.09	27.120
381.45	26.989
381.81	27.283
382.17	26.485
382.53	26.901
382.89	25.734
383.25	27.315
383.61	26.968
383.97	26.561
384.32	27.392
384.68	25.812
385.04	28.282
385.40	28.285
385.76	27.140
386.12	27.469
386.48	28.529
386.83	27.831
387.19	26.593
387.55	27.230
387.91	27.283
388.27	28.695
388.62	28.007
388.98	26.904
389.34	28.285
389.70	27.775
390.06	28.360
390.42	28.012
390.77	28.356
391.13	28.462
391.49	28.140
391.85	28.545
392.20	28.588
392.56	28.529
392.92	28.081
393.28	28.856
393.64	28.324
393.99	28.995
394.35	28.388
394.71	27.725
395.07	28.683
395.42	28.498
395.78	28.519
396.14	28.758
396.50	27.850
396.85	28.086
397.21	27.988
397.57	28.740
397.92	28.007
398.28	28.191
398.64	28.490
399.00	27.853
399.35	28.220
399.71	27.935
400.07	28.523
400.42	27.823
400.78	27.257
401.14	28.458
401.49	28.823
401.85	29.186
402.21	29.085
402.57	29.754
402.92	28.369
403.28	26.874
403.63	27.029
403.99	27.316
404.35	27.800
404.70	27.989
405.06	28.315
405.42	28.396
405.77	28.462
406.13	27.769
406.49	28.097
406.84	28.255
407.20	28.228
407.55	29.255
407.91	28.158
408.27	27.856
408.62	27.807
408.98	28.555
409.34	27.683
409.69	28.183
410.05	28.019
410.40	29.060
410.76	28.155
411.11	28.989
411.47	28.808
411.83	28.630
412.18	29.759
412.54	28.275
412.89	28.638
413.25	28.160
413.60	29.179
413.96	28.904
414.31	28.385
414.67	27.609
415.03	28.615
415.38	29.130
415.74	28.467
416.09	29.673
416.45	28.491
416.80	28.152
417.16	28.416
417.51	28.331
417.87	28.387
418.22	28.204
418.58	28.996
418.93	28.172
419.29	28.853
419.64	28.391
420.00	29.258
420.35	29.534
420.71	28.489
421.06	28.522
421.42	28.670
421.77	28.595
422.12	28.171
422.48	28.674
422.83	29.189
423.19	29.072
423.54	28.319
423.90	28.106
424.25	29.120
424.61	29.162
424.96	29.105
425.31	28.928
425.67	28.180
426.02	30.216
426.38	29.219
426.73	28.683
427.09	29.585
427.44	29.383
427.79	29.022
428.15	29.053
428.50	29.551
428.85	29.392
429.21	30.372
429.56	29.418
429.92	29.238
430.27	29.880
430.62	29.800
430.98	29.857
431.33	29.521
431.68	29.550
432.04	30.422
432.39	29.620
432.74	30.479
433.10	30.341
433.45	29.543
433.80	29.721
434.16	30.682
434.51	30.216
434.86	30.999
435.22	30.287
435.57	30.837
435.92	29.994
436.28	29.977
436.63	31.131
436.98	29.737
437.34	30.158
437.69	29.939
438.04	30.513
438.39	30.729
438.75	30.603
439.10	32.135
439.45	30.520
439.81	31.921
440.16	30.027
440.51	31.438
440.86	31.684
441.22	32.047
441.57	31.342
441.92	30.068
442.27	31.616
442.63	31.197
442.98	31.537
443.33	30.878
443.68	31.318
444.03	33.020
444.39	31.669
444.74	31.496
445.09	30.816
445.44	31.718
445.79	31.513
446.15	30.884
446.50	31.990
446.85	31.809
447.20	32.205
447.55	31.747
447.91	32.042
448.26	32.347
448.61	31.668
448.96	33.047
449.31	31.760
449.66	31.318
450.02	32.120
450.37	30.954
450.72	32.293
451.07	31.378
451.42	31.600
451.77	32.407
452.12	32.957
452.47	32.501
452.83	33.108
453.18	32.750
453.53	31.821
453.88	30.977
454.23	31.977
454.58	32.966
454.93	32.160
455.28	32.751
455.63	32.746
455.98	32.011
456.34	32.980
456.69	32.569
457.04	32.683
457.39	32.206
457.74	32.718
458.09	32.455
458.44	32.274
458.79	32.439
459.14	32.879
459.49	32.598
459.84	33.316
460.19	32.537
460.54	32.368
460.89	33.192
461.24	32.816
461.59	32.540
461.94	31.432
462.29	33.483
462.64	33.555
462.99	33.208
463.34	32.576
463.69	33.470
464.04	32.240
464.39	32.960
464.74	32.440
465.09	33.391
465.44	32.725
465.79	32.628
466.14	33.351
466.49	33.105
466.84	33.609
467.19	33.064
467.54	33.137
467.89	32.931
468.24	33.075
468.59	32.542
468.94	32.925
469.29	33.113
469.64	33.757
469.99	33.015
470.34	33.292
470.68	34.381
471.03	34.905
471.38	33.617
471.73	34.005
472.08	35.089
472.43	33.293
472.78	34.383
473.13	34.640
473.48	32.931
473.83	34.997
474.17	34.232
474.52	34.275
474.87	33.333
475.22	33.915
475.57	34.216
475.92	34.146
476.27	33.759
476.61	34.735
476.96	33.316
477.31	34.901
477.66	34.050
478.01	34.215
478.36	33.151
478.70	33.350
479.05	34.305
479.40	34.847
479.75	34.630
480.10	35.102
480.45	34.959
480.79	35.057
481.14	34.007
481.49	33.848
481.84	34.813
482.19	34.065
482.53	35.155
482.88	34.692
483.23	34.904
483.58	34.323
483.92	34.087
484.27	34.547
484.62	34.117
484.97	33.593
485.31	32.841
485.66	31.623
486.01	30.729
486.36	31.808
486.70	33.558
487.05	35.123
487.40	34.363
487.75	34.275
488.09	34.150
488.44	33.046
488.79	33.423
489.13	33.816
489.48	33.942
489.83	35.010
490.17	34.629
490.52	34.154
490.87	35.068
491.22	34.532
491.56	35.068
491.91	35.369
492.26	34.833
492.60	35.155
492.95	35.191
493.30	34.962
493.64	35.961
493.99	34.649
494.34	35.105
494.68	35.161
495.03	35.947
495.37	34.887
495.72	35.147
496.07	34.268
496.41	35.307
496.76	35.279
497.11	35.754
497.45	35.218
497.80	35.584
498.14	34.830
498.49	35.846
498.84	35.695
499.18	34.593
499.53	35.605
499.87	35.473
500.22	35.663
500.56	35.762
500.91	36.430
501.26	36.182
501.60	35.926
501.95	35.215
502.29	35.235
502.64	36.248
502.98	35.418
503.33	35.508
503.67	34.932
504.02	35.771
504.36	36.997
504.71	35.967
505.06	36.426
505.40	35.375
505.75	36.840
506.09	36.280
506.44	37.233
506.78	36.422
507.13	37.068
507.47	37.518
507.82	36.979
508.16	36.616
508.51	36.990
508.85	37.742
509.19	37.091
509.54	37.320
509.88	37.397
510.23	38.174
510.57	38.134
510.92	37.349
511.26	36.412
511.61	37.228
511.95	37.775
512.30	38.405
512.64	37.231
512.98	37.919
513.33	38.659
513.67	38.093
514.02	39.346
514.36	38.875
514.70	39.219
515.05	39.312
515.39	39.738
515.74	40.085
516.08	39.144
516.42	39.822
516.77	40.063
517.11	39.866
517.46	38.600
517.80	39.979
518.14	40.696
518.49	39.751
518.83	39.702
519.17	39.203
519.52	40.461
519.86	39.599
520.20	40.043
520.55	39.102
520.89	40.203
521.23	40.815
521.58	41.073
521.92	40.850
522.26	40.206
522.61	40.625
522.95	40.600
523.29	42.069
523.64	41.256
523.98	41.301
524.32	42.865
524.66	40.808
525.01	39.411
525.35	39.977
525.69	39.675
526.04	39.265
526.38	41.034
526.72	41.638
527.06	41.760
527.41	41.633
527.75	41.330
528.09	40.909
528.43	41.385
528.78	40.867
529.12	39.966
529.46	40.360
529.80	41.419
530.15	40.464
530.49	41.044
530.83	41.499
531.17	40.980
531.51	41.757
531.86	42.308
532.20	42.073
532.54	40.575
532.88	40.545
533.22	41.308
533.57	39.642
533.91	41.190
534.25	40.305
534.59	40.862
534.93	41.087
535.27	40.958
535.62	41.330
535.96	41.429
536.30	40.482
536.64	40.661
536.98	41.697
537.32	40.247
537.66	42.483
538.01	40.906
538.35	40.438
538.69	40.685
539.03	40.956
539.37	40.283
539.71	40.420
540.05	40.588
540.39	39.853
540.73	39.526
541.07	41.018
541.42	39.752
541.76	38.849
542.10	40.290
542.44	39.708
542.78	40.572
543.12	38.617
543.46	41.087
543.80	39.808
544.14	40.275
544.48	40.366
544.82	41.352
545.16	40.608
545.50	40.623
545.84	39.253
546.18	40.494
546.52	40.255
546.86	40.063
547.20	40.585
547.54	39.388
547.88	39.301
548.22	39.591
548.56	39.380
548.90	40.239
549.24	39.635
549.58	40.063
549.92	39.541
550.26	40.194
550.60	39.566
550.94	39.651
551.28	40.528
551.62	41.712
551.96	39.547
552.30	40.790
552.64	39.266
552.98	39.551
553.32	41.286
553.66	40.514
554.00	40.479
554.34	40.412
554.68	39.187
555.02	40.604
555.36	40.434
555.69	39.398
556.03	39.533
556.37	39.987
556.71	40.647
557.05	39.872
557.39	39.217
557.73	39.300
558.07	38.675
558.41	40.266
558.75	40.703
559.08	41.406
559.42	39.232
559.76	39.620
560.10	40.054
560.44	39.908
560.78	39.438
561.12	40.394
561.45	39.355
561.79	39.744
562.13	40.173
562.47	38.718
562.81	40.696
563.15	40.341
563.48	40.522
563.82	39.299
564.16	39.310
564.50	38.856
564.84	39.941
565.17	39.529
565.51	38.665
565.85	39.133
566.19	38.998
566.52	39.555
566.86	39.332
567.20	38.390
567.54	38.449
567.88	38.634
568.21	37.945
568.55	37.266
568.89	38.175
569.23	36.967
569.56	37.085
569.90	36.636
570.24	36.695
570.57	35.536
570.91	35.058
571.25	35.233
571.59	35.096
571.92	35.261
572.26	35.230
572.60	34.589
572.93	34.345
573.27	34.841
573.61	34.701
573.95	34.159
574.28	34.081
574.62	33.879
574.96	33.855
575.29	33.620
575.63	33.657
575.97	34.826
576.30	33.851
576.64	34.097
576.98	33.554
577.31	33.509
577.65	33.966
577.98	33.396
578.32	33.113
578.66	33.867
578.99	34.077
579.33	34.237
579.67	33.749
580.00	34.008
580.34	33.704
580.67	32.966
581.01	33.059
581.35	32.866
581.68	32.742
582.02	32.818
582.35	33.574
582.69	34.092
583.02	34.218
583.36	33.970
583.70	33.492
584.03	33.597
584.37	33.424
584.70	32.934
585.04	32.458
585.37	32.788
585.71	32.988
586.04	33.135
586.38	33.705
586.72	33.091
587.05	33.231
587.39	33.857
587.72	33.612
588.06	33.583
588.39	33.557
588.73	32.487
589.06	33.973
589.40	34.020
589.73	34.640
590.07	34.416
590.40	34.888
590.73	34.464
591.07	35.294
591.40	35.264
591.74	34.261
592.07	34.876
592.41	34.503
592.74	34.292
593.08	33.503
593.41	34.966
593.75	34.138
594.08	34.565
594.41	34.263
594.75	34.208
595.08	33.984
595.42	33.961
595.75	34.324
596.09	34.158
596.42	34.325
596.75	34.543
597.09	35.111
597.42	34.525
597.75	34.418
598.09	35.317
598.42	34.178
598.76	33.626
599.09	33.749
599.42	32.953
599.76	33.608
600.09	33.066
600.42	33.934
600.76	33.719
601.09	33.521
601.42	33.848
601.76	33.276
602.09	33.417
602.42	33.333
602.76	33.542
603.09	33.811
603.42	33.960
603.76	33.439
604.09	34.847
604.42	34.092
604.76	34.094
605.09	34.344
605.42	33.692
605.75	33.654
606.09	33.109
606.42	32.835
606.75	33.358
607.09	33.641
607.42	33.218
607.75	34.506
608.08	33.583
608.42	33.293
608.75	33.872
609.08	32.937
609.41	33.789
609.75	33.973
610.08	34.521
610.41	33.687
610.74	34.244
611.07	34.725
611.41	34.260
611.74	34.550
612.07	33.661
612.40	34.221
612.73	35.110
613.07	34.670
613.40	34.601
613.73	35.051
614.06	35.083
614.39	34.354
614.72	33.721
615.06	34.408
615.39	33.736
615.72	34.360
616.05	33.560
616.38	33.855
616.71	34.326
617.05	35.091
617.38	34.671
617.71	34.881
618.04	34.431
618.37	34.426
618.70	35.407
619.03	34.468
619.36	34.895
619.69	35.618
620.03	33.836
620.36	34.356
620.69	35.472
621.02	35.302
621.35	37.083
621.68	36.587
622.01	36.014
622.34	35.774
622.67	35.670
623.00	34.750
623.33	36.032
623.66	34.890
623.99	34.694
624.32	35.608
624.65	33.655
624.99	36.021
625.32	36.120
625.65	34.997
625.98	35.390
626.31	36.286
626.64	35.971
626.97	35.709
627.30	36.446
627.63	35.409
627.96	36.787
628.29	37.821
628.62	35.768
628.95	37.423
629.28	36.534
629.61	37.037
629.94	35.565
630.26	36.356
630.59	36.615
630.92	37.143
631.25	36.047
631.58	37.571
631.91	37.582
632.24	37.656
632.57	36.622
632.90	37.212
633.23	36.939
633.56	38.469
633.89	37.190
634.22	39.189
634.55	37.056
634.88	39.394
635.20	37.675
635.53	40.000
635.86	38.570
636.19	39.130
636.52	37.869
636.85	36.261
637.18	36.798
637.51	37.204
637.83	39.203
638.16	39.747
638.49	37.793
638.82	37.993
639.15	38.259
639.48	38.915
639.81	36.952
640.13	39.458
640.46	37.576
640.79	37.868
641.12	37.019
641.45	38.018
641.77	39.538
642.10	37.402
642.43	40.160
642.76	37.805
643.09	38.767
643.41	37.955
643.74	39.448
644.07	38.207
644.40	40.594
644.73	38.752
645.05	38.913
645.38	38.993
645.71	40.323
646.04	38.594
646.36	39.270
646.69	38.957
647.02	39.602
647.35	39.084
647.67	41.063
648.00	38.535
648.33	37.237
648.66	37.803
648.98	36.871
649.31	37.483
649.64	38.778
649.96	37.003
650.29	37.274
650.62	36.775
650.94	39.189
651.27	36.677
651.60	35.673
651.92	38.298
652.25	36.179
652.58	37.139
652.90	35.174
653.23	37.183
653.56	35.949
653.88	37.079
654.21	35.775
654.54	35.549
654.86	37.535
655.19	33.501
655.52	33.280
655.84	30.102
656.17	34.965
656.49	48.485
656.82	52.320
657.15	41.029
657.47	30.896
657.80	23.003
658.13	17.564
658.45	23.187
658.78	27.720
659.10	27.213
659.43	26.511
659.75	26.226
660.08	26.275
660.41	26.634
660.73	29.532
661.06	32.599
661.38	34.928
661.71	35.862
662.03	37.743
662.36	38.462
662.68	39.212
663.01	36.283
663.33	40.643
663.66	38.462
663.98	38.462
664.31	38.086
664.63	34.297
664.96	36.298
665.28	33.212
665.61	36.888
665.93	36.964
666.26	36.738
666.58	37.638
666.91	39.813
667.23	39.048
667.56	35.503
667.88	39.400
668.21	36.328
668.53	33.977
668.86	38.114
669.18	35.438
669.50	38.767
669.83	35.600
670.15	37.205
670.48	34.722
670.80	34.608
671.13	36.295
671.45	34.449
671.77	38.983
672.10	33.667
672.42	37.217
672.75	33.333
673.07	33.582
673.39	31.125
673.72	35.235
674.04	36.724
674.37	35.063
674.69	36.684
675.01	34.667
675.34	35.115
675.66	35.768
675.98	36.381
676.31	34.180
676.63	37.833
676.95	34.483
677.28	33.871
677.60	35.433
677.92	35.893
678.25	35.466
678.57	35.409
678.89	36.177
679.22	33.275
679.54	33.162
679.86	32.881
680.18	32.338
680.51	33.805
680.83	33.388
681.15	33.793
681.48	35.579
681.80	34.888
682.12	36.014
682.44	34.891
682.77	32.092
683.09	35.606
683.41	35.853
683.73	38.140
684.06	33.948
684.38	30.769
684.70	35.009
685.02	34.596
685.34	30.283
685.67	33.123
685.99	33.896
686.31	29.942
686.63	33.333
686.96	31.546
687.28	32.899
687.60	31.650
687.92	31.511
688.24	30.718
688.56	32.069
688.89	32.305
689.21	33.464
689.53	30.196
689.85	32.150
690.17	32.037
690.49	34.263
690.82	33.267
691.14	32.794
691.46	32.314
691.78	34.991
692.10	29.174
692.42	30.179
692.74	30.490
693.06	28.889
693.39	33.017
693.71	32.143
694.03	33.829
694.35	32.952
694.67	31.828
694.99	32.553
695.31	34.879
695.63	33.766
695.95	34.369
696.27	32.308
696.59	34.292
696.91	34.234
697.23	34.945
697.56	29.124
697.88	32.008
698.20	31.638
698.52	32.576
698.84	33.680
699.16	32.857
699.48	31.590
699.80	30.638
700.12	31.659
700.44	29.724
700.76	34.204
701.08	31.235
701.40	31.865
701.72	33.085
702.04	35.027
702.36	31.937
702.68	33.252
703.00	29.584
703.32	31.034
703.64	31.785
703.96	30.788
704.28	29.730
704.60	31.646
704.91	32.908
705.23	32.877
705.55	35.655
705.87	36.667
706.19	37.117
706.51	29.819
706.83	32.277
707.15	28.307
707.47	31.776
707.79	30.131
708.11	28.390
708.43	30.753
708.74	26.562
709.06	31.787
709.38	29.108
709.70	31.762
710.02	33.592
710.34	32.447
710.66	28.771
710.98	30.601
711.29	30.769
711.61	33.333
711.93	31.339
712.25	27.838
712.57	30.678
712.89	34.706
713.20	27.515
713.52	28.035
713.84	29.805
714.16	31.842
714.48	30.670
714.80	30.649
715.11	30.184
715.43	29.973
715.75	30.000
716.07	30.110
716.39	28.415
716.70	30.723
717.02	30.820
717.34	27.875
717.66	30.872
717.97	25.000
718.29	28.866
718.61	26.974
718.93	32.362
719.24	28.882
719.56	27.914
719.88	30.931
720.20	27.419
720.51	31.366
720.83	28.125
721.15	28.618
721.46	24.658
721.78	31.333
722.10	26.537
722.42	26.846
722.73	27.742
723.05	29.825
723.37	27.778
723.68	32.258
724.00	26.354
724.32	26.761
724.63	29.720
724.95	25.887
725.27	27.875
725.58	22.615
725.90	28.966
726.22	25.392
726.53	30.519
726.85	32.390
727.16	29.909
727.48	29.052
727.80	28.146
728.11	26.855
728.43	26.599
728.74	28.428
729.06	26.490
729.38	27.922
729.69	24.832
730.01	26.786
730.32	23.030
730.64	28.931
730.96	22.360
731.27	28.492
731.59	30.495
731.90	23.117
732.22	24.219
732.53	24.033
732.85	26.000
733.16	25.513
733.48	23.476
733.80	24.513
734.11	24.217
734.43	25.405
734.74	28.354
735.06	24.372
735.37	28.108
735.69	27.297
736.00	28.531
736.32	23.181
736.63	27.222
736.95	24.138
737.26	24.848
737.58	25.152
737.89	28.529
738.21	24.159
738.52	26.885
738.83	26.280
739.15	26.950
739.46	29.932
739.78	24.540
740.09	25.501
740.41	29.155
740.72	27.000
741.04	25.890
741.35	27.368
741.66	27.843
741.98	25.410
742.29	29.289
742.61	30.263
742.92	21.538
743.23	24.910
743.55	26.744
743.86	26.800
744.18	24.380
744.49	23.629
744.80	27.984
745.12	24.051
745.43	26.423
745.74	22.414
746.06	30.932
746.37	28.270
746.68	26.829
747.00	25.000
747.31	26.180
747.62	27.308
747.94	26.721
748.25	22.892
748.56	20.816
748.88	23.077
749.19	30.172
749.50	29.004
749.82	32.129
750.13	29.537
750.44	23.667
750.75	26.462
751.07	22.462
751.38	26.498
751.69	23.962
752.01	27.508
752.32	24.837
752.63	29.592
752.94	25.606
753.26	24.907
753.57	21.111
753.88	25.468
754.19	26.367
754.51	22.830
754.82	24.437
755.13	22.951
755.44	23.891
755.75	25.000
756.07	28.358
756.38	24.528
756.69	23.494
757.00	22.715
757.31	20.492
757.63	22.251
757.94	24.883
758.25	20.993
758.56	24.837
758.87	23.409
759.18	24.267
759.50	24.929
759.81	26.050
760.12	24.528
760.43	26.823
760.74	24.631
761.05	22.250
761.36	22.410
761.67	21.320
761.99	22.703
762.30	21.341
762.61	24.092
762.92	25.373
763.23	25.843
763.54	24.101
763.85	25.430
764.16	24.916
764.47	25.000
764.78	25.240
765.10	23.460
765.41	24.359
765.72	19.841
766.03	23.729
766.34	19.749
766.65	17.422
766.96	25.100
767.27	24.885
767.58	16.915
767.89	28.846
768.20	22.066
768.51	22.222
768.82	28.514
769.13	23.106
769.44	16.538
769.75	23.105
770.06	21.538
770.37	30.315
770.68	17.447
770.99	19.838
771.30	27.037
771.61	16.350
771.92	20.741
772.23	24.291
772.54	18.056
772.85	20.276
773.16	23.810
773.47	18.519
773.78	16.216
774.09	21.023
774.39	25.500
774.70	24.044
775.01	18.293
775.32	15.882
775.63	25.767
775.94	12.739
776.25	23.226
776.56	19.872
776.87	19.728
777.18	24.138
777.48	17.483
777.79	20.270
778.10	12.500
778.41	15.972
778.72	21.379
779.03	17.901
779.34	12.121
779.65	21.244
779.95	20.000
780.26	19.886
780.57	18.710
780.88	26.812
781.19	24.516
781.50	23.529
781.80	22.581
782.11	22.222
782.42	18.182
782.73	20.958
783.04	12.849
783.34	12.727
783.65	9.150
783.96	13.043
784.27	13.095
784.57	19.868
784.88	19.286
785.19	18.898
785.50	15.748
785.81	11.278
786.11	10.000
786.42	11.511
786.73	17.986
787.04	16.541
787.34	9.016
787.65	15.200
787.96	20.149
788.26	14.685
788.57	18.182
788.88	18.421
789.19	18.954
789.49	14.384
789.80	12.766
790.11	13.386
790.41	15.625
790.72	8.475
791.03	4.854
791.33	12.174
791.64	14.912
791.95	8.036
792.25	12.381
792.56	4.464
792.87	8.333
793.17	15.179
793.48	4.167
793.79	-7.229
794.09	3.670
794.40	14.679
794.70	15.646
795.01	9.740
795.32	8.219
795.62	17.606
795.93	17.424
796.23	9.836
796.54	8.036
796.85	-2.128
797.15	1.087
797.46	-16.438
797.76	2.500
798.07	13.043
798.37	1.031
798.68	9.091
798.99	16.092
799.29	5.618
799.60	6.383
799.90	-8.434
800.21	-9.231
800.51	0.000
800.82	-11.765
801.12	4.110
801.43	-7.353
801.73	-5.085
802.04	0.000
802.34	-28.333
802.65	-1.695
802.95	-1.493
803.26	-10.169
803.56	-10.959
803.87	-7.143
804.17	2.740
804.48	-28.070
804.78	-1.389
805.09	-8.621
805.39	14.865
805.70	-21.127
806.00	1.220
806.30	6.024
806.61	-9.589
806.91	10.577
807.22	0.000
807.52	-5.747
807.83	11.111
808.13	1.205
808.43	4.494
808.74	-6.250
809.04	-8.824
809.35	0.000
809.65	10.000
809.95	-5.479
810.26	-12.281
810.56	-13.793
810.86	-7.353
811.17	-14.035
811.47	-1.639
811.77	-11.111
812.08	-1.695
812.38	-16.667
812.69	-6.897
812.99	-9.434
813.29	-51.282
813.59	-4.000
813.90	-21.053
814.20	-1.818
814.50	14.085
814.81	-3.846
815.11	-9.836
815.41	-7.463
815.72	8.621
816.02	-7.143
816.32	-17.778
816.62	-20.455
816.93	-28.889
817.23	-3.704
817.53	-12.766
817.84	-14.286
818.14	-14.706
818.44	0.000
818.74	-11.111
819.04	-28.205
819.35	-51.429
819.65	-76.923
819.95	-16.981
820.25	0.000
820.56	-38.095
820.86	-25.000
821.16	-38.462
821.46	-30.233
821.76	-18.000
822.07	-8.929
822.37	-34.783
822.67	-14.894
822.97	-59.459
823.27	-7.500
823.57	-12.245
823.88	-6.667
824.18	-20.000
824.48	-66.667
824.78	-68.000
825.08	-9.091
825.38	0.000
825.69	-19.149
825.99	-33.333
826.29	-65.714
826.59	-28.205
826.89	-27.907
827.19	-12.000
827.49	0.000
827.79	-6.250
828.09	-21.622
828.39	-63.333
828.70	-39.024
829.00	-18.605
829.30	-67.857
829.60	-26.471
829.90	-30.435
830.20	-34.286
830.50	-75.862
830.80	-100.000
831.10	-69.231
831.40	-58.824
831.70	-104.762
832.00	-16.129
832.30	-205.882
832.60	-45.833
832.90	-176.923
833.20	-110.526
833.50	-95.000
833.80	-110.526
834.10	-109.524
834.40	-36.111
834.70	-43.750
835.00	-65.714
835.30	-47.059
835.60	-56.667
835.90	-40.000
836.20	-122.727
836.50	-48.000
836.80	-57.576
837.10	-55.556
837.40	-37.037
837.70	-131.250
838.00	-50.000
838.30	-73.913
838.60	-58.621
838.90	-92.857
839.19	-139.130
839.49	-208.333
839.79	-78.261
840.09	-131.250
840.39	-105.000
840.69	-38.710
840.99	-42.857
841.29	-140.000
841.59	-131.579
841.88	-30.769
842.18	-92.308
842.48	-170.000
842.78	-95.000
843.08	-33.333
843.38	-38.710
843.68	-94.444
843.97	-26.471
844.27	-93.750
844.57	-94.737
844.87	-240.000
845.17	-20.000
845.47	-66.667
845.76	-104.762
846.06	-144.444
846.36	-152.941
846.66	-50.000
846.96	-193.333
847.25	-111.765
847.55	-47.826
847.85	-55.000
848.15	-76.471
848.44	-163.636
848.74	-57.143
849.04	-100.000
849.34	-193.750
849.63	-56.522
849.93	1000.000
850.23	-180.000
850.53	-46.154
850.82	-172.727
851.12	-22.727
851.42	-181.818
851.71	-84.615
852.01	-75.000
852.31	-130.769
852.61	-63.158
852.90	-83.333
853.20	-77.778
853.50	-233.333
853.79	-71.429
854.09	-122.727
854.39	-216.667
854.68	-61.290
854.98	-88.462
855.28	-138.889
855.57	-75.000
855.87	-64.000
856.17	-104.545
856.46	-81.481
856.76	-88.889
857.05	-104.348
857.35	-50.000
857.65	-169.231
857.94	-66.667
858.24	-40.741
858.53	-56.522
858.83	-76.471
859.13	-105.882
859.42	-88.235
859.72	-35.714
860.01	-85.000
860.31	-233.333
860.60	-200.000
860.90	-120.000
861.20	-111.111
861.49	-107.692
861.79	-40.000
862.08	-192.308
862.38	-40.625
862.67	-70.588
862.97	-112.500
863.26	-233.333
863.56	-210.000
863.85	-163.636
864.15	-83.333
864.44	-733.333
864.74	-150.000
865.03	-150.000
865.33	-320.000
865.62	-67.742
865.92	-45.455
866.21	-56.522
866.51	-85.714
866.80	-540.000
867.10	-141.667
867.39	-175.000
867.69	2800.000
867.98	-300.000
868.27	-88.235
868.57	-3600.000
868.86	-170.000
869.16	-100.000
869.45	-62.500
869.75	-136.364
870.04	-300.000
870.33	-158.333
870.63	-342.857
870.92	-325.000
871.22	-300.000
871.51	-227.273
871.80	-966.667
872.10	-1450.000
>>>>>End Processed Spectral Data<<<<<
