SpectraSuite Data File
++++++++++++++++++++++++++++++++++++
Date: Thu May 14 14:42:25 PDT 2015
User: schluterlab
Dark Spectrum Present: Yes
Reference Spectrum Present: Yes
Number of Sampled Component Spectra: 1
Spectrometers: USB2E3373
Integration Time (usec): 3000 (USB2E3373)
Spectra Averaged: 3 (USB2E3373)
Boxcar Smoothing: 0 (USB2E3373)
Correct for Electrical Dark: No (USB2E3373)
Strobe/Lamp Enabled: No (USB2E3373)
Correct for Detector Non-linearity: No (USB2E3373)
Correct for Stray Light: No (USB2E3373)
Number of Pixels in Processed Spectrum: 2048
>>>>>Begin Processed Spectral Data<<<<<
178.53	0.000
178.91	-42.857
179.29	200.000
179.67	-200.000
180.04	71.429
180.42	-30.000
180.80	40.000
181.18	300.000
181.56	700.000
181.94	-75.000
182.31	275.000
182.69	-66.667
183.07	-50.000
183.45	-100.000
183.83	83.333
184.20	200.000
184.58	-300.000
184.96	100.000
185.34	133.333
185.72	180.000
186.09	11.111
186.47	50.000
186.85	-40.000
187.23	0.000
187.61	-600.000
187.98	-40.000
188.36	-50.000
188.74	375.000
189.12	0.000
189.49	68.750
189.87	37.500
190.25	100.000
190.63	280.000
191.00	33.333
191.38	0.000
191.76	-225.000
192.14	-66.667
192.51	-100.000
192.89	83.333
193.27	0.000
193.65	142.857
194.02	700.000
194.40	100.000
194.78	-14.286
195.15	0.000
195.53	136.364
195.91	0.000
196.29	25.000
196.66	92.308
197.04	-300.000
197.42	-28.571
197.79	150.000
198.17	175.000
198.55	85.714
198.92	88.889
199.30	-75.000
199.68	127.273
200.05	35.714
200.43	-300.000
200.81	28.571
201.18	0.000
201.56	100.000
201.94	0.000
202.31	166.667
202.69	33.333
203.07	-800.000
203.44	0.000
203.82	-100.000
204.19	66.667
204.57	66.667
204.95	0.000
205.32	100.000
205.70	-175.000
206.08	33.333
206.45	66.667
206.83	100.000
207.20	233.333
207.58	120.000
207.96	100.000
208.33	266.667
208.71	8.333
209.08	83.333
209.46	0.000
209.84	16.667
210.21	-650.000
210.59	-350.000
210.96	233.333
211.34	200.000
211.71	25.000
212.09	-300.000
212.46	0.000
212.84	500.000
213.22	-40.000
213.59	0.000
213.97	160.000
214.34	166.667
214.72	33.333
215.09	-125.000
215.47	0.000
215.84	-57.143
216.22	250.000
216.59	200.000
216.97	0.000
217.34	200.000
217.72	112.500
218.09	125.000
218.47	50.000
218.84	0.000
219.22	-40.000
219.59	29.412
219.97	60.000
220.34	250.000
220.72	33.333
221.09	30.769
221.47	233.333
221.84	90.000
222.22	14.286
222.59	0.000
222.97	137.500
223.34	20.000
223.72	0.000
224.09	-125.000
224.46	-175.000
224.84	300.000
225.21	-28.571
225.59	-100.000
225.96	50.000
226.34	80.769
226.71	233.333
227.08	100.000
227.46	26.667
227.83	175.000
228.21	89.474
228.58	25.000
228.95	150.000
229.33	16.667
229.70	170.000
230.08	84.211
230.45	30.000
230.82	66.667
231.20	28.571
231.57	58.333
231.95	54.545
232.32	81.818
232.69	15.000
233.07	300.000
233.44	70.588
233.81	60.000
234.19	61.111
234.56	40.909
234.93	37.931
235.31	52.632
235.68	72.222
236.05	-10.000
236.43	34.615
236.80	44.000
237.17	44.444
237.55	21.212
237.92	60.000
238.29	41.935
238.67	29.545
239.04	50.000
239.41	30.952
239.79	32.609
240.16	11.111
240.53	28.261
240.91	-5.882
241.28	16.393
241.65	22.388
242.02	21.622
242.40	16.923
242.77	17.333
243.14	19.512
243.51	14.474
243.89	10.256
244.26	16.832
244.63	20.588
245.00	3.738
245.38	9.649
245.75	10.619
246.12	18.254
246.49	10.853
246.87	15.714
247.24	18.543
247.61	15.132
247.98	18.121
248.36	8.025
248.73	6.135
249.10	13.661
249.47	16.418
249.84	20.419
250.22	13.472
250.59	14.444
250.96	16.364
251.33	4.592
251.70	10.684
252.08	15.000
252.45	15.574
252.82	9.091
253.19	12.891
253.56	9.886
253.94	10.385
254.31	10.606
254.68	15.385
255.05	16.938
255.42	13.265
255.79	10.032
256.16	11.258
256.54	11.921
256.91	11.148
257.28	9.508
257.65	11.783
258.02	10.914
258.39	12.821
258.76	14.679
259.14	12.069
259.51	13.833
259.88	10.198
260.25	11.111
260.62	11.233
260.99	13.115
261.36	12.869
261.73	9.549
262.10	10.165
262.47	9.920
262.85	14.899
263.22	10.390
263.59	8.947
263.96	12.276
264.33	9.974
264.70	11.852
265.07	11.456
265.44	12.245
265.81	8.102
266.18	14.966
266.55	10.937
266.92	10.251
267.29	12.691
267.66	10.643
268.03	12.445
268.40	11.273
268.77	8.656
269.14	8.811
269.51	11.404
269.88	12.910
270.25	12.475
270.62	11.392
270.99	13.737
271.36	12.277
271.73	11.591
272.10	11.824
272.47	12.224
272.84	9.438
273.21	11.222
273.58	11.290
273.95	10.192
274.32	13.118
274.69	9.091
275.06	11.905
275.43	10.536
275.80	11.640
276.17	10.370
276.54	9.888
276.91	12.165
277.28	10.669
277.65	10.413
278.02	11.213
278.39	10.688
278.76	8.787
279.13	9.574
279.50	11.340
279.87	11.628
280.23	6.514
280.60	9.322
280.97	10.197
281.34	9.338
281.71	13.029
282.08	8.638
282.45	10.802
282.82	11.303
283.19	9.370
283.56	10.492
283.92	11.411
284.29	12.322
284.66	9.688
285.03	8.654
285.40	10.510
285.77	9.133
286.14	11.450
286.51	12.938
286.87	9.953
287.24	8.584
287.61	11.510
287.98	7.100
288.35	9.467
288.72	8.580
289.08	10.688
289.45	9.172
289.82	10.542
290.19	10.201
290.56	10.704
290.93	9.558
291.29	10.468
291.66	7.851
292.03	8.277
292.40	10.476
292.77	8.491
293.13	9.608
293.50	9.461
293.87	9.530
294.24	10.400
294.60	8.344
294.97	7.248
295.34	9.091
295.71	8.449
296.08	9.044
296.44	9.681
296.81	8.161
297.18	8.966
297.55	8.726
297.91	8.066
298.28	7.938
298.65	7.729
299.02	8.028
299.38	8.009
299.75	8.528
300.12	7.870
300.48	8.295
300.85	8.549
301.22	7.606
301.59	5.936
301.95	8.249
302.32	8.333
302.69	7.119
303.05	7.726
303.42	9.091
303.79	8.333
304.15	10.095
304.52	7.188
304.89	8.796
305.25	7.350
305.62	9.091
305.99	7.835
306.35	7.258
306.72	8.687
307.09	7.107
307.45	7.867
307.82	7.770
308.19	7.568
308.55	9.257
308.92	7.984
309.29	7.759
309.65	8.382
310.02	8.713
310.38	8.071
310.75	8.155
311.12	9.300
311.48	9.189
311.85	9.307
312.22	8.349
312.58	8.169
312.95	8.987
313.31	8.401
313.68	9.432
314.05	9.124
314.41	11.202
314.78	10.173
315.14	10.345
315.51	9.695
315.87	9.541
316.24	10.594
316.61	11.634
316.97	9.774
317.34	9.877
317.70	10.480
318.07	12.346
318.43	11.735
318.80	11.957
319.16	9.614
319.53	10.797
319.89	11.481
320.26	11.299
320.62	12.589
320.99	12.650
321.35	12.847
321.72	12.930
322.08	11.903
322.45	12.376
322.81	13.899
323.18	13.009
323.54	12.931
323.91	12.722
324.27	12.737
324.64	14.442
325.00	15.174
325.37	14.660
325.73	16.116
326.10	14.599
326.46	17.101
326.83	15.773
327.19	15.906
327.56	16.838
327.92	16.365
328.29	17.097
328.65	17.253
329.01	17.259
329.38	18.029
329.74	18.322
330.11	19.692
330.47	19.629
330.84	19.208
331.20	19.250
331.56	18.891
331.93	20.418
332.29	20.339
332.66	20.183
333.02	20.854
333.38	20.638
333.75	20.623
334.11	20.934
334.48	22.030
334.84	22.600
335.20	20.739
335.57	21.838
335.93	22.149
336.29	21.131
336.66	22.204
337.02	21.823
337.38	22.024
337.75	21.405
338.11	22.288
338.47	21.919
338.84	22.166
339.20	20.809
339.56	21.499
339.93	21.921
340.29	23.269
340.65	21.492
341.02	22.745
341.38	21.584
341.74	21.953
342.11	21.963
342.47	22.558
342.83	23.108
343.20	23.222
343.56	22.294
343.92	21.777
344.28	22.813
344.65	23.721
345.01	22.075
345.37	21.773
345.73	22.603
346.10	23.011
346.46	22.310
346.82	23.071
347.19	22.307
347.55	23.217
347.91	22.363
348.27	21.927
348.63	23.001
349.00	22.371
349.36	22.751
349.72	22.545
350.08	22.734
350.45	21.901
350.81	22.172
351.17	21.579
351.53	23.048
351.89	22.779
352.26	22.090
352.62	22.612
352.98	21.603
353.34	21.583
353.70	22.727
354.07	23.100
354.43	22.172
354.79	22.438
355.15	23.252
355.51	23.830
355.87	23.411
356.24	21.977
356.60	22.395
356.96	22.016
357.32	21.338
357.68	21.669
358.04	22.006
358.40	22.388
358.77	23.099
359.13	22.083
359.49	21.338
359.85	22.480
360.21	21.951
360.57	22.039
360.93	22.073
361.29	22.456
361.66	22.303
362.02	23.243
362.38	21.996
362.74	22.975
363.10	22.902
363.46	22.507
363.82	23.082
364.18	22.308
364.54	22.891
364.90	23.679
365.26	21.931
365.62	22.733
365.98	21.852
366.35	22.483
366.71	22.925
367.07	23.275
367.43	22.784
367.79	22.827
368.15	22.876
368.51	23.275
368.87	22.469
369.23	21.400
369.59	23.156
369.95	22.380
370.31	22.620
370.67	23.453
371.03	23.546
371.39	21.491
371.75	21.389
372.11	22.696
372.47	22.275
372.83	22.513
373.19	22.348
373.55	22.493
373.91	22.495
374.27	23.157
374.63	23.478
374.99	23.077
375.35	22.857
375.71	22.323
376.07	22.337
376.42	23.615
376.78	22.996
377.14	23.019
377.50	23.087
377.86	23.892
378.22	23.114
378.58	23.246
378.94	23.063
379.30	23.374
379.66	23.045
380.02	22.620
380.38	23.272
380.74	22.479
381.09	22.880
381.45	22.955
381.81	24.590
382.17	23.278
382.53	23.041
382.89	22.968
383.25	23.154
383.61	22.743
383.97	23.380
384.32	23.804
384.68	23.028
385.04	22.730
385.40	23.100
385.76	23.212
386.12	22.621
386.48	23.294
386.83	23.778
387.19	22.943
387.55	22.594
387.91	23.116
388.27	24.076
388.62	22.337
388.98	22.730
389.34	23.394
389.70	23.068
390.06	22.854
390.42	22.590
390.77	23.781
391.13	21.831
391.49	23.671
391.85	22.788
392.20	23.250
392.56	22.800
392.92	23.555
393.28	23.273
393.64	21.899
393.99	23.417
394.35	23.423
394.71	23.593
395.07	22.575
395.42	22.330
395.78	22.608
396.14	22.816
396.50	21.734
396.85	22.242
397.21	22.130
397.57	22.615
397.92	22.050
398.28	21.673
398.64	21.796
399.00	22.199
399.35	22.042
399.71	22.880
400.07	22.179
400.42	22.875
400.78	22.454
401.14	22.709
401.49	21.546
401.85	21.860
402.21	22.711
402.57	22.418
402.92	22.104
403.28	20.609
403.63	21.360
403.99	21.615
404.35	21.205
404.70	21.983
405.06	21.413
405.42	20.843
405.77	21.919
406.13	21.178
406.49	21.565
406.84	21.662
407.20	20.682
407.55	21.320
407.91	20.993
408.27	21.378
408.62	21.640
408.98	20.023
409.34	21.232
409.69	21.941
410.05	21.688
410.40	21.230
410.76	20.695
411.11	21.274
411.47	21.499
411.83	21.928
412.18	21.506
412.54	21.873
412.89	20.605
413.25	20.824
413.60	21.137
413.96	20.862
414.31	20.850
414.67	21.228
415.03	19.815
415.38	21.375
415.74	20.403
416.09	20.790
416.45	20.726
416.80	20.257
417.16	20.626
417.51	20.797
417.87	21.030
418.22	21.198
418.58	20.756
418.93	21.187
419.29	21.208
419.64	19.988
420.00	20.534
420.35	21.336
420.71	20.850
421.06	20.012
421.42	20.986
421.77	19.871
422.12	20.983
422.48	20.276
422.83	20.920
423.19	21.379
423.54	20.741
423.90	20.983
424.25	21.067
424.61	20.264
424.96	21.032
425.31	21.285
425.67	20.344
426.02	21.859
426.38	20.723
426.73	21.038
427.09	22.203
427.44	21.027
427.79	21.559
428.15	21.233
428.50	22.022
428.85	21.527
429.21	21.702
429.56	21.520
429.92	21.130
430.27	20.964
430.62	21.690
430.98	20.905
431.33	21.652
431.68	21.456
432.04	21.991
432.39	21.264
432.74	21.290
433.10	22.445
433.45	21.126
433.80	21.781
434.16	22.107
434.51	21.994
434.86	21.933
435.22	22.210
435.57	21.875
435.92	22.593
436.28	22.071
436.63	21.791
436.98	21.417
437.34	22.548
437.69	21.464
438.04	21.787
438.39	22.056
438.75	22.966
439.10	22.674
439.45	22.191
439.81	22.203
440.16	22.413
440.51	22.965
440.86	22.068
441.22	22.079
441.57	22.642
441.92	22.454
442.27	22.475
442.63	23.100
442.98	22.999
443.33	22.462
443.68	23.142
444.03	23.518
444.39	23.209
444.74	23.328
445.09	23.213
445.44	23.393
445.79	23.467
446.15	23.792
446.50	23.463
446.85	23.589
447.20	23.211
447.55	23.379
447.91	23.927
448.26	23.044
448.61	23.486
448.96	24.571
449.31	23.436
449.66	23.638
450.02	24.051
450.37	23.974
450.72	23.950
451.07	23.633
451.42	22.704
451.77	23.402
452.12	23.871
452.47	24.064
452.83	24.268
453.18	23.759
453.53	23.492
453.88	23.909
454.23	24.294
454.58	24.086
454.93	23.665
455.28	24.684
455.63	23.934
455.98	24.302
456.34	24.323
456.69	24.397
457.04	25.118
457.39	23.780
457.74	23.826
458.09	23.558
458.44	25.216
458.79	24.188
459.14	24.017
459.49	24.788
459.84	24.816
460.19	24.209
460.54	25.554
460.89	24.140
461.24	24.253
461.59	24.903
461.94	23.902
462.29	24.524
462.64	24.321
462.99	24.984
463.34	26.217
463.69	24.091
464.04	25.236
464.39	25.000
464.74	25.485
465.09	24.221
465.44	24.410
465.79	25.225
466.14	24.283
466.49	25.263
466.84	25.344
467.19	25.376
467.54	24.501
467.89	25.287
468.24	25.152
468.59	24.725
468.94	24.767
469.29	25.795
469.64	25.048
469.99	25.366
470.34	25.124
470.68	26.247
471.03	25.475
471.38	26.030
471.73	25.098
472.08	26.459
472.43	25.346
472.78	26.511
473.13	26.296
473.48	26.103
473.83	26.001
474.17	26.026
474.52	26.999
474.87	26.633
475.22	26.366
475.57	25.805
475.92	24.689
476.27	26.571
476.61	26.116
476.96	25.704
477.31	26.436
477.66	26.863
478.01	25.724
478.36	26.520
478.70	26.404
479.05	27.914
479.40	27.196
479.75	26.657
480.10	26.149
480.45	26.481
480.79	26.757
481.14	26.562
481.49	26.942
481.84	27.241
482.19	26.366
482.53	26.891
482.88	27.426
483.23	27.034
483.58	26.900
483.92	26.418
484.27	26.799
484.62	26.196
484.97	27.100
485.31	25.871
485.66	24.440
486.01	24.247
486.36	24.843
486.70	25.963
487.05	26.961
487.40	26.631
487.75	26.794
488.09	27.106
488.44	26.819
488.79	27.723
489.13	27.951
489.48	27.417
489.83	26.922
490.17	26.934
490.52	27.504
490.87	28.173
491.22	28.033
491.56	28.328
491.91	27.780
492.26	28.775
492.60	27.809
492.95	27.907
493.30	27.387
493.64	28.121
493.99	28.289
494.34	27.178
494.68	27.880
495.03	28.282
495.37	28.806
495.72	29.342
496.07	28.002
496.41	28.314
496.76	28.357
497.11	28.365
497.45	28.312
497.80	28.876
498.14	28.662
498.49	29.090
498.84	28.519
499.18	29.015
499.53	29.507
499.87	28.967
500.22	28.139
500.56	29.150
500.91	29.428
501.26	30.182
501.60	29.076
501.95	28.875
502.29	29.662
502.64	29.383
502.98	29.336
503.33	28.942
503.67	29.437
504.02	29.159
504.36	29.759
504.71	29.720
505.06	29.013
505.40	29.570
505.75	30.419
506.09	29.972
506.44	30.130
506.78	30.000
507.13	30.751
507.47	30.744
507.82	30.824
508.16	30.115
508.51	30.474
508.85	30.798
509.19	31.217
509.54	32.181
509.88	31.132
510.23	31.909
510.57	32.189
510.92	31.398
511.26	31.794
511.61	30.951
511.95	31.186
512.30	32.102
512.64	31.034
512.98	32.166
513.33	32.258
513.67	31.311
514.02	32.754
514.36	32.327
514.70	32.344
515.05	33.629
515.39	32.756
515.74	33.457
516.08	32.964
516.42	33.543
516.77	32.860
517.11	31.975
517.46	33.033
517.80	33.351
518.14	34.494
518.49	33.839
518.83	33.901
519.17	33.603
519.52	34.015
519.86	34.213
520.20	33.813
520.55	34.009
520.89	34.572
521.23	34.115
521.58	35.028
521.92	34.674
522.26	34.192
522.61	35.359
522.95	33.968
523.29	35.172
523.64	34.473
523.98	35.710
524.32	36.848
524.66	36.426
525.01	35.391
525.35	34.750
525.69	34.977
526.04	35.591
526.38	35.862
526.72	36.275
527.06	36.246
527.41	35.510
527.75	36.876
528.09	36.836
528.43	36.471
528.78	35.376
529.12	35.780
529.46	36.650
529.80	36.842
530.15	36.870
530.49	37.426
530.83	36.364
531.17	37.575
531.51	37.244
531.86	36.959
532.20	37.561
532.54	37.822
532.88	35.939
533.22	36.594
533.57	37.103
533.91	36.588
534.25	37.196
534.59	37.069
534.93	37.068
535.27	37.634
535.62	37.806
535.96	37.827
536.30	37.779
536.64	38.619
536.98	38.622
537.32	38.580
537.66	38.677
538.01	36.918
538.35	38.124
538.69	37.320
539.03	38.872
539.37	37.927
539.71	38.198
540.05	38.489
540.39	38.386
540.73	38.069
541.07	38.381
541.42	38.098
541.76	37.663
542.10	37.998
542.44	37.759
542.78	38.990
543.12	38.915
543.46	37.546
543.80	37.650
544.14	38.241
544.48	39.539
544.82	38.360
545.16	37.686
545.50	38.286
545.84	38.702
546.18	40.802
546.52	38.854
546.86	39.308
547.20	40.522
547.54	38.764
547.88	38.276
548.22	38.947
548.56	39.731
548.90	39.761
549.24	39.210
549.58	39.811
549.92	40.051
550.26	39.029
550.60	38.992
550.94	40.815
551.28	40.396
551.62	41.577
551.96	40.065
552.30	41.173
552.64	40.386
552.98	40.299
553.32	40.836
553.66	40.772
554.00	39.912
554.34	39.897
554.68	41.252
555.02	41.130
555.36	41.683
555.69	40.359
556.03	40.542
556.37	42.115
556.71	41.218
557.05	40.703
557.39	41.340
557.73	41.347
558.07	41.523
558.41	43.522
558.75	40.974
559.08	43.076
559.42	41.152
559.76	41.520
560.10	41.192
560.44	42.018
560.78	42.562
561.12	41.995
561.45	41.849
561.79	42.918
562.13	42.637
562.47	41.060
562.81	41.962
563.15	42.803
563.48	42.573
563.82	41.415
564.16	41.308
564.50	41.597
564.84	41.475
565.17	41.824
565.51	41.772
565.85	42.874
566.19	41.647
566.52	41.194
566.86	42.105
567.20	40.946
567.54	41.423
567.88	41.437
568.21	41.650
568.55	41.007
568.89	41.262
569.23	39.966
569.56	39.312
569.90	38.917
570.24	39.595
570.57	38.550
570.91	38.365
571.25	38.704
571.59	38.603
571.92	38.699
572.26	38.274
572.60	38.875
572.93	38.408
573.27	39.393
573.61	38.539
573.95	37.970
574.28	37.818
574.62	37.881
574.96	37.671
575.29	37.828
575.63	37.953
575.97	38.539
576.30	38.416
576.64	37.938
576.98	37.608
577.31	38.130
577.65	38.052
577.98	37.858
578.32	37.617
578.66	37.844
578.99	38.726
579.33	38.395
579.67	38.645
580.00	38.728
580.34	38.438
580.67	38.085
581.01	38.382
581.35	38.204
581.68	37.941
582.02	37.704
582.35	38.639
582.69	38.898
583.02	39.469
583.36	39.433
583.70	39.377
584.03	39.333
584.37	39.472
584.70	39.389
585.04	38.735
585.37	39.174
585.71	39.115
586.04	39.938
586.38	40.042
586.72	39.684
587.05	40.087
587.39	39.965
587.72	40.263
588.06	40.256
588.39	40.304
588.73	40.608
589.06	40.181
589.40	41.856
589.73	41.356
590.07	40.915
590.40	41.143
590.73	41.746
591.07	42.703
591.40	41.796
591.74	42.369
592.07	42.103
592.41	41.877
592.74	41.392
593.08	41.019
593.41	41.499
593.75	41.322
594.08	41.745
594.41	41.731
594.75	41.581
595.08	41.655
595.42	41.981
595.75	41.233
596.09	43.307
596.42	42.530
596.75	42.648
597.09	42.828
597.42	42.392
597.75	42.140
598.09	42.222
598.42	43.707
598.76	41.956
599.09	41.652
599.42	40.697
599.76	41.862
600.09	42.109
600.42	41.909
600.76	42.371
601.09	42.084
601.42	41.641
601.76	42.448
602.09	42.387
602.42	41.621
602.76	42.214
603.09	43.209
603.42	42.666
603.76	42.530
604.09	43.116
604.42	43.046
604.76	41.971
605.09	44.276
605.42	43.541
605.75	42.423
606.09	42.292
606.42	42.211
606.75	42.466
607.09	41.705
607.42	42.274
607.75	43.806
608.08	42.857
608.42	42.523
608.75	43.947
609.08	42.615
609.41	43.979
609.75	44.152
610.08	45.207
610.41	42.226
610.74	43.782
611.07	44.272
611.41	44.350
611.74	44.619
612.07	44.834
612.40	44.439
612.73	45.623
613.07	45.868
613.40	44.851
613.73	44.487
614.06	44.701
614.39	43.732
614.72	43.668
615.06	43.888
615.39	44.031
615.72	45.782
616.05	45.459
616.38	45.459
616.71	45.664
617.05	45.208
617.38	44.462
617.71	45.086
618.04	45.818
618.37	45.683
618.70	46.380
619.03	46.894
619.36	46.856
619.69	46.316
620.03	47.269
620.36	46.380
620.69	47.378
621.02	46.785
621.35	48.403
621.68	47.867
622.01	48.327
622.34	47.141
622.67	47.629
623.00	46.829
623.33	46.848
623.66	47.925
623.99	47.729
624.32	47.693
624.65	46.461
624.99	47.074
625.32	47.812
625.65	48.281
625.98	47.729
626.31	49.185
626.64	48.352
626.97	47.787
627.30	49.051
627.63	47.487
627.96	49.850
628.29	48.560
628.62	49.874
628.95	50.920
629.28	49.108
629.61	50.253
629.94	49.623
630.26	48.305
630.59	50.259
630.92	49.697
631.25	49.821
631.58	52.825
631.91	51.828
632.24	52.257
632.57	51.992
632.90	52.257
633.23	53.061
633.56	51.633
633.89	50.826
634.22	52.807
634.55	51.461
634.88	52.814
635.20	53.929
635.53	54.124
635.86	52.221
636.19	52.068
636.52	53.059
636.85	51.992
637.18	51.767
637.51	51.183
637.83	53.267
638.16	55.184
638.49	54.343
638.82	51.635
639.15	52.921
639.48	54.042
639.81	52.079
640.13	54.299
640.46	52.848
640.79	51.961
641.12	53.292
641.45	54.580
641.77	56.868
642.10	51.444
642.43	55.053
642.76	54.201
643.09	53.562
643.41	56.443
643.74	53.517
644.07	55.862
644.40	55.304
644.73	54.282
645.05	55.653
645.38	53.669
645.71	54.252
646.04	56.528
646.36	53.723
646.69	55.982
647.02	55.810
647.35	57.405
647.67	58.615
648.00	58.280
648.33	55.556
648.66	54.208
648.98	54.150
649.31	54.127
649.64	54.316
649.96	53.316
650.29	53.825
650.62	53.748
650.94	54.955
651.27	54.491
651.60	55.409
651.92	55.623
652.25	54.414
652.58	52.270
652.90	53.634
653.23	53.662
653.56	53.352
653.88	53.511
654.21	54.366
654.54	52.601
654.86	54.391
655.19	50.565
655.52	46.289
655.84	40.289
656.17	47.663
656.49	66.786
656.82	74.056
657.15	58.564
657.47	44.856
657.80	33.630
658.13	26.461
658.45	35.442
658.78	42.879
659.10	42.881
659.43	42.849
659.75	43.332
660.08	43.361
660.41	45.658
660.73	49.373
661.06	54.332
661.38	53.907
661.71	54.655
662.03	55.556
662.36	57.245
662.68	57.974
663.01	55.398
663.33	57.656
663.66	58.059
663.98	57.115
664.31	56.473
664.63	57.418
664.96	54.083
665.28	54.083
665.61	57.867
665.93	52.500
666.26	56.810
666.58	56.827
666.91	57.383
667.23	58.286
667.56	58.974
667.88	59.000
668.21	56.445
668.53	56.564
668.86	55.403
669.18	56.415
669.50	56.660
669.83	55.800
670.15	55.709
670.48	59.127
670.80	56.023
671.13	55.766
671.45	55.906
671.77	57.439
672.10	52.500
672.42	52.913
672.75	51.152
673.07	51.791
673.39	50.539
673.72	55.201
674.04	55.345
674.37	57.961
674.69	56.085
675.01	54.857
675.34	53.435
675.66	53.933
675.98	57.090
676.31	57.227
676.63	56.654
676.95	56.513
677.28	56.250
677.60	55.709
677.92	56.622
678.25	56.307
678.57	54.448
678.89	53.584
679.22	53.310
679.54	53.846
679.86	52.542
680.18	52.073
680.51	50.314
680.83	53.355
681.15	54.655
681.48	56.995
681.80	54.231
682.12	52.448
682.44	54.591
682.77	53.901
683.09	54.924
683.41	54.457
683.73	54.269
684.06	52.030
684.38	53.131
684.70	54.399
685.02	54.905
685.34	48.586
685.67	50.158
685.99	51.534
686.31	47.820
686.63	52.607
686.96	50.631
687.28	50.326
687.60	52.525
687.92	49.357
688.24	50.584
688.56	50.000
688.89	52.087
689.21	55.577
689.53	55.294
689.85	52.465
690.17	50.741
690.49	56.375
690.82	56.238
691.14	51.822
691.46	52.964
691.78	52.486
692.10	53.578
692.42	48.214
692.74	52.632
693.06	46.667
693.39	55.218
693.71	51.128
694.03	52.045
694.35	52.000
694.67	53.388
694.99	51.702
695.31	53.422
695.63	54.545
695.95	50.518
696.27	51.209
696.59	51.549
696.91	56.081
697.23	54.505
697.56	52.546
697.88	52.652
698.20	51.412
698.52	52.841
698.84	53.846
699.16	54.490
699.48	53.347
699.80	50.426
700.12	54.148
700.44	52.074
700.76	53.207
701.08	51.574
701.40	54.663
701.72	53.980
702.04	53.476
702.36	51.309
702.68	52.078
703.00	51.834
703.32	52.463
703.64	55.501
703.96	54.177
704.28	50.369
704.60	49.620
704.91	54.592
705.23	57.260
705.55	57.103
705.87	56.061
706.19	60.429
706.51	56.928
706.83	53.026
707.15	51.058
707.47	52.103
707.79	49.563
708.11	47.669
708.43	50.323
708.74	47.991
709.06	51.972
709.38	53.991
709.70	52.605
710.02	52.713
710.34	52.394
710.66	52.793
710.98	53.825
711.29	53.571
711.61	58.192
711.93	54.986
712.25	52.432
712.57	54.277
712.89	54.706
713.20	52.071
713.52	52.890
713.84	52.089
714.16	52.105
714.48	53.351
714.80	54.286
715.11	50.394
715.43	54.111
715.75	52.632
716.07	50.552
716.39	51.366
716.70	51.205
717.02	50.492
717.34	51.220
717.66	53.356
717.97	50.685
718.29	54.639
718.61	55.592
718.93	54.045
719.24	50.621
719.56	52.454
719.88	54.354
720.20	52.581
720.51	51.242
720.83	48.125
721.15	50.658
721.46	52.397
721.78	57.000
722.10	51.780
722.42	55.034
722.73	50.000
723.05	60.351
723.37	53.125
723.68	53.405
724.00	53.791
724.32	47.183
724.63	53.846
724.95	54.255
725.27	51.916
725.58	54.770
725.90	53.103
726.22	47.022
726.53	53.247
726.85	50.000
727.16	52.870
727.48	49.847
727.80	56.291
728.11	48.410
728.43	51.178
728.74	49.498
729.06	48.675
729.38	50.649
729.69	50.000
730.01	45.833
730.32	49.091
730.64	50.943
730.96	45.342
731.27	48.045
731.59	50.000
731.90	45.195
732.22	48.177
732.53	45.580
732.85	46.857
733.16	51.026
733.48	48.476
733.80	45.125
734.11	48.148
734.43	47.568
734.74	48.861
735.06	45.729
735.37	45.946
735.69	44.595
736.00	47.175
736.32	47.439
736.63	45.833
736.95	47.126
737.26	47.273
737.58	43.636
737.89	51.765
738.21	46.483
738.52	44.590
738.83	50.171
739.15	49.645
739.46	53.061
739.78	49.080
740.09	47.278
740.41	44.898
740.72	49.667
741.04	48.867
741.35	46.316
741.66	49.020
741.98	53.279
742.29	50.209
742.61	53.070
742.92	50.385
743.23	51.625
743.55	51.938
743.86	50.400
744.18	49.174
744.49	47.679
744.80	48.971
745.12	58.650
745.43	50.000
745.74	51.293
746.06	55.932
746.37	49.367
746.68	51.220
747.00	45.417
747.31	48.069
747.62	55.385
747.94	49.798
748.25	51.406
748.56	49.796
748.88	51.282
749.19	58.621
749.50	49.784
749.82	53.815
750.13	52.313
750.44	46.667
750.75	47.692
751.07	47.385
751.38	47.319
751.69	46.006
752.01	44.984
752.32	47.386
752.63	47.959
752.94	48.443
753.26	47.212
753.57	45.185
753.88	45.318
754.19	46.302
754.51	43.408
754.82	49.839
755.13	48.197
755.44	47.440
755.75	47.368
756.07	47.463
756.38	47.170
756.69	52.410
757.00	42.105
757.31	43.443
757.63	46.292
757.94	41.784
758.25	42.438
758.56	42.484
758.87	41.591
759.18	39.467
759.50	46.176
759.81	46.499
760.12	44.205
760.43	43.490
760.74	43.350
761.05	41.500
761.36	40.964
761.67	42.386
761.99	41.081
762.30	46.341
762.61	39.274
762.92	45.522
763.23	48.689
763.54	43.885
763.85	41.237
764.16	45.455
764.47	48.239
764.78	46.645
765.10	41.935
765.41	43.077
765.72	41.534
766.03	41.808
766.34	41.693
766.65	40.070
766.96	43.426
767.27	51.613
767.58	50.249
767.89	44.712
768.20	49.296
768.51	48.148
768.82	44.177
769.13	42.424
769.44	44.615
769.75	44.404
770.06	50.000
770.37	44.488
770.68	43.404
770.99	43.320
771.30	48.889
771.61	45.627
771.92	41.481
772.23	48.178
772.54	46.759
772.85	47.926
773.16	48.095
773.47	41.799
773.78	46.486
774.09	50.568
774.39	53.500
774.70	49.180
775.01	45.122
775.32	49.412
775.63	42.945
775.94	50.955
776.25	49.032
776.56	49.359
776.87	49.660
777.18	46.207
777.48	46.853
777.79	39.189
778.10	47.794
778.41	46.528
778.72	53.793
779.03	41.358
779.34	46.061
779.65	48.187
779.95	47.222
780.26	48.295
780.57	51.613
780.88	55.797
781.19	52.258
781.50	52.353
781.80	44.624
782.11	51.852
782.42	35.354
782.73	38.323
783.04	39.106
783.34	46.667
783.65	41.830
783.96	42.857
784.27	40.476
784.57	47.682
784.88	49.286
785.19	40.945
785.50	39.370
785.81	45.113
786.11	50.000
786.42	40.288
786.73	33.094
787.04	48.120
787.34	47.541
787.65	48.000
787.96	50.000
788.26	52.448
788.57	47.552
788.88	39.474
789.19	49.020
789.49	44.521
789.80	48.227
790.11	37.008
790.41	45.312
790.72	47.458
791.03	39.806
791.33	40.000
791.64	58.772
791.95	40.179
792.25	52.381
792.56	41.964
792.87	46.875
793.17	50.000
793.48	34.375
793.79	46.988
794.09	38.532
794.40	49.541
794.70	48.299
795.01	33.117
795.32	36.986
795.62	42.254
795.93	37.879
796.23	49.180
796.54	47.321
796.85	50.000
797.15	42.391
797.46	57.534
797.76	52.500
798.07	38.043
798.37	40.206
798.68	35.065
798.99	51.724
799.29	31.461
799.60	46.809
799.90	54.217
800.21	55.385
800.51	40.299
800.82	30.882
801.12	35.616
801.43	50.000
801.73	40.678
802.04	53.030
802.34	56.667
802.65	57.627
802.95	44.776
803.26	52.542
803.56	54.795
803.87	50.000
804.17	47.945
804.48	29.825
804.78	50.000
805.09	43.103
805.39	51.351
805.70	38.028
806.00	56.098
806.30	55.422
806.61	49.315
806.91	44.231
807.22	46.667
807.52	43.678
807.83	52.778
808.13	51.807
808.43	42.697
808.74	41.250
809.04	61.765
809.35	40.000
809.65	41.429
809.95	53.425
810.26	54.386
810.56	36.207
810.86	39.706
811.17	24.561
811.47	32.787
811.77	46.667
812.08	50.847
812.38	55.000
812.69	37.931
812.99	33.962
813.29	53.846
813.59	62.000
813.90	47.368
814.20	63.636
814.50	60.563
814.81	43.590
815.11	36.066
815.41	38.806
815.72	68.966
816.02	41.071
816.32	77.778
816.62	79.545
816.93	46.667
817.23	59.259
817.53	57.447
817.84	85.714
818.14	67.647
818.44	61.224
818.74	62.222
819.04	43.590
819.35	20.000
819.65	96.154
819.95	54.717
820.25	51.111
820.56	59.524
820.86	50.000
821.16	33.333
821.46	62.791
821.76	44.000
822.07	46.429
822.37	54.348
822.67	53.191
822.97	24.324
823.27	55.000
823.57	40.816
823.88	64.444
824.18	42.500
824.48	40.000
824.78	40.000
825.08	57.576
825.38	66.667
825.69	53.191
825.99	50.000
826.29	31.429
826.59	61.538
826.89	20.930
827.19	60.000
827.49	44.118
827.79	54.167
828.09	27.027
828.39	33.333
828.70	63.415
829.00	44.186
829.30	28.571
829.60	41.176
829.90	32.609
830.20	45.714
830.50	51.724
830.80	66.667
831.10	69.231
831.40	58.824
831.70	85.714
832.00	80.645
832.30	17.647
832.60	62.500
832.90	100.000
833.20	121.053
833.50	70.000
833.80	63.158
834.10	33.333
834.40	72.222
834.70	93.750
835.00	28.571
835.30	44.118
835.60	50.000
835.90	68.000
836.20	45.455
836.50	80.000
836.80	18.182
837.10	62.963
837.40	55.556
837.70	62.500
838.00	50.000
838.30	34.783
838.60	65.517
838.90	50.000
839.19	43.478
839.49	66.667
839.79	56.522
840.09	25.000
840.39	55.000
840.69	96.774
840.99	32.143
841.29	86.667
841.59	84.211
841.88	48.718
842.18	73.077
842.48	140.000
842.78	55.000
843.08	23.333
843.38	90.323
843.68	33.333
843.97	50.000
844.27	106.250
844.57	47.368
844.87	60.000
845.17	93.333
845.47	61.905
845.76	38.095
846.06	122.222
846.36	0.000
846.66	46.154
846.96	33.333
847.25	23.529
847.55	73.913
847.85	65.000
848.15	76.471
848.44	45.455
848.74	66.667
849.04	54.167
849.34	81.250
849.63	56.522
849.93	-150.000
850.23	66.667
850.53	26.923
850.82	45.455
851.12	95.455
851.42	145.455
851.71	130.769
852.01	20.000
852.31	107.692
852.61	52.632
852.90	108.333
853.20	50.000
853.50	33.333
853.79	76.190
854.09	40.909
854.39	16.667
854.68	35.484
854.98	34.615
855.28	44.444
855.57	3.571
855.87	40.000
856.17	72.727
856.46	51.852
856.76	44.444
857.05	34.783
857.35	41.667
857.65	84.615
857.94	61.905
858.24	51.852
858.53	73.913
858.83	47.059
859.13	5.882
859.42	47.059
859.72	100.000
860.01	50.000
860.31	66.667
860.60	120.000
860.90	46.667
861.20	16.667
861.49	53.846
861.79	43.333
862.08	30.769
862.38	71.875
862.67	47.059
862.97	68.750
863.26	122.222
863.56	150.000
863.85	27.273
864.15	72.222
864.44	233.333
864.74	92.857
865.03	68.750
865.33	-10.000
865.62	22.581
865.92	45.455
866.21	65.217
866.51	85.714
866.80	-20.000
867.10	25.000
867.39	66.667
867.69	-600.000
867.98	171.429
868.27	111.765
868.57	-300.000
868.86	40.000
869.16	71.429
869.45	54.167
869.75	72.727
870.04	114.286
870.33	133.333
870.63	0.000
870.92	225.000
871.22	-112.500
871.51	27.273
871.80	100.000
872.10	900.000
>>>>>End Processed Spectral Data<<<<<
