SpectraSuite Data File
++++++++++++++++++++++++++++++++++++
Date: Thu May 14 14:43:44 PDT 2015
User: schluterlab
Dark Spectrum Present: Yes
Reference Spectrum Present: Yes
Number of Sampled Component Spectra: 1
Spectrometers: USB2E3373
Integration Time (usec): 3000 (USB2E3373)
Spectra Averaged: 3 (USB2E3373)
Boxcar Smoothing: 0 (USB2E3373)
Correct for Electrical Dark: No (USB2E3373)
Strobe/Lamp Enabled: No (USB2E3373)
Correct for Detector Non-linearity: No (USB2E3373)
Correct for Stray Light: No (USB2E3373)
Number of Pixels in Processed Spectrum: 2048
>>>>>Begin Processed Spectral Data<<<<<
178.53	0.000
178.91	14.286
179.29	-1000.000
179.67	-200.000
180.04	121.429
180.42	-10.000
180.80	-20.000
181.18	100.000
181.56	800.000
181.94	-250.000
182.31	-100.000
182.69	33.333
183.07	400.000
183.45	-75.000
183.83	-50.000
184.20	166.667
184.58	-1100.000
184.96	-50.000
185.34	-55.556
185.72	160.000
186.09	144.444
186.47	150.000
186.85	100.000
187.23	-77.778
187.61	-700.000
187.98	-0.000
188.36	50.000
188.74	-125.000
189.12	266.667
189.49	43.750
189.87	62.500
190.25	88.889
190.63	240.000
191.00	33.333
191.38	0.000
191.76	-75.000
192.14	-33.333
192.51	150.000
192.89	183.333
193.27	0.000
193.65	28.571
194.02	-1100.000
194.40	114.286
194.78	-185.714
195.15	0.000
195.53	90.909
195.91	0.000
196.29	125.000
196.66	-7.692
197.04	-800.000
197.42	28.571
197.79	200.000
198.17	0.000
198.55	14.286
198.92	122.222
199.30	25.000
199.68	-18.182
200.05	100.000
200.43	0.000
200.81	85.714
201.18	0.000
201.56	77.778
201.94	0.000
202.31	166.667
202.69	55.556
203.07	-300.000
203.44	33.333
203.82	125.000
204.19	33.333
204.57	150.000
204.95	12.500
205.32	0.000
205.70	-275.000
206.08	-16.667
206.45	33.333
206.83	340.000
207.20	150.000
207.58	-140.000
207.96	83.333
208.33	250.000
208.71	-0.000
209.08	150.000
209.46	0.000
209.84	-33.333
210.21	150.000
210.59	-450.000
210.96	66.667
211.34	50.000
211.71	75.000
212.09	300.000
212.46	0.000
212.84	-150.000
213.22	-40.000
213.59	150.000
213.97	50.000
214.34	66.667
214.72	16.667
215.09	-100.000
215.47	0.000
215.84	14.286
216.22	500.000
216.59	20.000
216.97	140.000
217.34	275.000
217.72	12.500
218.09	-50.000
218.47	-125.000
218.84	0.000
219.22	-200.000
219.59	64.706
219.97	65.000
220.34	-100.000
220.72	22.222
221.09	115.385
221.47	100.000
221.84	140.000
222.22	100.000
222.59	0.000
222.97	200.000
223.34	-260.000
223.72	300.000
224.09	0.000
224.46	-75.000
224.84	180.000
225.21	42.857
225.59	-50.000
225.96	-50.000
226.34	53.846
226.71	66.667
227.08	-50.000
227.46	33.333
227.83	50.000
228.21	47.368
228.58	-37.500
228.95	600.000
229.33	41.667
229.70	80.000
230.08	136.842
230.45	40.000
230.82	366.667
231.20	64.286
231.57	66.667
231.95	90.909
232.32	127.273
232.69	55.000
233.07	350.000
233.44	64.706
233.81	60.000
234.19	61.111
234.56	72.727
234.93	72.414
235.31	47.368
235.68	100.000
236.05	15.000
236.43	100.000
236.80	96.000
237.17	18.519
237.55	27.273
237.92	-40.000
238.29	41.935
238.67	36.364
239.04	52.778
239.41	50.000
239.79	30.435
240.16	20.370
240.53	32.609
240.91	23.529
241.28	37.705
241.65	47.761
242.02	40.541
242.40	33.846
242.77	32.000
243.14	24.390
243.51	32.895
243.89	30.769
244.26	44.554
244.63	37.255
245.00	30.841
245.38	36.842
245.75	23.894
246.12	42.857
246.49	26.357
246.87	39.286
247.24	37.086
247.61	36.842
247.98	31.544
248.36	35.802
248.73	33.129
249.10	30.601
249.47	39.303
249.84	39.267
250.22	34.715
250.59	37.222
250.96	38.636
251.33	32.653
251.70	32.479
252.08	30.833
252.45	33.607
252.82	36.777
253.19	30.469
253.56	33.840
253.94	33.077
254.31	33.712
254.68	37.063
255.05	36.156
255.42	36.054
255.79	32.039
256.16	35.099
256.54	35.430
256.91	37.377
257.28	32.787
257.65	30.573
258.02	30.678
258.39	33.333
258.76	35.474
259.14	39.368
259.51	38.040
259.88	28.329
260.25	31.389
260.62	33.425
260.99	37.158
261.36	34.048
261.73	32.891
262.10	35.714
262.47	35.657
262.85	37.121
263.22	30.909
263.59	30.263
263.96	34.527
264.33	35.294
264.70	34.568
265.07	37.947
265.44	37.868
265.81	32.176
266.18	37.188
266.55	33.482
266.92	30.752
267.29	35.449
267.66	34.146
268.03	34.061
268.40	31.524
268.77	30.296
269.14	32.379
269.51	33.772
269.88	32.377
270.25	34.809
270.62	35.232
270.99	32.929
271.36	30.693
271.73	34.971
272.10	34.669
272.47	30.862
272.84	33.534
273.21	34.269
273.58	33.468
273.95	33.269
274.32	28.517
274.69	32.689
275.06	32.051
275.43	31.054
275.80	30.335
276.17	30.926
276.54	30.784
276.91	30.948
277.28	30.922
277.65	32.136
278.02	32.537
278.39	32.246
278.76	30.228
279.13	32.624
279.50	33.505
279.87	32.021
280.23	31.338
280.60	31.017
280.97	32.895
281.34	30.560
281.71	31.134
282.08	31.561
282.45	29.624
282.82	29.042
283.19	28.595
283.56	29.508
283.92	32.132
284.29	30.964
284.66	32.512
285.03	28.526
285.40	29.366
285.77	30.031
286.14	29.924
286.51	31.355
286.87	27.962
287.24	29.066
287.61	29.447
287.98	27.795
288.35	28.846
288.72	29.438
289.08	30.454
289.45	26.923
289.82	28.012
290.19	28.879
290.56	29.577
290.93	25.963
291.29	29.339
291.66	27.961
292.03	25.916
292.40	28.435
292.77	26.146
293.13	26.252
293.50	26.281
293.87	24.832
294.24	27.333
294.60	25.790
294.97	24.161
295.34	27.529
295.71	24.968
296.08	25.065
296.44	24.142
296.81	25.335
297.18	26.152
297.55	23.821
297.91	24.792
298.28	22.867
298.65	24.138
299.02	23.495
299.38	23.227
299.75	22.430
300.12	22.917
300.48	24.424
300.85	24.747
301.22	23.937
301.59	23.174
301.95	24.294
302.32	23.444
302.69	22.125
303.05	23.830
303.42	23.725
303.79	22.500
304.15	23.870
304.52	23.150
304.89	22.827
305.25	23.085
305.62	22.466
305.99	22.784
306.35	22.782
306.72	22.751
307.09	22.741
307.45	22.774
307.82	24.016
308.19	20.787
308.55	24.012
308.92	22.493
309.29	23.180
309.65	22.807
310.02	23.465
310.38	22.441
310.75	24.563
311.12	24.161
311.48	24.145
311.85	23.457
312.22	24.194
312.58	22.535
312.95	24.474
313.31	24.481
313.68	25.275
314.05	25.565
314.41	25.501
314.78	24.886
315.14	27.677
315.51	25.023
315.87	26.823
316.24	26.301
316.61	26.288
316.97	26.968
317.34	26.102
317.70	28.821
318.07	29.012
318.43	28.912
318.80	28.930
319.16	29.528
319.53	28.449
319.89	28.396
320.26	28.648
320.62	29.699
320.99	29.825
321.35	31.793
321.72	32.186
322.08	31.380
322.45	33.333
322.81	32.671
323.18	34.159
323.54	33.879
323.91	34.609
324.27	35.112
324.64	36.524
325.00	36.899
325.37	37.592
325.73	38.182
326.10	39.254
326.46	40.635
326.83	41.633
327.19	40.394
327.56	43.320
327.92	43.666
328.29	43.145
328.65	44.724
329.01	45.685
329.38	47.009
329.74	47.089
330.11	49.058
330.47	48.778
330.84	50.215
331.20	49.500
331.56	49.653
331.93	50.628
332.29	50.763
332.66	52.159
333.02	51.340
333.38	51.426
333.75	52.778
334.11	53.545
334.48	53.383
334.84	53.696
335.20	52.729
335.57	54.975
335.93	54.298
336.29	54.077
336.66	55.004
337.02	55.686
337.38	55.697
337.75	54.215
338.11	56.350
338.47	56.410
338.84	55.161
339.20	55.097
339.56	55.354
339.93	54.762
340.29	54.911
340.65	56.367
341.02	55.148
341.38	57.074
341.74	55.529
342.11	57.361
342.47	56.473
342.83	57.327
343.20	56.664
343.56	57.017
343.92	54.604
344.28	56.016
344.65	55.659
345.01	55.538
345.37	56.532
345.73	55.573
346.10	56.864
346.46	57.278
346.82	55.581
347.19	56.073
347.55	56.449
347.91	57.207
348.27	56.829
348.63	55.979
349.00	56.376
349.36	55.836
349.72	58.482
350.08	55.721
350.45	55.970
350.81	56.561
351.17	55.714
351.53	57.619
351.89	56.796
352.26	56.567
352.62	57.463
352.98	59.084
353.34	55.713
353.70	57.935
354.07	57.303
354.43	55.353
354.79	56.619
355.15	56.512
355.51	57.895
355.87	57.891
356.24	56.958
356.60	57.058
356.96	57.376
357.32	57.695
357.68	58.199
358.04	57.710
358.40	57.687
358.77	57.456
359.13	57.090
359.49	58.662
359.85	59.318
360.21	57.747
360.57	58.076
360.93	57.193
361.29	57.965
361.66	57.205
362.02	57.968
362.38	58.046
362.74	57.612
363.10	58.666
363.46	60.319
363.82	59.304
364.18	59.676
364.54	58.990
364.90	60.067
365.26	59.793
365.62	58.867
365.98	58.952
366.35	59.664
366.71	60.204
367.07	59.269
367.43	59.947
367.79	60.650
368.15	60.067
368.51	59.472
368.87	60.026
369.23	58.800
369.59	61.475
369.95	61.122
370.31	61.040
370.67	60.523
371.03	60.665
371.39	61.048
371.75	61.073
372.11	61.924
372.47	62.221
372.83	62.500
373.19	60.307
373.55	61.585
373.91	62.440
374.27	61.708
374.63	63.599
374.99	62.798
375.35	62.143
375.71	62.452
376.07	62.556
376.42	62.657
376.78	62.461
377.14	63.069
377.50	64.579
377.86	62.931
378.22	64.371
378.58	64.744
378.94	64.261
379.30	63.913
379.66	64.962
380.02	65.436
380.38	66.647
380.74	65.746
381.09	65.621
381.45	65.966
381.81	67.974
382.17	65.796
382.53	66.140
382.89	67.099
383.25	68.933
383.61	68.519
383.97	67.432
384.32	68.959
384.68	67.865
385.04	68.884
385.40	69.593
385.76	69.109
386.12	69.659
386.48	69.941
386.83	70.501
387.19	69.525
387.55	70.364
387.91	69.521
388.27	70.843
388.62	68.958
388.98	69.430
389.34	70.595
389.70	71.412
390.06	72.647
390.42	70.723
390.77	72.306
391.13	71.244
391.49	71.014
391.85	72.727
392.20	72.064
392.56	71.234
392.92	70.447
393.28	72.029
393.64	73.296
393.99	73.562
394.35	74.241
394.71	74.012
395.07	72.575
395.42	73.158
395.78	75.381
396.14	74.213
396.50	73.456
396.85	73.047
397.21	73.728
397.57	73.852
397.92	75.029
398.28	72.949
398.64	73.741
399.00	72.880
399.35	73.089
399.71	73.859
400.07	74.396
400.42	74.738
400.78	74.653
401.14	73.819
401.49	74.758
401.85	75.814
402.21	75.203
402.57	75.117
402.92	74.468
403.28	73.653
403.63	75.239
403.99	73.634
404.35	73.451
404.70	74.051
405.06	73.207
405.42	74.532
405.77	75.409
406.13	74.770
406.49	74.944
406.84	75.346
407.20	75.349
407.55	75.954
407.91	75.110
408.27	74.028
408.62	74.695
408.98	74.463
409.34	74.545
409.69	74.722
410.05	74.736
410.40	75.406
410.76	74.033
411.11	75.862
411.47	76.167
411.83	75.661
412.18	76.325
412.54	75.756
412.89	73.807
413.25	75.395
413.60	75.244
413.96	75.408
414.31	73.484
414.67	74.776
415.03	75.569
415.38	76.860
415.74	74.832
416.09	76.681
416.45	74.765
416.80	73.745
417.16	75.479
417.51	77.273
417.87	75.904
418.22	75.808
418.58	77.014
418.93	75.960
419.29	77.990
419.64	75.810
420.00	76.320
420.35	75.969
420.71	76.278
421.06	76.078
421.42	76.261
421.77	74.960
422.12	75.476
422.48	76.856
422.83	78.204
423.19	77.666
423.54	79.535
423.90	76.643
424.25	78.027
424.61	78.645
424.96	76.387
425.31	76.699
425.67	77.348
426.02	77.643
426.38	78.129
426.73	77.176
427.09	78.835
427.44	78.755
427.79	77.722
428.15	76.998
428.50	78.315
428.85	77.325
429.21	78.191
429.56	78.282
429.92	77.887
430.27	78.843
430.62	78.798
430.98	79.931
431.33	77.859
431.68	78.592
432.04	78.923
432.39	79.754
432.74	78.824
433.10	79.232
433.45	79.041
433.80	79.185
434.16	78.719
434.51	79.599
434.86	82.519
435.22	81.668
435.57	82.017
435.92	79.188
436.28	81.513
436.63	82.687
436.98	78.851
437.34	80.383
437.69	80.682
438.04	80.169
438.39	80.701
438.75	80.465
439.10	80.550
439.45	80.324
439.81	81.017
440.16	80.912
440.51	80.602
440.86	79.044
441.22	79.796
441.57	82.128
441.92	80.019
442.27	80.859
442.63	80.676
442.98	80.896
443.33	80.326
443.68	81.417
444.03	83.913
444.39	81.415
444.74	81.827
445.09	79.777
445.44	82.244
445.79	81.897
446.15	82.580
446.50	80.879
446.85	82.004
447.20	81.286
447.55	81.067
447.91	81.623
448.26	82.082
448.61	82.997
448.96	83.959
449.31	80.700
449.66	80.828
450.02	82.120
450.37	81.993
450.72	82.508
451.07	81.891
451.42	82.785
451.77	81.045
452.12	82.562
452.47	83.066
452.83	84.065
453.18	82.195
453.53	83.056
453.88	81.778
454.23	82.316
454.58	84.330
454.93	81.614
455.28	83.564
455.63	82.433
455.98	82.626
456.34	83.274
456.69	83.010
457.04	84.574
457.39	82.871
457.74	84.452
458.09	83.086
458.44	82.759
458.79	81.949
459.14	82.119
459.49	84.097
459.84	83.473
460.19	83.343
460.54	83.702
460.89	85.124
461.24	83.793
461.59	83.011
461.94	81.574
462.29	84.770
462.64	83.947
462.99	84.809
463.34	84.296
463.69	82.767
464.04	84.102
464.39	83.352
464.74	81.585
465.09	83.564
465.44	82.672
465.79	83.554
466.14	82.074
466.49	82.789
466.84	84.353
467.19	83.873
467.54	81.727
467.89	84.195
468.24	82.825
468.59	82.745
468.94	82.226
469.29	83.383
469.64	83.090
469.99	83.238
470.34	83.478
470.68	86.056
471.03	84.086
471.38	84.107
471.73	85.891
472.08	84.898
472.43	83.624
472.78	84.005
473.13	84.260
473.48	84.834
473.83	84.852
474.17	82.943
474.52	84.847
474.87	83.666
475.22	85.634
475.57	83.385
475.92	83.524
476.27	83.972
476.61	83.385
476.96	83.785
477.31	84.109
477.66	84.890
478.01	83.477
478.36	82.552
478.70	84.433
479.05	85.736
479.40	85.686
479.75	82.901
480.10	84.225
480.45	84.002
480.79	84.444
481.14	83.961
481.49	84.053
481.84	84.552
482.19	84.989
482.53	85.002
482.88	84.847
483.23	84.882
483.58	85.284
483.92	84.397
484.27	83.319
484.62	82.921
484.97	83.515
485.31	83.175
485.66	78.369
486.01	78.079
486.36	80.667
486.70	83.462
487.05	85.301
487.40	84.444
487.75	84.427
488.09	83.798
488.44	82.583
488.79	84.081
489.13	83.309
489.48	83.650
489.83	82.897
490.17	83.030
490.52	82.225
490.87	83.714
491.22	85.615
491.56	85.239
491.91	83.995
492.26	84.249
492.60	84.915
492.95	84.511
493.30	85.746
493.64	85.151
493.99	84.430
494.34	85.148
494.68	82.912
495.03	84.934
495.37	84.288
495.72	84.717
496.07	84.575
496.41	84.256
496.76	85.321
497.11	85.053
497.45	83.945
497.80	83.874
498.14	85.397
498.49	84.789
498.84	85.466
499.18	85.605
499.53	83.812
499.87	85.407
500.22	83.482
500.56	85.650
500.91	86.407
501.26	85.455
501.60	84.092
501.95	85.193
502.29	84.818
502.64	85.046
502.98	83.391
503.33	84.104
503.67	84.387
504.02	85.377
504.36	85.970
504.71	84.382
505.06	85.357
505.40	84.918
505.75	83.698
506.09	85.727
506.44	85.933
506.78	85.780
507.13	85.016
507.47	84.841
507.82	84.375
508.16	85.182
508.51	83.122
508.85	85.498
509.19	85.599
509.54	86.359
509.88	85.041
510.23	86.255
510.57	85.549
510.92	86.309
511.26	86.147
511.61	84.790
511.95	85.066
512.30	85.869
512.64	84.258
512.98	85.743
513.33	86.139
513.67	85.824
514.02	86.817
514.36	87.775
514.70	87.500
515.05	86.601
515.39	87.034
515.74	87.699
516.08	86.688
516.42	86.028
516.77	87.277
517.11	86.333
517.46	87.487
517.80	86.799
518.14	86.616
518.49	86.443
518.83	85.152
519.17	85.191
519.52	85.692
519.86	86.220
520.20	86.741
520.55	86.473
520.89	87.106
521.23	86.655
521.58	87.401
521.92	86.572
522.26	87.113
522.61	86.979
522.95	86.332
523.29	86.379
523.64	85.146
523.98	87.792
524.32	88.768
524.66	86.113
525.01	84.938
525.35	86.732
525.69	85.905
526.04	84.845
526.38	87.184
526.72	86.563
527.06	87.683
527.41	86.880
527.75	88.599
528.09	87.721
528.43	86.856
528.78	86.936
529.12	86.755
529.46	86.284
529.80	88.787
530.15	87.072
530.49	88.790
530.83	88.076
531.17	87.993
531.51	88.568
531.86	87.740
532.20	87.805
532.54	86.176
532.88	88.303
533.22	86.506
533.57	86.671
533.91	85.746
534.25	86.716
534.59	87.184
534.93	86.418
535.27	85.352
535.62	86.924
535.96	87.856
536.30	87.427
536.64	87.267
536.98	87.392
537.32	87.469
537.66	88.397
538.01	86.647
538.35	87.272
538.69	86.839
539.03	87.738
539.37	85.336
539.71	86.006
540.05	87.890
540.39	86.980
540.73	86.946
541.07	86.511
541.42	86.356
541.76	84.401
542.10	86.550
542.44	85.993
542.78	87.470
543.12	85.459
543.46	85.653
543.80	85.372
544.14	85.757
544.48	87.293
544.82	87.852
545.16	85.391
545.50	85.680
545.84	85.793
546.18	86.667
546.52	86.433
546.86	86.918
547.20	87.913
547.54	85.955
547.88	85.292
548.22	84.737
548.56	86.249
548.90	86.269
549.24	86.687
549.58	87.003
549.92	87.372
550.26	87.379
550.60	85.003
550.94	86.158
551.28	85.149
551.62	88.679
551.96	85.631
552.30	85.978
552.64	86.559
552.98	87.835
553.32	87.588
553.66	86.817
554.00	88.462
554.34	87.323
554.68	86.314
555.02	88.173
555.36	87.245
555.69	85.522
556.03	86.948
556.37	87.171
556.71	86.747
557.05	86.581
557.39	88.653
557.73	89.300
558.07	86.821
558.41	86.379
558.75	88.032
559.08	88.727
559.42	87.311
559.76	85.617
560.10	85.800
560.44	87.863
560.78	86.938
561.12	88.177
561.45	87.652
561.79	86.508
562.13	88.293
562.47	86.313
562.81	86.835
563.15	86.553
563.48	86.762
563.82	87.304
564.16	86.372
564.50	85.578
564.84	86.077
565.17	86.647
565.51	85.328
565.85	86.342
566.19	85.484
566.52	85.430
566.86	86.304
567.20	83.904
567.54	85.714
567.88	86.646
568.21	85.227
568.55	85.899
568.89	84.476
569.23	84.622
569.56	83.079
569.90	82.288
570.24	83.238
570.57	83.162
570.91	81.568
571.25	81.689
571.59	81.436
571.92	81.370
572.26	81.710
572.60	81.627
572.93	81.325
573.27	81.793
573.61	80.572
573.95	80.117
574.28	79.794
574.62	79.991
574.96	79.334
575.29	78.960
575.63	80.065
575.97	80.838
576.30	80.681
576.64	80.267
576.98	79.863
577.31	80.070
577.65	79.901
577.98	78.916
578.32	78.489
578.66	79.627
578.99	79.787
579.33	80.769
579.67	79.986
580.00	79.703
580.34	78.818
580.67	79.700
581.01	78.581
581.35	78.745
581.68	77.693
582.02	78.013
582.35	79.349
582.69	79.952
583.02	80.303
583.36	80.181
583.70	80.436
584.03	79.386
584.37	79.956
584.70	79.291
585.04	78.889
585.37	78.988
585.71	79.331
586.04	79.524
586.38	80.014
586.72	79.995
587.05	80.123
587.39	79.407
587.72	80.311
588.06	80.222
588.39	79.437
588.73	80.106
589.06	80.023
589.40	81.807
589.73	80.880
590.07	81.731
590.40	80.561
590.73	80.240
591.07	81.906
591.40	80.677
591.74	81.240
592.07	81.811
592.41	81.585
592.74	80.263
593.08	80.382
593.41	80.373
593.75	80.546
594.08	80.915
594.41	81.474
594.75	80.306
595.08	81.931
595.42	80.877
595.75	80.336
596.09	82.582
596.42	81.010
596.75	82.594
597.09	82.545
597.42	81.605
597.75	81.301
598.09	80.675
598.42	82.589
598.76	80.168
599.09	79.245
599.42	79.819
599.76	79.597
600.09	80.914
600.42	79.613
600.76	80.779
601.09	79.356
601.42	79.780
601.76	80.690
602.09	80.772
602.42	80.625
602.76	80.148
603.09	80.653
603.42	81.503
603.76	80.726
604.09	81.973
604.42	81.688
604.76	80.023
605.09	81.970
605.42	81.459
605.75	80.154
606.09	80.552
606.42	79.168
606.75	78.973
607.09	78.955
607.42	79.268
607.75	80.891
608.08	80.505
608.42	80.451
608.75	81.675
609.08	80.730
609.41	82.135
609.75	81.161
610.08	82.014
610.41	80.884
610.74	81.303
611.07	81.794
611.41	81.525
611.74	82.679
612.07	82.515
612.40	81.939
612.73	82.298
613.07	82.200
613.40	82.531
613.73	82.234
614.06	81.452
614.39	81.244
614.72	82.242
615.06	81.328
615.39	81.585
615.72	81.706
616.05	80.573
616.38	83.350
616.71	81.923
617.05	80.192
617.38	82.183
617.71	83.315
618.04	81.543
618.37	84.098
618.70	84.672
619.03	84.707
619.36	82.676
619.69	84.305
620.03	82.549
620.36	82.147
620.69	82.973
621.02	84.318
621.35	87.155
621.68	85.828
622.01	84.698
622.34	84.449
622.67	84.399
623.00	84.818
623.33	84.539
623.66	84.630
623.99	83.147
624.32	83.951
624.65	82.947
624.99	84.720
625.32	84.324
625.65	85.502
625.98	83.729
626.31	85.046
626.64	84.689
626.97	85.746
627.30	83.827
627.63	85.146
627.96	85.511
628.29	84.514
628.62	86.482
628.95	87.993
629.28	86.661
629.61	86.195
629.94	86.611
630.26	86.017
630.59	87.047
630.92	85.368
631.25	87.925
631.58	91.055
631.91	87.629
632.24	89.337
632.57	86.907
632.90	90.772
633.23	89.796
633.56	87.347
633.89	85.950
634.22	89.709
634.55	88.205
634.88	89.610
635.20	90.958
635.53	94.124
635.86	89.166
636.19	86.638
636.52	88.819
636.85	88.049
637.18	87.422
637.51	88.065
637.83	88.815
638.16	91.014
638.49	90.258
638.82	88.050
639.15	87.285
639.48	91.109
639.81	87.760
640.13	91.048
640.46	88.606
640.79	87.623
641.12	90.559
641.45	91.217
641.77	91.913
642.10	90.157
642.43	92.819
642.76	91.192
643.09	92.329
643.41	89.636
643.74	91.034
644.07	93.379
644.40	91.513
644.73	91.582
645.05	94.273
645.38	90.504
645.71	91.496
646.04	91.392
646.36	90.657
646.69	91.871
647.02	94.343
647.35	94.198
647.67	95.813
648.00	93.471
648.33	89.489
648.66	90.585
648.98	87.347
649.31	88.769
649.64	90.040
649.96	87.003
650.29	87.483
650.62	89.392
650.94	90.541
651.27	89.521
651.60	88.450
651.92	90.426
652.25	88.857
652.58	88.446
652.90	88.227
653.23	89.155
653.56	89.872
653.88	89.326
654.21	87.183
654.54	90.751
654.86	89.943
655.19	84.065
655.52	81.085
655.84	72.872
656.17	86.063
656.49	100.042
656.82	100.008
657.15	100.000
657.47	100.000
657.80	96.336
658.13	46.909
658.45	62.336
658.78	75.659
659.10	73.302
659.43	73.579
659.75	73.085
660.08	72.885
660.41	76.013
660.73	82.326
661.06	87.225
661.38	86.603
661.71	91.034
662.03	89.771
662.36	92.487
662.68	91.557
663.01	92.212
663.33	94.518
663.66	93.773
663.98	92.115
664.31	93.621
664.63	94.605
664.96	92.015
665.28	89.292
665.61	89.860
665.93	91.071
666.26	89.606
666.58	90.221
666.91	93.458
667.23	92.571
667.56	94.872
667.88	95.600
668.21	87.695
668.53	88.417
668.86	91.945
669.18	93.890
669.50	92.644
669.83	89.400
670.15	91.929
670.48	94.643
670.80	90.631
671.13	90.548
671.45	94.291
671.77	92.655
672.10	85.667
672.42	88.188
672.75	87.865
673.07	85.373
673.39	86.749
673.72	89.262
674.04	89.655
674.37	89.088
674.69	89.242
675.01	90.286
675.34	89.313
675.66	85.955
675.98	88.993
676.31	89.258
676.63	89.924
676.95	89.464
677.28	91.331
677.60	90.551
677.92	90.403
678.25	88.665
678.57	90.747
678.89	85.836
679.22	85.366
679.54	87.521
679.86	86.441
680.18	86.235
680.51	83.962
680.83	86.579
681.15	87.241
681.48	89.465
681.80	88.428
682.12	86.364
682.44	83.306
682.77	86.348
683.09	91.098
683.41	88.372
683.73	86.148
684.06	85.793
684.38	85.868
684.70	90.305
685.02	88.124
685.34	85.691
685.67	83.596
685.99	82.362
686.31	80.087
686.63	84.202
686.96	84.227
687.28	82.248
687.60	87.542
687.92	80.868
688.24	84.474
688.56	81.207
688.89	84.936
689.21	89.628
689.53	85.294
689.85	89.744
690.17	80.926
690.49	88.845
690.82	86.733
691.14	87.247
691.46	88.528
691.78	85.451
692.10	89.541
692.42	82.500
692.74	85.481
693.06	85.370
693.39	83.681
693.71	83.835
694.03	82.342
694.35	84.000
694.67	85.216
694.99	88.085
695.31	85.210
695.63	90.260
695.95	82.402
696.27	86.154
696.59	87.168
696.91	88.288
697.23	89.451
697.56	84.929
697.88	82.197
698.20	83.804
698.52	85.795
698.84	87.526
699.16	84.490
699.48	88.703
699.80	86.383
700.12	83.188
700.44	86.175
700.76	84.798
701.08	84.019
701.40	93.782
701.72	89.303
702.04	89.840
702.36	87.435
702.68	84.108
703.00	85.575
703.32	88.424
703.64	84.841
703.96	80.668
704.28	83.292
704.60	89.873
704.91	86.224
705.23	88.219
705.55	85.237
705.87	92.727
706.19	88.344
706.51	87.048
706.83	88.184
707.15	84.127
707.47	85.514
707.79	79.476
708.11	83.263
708.43	81.505
708.74	77.902
709.06	83.527
709.38	88.498
709.70	86.352
710.02	81.654
710.34	85.106
710.66	87.151
710.98	84.426
711.29	88.736
711.61	88.136
711.93	89.459
712.25	85.405
712.57	90.855
712.89	82.059
713.20	87.278
713.52	85.260
713.84	83.844
714.16	80.789
714.48	82.474
714.80	80.779
715.11	82.677
715.43	83.820
715.75	82.105
716.07	82.873
716.39	84.153
716.70	83.133
717.02	90.492
717.34	88.502
717.66	88.926
717.97	83.904
718.29	83.162
718.61	79.934
718.93	85.113
719.24	81.988
719.56	78.221
719.88	75.976
720.20	86.774
720.51	82.919
720.83	83.750
721.15	83.553
721.46	83.562
721.78	85.000
722.10	83.172
722.42	83.557
722.73	77.742
723.05	91.228
723.37	84.722
723.68	87.097
724.00	89.892
724.32	80.986
724.63	82.867
724.95	85.461
725.27	88.850
725.58	84.099
725.90	87.241
726.22	79.624
726.53	84.416
726.85	83.648
727.16	74.622
727.48	83.486
727.80	81.788
728.11	85.866
728.43	85.522
728.74	81.940
729.06	84.437
729.38	82.468
729.69	84.564
730.01	76.190
730.32	76.364
730.64	78.616
730.96	84.472
731.27	76.816
731.59	77.473
731.90	75.065
732.22	73.698
732.53	78.729
732.85	78.286
733.16	77.713
733.48	84.146
733.80	76.880
734.11	75.783
734.43	73.514
734.74	80.759
735.06	74.623
735.37	76.216
735.69	78.108
736.00	80.226
736.32	76.819
736.63	73.056
736.95	78.161
737.26	82.727
737.58	77.576
737.89	80.294
738.21	77.982
738.52	80.328
738.83	79.181
739.15	84.397
739.46	79.252
739.78	77.607
740.09	74.212
740.41	82.799
740.72	79.333
741.04	79.612
741.35	76.842
741.66	81.569
741.98	81.557
742.29	81.590
742.61	88.158
742.92	81.923
743.23	79.422
743.55	79.845
743.86	80.400
744.18	79.339
744.49	78.481
744.80	81.893
745.12	83.966
745.43	84.959
745.74	80.603
746.06	77.966
746.37	84.810
746.68	84.146
747.00	84.167
747.31	84.120
747.62	80.769
747.94	80.972
748.25	79.920
748.56	80.000
748.88	81.624
749.19	86.638
749.50	79.221
749.82	85.542
750.13	80.071
750.44	76.333
750.75	75.692
751.07	77.538
751.38	79.495
751.69	80.831
752.01	75.081
752.32	77.124
752.63	77.891
752.94	84.083
753.26	79.182
753.57	76.296
753.88	82.022
754.19	74.598
754.51	76.206
754.82	77.814
755.13	80.000
755.44	79.863
755.75	72.697
756.07	76.119
756.38	74.214
756.69	82.229
757.00	70.360
757.31	72.951
757.63	74.425
757.94	69.014
758.25	72.235
758.56	71.678
758.87	69.773
759.18	72.000
759.50	72.805
759.81	73.950
760.12	72.237
760.43	73.438
760.74	71.675
761.05	70.750
761.36	67.952
761.67	69.036
761.99	70.270
762.30	75.610
762.61	70.297
762.92	82.090
763.23	76.779
763.54	73.381
763.85	72.509
764.16	72.054
764.47	77.465
764.78	72.204
765.10	75.660
765.41	70.769
765.72	69.577
766.03	72.316
766.34	73.041
766.65	73.171
766.96	78.486
767.27	78.802
767.58	80.100
767.89	82.692
768.20	71.831
768.51	75.463
768.82	75.100
769.13	76.894
769.44	70.385
769.75	75.451
770.06	73.462
770.37	77.165
770.68	76.170
770.99	68.826
771.30	76.296
771.61	74.525
771.92	74.444
772.23	78.138
772.54	73.611
772.85	73.272
773.16	75.238
773.47	75.661
773.78	75.676
774.09	85.795
774.39	76.500
774.70	77.596
775.01	76.829
775.32	68.824
775.63	71.779
775.94	74.522
776.25	78.065
776.56	75.641
776.87	82.993
777.18	77.241
777.48	81.119
777.79	74.324
778.10	83.088
778.41	75.694
778.72	75.172
779.03	75.926
779.34	83.636
779.65	68.912
779.95	76.111
780.26	69.886
780.57	78.710
780.88	84.783
781.19	76.774
781.50	74.706
781.80	82.796
782.11	73.016
782.42	60.101
782.73	70.659
783.04	71.508
783.34	80.000
783.65	68.627
783.96	75.776
784.27	66.071
784.57	70.861
784.88	73.571
785.19	74.016
785.50	77.165
785.81	78.195
786.11	78.462
786.42	70.504
786.73	74.820
787.04	74.436
787.34	84.426
787.65	82.400
787.96	79.851
788.26	76.923
788.57	77.622
788.88	65.132
789.19	73.856
789.49	70.548
789.80	68.085
790.11	72.441
790.41	62.500
790.72	72.881
791.03	82.524
791.33	67.826
791.64	74.561
791.95	70.536
792.25	79.048
792.56	83.929
792.87	64.583
793.17	64.286
793.48	60.417
793.79	78.313
794.09	62.385
794.40	71.560
794.70	68.027
795.01	71.429
795.32	61.644
795.62	64.085
795.93	68.939
796.23	71.311
796.54	67.857
796.85	76.596
797.15	54.348
797.46	84.932
797.76	68.750
798.07	77.174
798.37	67.010
798.68	74.026
798.99	77.011
799.29	70.787
799.60	73.404
799.90	79.518
800.21	78.462
800.51	65.672
800.82	67.647
801.12	56.164
801.43	63.235
801.73	76.271
802.04	75.758
802.34	93.333
802.65	88.136
802.95	74.627
803.26	76.271
803.56	75.342
803.87	77.143
804.17	73.973
804.48	68.421
804.78	86.111
805.09	58.621
805.39	59.459
805.70	69.014
806.00	50.000
806.30	73.494
806.61	52.055
806.91	62.500
807.22	64.444
807.52	62.069
807.83	91.667
808.13	68.675
808.43	66.292
808.74	62.500
809.04	82.353
809.35	85.333
809.65	67.143
809.95	79.452
810.26	82.456
810.56	58.621
810.86	79.412
811.17	78.947
811.47	55.738
811.77	86.667
812.08	66.102
812.38	73.333
812.69	82.759
812.99	50.943
813.29	48.718
813.59	84.000
813.90	82.456
814.20	65.455
814.50	76.056
814.81	71.795
815.11	86.885
815.41	65.672
815.72	70.690
816.02	66.071
816.32	86.667
816.62	65.909
816.93	68.889
817.23	81.481
817.53	65.957
817.84	116.667
818.14	144.118
818.44	89.796
818.74	82.222
819.04	64.103
819.35	68.571
819.65	107.692
819.95	62.264
820.25	60.000
820.56	66.667
820.86	96.875
821.16	94.872
821.46	88.372
821.76	70.000
822.07	80.357
822.37	71.739
822.67	63.830
822.97	43.243
823.27	57.500
823.57	65.306
823.88	77.778
824.18	95.000
824.48	60.000
824.78	96.000
825.08	96.970
825.38	86.667
825.69	74.468
825.99	108.333
826.29	62.857
826.59	66.667
826.89	76.744
827.19	56.000
827.49	73.529
827.79	60.417
828.09	72.973
828.39	76.667
828.70	63.415
829.00	79.070
829.30	67.857
829.60	108.824
829.90	65.217
830.20	80.000
830.50	75.862
830.80	88.889
831.10	96.154
831.40	67.647
831.70	119.048
832.00	100.000
832.30	-23.529
832.60	58.333
832.90	76.923
833.20	100.000
833.50	75.000
833.80	105.263
834.10	14.286
834.40	66.667
834.70	109.375
835.00	45.714
835.30	44.118
835.60	53.333
835.90	116.000
836.20	31.818
836.50	68.000
836.80	48.485
837.10	55.556
837.40	85.185
837.70	25.000
838.00	96.429
838.30	43.478
838.60	75.862
838.90	157.143
839.19	26.087
839.49	58.333
839.79	82.609
840.09	68.750
840.39	65.000
840.69	70.968
840.99	53.571
841.29	26.667
841.59	63.158
841.88	71.795
842.18	88.462
842.48	-10.000
842.78	50.000
843.08	80.000
843.38	48.387
843.68	11.111
843.97	58.824
844.27	81.250
844.57	52.632
844.87	140.000
845.17	133.333
845.47	138.095
845.76	71.429
846.06	111.111
846.36	35.294
846.66	57.692
846.96	93.333
847.25	58.824
847.55	86.957
847.85	60.000
848.15	94.118
848.44	72.727
848.74	47.619
849.04	66.667
849.34	50.000
849.63	78.261
849.93	-500.000
850.23	126.667
850.53	103.846
850.82	154.545
851.12	100.000
851.42	163.636
851.71	107.692
852.01	60.000
852.31	115.385
852.61	47.368
852.90	108.333
853.20	105.556
853.50	0.000
853.79	57.143
854.09	90.909
854.39	66.667
854.68	80.645
854.98	42.308
855.28	77.778
855.57	60.714
855.87	68.000
856.17	63.636
856.46	62.963
856.76	55.556
857.05	-13.043
857.35	8.333
857.65	38.462
857.94	57.143
858.24	33.333
858.53	134.783
858.83	82.353
859.13	64.706
859.42	111.765
859.72	78.571
860.01	95.000
860.31	166.667
860.60	80.000
860.90	0.000
861.20	116.667
861.49	115.385
861.79	53.333
862.08	46.154
862.38	75.000
862.67	11.765
862.97	81.250
863.26	0.000
863.56	40.000
863.85	90.909
864.15	100.000
864.44	366.667
864.74	78.571
865.03	12.500
865.33	-80.000
865.62	29.032
865.92	45.455
866.21	47.826
866.51	128.571
866.80	120.000
867.10	41.667
867.39	41.667
867.69	600.000
867.98	157.143
868.27	35.294
868.57	200.000
868.86	10.000
869.16	23.810
869.45	83.333
869.75	181.818
870.04	100.000
870.33	108.333
870.63	-14.286
870.92	175.000
871.22	-62.500
871.51	63.636
871.80	-266.667
872.10	450.000
>>>>>End Processed Spectral Data<<<<<
