SpectraSuite Data File
++++++++++++++++++++++++++++++++++++
Date: Thu May 14 14:59:42 PDT 2015
User: schluterlab
Dark Spectrum Present: Yes
Reference Spectrum Present: Yes
Number of Sampled Component Spectra: 1
Spectrometers: USB2E3373
Integration Time (usec): 3000 (USB2E3373)
Spectra Averaged: 3 (USB2E3373)
Boxcar Smoothing: 0 (USB2E3373)
Correct for Electrical Dark: No (USB2E3373)
Strobe/Lamp Enabled: No (USB2E3373)
Correct for Detector Non-linearity: No (USB2E3373)
Correct for Stray Light: No (USB2E3373)
Number of Pixels in Processed Spectrum: 2048
>>>>>Begin Processed Spectral Data<<<<<
178.53	0.000
178.91	285.714
179.29	-3200.000
179.67	-2800.000
180.04	292.857
180.42	270.000
180.80	600.000
181.18	-2100.000
181.56	-1700.000
181.94	600.000
182.31	-400.000
182.69	933.333
183.07	-1000.000
183.45	500.000
183.83	-416.667
184.20	-1100.000
184.58	1700.000
184.96	-700.000
185.34	-255.556
185.72	-240.000
186.09	355.556
186.47	1450.000
186.85	540.000
187.23	-277.778
187.61	-3200.000
187.98	360.000
188.36	725.000
188.74	-725.000
189.12	-533.333
189.49	-87.500
189.87	-262.500
190.25	-211.111
190.63	-380.000
191.00	-300.000
191.38	0.000
191.76	-500.000
192.14	-216.667
192.51	1050.000
192.89	-266.667
193.27	0.000
193.65	-357.143
194.02	-2400.000
194.40	-271.429
194.78	257.143
195.15	0.000
195.53	-163.636
195.91	0.000
196.29	-650.000
196.66	-130.769
197.04	-2900.000
197.42	-285.714
197.79	-1150.000
198.17	-300.000
198.55	-314.286
198.92	-233.333
199.30	-400.000
199.68	-100.000
200.05	-71.429
200.43	-600.000
200.81	185.714
201.18	0.000
201.56	400.000
201.94	0.000
202.31	966.667
202.69	-277.778
203.07	1500.000
203.44	-200.000
203.82	-825.000
204.19	-183.333
204.57	-400.000
204.95	-300.000
205.32	-2400.000
205.70	550.000
206.08	-366.667
206.45	-283.333
206.83	640.000
207.20	-283.333
207.58	-680.000
207.96	-433.333
208.33	-200.000
208.71	266.667
209.08	-333.333
209.46	0.000
209.84	550.000
210.21	1050.000
210.59	1350.000
210.96	800.000
211.34	-425.000
211.71	-175.000
212.09	-2400.000
212.46	0.000
212.84	1500.000
213.22	-580.000
213.59	-525.000
213.97	-190.000
214.34	-766.667
214.72	350.000
215.09	-525.000
215.47	0.000
215.84	314.286
216.22	1400.000
216.59	-520.000
216.97	-360.000
217.34	-550.000
217.72	-287.500
218.09	-475.000
218.47	-650.000
218.84	0.000
219.22	520.000
219.59	-94.118
219.97	-55.000
220.34	1350.000
220.72	-244.444
221.09	-115.385
221.47	-666.667
221.84	-170.000
222.22	-314.286
222.59	0.000
222.97	-387.500
223.34	-560.000
223.72	-2000.000
224.09	-550.000
224.46	-550.000
224.84	-340.000
225.21	-385.714
225.59	-650.000
225.96	-600.000
226.34	-50.000
226.71	500.000
227.08	-1200.000
227.46	-160.000
227.83	-525.000
228.21	-105.263
228.58	250.000
228.95	1350.000
229.33	-108.333
229.70	-240.000
230.08	-52.632
230.45	290.000
230.82	-800.000
231.20	-78.571
231.57	-91.667
231.95	-136.364
232.32	-163.636
232.69	-75.000
233.07	-525.000
233.44	-82.353
233.81	-230.000
234.19	-83.333
234.56	-90.909
234.93	-51.724
235.31	-89.474
235.68	-100.000
236.05	-130.000
236.43	-7.692
236.80	-4.000
237.17	-48.148
237.55	-27.273
237.92	-240.000
238.29	-67.742
238.67	-43.182
239.04	-38.889
239.41	-21.429
239.79	-30.435
240.16	-20.370
240.53	-28.261
240.91	-37.255
241.28	-4.918
241.65	-4.478
242.02	-2.703
242.40	-35.385
242.77	-18.667
243.14	-23.171
243.51	-25.000
243.89	-24.359
244.26	3.960
244.63	-1.961
245.00	-8.411
245.38	0.000
245.75	-16.814
246.12	1.587
246.49	-5.426
246.87	0.714
247.24	7.285
247.61	1.316
247.98	-0.671
248.36	5.556
248.73	-0.613
249.10	5.464
249.47	8.458
249.84	7.330
250.22	0.000
250.59	5.000
250.96	7.727
251.33	4.592
251.70	6.410
252.08	9.583
252.45	11.066
252.82	3.306
253.19	6.641
253.56	7.605
253.94	6.923
254.31	8.333
254.68	9.790
255.05	11.726
255.42	11.905
255.79	8.414
256.16	10.265
256.54	8.278
256.91	7.541
257.28	10.820
257.65	9.554
258.02	8.555
258.39	11.966
258.76	12.232
259.14	11.207
259.51	8.934
259.88	7.932
260.25	10.833
260.62	9.041
260.99	10.383
261.36	13.405
261.73	12.732
262.10	10.714
262.47	9.651
262.85	11.869
263.22	10.130
263.59	6.579
263.96	9.974
264.33	11.765
264.70	11.111
265.07	13.604
265.44	14.059
265.81	12.963
266.18	10.658
266.55	12.946
266.92	11.845
267.29	12.035
267.66	10.865
268.03	12.009
268.40	12.109
268.77	11.845
269.14	11.894
269.51	12.500
269.88	11.680
270.25	12.072
270.62	14.557
270.99	12.323
271.36	11.881
271.73	13.163
272.10	10.822
272.47	11.824
272.84	11.647
273.21	12.224
273.58	10.484
273.95	10.962
274.32	10.646
274.69	11.219
275.06	13.919
275.43	11.275
275.80	11.993
276.17	11.667
276.54	12.313
276.91	12.522
277.28	10.127
277.65	12.029
278.02	12.132
278.39	11.775
278.76	11.072
279.13	12.057
279.50	13.402
279.87	12.880
280.23	8.803
280.60	9.661
280.97	12.500
281.34	9.168
281.71	13.198
282.08	11.628
282.45	11.620
282.82	11.303
283.19	10.662
283.56	11.148
283.92	11.862
284.29	12.954
284.66	12.315
285.03	10.897
285.40	11.283
285.77	11.300
286.14	12.519
286.51	14.155
286.87	12.480
287.24	12.199
287.61	11.061
287.98	10.725
288.35	13.166
288.72	11.243
289.08	12.152
289.45	12.722
289.82	11.145
290.19	11.638
290.56	13.380
290.93	11.555
291.29	9.780
291.66	11.019
292.03	10.855
292.40	12.517
292.77	11.321
293.13	11.231
293.50	9.987
293.87	10.872
294.24	10.667
294.60	10.872
294.97	9.530
295.34	11.396
295.71	10.845
296.08	9.432
296.44	10.662
296.81	10.353
297.18	10.710
297.55	9.552
297.91	10.439
298.28	9.479
298.65	11.415
299.02	10.508
299.38	9.954
299.75	8.995
300.12	9.722
300.48	10.023
300.85	10.686
301.22	10.179
301.59	9.589
301.95	9.040
302.32	10.444
302.69	9.748
303.05	10.881
303.42	10.865
303.79	9.792
304.15	10.410
304.52	9.514
304.89	9.948
305.25	9.834
305.62	9.718
305.99	9.897
306.35	9.274
306.72	9.411
307.09	8.934
307.45	10.248
307.82	11.100
308.19	7.972
308.55	10.800
308.92	9.348
309.29	10.057
309.65	10.526
310.02	10.099
310.38	9.941
310.75	10.000
311.12	11.218
311.48	9.384
311.85	10.826
312.22	9.393
312.58	9.765
312.95	10.229
313.31	10.659
313.68	10.623
314.05	11.201
314.41	10.656
314.78	10.173
315.14	11.252
315.51	12.004
315.87	11.071
316.24	11.598
316.61	13.144
316.97	12.398
317.34	12.434
317.70	12.926
318.07	12.081
318.43	13.265
318.80	13.294
319.16	13.391
319.53	11.311
319.89	13.848
320.26	13.879
320.62	13.387
320.99	13.666
321.35	14.325
321.72	13.953
322.08	14.067
322.45	15.266
322.81	15.794
323.18	15.044
323.54	15.517
323.91	16.014
324.27	17.040
324.64	17.716
325.00	16.998
325.37	17.281
325.73	18.099
326.10	18.086
326.46	19.300
326.83	19.616
327.19	19.921
327.56	18.893
327.92	18.804
328.29	18.629
328.65	19.179
329.01	20.220
329.38	20.051
329.74	22.260
330.11	22.346
330.47	22.072
330.84	21.361
331.20	22.500
331.56	23.744
331.93	23.766
332.29	23.559
332.66	23.671
333.02	23.032
333.38	24.664
333.75	23.737
334.11	25.438
334.48	24.422
334.84	24.384
335.20	25.105
335.57	25.885
335.93	23.223
336.29	23.877
336.66	24.811
337.02	25.167
337.38	25.595
337.75	25.207
338.11	25.147
338.47	25.145
338.84	26.481
339.20	25.527
339.56	25.371
339.93	25.369
340.29	24.960
340.65	24.980
341.02	25.140
341.38	26.192
341.74	25.989
342.11	27.192
342.47	25.179
342.83	26.892
343.20	27.228
343.56	26.784
343.92	27.462
344.28	25.781
344.65	26.357
345.01	26.755
345.37	26.905
345.73	26.812
346.10	27.301
346.46	26.108
346.82	27.341
347.19	26.585
347.55	27.162
347.91	27.489
348.27	26.404
348.63	27.494
349.00	28.337
349.36	26.914
349.72	27.604
350.08	28.232
350.45	28.289
350.81	27.602
351.17	27.820
351.53	28.506
351.89	28.929
352.26	28.060
352.62	28.284
352.98	27.634
353.34	28.230
353.70	29.276
354.07	27.943
354.43	28.474
354.79	27.524
355.15	28.182
355.51	27.924
355.87	27.375
356.24	30.266
356.60	27.864
356.96	29.429
357.32	29.071
357.68	28.770
358.04	28.593
358.40	29.851
358.77	29.532
359.13	29.468
359.49	29.814
359.85	28.934
360.21	30.344
360.57	29.576
360.93	28.632
361.29	31.088
361.66	30.558
362.02	30.828
362.38	30.499
362.74	30.517
363.10	31.499
363.46	31.233
363.82	31.534
364.18	31.738
364.54	30.567
364.90	31.237
365.26	31.517
365.62	31.867
365.98	31.450
366.35	32.081
366.71	31.837
367.07	33.153
367.43	31.911
367.79	33.709
368.15	32.910
368.51	32.882
368.87	33.508
369.23	33.667
369.59	34.495
369.95	33.469
370.31	33.221
370.67	34.801
371.03	33.864
371.39	33.781
371.75	34.044
372.11	33.740
372.47	33.852
372.83	35.406
373.19	34.690
373.55	35.095
373.91	35.242
374.27	35.317
374.63	36.198
374.99	36.008
375.35	36.104
375.71	36.258
376.07	35.959
376.42	36.650
376.78	37.912
377.14	36.868
377.50	38.330
377.86	37.931
378.22	37.605
378.58	38.882
378.94	38.967
379.30	38.313
379.66	39.447
380.02	40.277
380.38	41.187
380.74	39.775
381.09	40.883
381.45	40.000
381.81	41.979
382.17	41.746
382.53	41.404
382.89	41.366
383.25	42.849
383.61	42.477
383.97	42.403
384.32	43.840
384.68	42.575
385.04	43.783
385.40	44.549
385.76	44.256
386.12	44.704
386.48	44.588
386.83	45.411
387.19	44.902
387.55	45.188
387.91	45.662
388.27	46.074
388.62	45.876
388.98	45.685
389.34	47.437
389.70	48.053
390.06	46.773
390.42	47.048
390.77	48.284
391.13	47.007
391.49	47.947
391.85	48.303
392.20	48.636
392.56	49.262
392.92	49.128
393.28	49.696
393.64	49.385
393.99	50.843
394.35	50.234
394.71	49.401
395.07	49.940
395.42	49.743
395.78	51.554
396.14	50.386
396.50	50.713
396.85	49.493
397.21	50.414
397.57	50.412
397.92	52.405
398.28	51.276
398.64	49.828
399.00	50.419
399.35	51.099
399.71	51.522
400.07	51.656
400.42	51.746
400.78	50.984
401.14	50.711
401.49	51.336
401.85	52.267
402.21	53.418
402.57	52.758
402.92	51.359
403.28	51.698
403.63	52.267
403.99	51.128
404.35	51.563
404.70	51.331
405.06	50.978
405.42	51.991
405.77	52.126
406.13	52.080
406.49	52.646
406.84	52.465
407.20	52.487
407.55	52.211
407.91	52.734
408.27	52.061
408.62	52.763
408.98	52.293
409.34	51.613
409.69	53.832
410.05	52.521
410.40	53.480
410.76	53.449
411.11	53.887
411.47	54.300
411.83	53.086
412.18	54.217
412.54	52.993
412.89	52.212
413.25	53.047
413.60	53.073
413.96	52.622
414.31	50.878
414.67	53.548
415.03	53.415
415.38	53.594
415.74	53.268
416.09	53.300
416.45	52.912
416.80	51.958
417.16	52.554
417.51	52.553
417.87	52.974
418.22	53.713
418.58	53.036
418.93	53.492
419.29	53.206
419.64	53.361
420.00	52.641
420.35	53.622
420.71	53.647
421.06	52.444
421.42	53.383
421.77	52.719
422.12	53.013
422.48	53.507
422.83	53.888
423.19	54.271
423.54	54.701
423.90	53.838
424.25	53.867
424.61	53.272
424.96	54.805
425.31	53.397
425.67	53.623
426.02	54.455
426.38	53.444
426.73	52.790
427.09	54.556
427.44	53.796
427.79	53.068
428.15	53.311
428.50	53.371
428.85	53.330
429.21	54.043
429.56	53.406
429.92	53.759
430.27	54.602
430.62	53.737
430.98	54.648
431.33	54.497
431.68	53.736
432.04	55.003
432.39	54.419
432.74	54.395
433.10	53.867
433.45	53.122
433.80	53.165
434.16	53.564
434.51	53.443
434.86	56.515
435.22	55.526
435.57	55.307
435.92	54.814
436.28	54.266
436.63	54.943
436.98	52.979
437.34	54.059
437.69	53.880
438.04	53.517
438.39	53.992
438.75	53.680
439.10	54.545
439.45	54.835
439.81	53.955
440.16	53.190
440.51	52.899
440.86	53.474
441.22	53.751
441.57	54.822
441.92	54.365
442.27	55.303
442.63	55.191
442.98	54.696
443.33	53.919
443.68	54.410
444.03	55.456
444.39	54.461
444.74	54.671
445.09	53.675
445.44	55.216
445.79	55.316
446.15	54.779
446.50	54.470
446.85	53.599
447.20	53.868
447.55	54.550
447.91	54.241
448.26	54.545
448.61	54.357
448.96	55.579
449.31	54.719
449.66	52.778
450.02	54.167
450.37	54.875
450.72	55.167
451.07	54.499
451.42	53.437
451.77	52.918
452.12	55.700
452.47	52.644
452.83	56.250
453.18	53.999
453.53	52.786
453.88	53.230
454.23	54.520
454.58	54.150
454.93	53.216
455.28	54.846
455.63	53.781
455.98	55.140
456.34	54.653
456.69	54.321
457.04	54.374
457.39	54.767
457.74	54.530
458.09	53.542
458.44	53.610
458.79	54.358
459.14	53.225
459.49	53.877
459.84	54.774
460.19	53.415
460.54	55.196
460.89	54.844
461.24	53.448
461.59	54.676
461.94	52.196
462.29	53.975
462.64	52.927
462.99	53.107
463.34	53.602
463.69	52.462
464.04	53.974
464.39	53.139
464.74	53.307
465.09	53.403
465.44	54.399
465.79	53.464
466.14	52.996
466.49	52.684
466.84	53.664
467.19	52.370
467.54	52.291
467.89	51.839
468.24	51.856
468.59	52.229
468.94	52.564
469.29	52.669
469.64	52.511
469.99	52.326
470.34	52.351
470.68	52.700
471.03	54.551
471.38	51.668
471.73	53.706
472.08	52.982
472.43	51.595
472.78	53.212
473.13	52.149
473.48	51.239
473.83	53.511
474.17	52.462
474.52	53.097
474.87	51.384
475.22	51.887
475.57	51.713
475.92	53.858
476.27	51.757
476.61	51.817
476.96	51.773
477.31	52.673
477.66	52.833
478.01	52.059
478.36	51.545
478.70	52.217
479.05	52.658
479.40	52.962
479.75	51.345
480.10	50.971
480.45	52.051
480.79	52.381
481.14	52.436
481.49	52.249
481.84	52.132
482.19	51.527
482.53	51.902
482.88	52.548
483.23	52.112
483.58	51.004
483.92	51.773
484.27	51.228
484.62	52.228
484.97	50.622
485.31	50.898
485.66	48.690
486.01	49.474
486.36	52.273
486.70	55.074
487.05	56.359
487.40	54.725
487.75	52.468
488.09	52.663
488.44	50.894
488.79	51.366
489.13	50.398
489.48	50.097
489.83	50.624
490.17	49.696
490.52	50.903
490.87	51.269
491.22	51.516
491.56	50.939
491.91	51.548
492.26	50.974
492.60	50.284
492.95	51.470
493.30	51.412
493.64	51.730
493.99	50.526
494.34	50.348
494.68	51.135
495.03	51.982
495.37	51.753
495.72	50.839
496.07	50.570
496.41	49.507
496.76	52.085
497.11	51.847
497.45	50.755
497.80	51.533
498.14	50.658
498.49	51.057
498.84	51.143
499.18	51.327
499.53	51.076
499.87	50.945
500.22	50.935
500.56	50.877
500.91	51.213
501.26	51.500
501.60	50.066
501.95	50.369
502.29	50.812
502.64	51.815
502.98	50.992
503.33	49.978
503.67	50.371
504.02	51.313
504.36	52.234
504.71	50.758
505.06	52.024
505.40	50.320
505.75	50.729
506.09	51.703
506.44	51.903
506.78	50.642
507.13	50.899
507.47	50.876
507.82	50.331
508.16	50.143
508.51	50.117
508.85	50.638
509.19	50.213
509.54	50.720
509.88	50.898
510.23	51.384
510.57	51.764
510.92	50.798
511.26	50.361
511.61	49.879
511.95	49.927
512.30	50.960
512.64	50.075
512.98	49.875
513.33	50.605
513.67	51.402
514.02	51.610
514.36	50.691
514.70	50.833
515.05	50.991
515.39	51.811
515.74	50.848
516.08	50.766
516.42	51.125
516.77	51.314
517.11	50.438
517.46	50.583
517.80	52.058
518.14	51.523
518.49	52.386
518.83	49.388
519.17	50.619
519.52	49.371
519.86	50.317
520.20	51.118
520.55	50.876
520.89	51.464
521.23	50.475
521.58	52.034
521.92	50.708
522.26	51.375
522.61	52.431
522.95	50.750
523.29	52.184
523.64	50.561
523.98	50.428
524.32	52.149
524.66	51.224
525.01	50.396
525.35	50.546
525.69	50.754
526.04	49.770
526.38	51.437
526.72	49.712
527.06	50.968
527.41	50.029
527.75	50.653
528.09	51.476
528.43	50.918
528.78	50.867
529.12	50.803
529.46	50.984
529.80	50.572
530.15	50.783
530.49	51.483
530.83	51.535
531.17	51.195
531.51	50.963
531.86	51.382
532.20	51.768
532.54	51.107
532.88	51.152
533.22	50.796
533.57	49.971
533.91	51.178
534.25	51.894
534.59	51.494
534.93	51.104
535.27	51.549
535.62	52.416
535.96	51.075
536.30	50.940
536.64	51.652
536.98	50.984
537.32	50.926
537.66	51.279
538.01	50.876
538.35	50.305
538.69	50.661
539.03	51.625
539.37	50.177
539.71	50.210
540.05	50.060
540.39	49.450
540.73	50.455
541.07	50.889
541.42	49.084
541.76	51.068
542.10	50.121
542.44	50.122
542.78	51.703
543.12	50.417
543.46	50.916
543.80	50.240
544.14	49.431
544.48	51.537
544.82	51.227
545.16	52.594
545.50	51.468
545.84	50.949
546.18	52.531
546.52	50.573
546.86	50.755
547.20	50.509
547.54	49.813
547.88	50.512
548.22	50.936
548.56	51.668
548.90	51.821
549.24	51.185
549.58	50.347
549.92	50.128
550.26	50.744
550.60	50.223
550.94	50.388
551.28	51.221
551.62	51.146
551.96	50.227
552.30	49.904
552.64	50.467
552.98	51.528
553.32	51.511
553.66	50.161
554.00	50.315
554.34	51.287
554.68	48.741
555.02	50.460
555.36	52.005
555.69	49.712
556.03	50.189
556.37	51.690
556.71	50.856
557.05	50.160
557.39	50.365
557.73	50.991
558.07	49.603
558.41	51.429
558.75	50.507
559.08	51.357
559.42	50.274
559.76	49.864
560.10	50.234
560.44	50.462
560.78	50.812
561.12	51.724
561.45	51.642
561.79	51.343
562.13	52.187
562.47	50.370
562.81	51.962
563.15	51.136
563.48	50.901
563.82	51.088
564.16	50.697
564.50	50.715
564.84	51.740
565.17	51.353
565.51	51.208
565.85	51.306
566.19	50.864
566.52	51.024
566.86	50.594
567.20	50.517
567.54	50.823
567.88	52.090
568.21	51.038
568.55	51.751
568.89	51.384
569.23	51.162
569.56	52.091
569.90	51.996
570.24	51.872
570.57	52.470
570.91	51.929
571.25	51.750
571.59	52.073
571.92	51.599
572.26	51.800
572.60	52.389
572.93	51.934
573.27	51.250
573.61	51.456
573.95	51.056
574.28	51.320
574.62	52.228
574.96	51.478
575.29	51.840
575.63	51.952
575.97	52.527
576.30	50.284
576.64	50.608
576.98	51.640
577.31	51.949
577.65	52.456
577.98	52.165
578.32	52.160
578.66	52.186
578.99	51.628
579.33	52.090
579.67	51.315
580.00	51.225
580.34	51.047
580.67	51.523
581.01	51.428
581.35	50.653
581.68	51.340
582.02	52.215
582.35	52.910
582.69	53.336
583.02	52.943
583.36	52.495
583.70	52.374
584.03	51.500
584.37	51.419
584.70	50.489
585.04	50.709
585.37	50.840
585.71	51.219
586.04	52.554
586.38	52.019
586.72	51.767
587.05	52.315
587.39	51.957
587.72	52.727
588.06	51.813
588.39	51.979
588.73	51.799
589.06	51.326
589.40	52.151
589.73	51.960
590.07	52.918
590.40	51.927
590.73	51.856
591.07	51.526
591.40	51.788
591.74	50.994
592.07	52.132
592.41	50.552
592.74	50.586
593.08	51.624
593.41	52.931
593.75	52.184
594.08	53.014
594.41	51.987
594.75	51.146
595.08	52.288
595.42	52.403
595.75	51.824
596.09	52.762
596.42	52.848
596.75	51.332
597.09	52.000
597.42	51.530
597.75	50.451
598.09	52.302
598.42	51.186
598.76	51.013
599.09	51.264
599.42	51.224
599.76	51.799
600.09	52.619
600.42	51.885
600.76	52.180
601.09	50.680
601.42	51.184
601.76	52.207
602.09	51.537
602.42	50.818
602.76	51.255
603.09	51.542
603.42	51.698
603.76	51.868
604.09	52.590
604.42	52.220
604.76	51.788
605.09	52.134
605.42	51.715
605.75	50.885
606.09	51.288
606.42	50.456
606.75	51.012
607.09	50.883
607.42	50.829
607.75	51.973
608.08	51.302
608.42	51.189
608.75	51.658
609.08	50.679
609.41	52.051
609.75	51.429
610.08	52.023
610.41	51.529
610.74	51.429
611.07	51.865
611.41	52.735
611.74	52.887
612.07	51.706
612.40	51.616
612.73	53.447
613.07	51.883
613.40	52.166
613.73	51.517
614.06	51.963
614.39	51.361
614.72	51.043
615.06	50.818
615.39	51.087
615.72	51.706
616.05	51.433
616.38	52.119
616.71	51.985
617.05	50.266
617.38	51.471
617.71	51.782
618.04	51.754
618.37	53.169
618.70	52.602
619.03	50.478
619.36	50.678
619.69	51.121
620.03	51.601
620.36	51.534
620.69	50.648
621.02	50.984
621.35	52.830
621.68	51.988
622.01	51.388
622.34	51.534
622.67	51.890
623.00	51.350
623.33	51.825
623.66	52.010
623.99	50.560
624.32	51.722
624.65	51.866
624.99	53.251
625.32	53.168
625.65	51.450
625.98	50.373
626.31	51.453
626.64	50.110
626.97	51.163
627.30	50.873
627.63	51.463
627.96	52.252
628.29	51.206
628.62	50.462
628.95	51.621
629.28	49.958
629.61	50.926
629.94	50.628
630.26	51.017
630.59	51.813
630.92	51.169
631.25	52.236
631.58	51.695
631.91	50.703
632.24	52.450
632.57	50.095
632.90	52.558
633.23	52.857
633.56	51.327
633.89	49.587
634.22	49.376
634.55	49.896
634.88	49.351
635.20	51.238
635.53	52.994
635.86	50.271
636.19	51.644
636.52	51.055
636.85	50.664
637.18	50.832
637.51	50.323
637.83	50.388
638.16	50.461
638.49	50.117
638.82	50.620
639.15	49.714
639.48	52.194
639.81	50.924
640.13	51.001
640.46	49.212
640.79	48.897
641.12	50.435
641.45	52.823
641.77	52.246
642.10	49.344
642.43	50.532
642.76	50.407
643.09	49.452
643.41	49.580
643.74	50.621
644.07	50.897
644.40	49.222
644.73	49.492
645.05	51.689
645.38	50.360
645.71	50.293
646.04	49.641
646.36	47.591
646.69	48.006
647.02	50.306
647.35	49.160
647.67	52.013
648.00	50.318
648.33	50.000
648.66	49.643
648.98	49.116
649.31	49.797
649.64	52.457
649.96	48.276
650.29	48.261
650.62	48.939
650.94	49.550
651.27	47.305
651.60	49.708
651.92	48.632
652.25	49.204
652.58	48.693
652.90	50.581
653.23	50.141
653.56	50.357
653.88	49.438
654.21	49.577
654.54	50.434
654.86	49.858
655.19	50.063
655.52	52.275
655.84	54.732
656.17	64.000
656.49	88.677
656.82	95.826
657.15	74.953
657.47	57.010
657.80	41.908
658.13	32.152
658.45	41.821
658.78	49.932
659.10	47.002
659.43	46.020
659.75	43.616
660.08	41.401
660.41	41.935
660.73	42.645
661.06	44.934
661.38	46.411
661.71	47.241
662.03	47.443
662.36	47.406
662.68	48.405
663.01	50.265
663.33	47.070
663.66	52.198
663.98	50.192
664.31	48.405
664.63	46.435
664.96	48.276
665.28	44.465
665.61	48.601
665.93	47.321
666.26	49.283
666.58	45.203
666.91	51.028
667.23	47.619
667.56	49.901
667.88	50.000
668.21	46.484
668.53	46.332
668.86	47.741
669.18	49.491
669.50	47.714
669.83	47.000
670.15	46.457
670.48	51.190
670.80	45.124
671.13	48.582
671.45	47.835
671.77	53.861
672.10	47.500
672.42	50.647
672.75	49.155
673.07	48.358
673.39	46.071
673.72	50.671
674.04	49.138
674.37	48.479
674.69	48.325
675.01	47.238
675.34	48.664
675.66	44.382
675.98	48.134
676.31	48.828
676.63	50.380
676.95	46.743
677.28	48.992
677.60	45.472
677.92	47.217
678.25	47.349
678.57	48.043
678.89	48.805
679.22	46.516
679.54	47.009
679.86	47.966
680.18	47.264
680.51	48.585
680.83	47.136
681.15	48.793
681.48	48.187
681.80	48.014
682.12	47.203
682.44	45.409
682.77	48.759
683.09	48.485
683.41	46.124
683.73	44.023
684.06	48.708
684.38	47.227
684.70	48.474
685.02	49.914
685.34	45.923
685.67	47.319
685.99	47.546
686.31	45.203
686.63	47.551
686.96	48.580
687.28	44.951
687.60	48.990
687.92	46.141
688.24	46.411
688.56	44.828
688.89	45.917
689.21	45.988
689.53	47.059
689.85	45.957
690.17	45.000
690.49	47.211
690.82	43.366
691.14	43.117
691.46	43.595
691.78	47.882
692.10	46.606
692.42	45.179
692.74	44.646
693.06	43.889
693.39	46.300
693.71	46.429
694.03	43.309
694.35	44.381
694.67	48.460
694.99	44.255
695.31	45.254
695.63	44.372
695.95	45.963
696.27	44.396
696.59	46.239
696.91	45.045
697.23	49.231
697.56	46.029
697.88	45.644
698.20	48.211
698.52	46.970
698.84	43.867
699.16	49.184
699.48	43.933
699.80	43.617
700.12	43.231
700.44	43.548
700.76	42.993
701.08	44.794
701.40	47.150
701.72	45.522
702.04	47.326
702.36	41.099
702.68	41.809
703.00	44.988
703.32	45.074
703.64	44.499
703.96	43.437
704.28	43.735
704.60	47.595
704.91	42.347
705.23	44.932
705.55	43.175
705.87	43.333
706.19	45.092
706.51	41.265
706.83	44.092
707.15	43.386
707.47	42.991
707.79	41.048
708.11	43.644
708.43	44.946
708.74	41.295
709.06	44.548
709.38	43.192
709.70	45.161
710.02	43.411
710.34	44.947
710.66	39.385
710.98	45.355
711.29	42.033
711.61	42.373
711.93	42.165
712.25	42.973
712.57	43.658
712.89	43.235
713.20	38.462
713.52	41.040
713.84	39.554
714.16	43.421
714.48	37.629
714.80	45.455
715.11	41.995
715.43	41.645
715.75	40.526
716.07	43.094
716.39	38.251
716.70	40.361
717.02	43.607
717.34	39.721
717.66	41.275
717.97	37.329
718.29	39.519
718.61	38.158
718.93	38.188
719.24	44.720
719.56	41.718
719.88	37.538
720.20	43.548
720.51	39.752
720.83	38.125
721.15	42.763
721.46	40.753
721.78	42.667
722.10	39.159
722.42	41.946
722.73	40.000
723.05	47.719
723.37	40.278
723.68	45.878
724.00	42.960
724.32	40.141
724.63	40.909
724.95	37.589
725.27	38.676
725.58	40.283
725.90	44.483
726.22	41.379
726.53	41.234
726.85	38.679
727.16	41.994
727.48	39.755
727.80	39.404
728.11	40.636
728.43	37.710
728.74	42.809
729.06	38.411
729.38	37.987
729.69	43.624
730.01	41.369
730.32	37.879
730.64	40.881
730.96	39.752
731.27	40.782
731.59	41.209
731.90	37.922
732.22	37.500
732.53	37.293
732.85	40.571
733.16	41.642
733.48	35.976
733.80	40.669
734.11	37.607
734.43	41.892
734.74	42.785
735.06	40.452
735.37	43.784
735.69	38.649
736.00	39.831
736.32	38.814
736.63	40.556
736.95	38.793
737.26	41.515
737.58	36.364
737.89	42.941
738.21	36.391
738.52	36.066
738.83	41.297
739.15	39.007
739.46	43.537
739.78	40.491
740.09	37.822
740.41	41.108
740.72	39.667
741.04	40.129
741.35	36.491
741.66	38.431
741.98	35.656
742.29	38.912
742.61	40.789
742.92	40.000
743.23	36.462
743.55	40.310
743.86	38.000
744.18	34.298
744.49	36.709
744.80	36.626
745.12	42.616
745.43	43.089
745.74	36.207
746.06	36.441
746.37	37.131
746.68	44.309
747.00	35.833
747.31	34.764
747.62	43.462
747.94	35.628
748.25	35.743
748.56	40.816
748.88	37.607
749.19	38.362
749.50	40.693
749.82	40.161
750.13	42.705
750.44	37.333
750.75	40.000
751.07	35.385
751.38	38.170
751.69	36.102
752.01	36.893
752.32	39.542
752.63	36.054
752.94	37.716
753.26	36.059
753.57	35.185
753.88	39.700
754.19	37.942
754.51	35.048
754.82	35.048
755.13	35.082
755.44	35.836
755.75	37.171
756.07	35.821
756.38	37.421
756.69	40.663
757.00	39.058
757.31	39.071
757.63	35.550
757.94	38.263
758.25	39.729
758.56	36.166
758.87	37.727
759.18	37.333
759.50	39.093
759.81	37.815
760.12	38.544
760.43	39.323
760.74	39.901
761.05	38.000
761.36	38.072
761.67	35.025
761.99	32.973
762.30	36.585
762.61	31.353
762.92	33.582
763.23	36.330
763.54	38.129
763.85	35.052
764.16	36.700
764.47	36.268
764.78	39.297
765.10	34.311
765.41	40.256
765.72	37.037
766.03	33.898
766.34	32.288
766.65	33.101
766.96	33.068
767.27	35.484
767.58	27.363
767.89	40.385
768.20	32.864
768.51	31.481
768.82	36.145
769.13	40.152
769.44	31.154
769.75	34.657
770.06	35.385
770.37	40.945
770.68	34.894
770.99	26.721
771.30	38.519
771.61	37.262
771.92	32.963
772.23	33.198
772.54	28.241
772.85	37.327
773.16	33.333
773.47	26.984
773.78	32.432
774.09	38.636
774.39	31.500
774.70	34.973
775.01	28.049
775.32	24.118
775.63	33.742
775.94	27.389
776.25	29.677
776.56	26.282
776.87	32.653
777.18	24.138
777.48	30.070
777.79	22.973
778.10	25.735
778.41	25.694
778.72	37.241
779.03	32.716
779.34	22.424
779.65	27.979
779.95	28.889
780.26	26.136
780.57	25.161
780.88	36.957
781.19	38.065
781.50	36.471
781.80	38.172
782.11	27.513
782.42	23.232
782.73	27.545
783.04	24.581
783.34	20.606
783.65	26.144
783.96	26.708
784.27	20.238
784.57	25.828
784.88	32.857
785.19	26.772
785.50	20.472
785.81	26.316
786.11	24.615
786.42	20.144
786.73	16.547
787.04	30.827
787.34	13.934
787.65	22.400
787.96	26.866
788.26	29.371
788.57	39.161
788.88	26.316
789.19	28.758
789.49	25.342
789.80	26.950
790.11	31.496
790.41	21.875
790.72	16.102
791.03	19.417
791.33	20.000
791.64	19.298
791.95	15.179
792.25	22.857
792.56	19.643
792.87	14.583
793.17	17.857
793.48	14.583
793.79	4.819
794.09	17.431
794.40	23.853
794.70	36.054
795.01	22.727
795.32	21.918
795.62	30.282
795.93	16.667
796.23	16.393
796.54	17.857
796.85	24.468
797.15	9.783
797.46	-2.740
797.76	11.250
798.07	20.652
798.37	17.526
798.68	2.597
798.99	21.839
799.29	17.978
799.60	8.511
799.90	20.482
800.21	24.615
800.51	11.940
800.82	-4.412
801.12	-1.370
801.43	4.412
801.73	-5.085
802.04	6.061
802.34	-11.667
802.65	13.559
802.95	1.493
803.26	0.000
803.56	5.479
803.87	-8.571
804.17	-9.589
804.48	-3.509
804.78	0.000
805.09	-3.448
805.39	14.865
805.70	-8.451
806.00	10.976
806.30	4.819
806.61	19.178
806.91	22.115
807.22	14.444
807.52	-8.046
807.83	26.389
808.13	19.277
808.43	14.607
808.74	13.750
809.04	8.824
809.35	-1.333
809.65	-10.000
809.95	2.740
810.26	-10.526
810.56	8.621
810.86	19.118
811.17	-3.509
811.47	-6.557
811.77	-24.444
812.08	1.695
812.38	8.333
812.69	-1.724
812.99	-5.660
813.29	-35.897
813.59	-6.000
813.90	26.316
814.20	-5.455
814.50	14.085
814.81	7.692
815.11	14.754
815.41	-1.493
815.72	3.448
816.02	-5.357
816.32	8.889
816.62	-13.636
816.93	-11.111
817.23	5.556
817.53	-14.894
817.84	0.000
818.14	-17.647
818.44	-2.041
818.74	4.444
819.04	-46.154
819.35	-71.429
819.65	-46.154
819.95	-9.434
820.25	-8.889
820.56	-14.286
820.86	-18.750
821.16	-30.769
821.46	-13.953
821.76	-22.000
822.07	-7.143
822.37	-6.522
822.67	-14.894
822.97	-18.919
823.27	-7.500
823.57	-2.041
823.88	2.222
824.18	-10.000
824.48	-36.667
824.78	-48.000
825.08	-42.424
825.38	-2.222
825.69	-17.021
825.99	-11.111
826.29	-42.857
826.59	10.256
826.89	-11.628
827.19	-36.000
827.49	-23.529
827.79	-18.750
828.09	-37.838
828.39	-36.667
828.70	-34.146
829.00	-4.651
829.30	-32.143
829.60	-5.882
829.90	-17.391
830.20	-34.286
830.50	-62.069
830.80	-77.778
831.10	-57.692
831.40	-14.706
831.70	-47.619
832.00	-16.129
832.30	-188.235
832.60	-58.333
832.90	-169.231
833.20	-121.053
833.50	-75.000
833.80	-52.632
834.10	-114.286
834.40	-16.667
834.70	-6.250
835.00	-48.571
835.30	-17.647
835.60	-63.333
835.90	-20.000
836.20	-100.000
836.50	-44.000
836.80	-48.485
837.10	-29.630
837.40	-40.741
837.70	-125.000
838.00	-28.571
838.30	-91.304
838.60	-27.586
838.90	-85.714
839.19	-56.522
839.49	-200.000
839.79	-60.870
840.09	-162.500
840.39	-95.000
840.69	-25.806
840.99	-53.571
841.29	-53.333
841.59	-89.474
841.88	-17.949
842.18	-50.000
842.48	-230.000
842.78	-60.000
843.08	-50.000
843.38	-19.355
843.68	-183.333
843.97	-17.647
844.27	-56.250
844.57	-115.789
844.87	-260.000
845.17	-173.333
845.47	-57.143
845.76	-66.667
846.06	-233.333
846.36	-105.882
846.66	-53.846
846.96	-46.667
847.25	-123.529
847.55	-34.783
847.85	-80.000
848.15	-64.706
848.44	-163.636
848.74	-57.143
849.04	-62.500
849.34	-68.750
849.63	-65.217
849.93	1600.000
850.23	-86.667
850.53	-26.923
850.82	-154.545
851.12	-18.182
851.42	-172.727
851.71	-84.615
852.01	-125.000
852.31	-123.077
852.61	-89.474
852.90	-58.333
853.20	-61.111
853.50	-344.444
853.79	-104.762
854.09	-90.909
854.39	-200.000
854.68	-12.903
854.98	-50.000
855.28	-27.778
855.57	-42.857
855.87	-20.000
856.17	-72.727
856.46	-40.741
856.76	-83.333
857.05	-95.652
857.35	-83.333
857.65	-153.846
857.94	-71.429
858.24	-22.222
858.53	-60.870
858.83	-52.941
859.13	-100.000
859.42	-100.000
859.72	-107.143
860.01	-80.000
860.31	-177.778
860.60	-170.000
860.90	-113.333
861.20	-105.556
861.49	-123.077
861.79	-60.000
862.08	-115.385
862.38	-25.000
862.67	-88.235
862.97	-56.250
863.26	-222.222
863.56	-210.000
863.85	-163.636
864.15	-72.222
864.44	-566.667
864.74	-121.429
865.03	-143.750
865.33	-320.000
865.62	-64.516
865.92	-77.273
866.21	-69.565
866.51	-114.286
866.80	-520.000
867.10	-225.000
867.39	-225.000
867.69	3000.000
867.98	-142.857
868.27	-58.824
868.57	-2600.000
868.86	-250.000
869.16	-90.476
869.45	-66.667
869.75	-118.182
870.04	-228.571
870.33	-91.667
870.63	-414.286
870.92	-375.000
871.22	-325.000
871.51	-190.909
871.80	-866.667
872.10	-600.000
>>>>>End Processed Spectral Data<<<<<
