SpectraSuite Data File
++++++++++++++++++++++++++++++++++++
Date: Thu May 14 14:39:52 PDT 2015
User: schluterlab
Dark Spectrum Present: Yes
Reference Spectrum Present: Yes
Number of Sampled Component Spectra: 1
Spectrometers: USB2E3373
Integration Time (usec): 3000 (USB2E3373)
Spectra Averaged: 3 (USB2E3373)
Boxcar Smoothing: 0 (USB2E3373)
Correct for Electrical Dark: No (USB2E3373)
Strobe/Lamp Enabled: No (USB2E3373)
Correct for Detector Non-linearity: No (USB2E3373)
Correct for Stray Light: No (USB2E3373)
Number of Pixels in Processed Spectrum: 2048
>>>>>Begin Processed Spectral Data<<<<<
178.53	0.000
178.91	-114.286
179.29	200.000
179.67	900.000
180.04	35.714
180.42	-90.000
180.80	-160.000
181.18	1000.000
181.56	1800.000
181.94	-275.000
182.31	350.000
182.69	-166.667
183.07	400.000
183.45	-300.000
183.83	316.667
184.20	366.667
184.58	-2600.000
184.96	325.000
185.34	177.778
185.72	560.000
186.09	-100.000
186.47	-350.000
186.85	-60.000
187.23	-22.222
187.61	600.000
187.98	-260.000
188.36	-325.000
188.74	225.000
189.12	833.333
189.49	118.750
189.87	137.500
190.25	233.333
190.63	160.000
191.00	88.889
191.38	0.000
191.76	325.000
192.14	283.333
192.51	-1000.000
192.89	200.000
193.27	0.000
193.65	171.429
194.02	1800.000
194.40	285.714
194.78	-185.714
195.15	0.000
195.53	200.000
195.91	0.000
196.29	475.000
196.66	107.692
197.04	1100.000
197.42	142.857
197.79	300.000
198.17	175.000
198.55	157.143
198.92	222.222
199.30	162.500
199.68	118.182
200.05	192.857
200.43	50.000
200.81	-28.571
201.18	0.000
201.56	11.111
201.94	0.000
202.31	-466.667
202.69	33.333
203.07	-1000.000
203.44	244.444
203.82	225.000
204.19	91.667
204.57	216.667
204.95	62.500
205.32	1800.000
205.70	-425.000
206.08	116.667
206.45	283.333
206.83	-160.000
207.20	316.667
207.58	160.000
207.96	183.333
208.33	316.667
208.71	-125.000
209.08	300.000
209.46	0.000
209.84	-100.000
210.21	-350.000
210.59	-800.000
210.96	-166.667
211.34	525.000
211.71	250.000
212.09	400.000
212.46	0.000
212.84	50.000
213.22	100.000
213.59	450.000
213.97	180.000
214.34	333.333
214.72	-233.333
215.09	275.000
215.47	0.000
215.84	-114.286
216.22	-200.000
216.59	380.000
216.97	140.000
217.34	450.000
217.72	250.000
218.09	100.000
218.47	275.000
218.84	0.000
219.22	-360.000
219.59	58.824
219.97	45.000
220.34	-350.000
220.72	144.444
221.09	146.154
221.47	466.667
221.84	170.000
222.22	214.286
222.59	0.000
222.97	312.500
223.34	-20.000
223.72	1700.000
224.09	475.000
224.46	250.000
224.84	300.000
225.21	185.714
225.59	250.000
225.96	175.000
226.34	73.077
226.71	16.667
227.08	600.000
227.46	73.333
227.83	250.000
228.21	142.105
228.58	-225.000
228.95	-800.000
229.33	183.333
229.70	240.000
230.08	126.316
230.45	-180.000
230.82	266.667
231.20	164.286
231.57	108.333
231.95	118.182
232.32	163.636
232.69	150.000
233.07	150.000
233.44	70.588
233.81	120.000
234.19	133.333
234.56	72.727
234.93	62.069
235.31	57.895
235.68	122.222
236.05	80.000
236.43	92.308
236.80	96.000
237.17	125.926
237.55	51.515
237.92	130.000
238.29	58.065
238.67	72.727
239.04	50.000
239.41	28.571
239.79	63.043
240.16	55.556
240.53	63.043
240.91	49.020
241.28	50.820
241.65	55.224
242.02	58.108
242.40	38.462
242.77	50.667
243.14	36.585
243.51	27.632
243.89	33.333
244.26	39.604
244.63	37.255
245.00	39.252
245.38	38.596
245.75	24.779
246.12	47.619
246.49	31.008
246.87	32.857
247.24	33.775
247.61	38.158
247.98	31.544
248.36	26.543
248.73	26.994
249.10	32.787
249.47	29.353
249.84	38.220
250.22	26.943
250.59	32.222
250.96	38.182
251.33	30.612
251.70	29.915
252.08	30.833
252.45	29.098
252.82	28.099
253.19	30.078
253.56	33.840
253.94	25.385
254.31	30.682
254.68	27.972
255.05	29.642
255.42	33.673
255.79	26.214
256.16	28.808
256.54	28.808
256.91	29.508
257.28	29.180
257.65	27.070
258.02	26.844
258.39	27.920
258.76	33.333
259.14	30.747
259.51	31.124
259.88	25.496
260.25	30.833
260.62	29.315
260.99	30.328
261.36	31.903
261.73	29.708
262.10	28.297
262.47	27.882
262.85	28.030
263.22	28.831
263.59	26.053
263.96	30.179
264.33	25.831
264.70	25.926
265.07	28.162
265.44	29.252
265.81	28.241
266.18	29.025
266.55	25.446
266.92	23.007
267.29	28.665
267.66	25.942
268.03	28.821
268.40	25.887
268.77	25.513
269.14	24.229
269.51	26.754
269.88	26.844
270.25	27.767
270.62	29.114
270.99	28.283
271.36	29.109
271.73	25.737
272.10	27.655
272.47	25.251
272.84	24.297
273.21	28.657
273.58	28.831
273.95	24.808
274.32	26.806
274.69	25.919
275.06	28.022
275.43	26.063
275.80	25.397
276.17	22.963
276.54	26.866
276.91	26.297
277.28	25.497
277.65	24.955
278.02	26.471
278.39	27.899
278.76	22.671
279.13	26.418
279.50	26.460
279.87	26.834
280.23	23.239
280.60	24.746
280.97	26.974
281.34	24.618
281.71	27.242
282.08	25.249
282.45	24.877
282.82	24.804
283.19	23.102
283.56	23.607
283.92	25.225
284.29	25.750
284.66	25.944
285.03	22.436
285.40	26.584
285.77	24.613
286.14	24.122
286.51	24.049
286.87	24.013
287.24	26.355
287.61	25.561
287.98	25.378
288.35	23.817
288.72	24.556
289.08	25.037
289.45	23.225
289.82	23.193
290.19	23.707
290.56	23.099
290.93	24.394
291.29	23.416
291.66	22.727
292.03	19.810
292.40	23.810
292.77	22.507
293.13	22.463
293.50	22.470
293.87	21.879
294.24	21.867
294.60	21.239
294.97	21.879
295.34	21.895
295.71	20.555
296.08	20.413
296.44	21.569
296.81	20.828
297.18	19.925
297.55	21.226
297.91	20.522
298.28	19.905
298.65	21.046
299.02	21.251
299.38	20.595
299.75	19.977
300.12	21.065
300.48	20.507
300.85	20.360
301.22	21.700
301.59	19.749
301.95	20.452
302.32	20.778
302.69	19.606
303.05	20.783
303.42	21.508
303.79	21.875
304.15	21.346
304.52	19.239
304.89	20.105
305.25	19.772
305.62	20.481
305.99	21.134
306.35	20.766
306.72	20.786
307.09	20.406
307.45	21.014
307.82	21.191
308.19	20.989
308.55	21.890
308.92	22.298
309.29	21.169
309.65	20.565
310.02	22.673
310.38	21.063
310.75	23.398
311.12	22.339
311.48	21.994
311.85	23.172
312.22	21.442
312.58	22.347
312.95	23.327
313.31	22.222
313.68	23.810
314.05	24.932
314.41	24.499
314.78	24.251
315.14	24.138
315.51	25.669
315.87	25.563
316.24	25.479
316.61	27.442
316.97	26.516
317.34	27.160
317.70	27.860
318.07	28.395
318.43	27.721
318.80	29.849
319.16	27.725
319.53	28.620
319.89	28.133
320.26	28.826
320.62	29.078
320.99	30.009
321.35	30.776
321.72	31.442
322.08	31.470
322.45	32.882
322.81	34.116
323.18	32.212
323.54	34.052
323.91	33.541
324.27	34.509
324.64	34.761
325.00	34.992
325.37	34.971
325.73	36.364
326.10	35.929
326.46	37.622
326.83	39.952
327.19	39.685
327.56	40.711
327.92	39.811
328.29	40.645
328.65	41.374
329.01	41.963
329.38	43.471
329.74	46.062
330.11	44.007
330.47	44.650
330.84	45.306
331.20	45.750
331.56	46.967
331.93	47.197
332.29	46.695
332.66	48.671
333.02	47.152
333.38	47.735
333.75	48.906
334.11	49.291
334.48	47.360
334.84	48.513
335.20	50.126
335.57	50.506
335.93	49.917
336.29	49.418
336.66	50.294
337.02	51.254
337.38	50.765
337.75	52.066
338.11	52.313
338.47	49.876
338.84	52.200
339.20	50.969
339.56	50.577
339.93	51.314
340.29	49.034
340.65	51.095
341.02	51.397
341.38	51.496
341.74	51.574
342.11	52.936
342.47	50.913
342.83	51.369
343.20	52.167
343.56	53.408
343.92	52.202
344.28	52.109
344.65	52.093
345.01	52.808
345.37	52.100
345.73	52.221
346.10	51.872
346.46	51.899
346.82	51.086
347.19	53.018
347.55	52.276
347.91	52.897
348.27	52.200
348.63	52.475
349.00	51.827
349.36	51.599
349.72	53.497
350.08	51.486
350.45	53.688
350.81	52.112
351.17	53.008
351.53	52.919
351.89	51.708
352.26	52.761
352.62	53.134
352.98	53.664
353.34	52.054
353.70	53.852
354.07	53.502
354.43	53.834
354.79	53.628
355.15	54.157
355.51	52.558
355.87	52.954
356.24	54.601
356.60	51.885
356.96	53.669
357.32	53.309
357.68	54.100
358.04	52.844
358.40	52.985
358.77	53.509
359.13	53.767
359.49	54.275
359.85	53.952
360.21	52.869
360.57	53.912
360.93	52.962
361.29	54.386
361.66	53.150
362.02	53.862
362.38	54.181
362.74	54.539
363.10	55.708
363.46	54.086
363.82	55.611
364.18	55.384
364.54	54.772
364.90	55.585
365.26	55.103
365.62	54.333
365.98	54.867
366.35	55.034
366.71	54.286
367.07	55.751
367.43	54.366
367.79	55.275
368.15	56.522
368.51	56.631
368.87	55.258
369.23	55.467
369.59	56.762
369.95	56.389
370.31	55.908
370.67	55.846
371.03	55.402
371.39	56.011
371.75	56.878
372.11	56.775
372.47	57.278
372.83	56.217
373.19	55.437
373.55	56.098
373.91	57.123
374.27	56.468
374.63	57.848
374.99	57.029
375.35	56.623
375.71	56.968
376.07	56.294
376.42	56.423
376.78	56.992
377.14	56.956
377.50	56.926
377.86	56.158
378.22	57.665
378.58	59.096
378.94	57.805
379.30	57.586
379.66	58.789
380.02	58.454
380.38	58.813
380.74	58.535
381.09	60.337
381.45	58.352
381.81	60.187
382.17	59.086
382.53	60.058
382.89	57.393
383.25	59.672
383.61	59.317
383.97	59.658
384.32	60.227
384.68	58.933
385.04	59.514
385.40	61.402
385.76	60.082
386.12	59.126
386.48	59.941
386.83	61.085
387.19	60.139
387.55	59.624
387.91	59.132
388.27	59.873
388.62	60.080
388.98	59.165
389.34	60.872
389.70	61.592
390.06	60.095
390.42	60.723
390.77	60.927
391.13	60.094
391.49	61.232
391.85	60.061
392.20	61.210
392.56	60.012
392.92	59.760
393.28	60.531
393.64	60.447
393.99	61.476
394.35	61.857
394.71	60.958
395.07	61.856
395.42	60.879
395.78	62.340
396.14	61.557
396.50	60.570
396.85	60.048
397.21	61.361
397.57	60.895
397.92	61.054
398.28	60.782
398.64	60.584
399.00	60.157
399.35	61.047
399.71	60.380
400.07	60.809
400.42	61.525
400.78	61.400
401.14	61.639
401.49	61.228
401.85	61.860
402.21	61.587
402.57	62.148
402.92	61.348
403.28	59.895
403.63	61.098
403.99	61.283
404.35	60.091
404.70	60.793
405.06	60.761
405.42	61.710
405.77	60.087
406.13	60.670
406.49	60.980
406.84	61.163
407.20	61.096
407.55	60.630
407.91	62.162
408.27	60.130
408.62	61.547
408.98	61.288
409.34	60.293
409.69	61.990
410.05	61.137
410.40	60.905
410.76	61.582
411.11	61.835
411.47	61.425
411.83	61.787
412.18	61.988
412.54	61.470
412.89	61.874
413.25	60.779
413.60	62.321
413.96	61.305
414.31	59.377
414.67	61.061
415.03	61.354
415.38	63.682
415.74	61.271
416.09	60.271
416.45	61.302
416.80	60.343
417.16	62.516
417.51	61.270
417.87	61.925
418.22	62.036
418.58	60.595
418.93	61.118
419.29	63.687
419.64	61.405
420.00	61.780
420.35	63.054
420.71	60.885
421.06	62.565
421.42	62.156
421.77	60.528
422.12	62.262
422.48	62.314
422.83	62.158
423.19	61.910
423.54	63.330
423.90	62.176
424.25	62.720
424.61	62.974
424.96	63.591
425.31	62.527
425.67	61.567
426.02	62.922
426.38	63.375
426.73	62.444
427.09	64.475
427.44	63.080
427.79	62.300
428.15	63.014
428.50	63.315
428.85	61.653
429.21	63.245
429.56	62.636
429.92	63.833
430.27	63.325
430.62	64.045
430.98	63.994
431.33	63.441
431.68	63.218
432.04	64.246
432.39	64.756
432.74	65.297
433.10	64.575
433.45	63.489
433.80	64.056
434.16	63.430
434.51	65.108
434.86	66.124
435.22	65.462
435.57	66.215
435.92	64.886
436.28	65.643
436.63	66.248
436.98	64.949
437.34	66.629
437.69	66.703
438.04	65.415
438.39	65.939
438.75	66.242
439.10	66.121
439.45	66.015
439.81	66.045
440.16	65.791
440.51	66.276
440.86	65.370
441.22	65.380
441.57	65.828
441.92	65.713
442.27	65.960
442.63	66.269
442.98	66.756
443.33	66.123
443.68	66.303
444.03	68.297
444.39	66.436
444.74	66.820
445.09	66.143
445.44	67.808
445.79	66.236
446.15	67.472
446.50	67.545
446.85	66.780
447.20	65.764
447.55	66.893
447.91	68.220
448.26	67.970
448.61	66.525
448.96	68.294
449.31	67.497
449.66	66.776
450.02	67.405
450.37	66.649
450.72	67.922
451.07	67.654
451.42	67.764
451.77	66.537
452.12	68.849
452.47	67.499
452.83	68.131
453.18	68.184
453.53	68.007
453.88	68.029
454.23	67.401
454.58	69.240
454.93	66.990
455.28	68.513
455.63	68.675
455.98	68.380
456.34	68.551
456.69	69.136
457.04	68.853
457.39	68.736
457.74	69.855
458.09	67.765
458.44	68.050
458.79	67.870
459.14	66.544
459.49	68.704
459.84	68.940
460.19	67.407
460.54	69.052
460.89	69.561
461.24	67.644
461.59	69.009
461.94	67.370
462.29	69.653
462.64	67.894
462.99	69.366
463.34	69.306
463.69	67.644
464.04	69.261
464.39	68.330
464.74	68.928
465.09	70.242
465.44	69.260
465.79	67.372
466.14	66.754
466.49	68.053
466.84	70.028
467.19	68.382
467.54	67.979
467.89	68.218
468.24	68.753
468.59	68.327
468.94	68.357
469.29	68.686
469.64	68.849
469.99	69.535
470.34	69.245
470.68	69.993
471.03	71.120
471.38	69.261
471.73	70.871
472.08	70.431
472.43	69.898
472.78	69.584
473.13	69.406
473.48	68.701
473.83	70.749
474.17	70.106
474.52	70.415
474.87	69.269
475.22	69.915
475.57	68.692
475.92	68.542
476.27	69.808
476.61	68.432
476.96	70.021
477.31	68.861
477.66	71.196
478.01	68.429
478.36	68.096
478.70	70.246
479.05	70.348
479.40	69.398
479.75	70.125
480.10	70.488
480.45	69.006
480.79	69.751
481.14	68.980
481.49	68.651
481.84	69.278
482.19	70.710
482.53	70.004
482.88	69.916
483.23	70.520
483.58	69.039
483.92	69.326
484.27	69.136
484.62	68.894
484.97	68.935
485.31	68.814
485.66	65.812
486.01	64.377
486.36	65.452
486.70	67.245
487.05	70.107
487.40	69.747
487.75	70.229
488.09	70.104
488.44	69.698
488.79	70.287
489.13	69.841
489.48	70.408
489.83	68.813
490.17	70.352
490.52	69.212
490.87	70.135
491.22	70.407
491.56	69.027
491.91	69.385
492.26	70.705
492.60	70.573
492.95	70.470
493.30	70.686
493.64	70.127
493.99	70.175
494.34	69.774
494.68	69.979
495.03	70.264
495.37	70.262
495.72	70.839
496.07	71.078
496.41	70.142
496.76	70.142
497.11	70.234
497.45	69.616
497.80	70.724
498.14	70.748
498.49	70.864
498.84	70.612
499.18	70.580
499.53	71.211
499.87	70.945
500.22	69.902
500.56	70.850
500.91	70.755
501.26	71.455
501.60	69.730
501.95	70.256
502.29	71.918
502.64	71.360
502.98	69.715
503.33	69.417
503.67	69.821
504.02	70.534
504.36	71.224
504.71	71.704
505.06	70.987
505.40	71.207
505.75	70.310
506.09	71.777
506.44	71.866
506.78	71.468
507.13	70.632
507.47	71.246
507.82	69.981
508.16	71.511
508.51	70.699
508.85	72.697
509.19	71.814
509.54	72.863
509.88	72.414
510.23	72.268
510.57	71.774
510.92	71.408
511.26	72.102
511.61	69.435
511.95	71.498
512.30	71.984
512.64	70.915
512.98	71.386
513.33	71.472
513.67	72.514
514.02	71.896
514.36	72.276
514.70	72.344
515.05	72.523
515.39	72.598
515.74	73.171
516.08	72.530
516.42	72.684
516.77	73.449
517.11	70.861
517.46	73.383
517.80	73.116
518.14	73.449
518.49	73.319
518.83	72.326
519.17	72.052
519.52	72.904
519.86	71.806
520.20	72.684
520.55	73.220
520.89	74.606
521.23	73.199
521.58	74.802
521.92	73.881
522.26	72.566
522.61	74.711
522.95	73.010
523.29	74.713
523.64	73.038
523.98	74.900
524.32	75.072
524.66	73.079
525.01	72.140
525.35	72.774
525.69	74.072
526.04	72.503
526.38	74.023
526.72	73.991
527.06	75.601
527.41	73.703
527.75	74.466
528.09	74.439
528.43	72.765
528.78	72.948
529.12	73.509
529.46	72.737
529.80	73.055
530.15	74.261
530.49	74.970
530.83	73.200
531.17	74.851
531.51	74.489
531.86	73.978
532.20	74.146
532.54	73.668
532.88	74.061
533.22	72.717
533.57	72.245
533.91	72.615
534.25	72.923
534.59	74.023
534.93	73.288
535.27	73.859
535.62	73.167
535.96	71.993
536.30	74.912
536.64	75.195
536.98	74.908
537.32	74.259
537.66	74.672
538.01	72.689
538.35	73.812
538.69	72.716
539.03	74.310
539.37	72.026
539.71	73.754
540.05	73.861
540.39	73.655
540.73	73.285
541.07	74.617
541.42	71.884
541.76	72.598
542.10	73.643
542.44	73.995
542.78	73.236
543.12	72.586
543.46	72.100
543.80	73.261
544.14	74.566
544.48	73.877
544.82	73.429
545.16	74.299
545.50	73.217
545.84	73.791
546.18	74.753
546.52	74.013
546.86	73.082
547.20	74.618
547.54	74.532
547.88	73.538
548.22	72.865
548.56	72.089
548.90	74.985
549.24	75.623
549.58	73.628
549.92	75.319
550.26	75.793
550.60	74.793
550.94	74.644
551.28	72.607
551.62	74.730
551.96	73.074
552.30	74.379
552.64	74.175
552.98	75.047
553.32	76.077
553.66	75.113
554.00	74.212
554.34	74.131
554.68	73.273
555.02	74.770
555.36	74.490
555.69	73.991
556.03	74.275
556.37	74.468
556.71	75.333
557.05	74.952
557.39	76.443
557.73	75.627
558.07	75.430
558.41	76.080
558.75	75.118
559.08	75.365
559.42	74.897
559.76	74.695
560.10	75.687
560.44	75.594
560.78	76.125
561.12	75.985
561.45	74.209
561.79	74.786
562.13	75.601
562.47	73.798
562.81	75.696
563.15	75.758
563.48	75.078
563.82	75.816
564.16	75.348
564.50	74.374
564.84	74.572
565.17	73.353
565.51	74.453
565.85	75.831
566.19	73.733
566.52	75.190
566.86	74.986
567.20	72.920
567.54	74.190
567.88	74.261
568.21	72.628
568.55	73.909
568.89	72.628
569.23	72.286
569.56	72.177
569.90	71.810
570.24	70.860
570.57	71.424
570.91	70.392
571.25	69.280
571.59	70.109
571.92	70.229
572.26	69.481
572.60	69.888
572.93	70.610
573.27	69.823
573.61	69.719
573.95	69.653
574.28	68.979
574.62	69.327
574.96	68.174
575.29	67.768
575.63	68.930
575.97	68.790
576.30	68.739
576.64	69.029
576.98	69.294
577.31	70.215
577.65	69.934
577.98	68.524
578.32	68.193
578.66	68.394
578.99	68.974
579.33	69.609
579.67	70.603
580.00	69.679
580.34	68.695
580.67	69.704
581.01	69.256
581.35	68.030
581.68	68.270
582.02	67.378
582.35	69.138
582.69	69.090
583.02	70.323
583.36	70.528
583.70	71.211
584.03	71.202
584.37	70.600
584.70	69.169
585.04	68.658
585.37	68.957
585.71	68.673
586.04	69.727
586.38	70.032
586.72	70.068
587.05	70.402
587.39	70.207
587.72	70.550
588.06	70.817
588.39	70.351
588.73	70.317
589.06	71.021
589.40	71.881
589.73	71.626
590.07	71.751
590.40	72.110
590.73	72.216
591.07	72.785
591.40	73.056
591.74	73.331
592.07	73.406
592.41	72.476
592.74	70.714
593.08	71.146
593.41	71.216
593.75	71.063
594.08	71.493
594.41	72.596
594.75	71.737
595.08	73.553
595.42	72.338
595.75	71.973
596.09	72.348
596.42	73.200
596.75	73.910
597.09	74.465
597.42	73.182
597.75	71.972
598.09	72.341
598.42	73.784
598.76	72.717
599.09	71.449
599.42	70.365
599.76	72.169
600.09	70.871
600.42	70.704
600.76	71.037
601.09	70.893
601.42	71.404
601.76	72.414
602.09	72.480
602.42	71.538
602.76	72.657
603.09	72.173
603.42	73.049
603.76	71.952
604.09	73.243
604.42	73.505
604.76	72.565
605.09	72.637
605.42	74.242
605.75	72.269
606.09	72.900
606.42	71.908
606.75	71.252
607.09	72.043
607.42	72.293
607.75	72.489
608.08	73.520
608.42	73.237
608.75	73.093
609.08	73.005
609.41	73.842
609.75	74.107
610.08	75.418
610.41	73.407
610.74	73.109
611.07	74.112
611.41	74.843
611.74	75.381
612.07	75.269
612.40	74.905
612.73	75.061
613.07	75.012
613.40	74.928
613.73	74.916
614.06	74.730
614.39	74.781
614.72	73.168
615.06	73.917
615.39	74.915
615.72	75.829
616.05	75.231
616.38	75.378
616.71	76.176
617.05	76.305
617.38	76.565
617.71	75.810
618.04	75.661
618.37	76.066
618.70	76.980
619.03	76.105
619.36	77.990
619.69	78.796
620.03	77.589
620.36	76.564
620.69	78.100
621.02	79.068
621.35	81.785
621.68	81.634
622.01	79.502
622.34	77.476
622.67	78.900
623.00	76.113
623.33	77.704
623.66	78.080
623.99	77.024
624.32	77.453
624.65	77.864
624.99	80.104
625.32	78.772
625.65	79.366
625.98	78.169
626.31	79.305
626.64	78.974
626.97	80.645
627.30	79.727
627.63	78.995
627.96	80.105
628.29	79.377
628.62	81.612
628.95	81.595
629.28	81.903
629.61	80.387
629.94	81.339
630.26	79.661
630.59	81.174
630.92	80.173
631.25	84.258
631.58	82.863
631.91	83.037
632.24	84.918
632.57	82.448
632.90	85.657
633.23	83.673
633.56	84.388
633.89	84.091
634.22	85.343
634.55	83.194
634.88	85.714
635.20	86.006
635.53	87.232
635.86	85.482
636.19	86.638
636.52	85.127
636.85	84.065
637.18	84.304
637.51	83.656
637.83	85.604
638.16	87.903
638.49	86.150
638.82	85.682
639.15	83.505
639.48	86.721
639.81	84.296
640.13	85.041
640.46	86.182
640.79	87.255
641.12	88.571
641.45	86.951
641.77	90.116
642.10	86.877
642.43	89.096
642.76	87.263
643.09	87.808
643.41	88.375
643.74	90.759
644.07	90.621
644.40	89.533
644.73	91.292
645.05	91.189
645.38	88.777
645.71	89.736
646.04	87.661
646.36	87.445
646.69	90.798
647.02	92.355
647.35	87.176
647.67	94.525
648.00	91.401
648.33	87.988
648.66	90.300
648.98	83.537
649.31	88.498
649.64	86.720
649.96	85.013
650.29	84.423
650.62	85.856
650.94	89.489
651.27	88.174
651.60	86.988
651.92	88.450
652.25	88.857
652.58	85.695
652.90	87.209
653.23	86.761
653.56	89.158
653.88	85.815
654.21	84.789
654.54	86.416
654.86	86.402
655.19	82.058
655.52	76.217
655.84	66.201
656.17	77.946
656.49	100.042
656.82	100.008
657.15	100.000
657.47	98.185
657.80	56.870
658.13	44.822
658.45	59.883
658.78	73.960
659.10	73.255
659.43	74.297
659.75	73.814
660.08	74.790
660.41	76.261
660.73	81.300
661.06	86.197
661.38	85.965
661.71	91.207
662.03	91.358
662.36	90.698
662.68	94.747
663.01	88.850
663.33	94.518
663.66	90.842
663.98	94.615
664.31	91.557
664.63	92.486
664.96	88.748
665.28	87.477
665.61	88.986
665.93	89.464
666.26	86.918
666.58	90.406
666.91	90.280
667.23	91.429
667.56	96.450
667.88	93.000
668.21	89.648
668.53	88.803
668.86	91.749
669.18	89.206
669.50	92.644
669.83	90.400
670.15	89.764
670.48	94.841
670.80	89.675
671.13	91.682
671.45	90.945
671.77	92.467
672.10	84.000
672.42	85.599
672.75	84.178
673.07	81.642
673.39	84.592
673.72	87.584
674.04	86.897
674.37	90.519
674.69	91.534
675.01	91.238
675.34	94.656
675.66	88.764
675.98	90.112
676.31	91.406
676.63	89.544
676.95	92.720
677.28	88.508
677.60	90.945
677.92	89.827
678.25	89.214
678.57	88.790
678.89	88.737
679.22	86.934
679.54	84.786
679.86	86.271
680.18	87.894
680.51	85.377
680.83	86.743
681.15	88.448
681.48	88.601
681.80	86.528
682.12	86.888
682.44	85.977
682.77	87.057
683.09	88.068
683.41	90.116
683.73	87.856
684.06	83.026
684.38	84.079
684.70	88.510
685.02	87.952
685.34	82.696
685.67	82.177
685.99	82.515
686.31	79.942
686.63	83.412
686.96	83.754
687.28	84.853
687.60	86.027
687.92	81.511
688.24	84.975
688.56	83.448
688.89	86.388
689.21	90.411
689.53	89.608
689.85	90.138
690.17	82.407
690.49	88.845
690.82	87.129
691.14	87.449
691.46	86.807
691.78	85.635
692.10	86.239
692.42	84.107
692.74	84.029
693.06	82.407
693.39	88.235
693.71	86.090
694.03	82.528
694.35	83.810
694.67	86.242
694.99	88.511
695.31	89.845
695.63	91.775
695.95	85.507
696.27	88.571
696.59	87.611
696.91	88.063
697.23	86.813
697.56	86.558
697.88	82.197
698.20	81.921
698.52	84.091
698.84	89.605
699.16	85.510
699.48	85.983
699.80	84.043
700.12	86.681
700.44	85.484
700.76	87.411
701.08	87.893
701.40	93.005
701.72	91.791
702.04	89.840
702.36	90.576
702.68	83.619
703.00	86.553
703.32	90.887
703.64	87.042
703.96	88.783
704.28	87.961
704.60	91.392
704.91	87.500
705.23	92.055
705.55	91.086
705.87	93.939
706.19	93.865
706.51	90.361
706.83	89.049
707.15	88.360
707.47	83.645
707.79	86.245
708.11	82.627
708.43	84.301
708.74	83.705
709.06	82.367
709.38	87.089
709.70	88.586
710.02	84.755
710.34	90.426
710.66	84.358
710.98	87.705
711.29	88.187
711.61	90.113
711.93	87.464
712.25	85.135
712.57	86.431
712.89	90.294
713.20	88.166
713.52	89.595
713.84	85.237
714.16	84.211
714.48	85.309
714.80	85.714
715.11	91.339
715.43	85.146
715.75	85.000
716.07	87.017
716.39	88.798
716.70	82.229
717.02	89.508
717.34	95.819
717.66	89.262
717.97	85.616
718.29	93.814
718.61	84.539
718.93	88.997
719.24	88.820
719.56	84.663
719.88	88.889
720.20	90.000
720.51	84.161
720.83	84.688
721.15	89.474
721.46	87.329
721.78	87.000
722.10	81.553
722.42	85.235
722.73	80.968
723.05	91.228
723.37	84.722
723.68	92.115
724.00	90.975
724.32	89.085
724.63	86.364
724.95	84.397
725.27	86.063
725.58	86.572
725.90	86.552
726.22	83.699
726.53	82.468
726.85	86.478
727.16	82.779
727.48	81.346
727.80	86.424
728.11	89.753
728.43	86.869
728.74	84.615
729.06	87.086
729.38	83.117
729.69	84.899
730.01	79.464
730.32	80.909
730.64	83.333
730.96	81.056
731.27	79.050
731.59	81.319
731.90	76.623
732.22	75.521
732.53	78.177
732.85	81.429
733.16	80.938
733.48	83.537
733.80	77.437
734.11	82.051
734.43	72.973
734.74	79.494
735.06	79.397
735.37	82.703
735.69	77.838
736.00	78.531
736.32	78.167
736.63	75.833
736.95	81.897
737.26	80.909
737.58	80.000
737.89	79.706
738.21	78.593
738.52	81.639
738.83	82.253
739.15	83.688
739.46	84.014
739.78	80.982
740.09	75.931
740.41	80.466
740.72	84.667
741.04	81.877
741.35	83.509
741.66	84.314
741.98	90.164
742.29	80.335
742.61	86.842
742.92	85.385
743.23	79.061
743.55	81.783
743.86	86.400
744.18	87.190
744.49	84.810
744.80	92.593
745.12	84.388
745.43	89.837
745.74	83.621
746.06	84.746
746.37	89.451
746.68	91.870
747.00	88.333
747.31	81.974
747.62	86.154
747.94	82.996
748.25	84.739
748.56	83.673
748.88	89.316
749.19	94.397
749.50	89.610
749.82	91.165
750.13	86.833
750.44	78.000
750.75	83.385
751.07	77.231
751.38	81.388
751.69	81.150
752.01	79.288
752.32	80.719
752.63	85.714
752.94	77.163
753.26	81.041
753.57	80.370
753.88	83.146
754.19	80.707
754.51	82.315
754.82	78.778
755.13	77.705
755.44	82.253
755.75	78.618
756.07	75.821
756.38	78.302
756.69	78.614
757.00	69.529
757.31	73.770
757.63	72.890
757.94	72.535
758.25	71.783
758.56	67.102
758.87	69.091
759.18	73.600
759.50	77.904
759.81	76.751
760.12	73.046
760.43	71.615
760.74	73.153
761.05	75.750
761.36	68.434
761.67	72.081
761.99	73.514
762.30	74.695
762.61	73.597
762.92	78.358
763.23	83.521
763.54	77.338
763.85	70.790
764.16	78.451
764.47	80.282
764.78	76.038
765.10	74.194
765.41	75.897
765.72	73.545
766.03	73.164
766.34	69.592
766.65	76.655
766.96	78.486
767.27	83.410
767.58	83.582
767.89	85.096
768.20	78.404
768.51	79.630
768.82	75.502
769.13	76.515
769.44	69.615
769.75	78.700
770.06	80.385
770.37	79.134
770.68	73.617
770.99	73.684
771.30	78.889
771.61	79.848
771.92	71.481
772.23	80.567
772.54	72.222
772.85	78.802
773.16	82.857
773.47	82.011
773.78	79.459
774.09	84.091
774.39	83.000
774.70	87.432
775.01	73.171
775.32	75.882
775.63	84.663
775.94	79.618
776.25	83.871
776.56	93.590
776.87	85.714
777.18	88.966
777.48	88.112
777.79	77.703
778.10	87.500
778.41	76.389
778.72	82.759
779.03	91.975
779.34	86.667
779.65	74.611
779.95	81.667
780.26	78.409
780.57	85.806
780.88	90.580
781.19	89.677
781.50	88.235
781.80	78.495
782.11	73.016
782.42	73.737
782.73	79.042
783.04	76.536
783.34	76.364
783.65	71.242
783.96	86.335
784.27	76.786
784.57	80.795
784.88	80.714
785.19	76.378
785.50	85.039
785.81	80.451
786.11	83.077
786.42	73.381
786.73	87.050
787.04	89.474
787.34	77.869
787.65	82.400
787.96	76.866
788.26	86.014
788.57	90.210
788.88	73.026
789.19	79.085
789.49	77.397
789.80	78.723
790.11	87.402
790.41	75.781
790.72	78.814
791.03	76.699
791.33	77.391
791.64	77.193
791.95	82.143
792.25	83.810
792.56	75.000
792.87	88.542
793.17	83.929
793.48	76.042
793.79	86.747
794.09	73.394
794.40	75.229
794.70	80.952
795.01	71.429
795.32	79.452
795.62	69.718
795.93	90.152
796.23	71.311
796.54	76.786
796.85	81.915
797.15	65.217
797.46	95.890
797.76	76.250
798.07	79.348
798.37	73.196
798.68	100.000
798.99	78.161
799.29	92.135
799.60	85.106
799.90	83.133
800.21	104.615
800.51	71.642
800.82	100.000
801.12	72.603
801.43	91.176
801.73	106.780
802.04	93.939
802.34	103.333
802.65	93.220
802.95	89.552
803.26	98.305
803.56	68.493
803.87	105.714
804.17	101.370
804.48	87.719
804.78	76.389
805.09	103.448
805.39	101.351
805.70	78.873
806.00	89.024
806.30	90.361
806.61	86.301
806.91	78.846
807.22	80.000
807.52	81.609
807.83	108.333
808.13	90.361
808.43	76.404
808.74	77.500
809.04	86.765
809.35	93.333
809.65	82.857
809.95	83.562
810.26	89.474
810.56	89.655
810.86	100.000
811.17	103.509
811.47	96.721
811.77	120.000
812.08	72.881
812.38	91.667
812.69	87.931
812.99	81.132
813.29	92.308
813.59	96.000
813.90	100.000
814.20	101.818
814.50	92.958
814.81	79.487
815.11	95.082
815.41	82.090
815.72	101.724
816.02	85.714
816.32	97.778
816.62	111.364
816.93	97.778
817.23	107.407
817.53	100.000
817.84	114.286
818.14	126.471
818.44	108.163
818.74	93.333
819.04	89.744
819.35	131.429
819.65	134.615
819.95	83.019
820.25	104.444
820.56	92.857
820.86	146.875
821.16	123.077
821.46	83.721
821.76	84.000
822.07	78.571
822.37	89.130
822.67	93.617
822.97	110.811
823.27	112.500
823.57	106.122
823.88	113.333
824.18	120.000
824.48	153.333
824.78	116.000
825.08	127.273
825.38	80.000
825.69	85.106
825.99	130.556
826.29	54.286
826.59	76.923
826.89	76.744
827.19	86.000
827.49	129.412
827.79	89.583
828.09	97.297
828.39	110.000
828.70	107.317
829.00	90.698
829.30	139.286
829.60	129.412
829.90	97.826
830.20	82.857
830.50	93.103
830.80	183.333
831.10	169.231
831.40	108.824
831.70	142.857
832.00	106.452
832.30	117.647
832.60	108.333
832.90	238.462
833.20	115.789
833.50	135.000
833.80	189.474
834.10	61.905
834.40	105.556
834.70	100.000
835.00	57.143
835.30	117.647
835.60	90.000
835.90	140.000
836.20	77.273
836.50	116.000
836.80	84.848
837.10	85.185
837.40	77.778
837.70	187.500
838.00	114.286
838.30	108.696
838.60	106.897
838.90	214.286
839.19	73.913
839.49	125.000
839.79	134.783
840.09	143.750
840.39	115.000
840.69	119.355
840.99	89.286
841.29	140.000
841.59	105.263
841.88	92.308
842.18	107.692
842.48	260.000
842.78	125.000
843.08	106.667
843.38	103.226
843.68	166.667
843.97	79.412
844.27	206.250
844.57	105.263
844.87	130.000
845.17	93.333
845.47	142.857
845.76	104.762
846.06	222.222
846.36	111.765
846.66	73.077
846.96	86.667
847.25	176.471
847.55	117.391
847.85	90.000
848.15	164.706
848.44	163.636
848.74	128.571
849.04	79.167
849.34	100.000
849.63	91.304
849.93	-500.000
850.23	140.000
850.53	103.846
850.82	236.364
851.12	127.273
851.42	209.091
851.71	238.462
852.01	120.000
852.31	192.308
852.61	126.316
852.90	216.667
853.20	116.667
853.50	100.000
853.79	90.476
854.09	140.909
854.39	58.333
854.68	74.194
854.98	111.538
855.28	116.667
855.57	103.571
855.87	68.000
856.17	127.273
856.46	122.222
856.76	172.222
857.05	100.000
857.35	112.500
857.65	169.231
857.94	133.333
858.24	140.741
858.53	134.783
858.83	164.706
859.13	182.353
859.42	182.353
859.72	142.857
860.01	85.000
860.31	244.444
860.60	290.000
860.90	160.000
861.20	127.778
861.49	153.846
861.79	60.000
862.08	161.538
862.38	87.500
862.67	164.706
862.97	150.000
863.26	222.222
863.56	200.000
863.85	218.182
864.15	94.444
864.44	500.000
864.74	135.714
865.03	118.750
865.33	130.000
865.62	48.387
865.92	127.273
866.21	78.261
866.51	157.143
866.80	380.000
867.10	125.000
867.39	141.667
867.69	-900.000
867.98	285.714
868.27	135.294
868.57	500.000
868.86	30.000
869.16	85.714
869.45	120.833
869.75	209.091
870.04	214.286
870.33	150.000
870.63	171.429
870.92	550.000
871.22	75.000
871.51	90.909
871.80	500.000
872.10	300.000
>>>>>End Processed Spectral Data<<<<<
