SpectraSuite Data File
++++++++++++++++++++++++++++++++++++
Date: Thu May 14 14:59:45 PDT 2015
User: schluterlab
Dark Spectrum Present: Yes
Reference Spectrum Present: Yes
Number of Sampled Component Spectra: 1
Spectrometers: USB2E3373
Integration Time (usec): 3000 (USB2E3373)
Spectra Averaged: 3 (USB2E3373)
Boxcar Smoothing: 0 (USB2E3373)
Correct for Electrical Dark: No (USB2E3373)
Strobe/Lamp Enabled: No (USB2E3373)
Correct for Detector Non-linearity: No (USB2E3373)
Correct for Stray Light: No (USB2E3373)
Number of Pixels in Processed Spectrum: 2048
>>>>>Begin Processed Spectral Data<<<<<
178.53	0.000
178.91	285.714
179.29	-2600.000
179.67	-3100.000
180.04	321.429
180.42	180.000
180.80	360.000
181.18	-1900.000
181.56	-1500.000
181.94	725.000
182.31	-525.000
182.69	700.000
183.07	-700.000
183.45	575.000
183.83	-366.667
184.20	-733.333
184.58	1700.000
184.96	-700.000
185.34	-200.000
185.72	-360.000
186.09	277.778
186.47	1300.000
186.85	580.000
187.23	-277.778
187.61	-2000.000
187.98	320.000
188.36	575.000
188.74	-775.000
189.12	-466.667
189.49	-56.250
189.87	-175.000
190.25	-222.222
190.63	-340.000
191.00	-333.333
191.38	0.000
191.76	-750.000
192.14	-416.667
192.51	1100.000
192.89	-233.333
193.27	0.000
193.65	-328.571
194.02	-2100.000
194.40	-228.571
194.78	328.571
195.15	0.000
195.53	-181.818
195.91	0.000
196.29	-325.000
196.66	-92.308
197.04	-2900.000
197.42	-200.000
197.79	-1200.000
198.17	-312.500
198.55	-257.143
198.92	-211.111
199.30	-275.000
199.68	-100.000
200.05	-142.857
200.43	-1300.000
200.81	342.857
201.18	0.000
201.56	277.778
201.94	0.000
202.31	933.333
202.69	-266.667
203.07	2100.000
203.44	-244.444
203.82	-600.000
204.19	-191.667
204.57	-200.000
204.95	-212.500
205.32	-2100.000
205.70	575.000
206.08	-166.667
206.45	-266.667
206.83	580.000
207.20	-283.333
207.58	-540.000
207.96	-416.667
208.33	-83.333
208.71	175.000
209.08	-283.333
209.46	0.000
209.84	416.667
210.21	850.000
210.59	1000.000
210.96	933.333
211.34	-400.000
211.71	-300.000
212.09	-2700.000
212.46	0.000
212.84	1550.000
213.22	-560.000
213.59	-575.000
213.97	-210.000
214.34	-566.667
214.72	350.000
215.09	-675.000
215.47	0.000
215.84	371.429
216.22	900.000
216.59	-320.000
216.97	-560.000
217.34	-450.000
217.72	-225.000
218.09	-725.000
218.47	-425.000
218.84	0.000
219.22	480.000
219.59	-141.176
219.97	-95.000
220.34	1450.000
220.72	-300.000
221.09	-138.462
221.47	-566.667
221.84	-230.000
222.22	-285.714
222.59	0.000
222.97	-125.000
223.34	-340.000
223.72	-2100.000
224.09	-475.000
224.46	-650.000
224.84	-300.000
225.21	-342.857
225.59	-525.000
225.96	-725.000
226.34	-30.769
226.71	366.667
227.08	-1400.000
227.46	-33.333
227.83	-325.000
228.21	-78.947
228.58	337.500
228.95	1100.000
229.33	-141.667
229.70	-180.000
230.08	-42.105
230.45	290.000
230.82	-733.333
231.20	-121.429
231.57	-108.333
231.95	-190.909
232.32	-118.182
232.69	-50.000
233.07	-550.000
233.44	-135.294
233.81	-250.000
234.19	-55.556
234.56	-45.455
234.93	-31.034
235.31	-84.211
235.68	-61.111
236.05	-85.000
236.43	-34.615
236.80	-4.000
237.17	-29.630
237.55	-45.455
237.92	-160.000
238.29	-48.387
238.67	-31.818
239.04	-38.889
239.41	-11.905
239.79	-8.696
240.16	-7.407
240.53	0.000
240.91	-27.451
241.28	-14.754
241.65	7.463
242.02	2.703
242.40	-15.385
242.77	-12.000
243.14	-7.317
243.51	-7.895
243.89	5.128
244.26	8.911
244.63	9.804
245.00	11.215
245.38	12.281
245.75	5.310
246.12	15.079
246.49	5.426
246.87	14.286
247.24	9.272
247.61	10.526
247.98	22.819
248.36	15.432
248.73	13.497
249.10	16.940
249.47	19.403
249.84	20.419
250.22	13.990
250.59	14.444
250.96	21.364
251.33	11.224
251.70	18.803
252.08	20.833
252.45	22.541
252.82	24.793
253.19	16.406
253.56	22.814
253.94	19.615
254.31	21.591
254.68	20.629
255.05	20.521
255.42	20.408
255.79	20.388
256.16	17.881
256.54	18.543
256.91	19.344
257.28	21.639
257.65	19.745
258.02	17.699
258.39	19.088
258.76	27.523
259.14	23.276
259.51	24.496
259.88	21.813
260.25	24.167
260.62	25.753
260.99	27.049
261.36	26.273
261.73	22.546
262.10	23.352
262.47	24.129
262.85	24.747
263.22	20.260
263.59	21.842
263.96	25.064
264.33	24.552
264.70	23.951
265.07	26.014
265.44	25.170
265.81	20.602
266.18	26.304
266.55	21.875
266.92	23.918
267.29	24.726
267.66	21.729
268.03	23.799
268.40	24.008
268.77	23.235
269.14	22.026
269.51	21.491
269.88	25.205
270.25	23.944
270.62	24.684
270.99	26.061
271.36	24.752
271.73	23.183
272.10	24.449
272.47	25.651
272.84	21.888
273.21	25.050
273.58	25.202
273.95	23.269
274.32	22.433
274.69	21.470
275.06	26.740
275.43	23.290
275.80	24.339
276.17	24.444
276.54	22.761
276.91	20.930
277.28	24.593
277.65	21.903
278.02	25.919
278.39	23.188
278.76	23.374
279.13	21.809
279.50	24.742
279.87	23.256
280.23	20.599
280.60	24.407
280.97	22.039
281.34	24.109
281.71	24.196
282.08	24.419
282.45	20.622
282.82	23.705
283.19	21.002
283.56	21.475
283.92	24.474
284.29	24.171
284.66	22.660
285.03	20.192
285.40	22.257
285.77	20.743
286.14	21.985
286.51	20.091
286.87	21.959
287.24	21.988
287.61	23.169
287.98	20.997
288.35	22.189
288.72	21.302
289.08	22.694
289.45	20.118
289.82	21.084
290.19	21.983
290.56	20.845
290.93	21.683
291.29	21.074
291.66	18.320
292.03	19.810
292.40	21.224
292.77	18.464
293.13	18.133
293.50	19.317
293.87	19.732
294.24	20.800
294.60	20.986
294.97	19.732
295.34	19.846
295.71	19.042
296.08	20.672
296.44	19.975
296.81	18.879
297.18	18.306
297.55	17.453
297.91	18.743
298.28	16.114
298.65	17.122
299.02	17.119
299.38	18.993
299.75	17.757
300.12	17.940
300.48	17.742
300.85	17.998
301.22	18.121
301.59	16.895
301.95	18.192
302.32	18.667
302.69	16.977
303.05	17.954
303.42	16.851
303.79	18.438
304.15	16.824
304.52	18.076
304.89	16.545
305.25	16.460
305.62	17.450
305.99	18.247
306.35	18.044
306.72	18.304
307.09	16.041
307.45	16.460
307.82	18.365
308.19	17.659
308.55	18.708
308.92	17.527
309.29	17.433
309.65	18.129
310.02	16.733
310.38	17.913
310.75	16.796
311.12	16.970
311.48	17.986
311.85	17.379
312.22	17.078
312.58	17.089
312.95	18.069
313.31	17.706
313.68	18.223
314.05	18.067
314.41	18.670
314.78	19.164
315.14	18.784
315.51	18.006
315.87	18.272
316.24	18.813
316.61	20.515
316.97	17.828
317.34	18.166
317.70	20.175
318.07	19.048
318.43	20.238
318.80	21.070
319.16	19.313
319.53	18.166
319.89	20.771
320.26	21.263
320.62	20.301
320.99	21.422
321.35	20.425
321.72	21.581
322.08	22.362
322.45	21.409
322.81	22.834
323.18	23.186
323.54	23.017
323.91	24.555
324.27	23.408
324.64	25.609
325.00	23.300
325.37	24.980
325.73	25.041
326.10	24.980
326.46	27.117
326.83	26.501
327.19	26.614
327.56	27.747
327.92	27.223
328.29	27.419
328.65	26.466
329.01	27.834
329.38	27.970
329.74	30.051
330.11	30.137
330.47	29.907
330.84	30.060
331.20	30.583
331.56	31.109
331.93	30.293
332.29	31.017
332.66	30.731
333.02	30.905
333.38	31.376
333.75	31.229
334.11	31.693
334.48	31.601
334.84	33.220
335.20	33.081
335.57	33.221
335.93	32.314
336.29	31.032
336.66	32.885
337.02	32.776
337.38	33.333
337.75	33.388
338.11	33.305
338.47	33.002
338.84	33.333
339.20	33.024
339.56	33.526
339.93	32.841
340.29	33.253
340.65	32.603
341.02	33.919
341.38	33.549
341.74	33.414
342.11	33.467
342.47	32.963
342.83	35.185
343.20	35.732
343.56	33.921
343.92	34.828
344.28	33.594
344.65	35.271
345.01	34.555
345.37	34.292
345.73	33.749
346.10	34.867
346.46	33.782
346.82	34.981
347.19	34.912
347.55	35.888
347.91	35.661
348.27	35.205
348.63	34.653
349.00	34.377
349.36	34.796
349.72	34.821
350.08	36.627
350.45	35.057
350.81	35.294
351.17	35.263
351.53	36.922
351.89	36.978
352.26	35.746
352.62	35.373
352.98	35.496
353.34	35.549
353.70	37.827
354.07	36.513
354.43	37.130
354.79	36.126
355.15	36.939
355.51	37.354
355.87	36.500
356.24	37.338
356.60	36.438
356.96	38.176
357.32	35.762
357.68	36.237
358.04	37.575
358.40	37.910
358.77	37.208
359.13	36.780
359.49	36.580
359.85	36.838
360.21	37.303
360.57	37.545
360.93	38.293
361.29	38.035
361.66	37.509
362.02	38.483
362.38	39.845
362.74	38.408
363.10	37.689
363.46	40.028
363.82	39.489
364.18	39.972
364.54	39.903
364.90	39.866
365.26	39.724
365.62	41.333
365.98	40.844
366.35	39.732
366.71	40.340
367.07	40.257
367.43	40.381
367.79	41.606
368.15	41.672
368.51	40.663
368.87	40.888
369.23	40.333
369.59	42.213
369.95	40.974
370.31	42.809
370.67	42.847
371.03	43.006
371.39	42.377
371.75	43.398
372.11	43.902
372.47	42.586
372.83	42.801
373.19	42.895
373.55	43.564
373.91	43.354
374.27	43.338
374.63	45.940
374.99	43.767
375.35	44.675
375.71	44.968
376.07	44.674
376.42	45.340
376.78	46.053
377.14	45.664
377.50	46.110
377.86	46.736
378.22	45.928
378.58	47.681
378.94	45.775
379.30	47.686
379.66	48.266
380.02	48.125
380.38	49.827
380.74	48.620
381.09	49.129
381.45	49.318
381.81	49.766
382.17	50.238
382.53	49.474
382.89	49.153
383.25	51.114
383.61	51.678
383.97	52.120
384.32	52.333
384.68	51.450
385.04	52.227
385.40	54.154
385.76	53.869
386.12	52.124
386.48	52.529
386.83	53.993
387.19	53.534
387.55	53.756
387.91	53.596
388.27	53.464
388.62	53.436
388.98	53.130
389.34	54.567
389.70	55.433
390.06	55.536
390.42	54.639
390.77	56.051
391.13	56.103
391.49	56.280
391.85	56.303
392.20	55.931
392.56	55.818
392.92	55.671
393.28	56.993
393.64	57.263
393.99	57.292
394.35	57.944
394.71	57.425
395.07	57.365
395.42	56.539
395.78	57.587
396.14	60.131
396.50	57.126
396.85	57.961
397.21	57.041
397.57	59.364
397.92	58.706
398.28	57.360
398.64	58.238
399.00	57.016
399.35	57.644
399.71	59.348
400.07	59.236
400.42	57.916
400.78	58.275
401.14	57.257
401.49	60.432
401.85	59.709
402.21	58.749
402.57	59.624
402.92	60.106
403.28	59.192
403.63	59.129
403.99	58.907
404.35	58.499
404.70	58.300
405.06	58.424
405.42	59.719
405.77	59.269
406.13	57.915
406.49	59.797
406.84	59.169
407.20	59.139
407.55	58.449
407.91	59.459
408.27	57.715
408.62	59.802
408.98	59.257
409.34	59.062
409.69	59.147
410.05	59.672
410.40	59.223
410.76	58.665
411.11	59.497
411.47	60.135
411.83	59.377
412.18	60.241
412.54	58.803
412.89	59.080
413.25	58.521
413.60	59.966
413.96	58.217
414.31	58.754
414.67	60.167
415.03	58.277
415.38	59.899
415.74	58.583
416.09	59.901
416.45	58.297
416.80	59.180
417.16	60.281
417.51	59.153
417.87	58.798
418.22	59.880
418.58	58.736
418.93	58.498
419.29	59.063
419.64	58.643
420.00	59.525
420.35	58.563
420.71	58.300
421.06	57.389
421.42	60.149
421.77	58.212
422.12	58.985
422.48	59.447
422.83	59.803
423.19	59.469
423.54	60.564
423.90	59.746
424.25	59.947
424.61	59.816
424.96	59.473
425.31	58.439
425.67	59.689
426.02	60.985
426.38	60.792
426.73	59.263
427.09	60.611
427.44	58.766
427.79	60.586
428.15	59.989
428.50	60.337
428.85	60.046
429.21	60.213
429.56	60.020
429.92	59.509
430.27	60.048
430.62	60.039
430.98	60.059
431.33	59.433
431.68	60.824
432.04	60.538
432.39	59.936
432.74	59.932
433.10	60.465
433.45	59.922
433.80	59.657
434.16	58.884
434.51	60.894
434.86	62.486
435.22	61.265
435.57	62.146
435.92	61.658
436.28	61.832
436.63	62.862
436.98	60.172
437.34	61.950
437.69	61.640
438.04	60.550
438.39	61.344
438.75	61.760
439.10	61.945
439.45	60.648
439.81	61.186
440.16	61.019
440.51	61.817
440.86	60.812
441.22	60.129
441.57	61.059
441.92	60.039
442.27	62.424
442.63	61.202
442.98	60.726
443.33	62.283
443.68	61.893
444.03	61.759
444.39	61.627
444.74	62.175
445.09	60.821
445.44	63.066
445.79	62.356
446.15	61.511
446.50	62.171
446.85	62.160
447.20	61.267
447.55	62.866
447.91	60.942
448.26	61.522
448.61	61.371
448.96	63.519
449.31	60.710
449.66	61.383
450.02	61.129
450.37	61.747
450.72	62.110
451.07	62.244
451.42	61.525
451.77	61.979
452.12	62.585
452.47	61.794
452.83	63.626
453.18	60.712
453.53	61.401
453.88	61.126
454.23	61.582
454.58	62.681
454.93	61.044
455.28	61.589
455.63	63.104
455.98	62.123
456.34	61.720
456.69	61.552
457.04	63.416
457.39	61.086
457.74	62.975
458.09	61.779
458.44	61.692
458.79	60.289
459.14	61.038
459.49	62.705
459.84	62.067
460.19	61.688
460.54	62.010
460.89	61.620
461.24	61.609
461.59	62.147
461.94	60.753
462.29	63.214
462.64	60.954
462.99	62.837
463.34	62.362
463.69	60.903
464.04	61.256
464.39	61.491
464.74	61.117
465.09	61.476
465.44	62.393
465.79	61.343
466.14	60.761
466.49	61.895
466.84	63.471
467.19	60.867
467.54	60.752
467.89	60.977
468.24	62.438
468.59	60.336
468.94	61.189
469.29	60.768
469.64	62.174
469.99	60.739
470.34	61.324
470.68	61.859
471.03	62.868
471.38	59.974
471.73	61.834
472.08	61.041
472.43	62.613
472.78	61.272
473.13	61.504
473.48	61.873
473.83	61.695
474.17	61.079
474.52	63.019
474.87	61.573
475.22	61.915
475.57	61.267
475.92	61.274
476.27	61.182
476.61	60.540
476.96	62.513
477.31	62.277
477.66	62.539
478.01	60.346
478.36	60.169
478.70	60.936
479.05	62.474
479.40	61.204
479.75	60.999
480.10	60.303
480.45	60.939
480.79	62.358
481.14	61.167
481.49	62.608
481.84	61.619
482.19	61.591
482.53	62.396
482.88	61.498
483.23	62.517
483.58	61.179
483.92	60.505
484.27	61.473
484.62	61.427
484.97	61.586
485.31	59.944
485.66	56.441
486.01	58.763
486.36	61.059
486.70	64.724
487.05	65.729
487.40	63.524
487.75	62.672
488.09	62.074
488.44	59.834
488.79	60.067
489.13	60.717
489.48	61.087
489.83	60.362
490.17	61.118
490.52	60.961
490.87	61.210
491.22	61.655
491.56	60.751
491.91	61.404
492.26	61.705
492.60	62.265
492.95	62.001
493.30	61.990
493.64	61.191
493.99	60.833
494.34	60.671
494.68	61.542
495.03	61.498
495.37	62.273
495.72	62.540
496.07	62.138
496.41	61.175
496.76	61.468
497.11	61.146
497.45	61.761
497.80	62.061
498.14	61.678
498.49	61.167
498.84	61.517
499.18	61.628
499.53	61.973
499.87	61.319
500.22	61.175
500.56	62.078
500.91	61.465
501.26	62.955
501.60	61.511
501.95	61.268
502.29	62.089
502.64	61.740
502.98	61.648
503.33	61.425
503.67	61.273
504.02	61.734
504.36	62.466
504.71	61.553
505.06	62.210
505.40	61.974
505.75	62.067
506.09	62.477
506.44	62.349
506.78	63.073
507.13	62.195
507.47	63.145
507.82	62.311
508.16	62.859
508.51	61.556
508.85	63.108
509.19	61.677
509.54	63.208
509.88	62.846
510.23	62.312
510.57	63.316
510.92	62.845
511.26	61.568
511.61	62.192
511.95	63.006
512.30	63.762
512.64	62.219
512.98	62.981
513.33	64.415
513.67	64.457
514.02	63.720
514.36	64.194
514.70	64.427
515.05	63.816
515.39	64.567
515.74	64.263
516.08	64.131
516.42	64.417
516.77	64.406
517.11	63.899
517.46	63.733
517.80	65.099
518.14	64.581
518.49	64.317
518.83	62.906
519.17	63.328
519.52	63.732
519.86	63.305
520.20	65.176
520.55	65.444
520.89	65.034
521.23	63.428
521.58	65.141
521.92	63.626
522.26	63.116
522.61	65.278
522.95	63.899
523.29	65.057
523.64	64.518
523.98	65.716
524.32	66.819
524.66	66.079
525.01	64.496
525.35	64.388
525.69	65.197
526.04	64.638
526.38	65.345
526.72	64.879
527.06	65.982
527.41	65.131
527.75	65.143
528.09	65.289
528.43	65.127
528.78	64.451
529.12	64.851
529.46	65.037
529.80	65.503
530.15	66.145
530.49	66.607
530.83	66.411
531.17	65.054
531.51	65.523
531.86	65.805
532.20	65.061
532.54	65.350
532.88	64.909
533.22	65.174
533.57	63.762
533.91	65.095
534.25	65.065
534.59	66.839
534.93	65.535
535.27	66.366
535.62	66.231
535.96	66.647
536.30	66.334
536.64	66.607
536.98	65.560
537.32	65.494
537.66	66.438
538.01	65.076
538.35	65.773
538.69	65.805
539.03	66.585
539.37	65.018
539.71	65.766
540.05	65.887
540.39	65.037
540.73	65.877
541.07	66.646
541.42	64.678
541.76	63.879
542.10	66.466
542.44	64.799
542.78	66.058
543.12	64.422
543.46	64.774
543.80	64.568
544.14	65.829
544.48	66.371
544.82	67.026
545.16	66.130
545.50	65.848
545.84	65.462
546.18	67.346
546.52	67.197
546.86	64.906
547.20	67.303
547.54	64.357
547.88	65.763
548.22	66.316
548.56	66.998
548.90	67.045
549.24	66.444
549.58	66.688
549.92	66.901
550.26	65.890
550.60	66.496
550.94	67.141
551.28	65.215
551.62	67.790
551.96	64.272
552.30	66.475
552.64	66.895
552.98	67.686
553.32	68.939
553.66	67.395
554.00	67.339
554.34	69.241
554.68	66.946
555.02	68.660
555.36	68.310
555.69	66.944
556.03	67.087
556.37	68.398
556.71	67.787
557.05	67.220
557.39	68.812
557.73	67.371
558.07	67.285
558.41	67.442
558.75	67.748
559.08	69.381
559.42	66.872
559.76	67.300
560.10	66.711
560.44	67.018
560.78	69.187
561.12	68.534
561.45	68.248
561.79	67.643
562.13	69.008
562.47	66.831
562.81	66.962
563.15	67.929
563.48	67.371
563.82	68.380
564.16	68.141
564.50	67.878
564.84	67.316
565.17	68.235
565.51	67.434
565.85	68.290
566.19	67.684
566.52	68.110
566.86	68.251
567.20	68.407
567.54	68.030
567.88	68.349
568.21	68.528
568.55	67.962
568.89	68.498
569.23	68.526
569.56	67.878
569.90	68.282
570.24	68.735
570.57	68.281
570.91	67.299
571.25	66.995
571.59	68.244
571.92	68.070
572.26	67.443
572.60	67.131
572.93	67.409
573.27	68.306
573.61	66.728
573.95	66.472
574.28	66.316
574.62	66.962
574.96	66.321
575.29	66.821
575.63	67.013
575.97	66.228
576.30	65.828
576.64	66.404
576.98	66.241
577.31	66.864
577.65	67.313
577.98	67.131
578.32	67.365
578.66	66.962
578.99	67.438
579.33	66.474
579.67	67.203
580.00	66.914
580.34	66.623
580.67	66.659
581.01	67.049
581.35	66.939
581.68	67.400
582.02	67.410
582.35	68.810
582.69	69.347
583.02	68.604
583.36	68.084
583.70	67.666
584.03	67.003
584.37	66.329
584.70	66.381
585.04	66.264
585.37	67.101
585.71	66.926
586.04	68.450
586.38	68.918
586.72	67.786
587.05	68.304
587.39	69.409
587.72	68.397
588.06	68.158
588.39	68.882
588.73	67.434
589.06	69.413
589.40	69.545
589.73	67.641
590.07	68.070
590.40	68.256
590.73	68.222
591.07	68.987
591.40	68.857
591.74	68.045
592.07	69.265
592.41	68.809
592.74	68.761
593.08	69.777
593.41	70.166
593.75	69.282
594.08	70.494
594.41	69.744
594.75	69.113
595.08	69.314
595.42	69.903
595.75	69.002
596.09	69.061
596.42	68.649
596.75	68.970
597.09	69.980
597.42	67.819
597.75	68.993
598.09	68.294
598.42	69.441
598.76	70.042
599.09	69.989
599.42	68.924
599.76	68.438
600.09	70.037
600.42	69.403
600.76	69.848
601.09	69.233
601.42	69.825
601.76	68.966
602.09	69.371
602.42	68.666
602.76	69.041
603.09	70.374
603.42	70.159
603.76	70.507
604.09	70.405
604.42	69.651
604.76	68.988
605.09	69.605
605.42	69.657
605.75	70.462
606.09	70.847
606.42	69.610
606.75	69.040
607.09	68.472
607.42	68.863
607.75	70.965
608.08	69.416
608.42	69.206
608.75	69.320
609.08	69.015
609.41	69.872
609.75	70.759
610.08	71.988
610.41	69.754
610.74	70.294
611.07	71.448
611.41	70.897
611.74	71.409
612.07	71.295
612.40	70.390
612.73	71.638
613.07	70.171
613.40	70.404
613.73	70.390
614.06	69.872
614.39	70.505
614.72	68.559
615.06	69.779
615.39	70.372
615.72	70.664
616.05	70.374
616.38	71.342
616.71	70.115
617.05	69.755
617.38	70.305
617.71	70.896
618.04	71.883
618.37	72.350
618.70	71.267
619.03	71.386
619.36	70.345
619.69	72.454
620.03	70.935
620.36	71.227
620.69	70.759
621.02	71.588
621.35	74.746
621.68	73.680
622.01	70.890
622.34	71.478
622.67	72.577
623.00	71.457
623.33	72.926
623.66	71.530
623.99	71.363
624.32	71.475
624.65	71.557
624.99	71.977
625.32	73.808
625.65	72.960
625.98	72.000
626.31	71.155
626.64	73.040
626.97	70.293
627.30	73.424
627.63	71.493
627.96	72.523
628.29	72.996
628.62	72.964
628.95	74.145
629.28	72.133
629.61	73.316
629.94	72.218
630.26	72.288
630.59	73.230
630.92	71.602
631.25	74.329
631.58	75.330
631.91	74.695
632.24	73.103
632.57	72.865
632.90	74.624
633.23	74.796
633.56	70.714
633.89	72.831
634.22	74.012
634.55	73.069
634.88	73.918
635.20	74.058
635.53	74.576
635.86	74.323
636.19	72.322
636.52	72.890
636.85	72.625
637.18	72.037
637.51	73.226
637.83	74.086
638.16	74.539
638.49	72.770
638.82	74.746
639.15	72.509
639.48	74.134
639.81	71.940
640.13	73.734
640.46	74.788
640.79	73.529
641.12	71.677
641.45	73.149
641.77	77.535
642.10	74.803
642.43	74.867
642.76	74.119
643.09	73.699
643.41	76.471
643.74	71.448
644.07	74.069
644.40	74.257
644.73	73.440
645.05	72.981
645.38	75.108
645.71	73.607
646.04	74.892
646.36	72.409
646.69	74.080
647.02	77.982
647.35	77.557
647.67	75.684
648.00	78.025
648.33	74.474
648.66	73.894
648.98	72.245
649.31	74.154
649.64	74.104
649.96	73.077
650.29	72.740
650.62	71.287
650.94	74.925
651.27	71.557
651.60	72.807
651.92	72.492
652.25	73.227
652.58	71.114
652.90	72.529
653.23	71.831
653.56	74.180
653.88	74.438
654.21	72.113
654.54	74.566
654.86	73.938
655.19	71.644
655.52	76.057
655.84	76.175
656.17	87.463
656.49	100.042
656.82	100.008
657.15	100.000
657.47	100.000
657.80	78.592
658.13	41.871
658.45	54.948
658.78	65.814
659.10	61.522
659.43	60.383
659.75	59.181
660.08	56.863
660.41	58.478
660.73	62.714
661.06	67.695
661.38	69.059
661.71	71.552
662.03	71.958
662.36	72.093
662.68	73.734
663.01	68.850
663.33	76.938
663.66	75.458
663.98	75.769
664.31	76.173
664.63	72.062
664.96	71.869
665.28	70.780
665.61	72.203
665.93	72.500
666.26	74.731
666.58	70.480
666.91	72.523
667.23	71.810
667.56	72.387
667.88	73.400
668.21	70.703
668.53	71.815
668.86	74.263
669.18	73.931
669.50	72.167
669.83	72.600
670.15	70.669
670.48	74.008
670.80	70.554
671.13	69.187
671.45	74.409
671.77	74.953
672.10	69.667
672.42	69.741
672.75	73.272
673.07	69.851
673.39	70.108
673.72	72.315
674.04	71.034
674.37	73.882
674.69	70.194
675.01	72.000
675.34	72.137
675.66	69.663
675.98	70.522
676.31	72.266
676.63	72.624
676.95	72.222
677.28	73.992
677.60	69.488
677.92	71.401
678.25	70.750
678.57	74.199
678.89	70.819
679.22	69.164
679.54	71.624
679.86	69.492
680.18	71.642
680.51	71.069
680.83	69.885
681.15	72.241
681.48	73.575
681.80	72.021
682.12	73.252
682.44	69.282
682.77	68.972
683.09	70.265
683.41	73.256
683.73	69.260
684.06	67.528
684.38	67.263
684.70	71.993
685.02	71.773
685.34	70.050
685.67	69.401
685.99	68.252
686.31	68.169
686.63	69.194
686.96	68.139
687.28	70.521
687.60	67.845
687.92	67.846
688.24	68.114
688.56	69.655
688.89	66.969
689.21	71.037
689.53	65.686
689.85	69.231
690.17	68.148
690.49	69.124
690.82	68.119
691.14	69.838
691.46	71.702
691.78	68.140
692.10	68.807
692.42	67.321
692.74	68.058
693.06	67.037
693.39	68.311
693.71	66.541
694.03	66.543
694.35	67.429
694.67	66.735
694.99	67.872
695.31	67.991
695.63	69.264
695.95	68.116
696.27	67.912
696.59	63.496
696.91	67.117
697.23	69.670
697.56	69.857
697.88	68.939
698.20	70.245
698.52	68.561
698.84	68.815
699.16	68.163
699.48	69.874
699.80	66.596
700.12	65.939
700.44	65.438
700.76	66.983
701.08	64.649
701.40	68.653
701.72	66.418
702.04	68.182
702.36	64.921
702.68	66.748
703.00	66.259
703.32	67.980
703.64	63.814
703.96	61.814
704.28	65.602
704.60	67.089
704.91	65.051
705.23	67.671
705.55	65.460
705.87	70.303
706.19	66.564
706.51	64.759
706.83	69.741
707.15	69.577
707.47	65.888
707.79	63.319
708.11	61.017
708.43	65.161
708.74	62.500
709.06	62.413
709.38	66.667
709.70	66.749
710.02	63.566
710.34	69.415
710.66	64.525
710.98	68.033
711.29	61.813
711.61	66.102
711.93	67.806
712.25	60.811
712.57	66.077
712.89	63.824
713.20	65.385
713.52	65.607
713.84	61.003
714.16	66.053
714.48	64.433
714.80	68.312
715.11	63.780
715.43	67.374
715.75	65.263
716.07	61.050
716.39	64.754
716.70	60.542
717.02	65.902
717.34	63.415
717.66	64.094
717.97	59.589
718.29	64.261
718.61	58.553
718.93	61.489
719.24	63.975
719.56	59.816
719.88	60.060
720.20	64.194
720.51	58.696
720.83	63.438
721.15	60.855
721.46	62.329
721.78	58.667
722.10	60.518
722.42	56.711
722.73	57.097
723.05	64.211
723.37	60.764
723.68	69.176
724.00	65.343
724.32	56.690
724.63	58.741
724.95	59.929
725.27	63.066
725.58	59.717
725.90	65.172
726.22	55.172
726.53	62.987
726.85	60.377
727.16	61.631
727.48	62.080
727.80	59.603
728.11	58.304
728.43	59.259
728.74	58.528
729.06	61.921
729.38	61.364
729.69	58.725
730.01	57.738
730.32	58.182
730.64	63.836
730.96	58.075
731.27	59.497
731.59	59.615
731.90	58.961
732.22	60.677
732.53	58.564
732.85	61.143
733.16	56.598
733.48	56.402
733.80	57.103
734.11	59.544
734.43	62.973
734.74	63.291
735.06	60.553
735.37	63.243
735.69	61.622
736.00	60.734
736.32	56.873
736.63	56.111
736.95	57.471
737.26	60.606
737.58	58.788
737.89	58.824
738.21	56.881
738.52	58.361
738.83	61.433
739.15	59.220
739.46	59.864
739.78	59.816
740.09	55.874
740.41	61.224
740.72	58.000
741.04	55.987
741.35	52.281
741.66	58.431
741.98	59.836
742.29	56.485
742.61	57.018
742.92	58.462
743.23	56.679
743.55	58.915
743.86	57.600
744.18	51.240
744.49	51.899
744.80	59.671
745.12	63.291
745.43	55.285
745.74	55.603
746.06	56.356
746.37	61.603
746.68	54.878
747.00	57.083
747.31	57.082
747.62	59.231
747.94	59.109
748.25	55.020
748.56	58.776
748.88	56.410
749.19	59.052
749.50	59.307
749.82	62.249
750.13	59.786
750.44	55.000
750.75	57.846
751.07	55.077
751.38	58.991
751.69	56.869
752.01	53.722
752.32	55.556
752.63	57.143
752.94	59.170
753.26	56.877
753.57	52.963
753.88	53.933
754.19	53.698
754.51	56.592
754.82	57.556
755.13	53.770
755.44	57.679
755.75	58.553
756.07	55.224
756.38	51.258
756.69	58.133
757.00	52.632
757.31	56.831
757.63	53.708
757.94	50.704
758.25	55.530
758.56	51.416
758.87	52.045
759.18	49.067
759.50	57.790
759.81	54.902
760.12	57.143
760.43	58.333
760.74	55.419
761.05	55.750
761.36	54.217
761.67	52.792
761.99	50.270
762.30	55.488
762.61	49.175
762.92	49.254
763.23	55.431
763.54	48.561
763.85	48.454
764.16	52.862
764.47	56.338
764.78	56.550
765.10	54.252
765.41	53.077
765.72	48.677
766.03	51.977
766.34	52.038
766.65	49.826
766.96	51.793
767.27	52.535
767.58	46.766
767.89	54.327
768.20	47.887
768.51	50.926
768.82	48.996
769.13	59.470
769.44	53.462
769.75	48.375
770.06	52.308
770.37	54.724
770.68	48.936
770.99	46.559
771.30	58.889
771.61	51.711
771.92	52.222
772.23	53.036
772.54	48.611
772.85	50.230
773.16	52.381
773.47	47.090
773.78	48.649
774.09	53.977
774.39	51.000
774.70	51.913
775.01	39.024
775.32	38.824
775.63	46.626
775.94	35.669
776.25	44.516
776.56	50.641
776.87	45.578
777.18	45.517
777.48	39.860
777.79	34.459
778.10	42.647
778.41	47.917
778.72	41.379
779.03	41.975
779.34	43.636
779.65	47.150
779.95	50.556
780.26	44.318
780.57	43.871
780.88	51.449
781.19	47.742
781.50	48.235
781.80	49.462
782.11	46.561
782.42	37.374
782.73	41.317
783.04	45.251
783.34	46.667
783.65	38.562
783.96	37.888
784.27	44.643
784.57	48.344
784.88	39.286
785.19	42.520
785.50	37.008
785.81	48.120
786.11	46.154
786.42	33.813
786.73	30.935
787.04	41.353
787.34	37.705
787.65	45.600
787.96	40.299
788.26	46.154
788.57	47.552
788.88	36.184
789.19	49.673
789.49	44.521
789.80	34.752
790.11	33.858
790.41	29.688
790.72	32.203
791.03	36.893
791.33	36.522
791.64	33.333
791.95	35.714
792.25	30.476
792.56	26.786
792.87	30.208
793.17	24.107
793.48	29.167
793.79	28.916
794.09	29.358
794.40	39.450
794.70	38.776
795.01	34.416
795.32	37.671
795.62	31.690
795.93	31.061
796.23	36.885
796.54	25.000
796.85	23.404
797.15	21.739
797.46	26.027
797.76	31.250
798.07	23.913
798.37	26.804
798.68	19.481
798.99	28.736
799.29	29.213
799.60	31.915
799.90	28.916
800.21	12.308
800.51	16.418
800.82	16.176
801.12	1.370
801.43	11.765
801.73	13.559
802.04	22.727
802.34	35.000
802.65	28.814
802.95	10.448
803.26	11.864
803.56	27.397
803.87	32.857
804.17	26.027
804.48	1.754
804.78	12.500
805.09	18.966
805.39	17.568
805.70	7.042
806.00	37.805
806.30	8.434
806.61	26.027
806.91	25.000
807.22	27.778
807.52	13.793
807.83	34.722
808.13	25.301
808.43	23.596
808.74	10.000
809.04	23.529
809.35	26.667
809.65	21.429
809.95	15.068
810.26	-3.509
810.56	20.690
810.86	32.353
811.17	15.789
811.47	4.918
811.77	-2.222
812.08	11.864
812.38	10.000
812.69	13.793
812.99	-7.547
813.29	-10.256
813.59	-4.000
813.90	12.281
814.20	41.818
814.50	36.620
814.81	11.538
815.11	34.426
815.41	10.448
815.72	25.862
816.02	8.929
816.32	24.444
816.62	-2.273
816.93	17.778
817.23	18.519
817.53	4.255
817.84	7.143
818.14	-14.706
818.44	6.122
818.74	-11.111
819.04	-5.128
819.35	-8.571
819.65	-42.308
819.95	3.774
820.25	17.778
820.56	-19.048
820.86	21.875
821.16	-2.564
821.46	11.628
821.76	-4.000
822.07	7.143
822.37	6.522
822.67	0.000
822.97	-40.541
823.27	-25.000
823.57	-4.082
823.88	-2.222
824.18	12.500
824.48	-33.333
824.78	-20.000
825.08	-21.212
825.38	-6.667
825.69	14.894
825.99	-13.889
826.29	-48.571
826.59	-25.641
826.89	-30.233
827.19	-24.000
827.49	-29.412
827.79	20.833
828.09	-40.541
828.39	-33.333
828.70	-2.439
829.00	-6.977
829.30	-25.000
829.60	-5.882
829.90	8.696
830.20	-11.429
830.50	-10.345
830.80	-55.556
831.10	-34.615
831.40	-29.412
831.70	19.048
832.00	3.226
832.30	-105.882
832.60	-66.667
832.90	-192.308
833.20	-57.895
833.50	-65.000
833.80	-52.632
834.10	-85.714
834.40	-2.778
834.70	12.500
835.00	-40.000
835.30	23.529
835.60	-26.667
835.90	-32.000
836.20	-50.000
836.50	-36.000
836.80	-42.424
837.10	-37.037
837.40	-55.556
837.70	-168.750
838.00	-42.857
838.30	-52.174
838.60	-10.345
838.90	-85.714
839.19	-121.739
839.49	-191.667
839.79	-69.565
840.09	-162.500
840.39	-125.000
840.69	-25.806
840.99	-53.571
841.29	-80.000
841.59	-105.263
841.88	-7.692
842.18	-38.462
842.48	-220.000
842.78	-65.000
843.08	-50.000
843.38	-12.903
843.68	-150.000
843.97	8.824
844.27	-75.000
844.57	-57.895
844.87	-170.000
845.17	-80.000
845.47	-23.810
845.76	-90.476
846.06	-222.222
846.36	-82.353
846.66	-65.385
846.96	-160.000
847.25	-147.059
847.55	-8.696
847.85	-90.000
848.15	-70.588
848.44	-190.909
848.74	-61.905
849.04	-41.667
849.34	-87.500
849.63	-65.217
849.93	1000.000
850.23	-66.667
850.53	-23.077
850.82	-163.636
851.12	-22.727
851.42	-190.909
851.71	-30.769
852.01	-70.000
852.31	-107.692
852.61	-73.684
852.90	-175.000
853.20	-127.778
853.50	-233.333
853.79	-76.190
854.09	-72.727
854.39	-200.000
854.68	-64.516
854.98	-69.231
855.28	-22.222
855.57	-57.143
855.87	-32.000
856.17	-68.182
856.46	-11.111
856.76	-66.667
857.05	-95.652
857.35	-79.167
857.65	-123.077
857.94	-66.667
858.24	-40.741
858.53	-56.522
858.83	-111.765
859.13	-88.235
859.42	-35.294
859.72	-71.429
860.01	-85.000
860.31	-144.444
860.60	-110.000
860.90	-100.000
861.20	-100.000
861.49	-115.385
861.79	-33.333
862.08	-153.846
862.38	-37.500
862.67	-64.706
862.97	-68.750
863.26	-211.111
863.56	-100.000
863.85	-127.273
864.15	-50.000
864.44	-666.667
864.74	-135.714
865.03	-56.250
865.33	-190.000
865.62	-67.742
865.92	-90.909
866.21	-39.130
866.51	-114.286
866.80	-500.000
867.10	-183.333
867.39	-200.000
867.69	2300.000
867.98	-228.571
868.27	-64.706
868.57	-3300.000
868.86	-190.000
869.16	-100.000
869.45	-70.833
869.75	-72.727
870.04	-271.429
870.33	-83.333
870.63	-357.143
870.92	-300.000
871.22	-300.000
871.51	-118.182
871.80	-1133.333
872.10	-1150.000
>>>>>End Processed Spectral Data<<<<<
