SpectraSuite Data File
++++++++++++++++++++++++++++++++++++
Date: Thu May 14 15:04:12 PDT 2015
User: schluterlab
Dark Spectrum Present: Yes
Reference Spectrum Present: Yes
Number of Sampled Component Spectra: 1
Spectrometers: USB2E3373
Integration Time (usec): 3000 (USB2E3373)
Spectra Averaged: 3 (USB2E3373)
Boxcar Smoothing: 0 (USB2E3373)
Correct for Electrical Dark: No (USB2E3373)
Strobe/Lamp Enabled: No (USB2E3373)
Correct for Detector Non-linearity: No (USB2E3373)
Correct for Stray Light: No (USB2E3373)
Number of Pixels in Processed Spectrum: 2048
>>>>>Begin Processed Spectral Data<<<<<
178.53	0.000
178.91	328.571
179.29	-3300.000
179.67	-3100.000
180.04	235.714
180.42	240.000
180.80	520.000
181.18	-2200.000
181.56	-1800.000
181.94	875.000
182.31	-450.000
182.69	666.667
183.07	-1100.000
183.45	625.000
183.83	-366.667
184.20	-866.667
184.58	2100.000
184.96	-725.000
185.34	-255.556
185.72	-280.000
186.09	355.556
186.47	1350.000
186.85	480.000
187.23	-288.889
187.61	-2600.000
187.98	240.000
188.36	700.000
188.74	-600.000
189.12	-400.000
189.49	-137.500
189.87	-325.000
190.25	-222.222
190.63	-500.000
191.00	-366.667
191.38	0.000
191.76	-650.000
192.14	-450.000
192.51	1600.000
192.89	-250.000
193.27	0.000
193.65	-257.143
194.02	-3000.000
194.40	-214.286
194.78	414.286
195.15	0.000
195.53	-227.273
195.91	0.000
196.29	-600.000
196.66	-176.923
197.04	-2600.000
197.42	-328.571
197.79	-850.000
198.17	-212.500
198.55	-357.143
198.92	-233.333
199.30	-337.500
199.68	-218.182
200.05	-107.143
200.43	-1450.000
200.81	428.571
201.18	0.000
201.56	311.111
201.94	0.000
202.31	733.333
202.69	-300.000
203.07	2400.000
203.44	-255.556
203.82	-625.000
204.19	-191.667
204.57	-466.667
204.95	-375.000
205.32	-2900.000
205.70	300.000
206.08	-366.667
206.45	-233.333
206.83	580.000
207.20	-350.000
207.58	-560.000
207.96	-466.667
208.33	-216.667
208.71	250.000
209.08	-250.000
209.46	0.000
209.84	500.000
210.21	1450.000
210.59	1350.000
210.96	933.333
211.34	-500.000
211.71	-287.500
212.09	-2800.000
212.46	0.000
212.84	1700.000
213.22	-460.000
213.59	-575.000
213.97	-180.000
214.34	-733.333
214.72	500.000
215.09	-650.000
215.47	0.000
215.84	328.571
216.22	1600.000
216.59	-500.000
216.97	-480.000
217.34	-575.000
217.72	-287.500
218.09	-700.000
218.47	-700.000
218.84	0.000
219.22	380.000
219.59	-111.765
219.97	-125.000
220.34	1450.000
220.72	-222.222
221.09	-130.769
221.47	-1000.000
221.84	-240.000
222.22	-385.714
222.59	0.000
222.97	-187.500
223.34	-780.000
223.72	-2800.000
224.09	-575.000
224.46	-775.000
224.84	-400.000
225.21	-457.143
225.59	-925.000
225.96	-850.000
226.34	-73.077
226.71	400.000
227.08	-1550.000
227.46	-100.000
227.83	-625.000
228.21	-89.474
228.58	262.500
228.95	1250.000
229.33	-191.667
229.70	-280.000
230.08	-52.632
230.45	310.000
230.82	-866.667
231.20	-164.286
231.57	-150.000
231.95	-209.091
232.32	-209.091
232.69	-140.000
233.07	-825.000
233.44	-141.176
233.81	-280.000
234.19	-88.889
234.56	-81.818
234.93	-27.586
235.31	-94.737
235.68	-150.000
236.05	-190.000
236.43	-76.923
236.80	-72.000
237.17	-77.778
237.55	-33.333
237.92	-280.000
238.29	-83.871
238.67	-61.364
239.04	-47.222
239.41	-52.381
239.79	-43.478
240.16	-29.630
240.53	-65.217
240.91	-66.667
241.28	-31.148
241.65	-31.343
242.02	-22.973
242.40	-41.538
242.77	-24.000
243.14	-25.610
243.51	-40.789
243.89	-20.513
244.26	-17.822
244.63	-15.686
245.00	-20.561
245.38	-20.175
245.75	-24.779
246.12	-19.048
246.49	-24.806
246.87	-12.143
247.24	-9.934
247.61	-6.579
247.98	-15.436
248.36	-10.494
248.73	-15.337
249.10	-10.383
249.47	-1.990
249.84	-6.283
250.22	-16.062
250.59	-11.111
250.96	-5.000
251.33	-19.388
251.70	-5.983
252.08	-5.417
252.45	-5.738
252.82	-9.091
253.19	-6.641
253.56	-7.224
253.94	-11.154
254.31	-6.439
254.68	-2.448
255.05	-2.280
255.42	-6.463
255.79	-8.091
256.16	-9.272
256.54	-10.596
256.91	-5.574
257.28	-4.918
257.65	-8.917
258.02	-7.375
258.39	-5.413
258.76	-3.976
259.14	-5.172
259.51	-4.323
259.88	-5.099
260.25	-3.333
260.62	-5.753
260.99	-2.459
261.36	-0.804
261.73	-3.979
262.10	-5.220
262.47	-4.558
262.85	-0.505
263.22	-4.935
263.59	-5.526
263.96	-5.627
264.33	-6.905
264.70	-4.198
265.07	-3.819
265.44	-1.814
265.81	-6.481
266.18	-4.082
266.55	-4.241
266.92	-6.150
267.29	-4.595
267.66	-5.543
268.03	-1.965
268.40	-2.296
268.77	-5.239
269.14	-5.727
269.51	-4.605
269.88	-2.049
270.25	0.000
270.62	-5.063
270.99	-1.212
271.36	-2.376
271.73	-3.733
272.10	-3.006
272.47	-3.407
272.84	-3.213
273.21	-2.004
273.58	-2.218
273.95	-5.192
274.32	-2.852
274.69	-2.128
275.06	-0.183
275.43	-2.957
275.80	-1.764
276.17	-2.778
276.54	-2.425
276.91	-1.968
277.28	-1.627
277.65	-1.795
278.02	-2.206
278.39	-3.261
278.76	-3.339
279.13	-2.305
279.50	-1.031
279.87	-1.073
280.23	-5.282
280.60	-1.186
280.97	-0.493
281.34	-3.735
281.71	-2.030
282.08	-3.987
282.45	-3.601
282.82	-2.355
283.19	-4.039
283.56	-1.639
283.92	-0.901
284.29	-0.632
284.66	-2.627
285.03	-3.526
285.40	-3.400
285.77	-2.322
286.14	-2.137
286.51	-1.979
286.87	-4.265
287.24	-1.807
287.61	-3.139
287.98	-2.719
288.35	-1.479
288.72	-2.663
289.08	-1.464
289.45	-2.663
289.82	-2.711
290.19	-2.730
290.56	-1.268
290.93	-3.424
291.29	-3.030
291.66	-0.551
292.03	-2.714
292.40	-0.952
292.77	-1.482
293.13	-0.812
293.50	-2.365
293.87	-2.282
294.24	-0.933
294.60	-0.506
294.97	-2.550
295.34	0.128
295.71	-2.144
296.08	-1.680
296.44	-1.593
296.81	-1.218
297.18	-3.113
297.55	-1.769
297.91	-1.305
298.28	-2.251
298.65	-1.427
299.02	-2.007
299.38	-0.114
299.75	-1.051
300.12	-1.968
300.48	-0.115
300.85	-0.900
301.22	0.895
301.59	-0.571
301.95	-0.904
302.32	0.111
302.69	-0.767
303.05	-0.762
303.42	0.333
303.79	-0.208
304.15	-0.105
304.52	-1.268
304.89	0.838
305.25	0.621
305.62	0.000
305.99	0.309
306.35	0.000
306.72	-0.620
307.09	-0.914
307.45	0.828
307.82	-0.303
308.19	0.101
308.55	0.868
308.92	1.168
309.29	0.383
309.65	0.000
310.02	0.099
310.38	0.492
310.75	0.097
311.12	1.438
311.48	0.978
311.85	1.235
312.22	1.423
312.58	1.972
312.95	1.530
313.31	2.078
313.68	2.381
314.05	3.071
314.41	2.277
314.78	4.087
315.14	3.267
315.51	3.416
315.87	3.330
316.24	3.196
316.61	3.641
316.97	2.715
317.34	3.616
317.70	4.017
318.07	3.880
318.43	4.592
318.80	6.355
319.16	4.721
319.53	3.942
319.89	4.908
320.26	6.317
320.62	5.053
320.99	6.002
321.35	6.192
321.72	6.512
322.08	5.320
322.45	6.685
322.81	6.408
323.18	5.752
323.54	7.931
323.91	7.473
324.27	7.573
324.64	8.480
325.00	8.375
325.37	8.845
325.73	7.934
326.10	9.246
326.46	9.609
326.83	9.448
327.19	9.606
327.56	10.514
327.92	9.127
328.29	10.081
328.65	10.385
329.01	11.252
329.38	11.205
329.74	10.616
330.11	11.301
330.47	10.952
330.84	10.853
331.20	11.417
331.56	11.785
331.93	12.134
332.29	11.610
332.66	11.213
333.02	11.809
333.38	11.409
333.75	11.953
334.11	12.344
334.48	13.366
334.84	13.254
335.20	12.930
335.57	13.575
335.93	13.554
336.29	12.479
336.66	12.363
337.02	13.378
337.38	12.670
337.75	12.149
338.11	13.625
338.47	13.069
338.84	12.606
339.20	12.384
339.56	13.262
339.93	12.890
340.29	12.077
340.65	12.976
341.02	13.966
341.38	13.905
341.74	12.672
342.11	13.194
342.47	12.550
342.83	13.366
343.20	13.491
343.56	13.232
343.92	12.970
344.28	13.672
344.65	13.953
345.01	13.339
345.37	13.841
345.73	12.471
346.10	13.963
346.46	12.816
346.82	12.959
347.19	14.209
347.55	13.581
347.91	13.967
348.27	12.747
348.63	13.557
349.00	13.423
349.36	14.275
349.72	14.137
350.08	13.596
350.45	13.384
350.81	14.253
351.17	13.759
351.53	13.723
351.89	14.351
352.26	13.657
352.62	14.030
352.98	14.122
353.34	13.966
353.70	14.022
354.07	14.009
354.43	14.047
354.79	14.435
355.15	14.790
355.51	14.985
355.87	14.136
356.24	14.221
356.60	13.969
356.96	14.233
357.32	14.870
357.68	13.982
358.04	13.623
358.40	14.552
358.77	14.693
359.13	15.214
359.49	14.201
359.85	15.446
360.21	15.925
360.57	14.860
360.93	15.374
361.29	15.368
361.66	15.786
362.02	16.075
362.38	15.601
362.74	15.014
363.10	16.369
363.46	15.789
363.82	14.489
364.18	16.045
364.54	15.284
364.90	16.054
365.26	15.793
365.62	16.267
365.98	16.133
366.35	16.980
366.71	16.667
367.07	16.712
367.43	17.006
367.79	17.518
368.15	17.926
368.51	17.388
368.87	17.048
369.23	16.733
369.59	17.077
369.95	18.120
370.31	17.758
370.67	16.850
371.03	16.759
371.39	16.790
371.75	18.363
372.11	18.089
372.47	18.077
372.83	18.914
373.19	18.479
373.55	18.022
373.91	17.860
374.27	18.693
374.63	18.809
374.99	18.369
375.35	19.221
375.71	18.581
376.07	18.657
376.42	18.073
376.78	19.391
377.14	18.777
377.50	18.280
377.86	19.335
378.22	19.940
378.58	20.452
378.94	20.188
379.30	18.981
379.66	20.106
380.02	19.792
380.38	20.276
380.74	20.507
381.09	20.267
381.45	20.966
381.81	21.136
382.17	20.546
382.53	21.287
382.89	21.106
383.25	20.750
383.61	21.123
383.97	21.555
384.32	22.249
384.68	21.404
385.04	21.457
385.40	22.157
385.76	22.978
386.12	21.903
386.48	22.471
386.83	23.004
387.19	21.784
387.55	22.535
387.91	22.546
388.27	22.979
388.62	23.024
388.98	22.730
389.34	23.159
389.70	23.010
390.06	23.683
390.42	21.747
390.77	23.781
391.13	22.418
391.49	23.551
391.85	23.030
392.20	23.310
392.56	22.859
392.92	23.555
393.28	23.549
393.64	23.575
393.99	24.753
394.35	25.292
394.71	23.952
395.07	23.293
395.42	24.158
395.78	24.314
396.14	24.361
396.50	23.456
396.85	24.329
397.21	24.911
397.57	23.793
397.92	23.654
398.28	24.009
398.64	23.856
399.00	23.822
399.35	24.084
399.71	24.402
400.07	25.660
400.42	23.865
400.78	25.000
401.14	24.132
401.49	24.957
401.85	24.128
402.21	24.565
402.57	25.176
402.92	24.113
403.28	23.653
403.63	23.687
403.99	24.169
404.35	24.218
404.70	23.909
405.06	24.076
405.42	24.766
405.77	24.264
406.13	24.635
406.49	24.606
406.84	24.654
407.20	25.154
407.55	25.076
407.91	24.010
408.27	24.499
408.62	25.131
408.98	23.447
409.34	24.223
409.69	25.031
410.05	25.088
410.40	24.188
410.76	23.836
411.11	24.664
411.47	24.324
411.83	25.162
412.18	25.060
412.54	24.541
412.89	24.680
413.25	25.113
413.60	24.584
413.96	24.592
414.31	24.249
414.67	25.104
415.03	24.062
415.38	25.221
415.74	24.801
416.09	24.183
416.45	25.172
416.80	24.908
417.16	25.415
417.51	25.031
417.87	24.709
418.22	25.689
418.58	24.969
418.93	25.669
419.29	24.538
419.64	25.030
420.00	24.926
420.35	24.537
420.71	25.158
421.06	24.957
421.42	25.344
421.77	25.310
422.12	25.687
422.48	25.192
422.83	25.904
423.19	25.782
423.54	26.162
423.90	25.179
424.25	25.600
424.61	26.005
424.96	26.359
425.31	26.062
425.67	25.443
426.02	25.512
426.38	25.201
426.73	26.060
427.09	26.586
427.44	26.106
427.79	25.871
428.15	25.970
428.50	25.899
428.85	25.832
429.21	26.809
429.56	26.209
429.92	26.536
430.27	26.361
430.62	26.771
430.98	26.365
431.33	26.931
431.68	26.245
432.04	26.663
432.39	27.370
432.74	26.998
433.10	28.123
433.45	26.644
433.80	26.824
434.16	27.841
434.51	26.773
434.86	27.850
435.22	28.108
435.57	28.007
435.92	27.379
436.28	27.304
436.63	27.471
436.98	27.268
437.34	27.621
437.69	27.188
438.04	27.393
438.39	28.202
438.75	26.785
439.10	28.700
439.45	27.390
439.81	27.458
440.16	27.828
440.51	28.205
440.86	26.848
441.22	27.170
441.57	27.621
441.92	28.468
442.27	28.434
442.63	28.862
442.98	28.655
443.33	28.774
443.68	28.840
444.03	29.633
444.39	28.109
444.74	29.352
445.09	27.724
445.44	28.451
445.79	27.921
446.15	28.469
446.50	28.579
446.85	29.037
447.20	28.385
447.55	28.975
447.91	28.168
448.26	28.383
448.61	28.587
448.96	29.345
449.31	27.731
449.66	27.669
450.02	28.217
450.37	29.089
450.72	28.310
451.07	28.929
451.42	29.174
451.77	28.460
452.12	29.797
452.47	28.758
452.83	29.786
453.18	29.013
453.53	29.121
453.88	28.713
454.23	29.887
454.58	28.323
454.93	28.944
455.28	29.862
455.63	28.994
455.98	29.162
456.34	29.152
456.69	29.630
457.04	29.019
457.39	29.545
457.74	29.306
458.09	29.325
458.44	29.580
458.79	29.448
459.14	28.841
459.49	28.523
459.84	29.171
460.19	28.373
460.54	29.018
460.89	29.645
461.24	29.138
461.59	29.884
461.94	29.093
462.29	29.451
462.64	29.028
462.99	29.127
463.34	28.618
463.69	28.136
464.04	29.183
464.39	29.316
464.74	29.304
465.09	29.873
465.44	29.131
465.79	30.830
466.14	29.078
466.49	28.789
466.84	29.807
467.19	28.555
467.54	28.085
467.89	28.851
468.24	28.698
468.59	28.489
468.94	28.147
469.29	28.614
469.64	28.671
469.99	29.254
470.34	28.837
470.68	29.597
471.03	29.601
471.38	28.712
471.73	28.479
472.08	28.426
472.43	28.417
472.78	28.463
473.13	29.267
473.48	29.063
473.83	29.367
474.17	28.839
474.52	28.262
474.87	28.848
475.22	29.577
475.57	28.920
475.92	29.219
476.27	28.967
476.61	27.778
476.96	28.676
477.31	29.257
477.66	29.171
478.01	28.927
478.36	29.312
478.70	28.966
479.05	29.243
479.40	29.812
479.75	29.875
480.10	28.659
480.45	29.672
480.79	28.753
481.14	29.733
481.49	29.759
481.84	29.852
482.19	29.333
482.53	29.383
482.88	29.774
483.23	29.613
483.58	29.170
483.92	28.635
484.27	28.366
484.62	28.300
484.97	28.810
485.31	28.793
485.66	27.140
486.01	28.310
486.36	29.695
486.70	31.423
487.05	31.933
487.40	30.787
487.75	29.491
488.09	29.389
488.44	28.576
488.79	28.398
489.13	28.349
489.48	27.883
489.83	28.531
490.17	29.324
490.52	29.064
490.87	28.723
491.22	29.246
491.56	28.925
491.91	28.522
492.26	29.165
492.60	28.553
492.95	28.565
493.30	29.583
493.64	29.128
493.99	28.816
494.34	28.528
494.68	28.223
495.03	29.075
495.37	29.206
495.72	28.798
496.07	29.404
496.41	29.644
496.76	29.399
497.11	29.427
497.45	29.780
497.80	29.676
498.14	28.390
498.49	28.676
498.84	29.113
499.18	28.610
499.53	29.193
499.87	29.538
500.22	27.783
500.56	28.565
500.91	29.016
501.26	28.409
501.60	28.635
501.95	28.962
502.29	29.136
502.64	29.383
502.98	28.602
503.33	28.639
503.67	28.173
504.02	28.459
504.36	29.625
504.71	29.215
505.06	28.740
505.40	28.976
505.75	29.235
506.09	28.315
506.44	29.434
506.78	29.954
507.13	29.876
507.47	29.133
507.82	28.930
508.16	28.728
508.51	28.317
508.85	29.428
509.19	28.565
509.54	29.251
509.88	28.460
510.23	29.675
510.57	29.241
510.92	29.608
511.26	28.523
511.61	28.682
511.95	28.599
512.30	29.936
512.64	28.586
512.98	29.165
513.33	29.385
513.67	29.220
514.02	29.126
514.36	29.105
514.70	29.635
515.05	29.666
515.39	29.186
515.74	29.427
516.08	29.371
516.42	30.298
516.77	29.338
517.11	29.087
517.46	29.056
517.80	30.198
518.14	29.706
518.49	29.121
518.83	28.845
519.17	29.187
519.52	28.616
519.86	29.831
520.20	28.860
520.55	28.970
520.89	29.279
521.23	29.425
521.58	29.944
521.92	29.745
522.26	29.611
522.61	29.687
522.95	29.412
523.29	28.966
523.64	28.756
523.98	29.606
524.32	30.716
524.66	29.311
525.01	29.105
525.35	29.294
525.69	29.524
526.04	28.645
526.38	30.632
526.72	30.392
527.06	29.912
527.41	28.863
527.75	30.463
528.09	29.575
528.43	29.307
528.78	29.422
529.12	28.784
529.46	29.342
529.80	29.805
530.15	29.623
530.49	29.241
530.83	29.339
531.17	30.048
531.51	28.881
531.86	29.327
532.20	28.598
532.54	29.084
532.88	29.515
533.22	29.582
533.57	29.198
533.91	29.293
534.25	28.095
534.59	30.057
534.93	30.390
535.27	28.958
535.62	29.505
535.96	29.576
536.30	28.966
536.64	29.910
536.98	29.705
537.32	29.568
537.66	30.256
538.01	28.822
538.35	28.076
538.69	29.207
539.03	30.595
539.37	29.564
539.71	30.210
540.05	29.556
540.39	30.562
540.73	28.901
541.07	28.878
541.42	28.766
541.76	28.944
542.10	28.408
542.44	29.172
542.78	29.319
543.12	28.844
543.46	29.976
543.80	29.017
544.14	28.845
544.48	29.255
544.82	29.563
545.16	28.980
545.50	29.179
545.84	29.822
546.18	29.321
546.52	28.662
546.86	29.245
547.20	29.962
547.54	30.025
547.88	28.632
548.22	29.006
548.56	28.204
548.90	29.791
549.24	29.483
549.58	29.401
549.92	29.401
550.26	28.673
550.60	28.462
550.94	29.172
551.28	29.109
551.62	27.898
551.96	28.867
552.30	29.955
552.64	29.496
552.98	30.069
553.32	30.032
553.66	29.003
554.00	29.193
554.34	28.121
554.68	28.276
555.02	29.369
555.36	29.652
555.69	29.084
556.03	28.878
556.37	29.287
556.71	28.979
557.05	29.585
557.39	28.334
557.73	27.939
558.07	29.470
558.41	28.771
558.75	29.479
559.08	29.019
559.42	28.258
559.76	29.647
560.10	28.064
560.44	29.156
560.78	29.688
561.12	29.803
561.45	29.866
561.79	28.816
562.13	29.698
562.47	29.100
562.81	29.430
563.15	29.609
563.48	29.708
563.82	29.202
564.16	29.558
564.50	29.619
564.84	29.499
565.17	29.588
565.51	28.999
565.85	30.463
566.19	29.090
566.52	29.140
566.86	29.145
567.20	28.929
567.54	27.934
567.88	29.511
568.21	29.545
568.55	28.681
568.89	29.414
569.23	30.249
569.56	29.230
569.90	30.078
570.24	29.511
570.57	29.506
570.91	29.455
571.25	29.476
571.59	29.919
571.92	29.771
572.26	29.539
572.60	28.938
572.93	28.890
573.27	29.643
573.61	29.010
573.95	29.425
574.28	28.848
574.62	29.332
574.96	28.959
575.29	29.258
575.63	29.614
575.97	28.982
576.30	28.547
576.64	28.704
576.98	28.815
577.31	29.325
577.65	29.633
577.98	29.236
578.32	29.693
578.66	29.533
578.99	29.121
579.33	29.302
579.67	28.785
580.00	28.771
580.34	28.512
580.67	28.575
581.01	28.711
581.35	29.223
581.68	28.962
582.02	29.463
582.35	29.645
582.69	30.174
583.02	30.219
583.36	29.575
583.70	29.221
584.03	28.270
584.37	29.030
584.70	28.998
585.04	28.645
585.37	28.944
585.71	29.320
586.04	29.546
586.38	29.782
586.72	29.030
587.05	28.805
587.39	29.220
587.72	29.450
588.06	29.570
588.39	29.027
588.73	29.048
589.06	29.261
589.40	29.010
589.73	28.952
590.07	29.542
590.40	29.141
590.73	29.021
591.07	29.114
591.40	28.344
591.74	29.452
592.07	29.354
592.41	28.707
592.74	28.896
593.08	29.331
593.41	29.600
593.75	29.397
594.08	29.718
594.41	29.776
594.75	29.492
595.08	29.408
595.42	30.292
595.75	29.609
596.09	30.329
596.42	29.308
596.75	28.831
597.09	29.859
597.42	28.685
597.75	28.969
598.09	29.206
598.42	29.594
598.76	28.926
599.09	28.836
599.42	29.333
599.76	28.887
600.09	30.130
600.42	29.530
600.76	29.293
601.09	29.572
601.42	29.591
601.76	29.517
602.09	29.092
602.42	29.371
602.76	29.041
603.09	30.176
603.42	28.432
603.76	29.598
604.09	30.341
604.42	29.872
604.76	28.995
605.09	28.720
605.42	29.466
605.75	28.923
606.09	28.891
606.42	29.077
606.75	28.861
607.09	29.071
607.42	29.480
607.75	29.504
608.08	29.400
608.42	28.859
608.75	29.478
609.08	28.820
609.41	29.025
609.75	29.196
610.08	29.200
610.41	28.760
610.74	29.076
611.07	29.885
611.41	28.969
611.74	28.868
612.07	28.705
612.40	29.230
612.73	30.269
613.07	28.655
613.40	29.788
613.73	28.166
614.06	28.803
614.39	29.057
614.72	29.840
615.06	28.633
615.39	29.000
615.72	29.194
616.05	29.189
616.38	29.062
616.71	29.467
617.05	28.647
617.38	29.374
617.71	29.104
618.04	28.548
618.37	29.399
618.70	29.921
619.03	28.017
619.36	29.963
619.69	28.700
620.03	28.562
620.36	28.957
620.69	28.007
621.02	28.609
621.35	29.390
621.68	29.646
622.01	28.754
622.34	28.452
622.67	29.141
623.00	28.947
623.33	28.998
623.66	29.507
623.99	28.901
624.32	28.590
624.65	28.764
624.99	29.194
625.32	29.654
625.65	29.198
625.98	28.542
626.31	29.412
626.64	29.817
626.97	29.032
627.30	28.018
627.63	27.532
627.96	29.655
628.29	28.405
628.62	27.456
628.95	28.922
629.28	29.737
629.61	28.114
629.94	28.536
630.26	27.797
630.59	28.152
630.92	27.792
631.25	28.980
631.58	30.226
631.91	28.679
632.24	29.587
632.57	28.463
632.90	28.586
633.23	29.082
633.56	27.347
633.89	29.029
634.22	29.106
634.55	28.392
634.88	27.922
635.20	29.494
635.53	28.249
635.86	28.277
636.19	31.071
636.52	29.325
636.85	28.396
637.18	28.067
637.51	27.419
637.83	28.461
638.16	28.226
638.49	27.582
638.82	27.734
639.15	27.491
639.48	29.215
639.81	28.753
640.13	27.091
640.46	27.758
640.79	27.451
641.12	28.571
641.45	26.851
641.77	29.653
642.10	26.903
642.43	29.654
642.76	26.694
643.09	28.356
643.41	25.630
643.74	27.448
644.07	29.103
644.40	27.723
644.73	26.851
645.05	28.341
645.38	28.777
645.71	27.713
646.04	28.407
646.36	26.277
646.69	26.994
647.02	28.899
647.35	28.550
647.67	27.375
648.00	28.344
648.33	27.027
648.66	27.247
648.98	27.891
649.31	28.281
649.64	28.021
649.96	26.923
650.29	26.843
650.62	29.137
650.94	27.177
651.27	26.497
651.60	24.708
651.92	27.812
652.25	28.944
652.58	26.272
652.90	25.436
653.23	29.437
653.56	27.247
653.88	27.528
654.21	28.592
654.54	26.445
654.86	27.762
655.19	25.972
655.52	29.609
655.84	32.057
656.17	36.933
656.49	50.980
656.82	54.874
657.15	42.650
657.47	31.872
657.80	23.232
658.13	17.700
658.45	22.587
658.78	26.411
659.10	25.293
659.43	23.848
659.75	22.619
660.08	21.625
660.41	22.250
660.73	23.261
661.06	22.026
661.38	27.273
661.71	22.931
662.03	28.395
662.36	29.159
662.68	25.328
663.01	29.027
663.33	27.410
663.66	27.289
663.98	27.885
664.31	25.328
664.63	25.819
664.96	25.953
665.28	27.223
665.61	27.622
665.93	25.893
666.26	26.344
666.58	24.908
666.91	28.598
667.23	24.381
667.56	28.402
667.88	25.600
668.21	26.758
668.53	22.973
668.86	27.505
669.18	23.625
669.50	25.845
669.83	27.000
670.15	23.031
670.48	25.992
670.80	25.813
671.13	26.654
671.45	25.000
671.77	26.177
672.10	24.667
672.42	26.699
672.75	27.957
673.07	26.567
673.39	23.883
673.72	28.188
674.04	26.897
674.37	27.013
674.69	27.690
675.01	24.762
675.34	24.427
675.66	25.843
675.98	22.948
676.31	27.148
676.63	28.707
676.95	24.713
677.28	26.815
677.60	23.819
677.92	27.831
678.25	26.508
678.57	29.004
678.89	25.597
679.22	27.003
679.54	25.983
679.86	23.051
680.18	24.876
680.51	27.830
680.83	28.151
681.15	23.448
681.48	25.734
681.80	26.770
682.12	27.797
682.44	24.875
682.77	26.064
683.09	25.758
683.41	27.326
683.73	24.099
684.06	26.753
684.38	25.045
684.70	26.571
685.02	25.473
685.34	23.794
685.67	24.290
685.99	25.460
686.31	23.547
686.63	25.908
686.96	27.287
687.28	23.290
687.60	25.589
687.92	25.241
688.24	25.209
688.56	25.000
688.89	25.590
689.21	25.245
689.53	24.314
689.85	22.682
690.17	26.296
690.49	24.104
690.82	24.752
691.14	25.709
691.46	27.151
691.78	27.808
692.10	24.404
692.42	25.357
692.74	24.501
693.06	23.519
693.39	24.668
693.71	24.624
694.03	25.093
694.35	26.095
694.67	25.051
694.99	22.979
695.31	24.503
695.63	24.675
695.95	22.981
696.27	24.396
696.59	22.788
696.91	23.198
697.23	28.132
697.56	22.607
697.88	24.621
698.20	24.670
698.52	26.515
698.84	24.948
699.16	24.898
699.48	25.105
699.80	24.255
700.12	20.961
700.44	24.885
700.76	24.941
701.08	21.550
701.40	22.280
701.72	21.891
702.04	24.866
702.36	22.775
702.68	21.271
703.00	22.249
703.32	24.384
703.64	27.139
703.96	23.389
704.28	19.656
704.60	22.532
704.91	24.235
705.23	21.370
705.55	21.170
705.87	18.182
706.19	23.620
706.51	22.289
706.83	21.902
707.15	24.074
707.47	20.794
707.79	24.236
708.11	21.186
708.43	21.720
708.74	20.089
709.06	21.810
709.38	23.474
709.70	23.325
710.02	22.222
710.34	22.074
710.66	23.464
710.98	22.678
711.29	20.055
711.61	21.751
711.93	21.652
712.25	18.649
712.57	25.074
712.89	24.118
713.20	18.047
713.52	22.832
713.84	20.613
714.16	26.053
714.48	20.876
714.80	26.494
715.11	20.997
715.43	23.077
715.75	22.368
716.07	22.099
716.39	22.678
716.70	20.482
717.02	21.311
717.34	19.861
717.66	21.141
717.97	16.438
718.29	17.869
718.61	21.382
718.93	20.712
719.24	17.702
719.56	23.926
719.88	21.922
720.20	24.516
720.51	21.739
720.83	20.938
721.15	18.092
721.46	19.521
721.78	17.000
722.10	17.799
722.42	20.805
722.73	16.452
723.05	22.807
723.37	20.833
723.68	24.373
724.00	19.856
724.32	15.845
724.63	21.678
724.95	18.794
725.27	17.770
725.58	19.081
725.90	21.379
726.22	21.317
726.53	19.156
726.85	19.497
727.16	20.846
727.48	23.242
727.80	18.874
728.11	16.608
728.43	22.896
728.74	19.398
729.06	20.861
729.38	20.455
729.69	21.141
730.01	21.131
730.32	15.758
730.64	19.182
730.96	17.081
731.27	23.184
731.59	22.253
731.90	20.519
732.22	19.010
732.53	16.022
732.85	24.857
733.16	15.836
733.48	19.207
733.80	18.384
734.11	18.519
734.43	21.622
734.74	24.557
735.06	19.849
735.37	21.892
735.69	22.162
736.00	20.339
736.32	18.868
736.63	22.222
736.95	20.402
737.26	22.424
737.58	18.182
737.89	25.000
738.21	16.208
738.52	15.082
738.83	21.502
739.15	18.440
739.46	21.088
739.78	22.699
740.09	20.917
740.41	20.408
740.72	20.333
741.04	21.359
741.35	19.298
741.66	17.255
741.98	18.443
742.29	17.155
742.61	13.158
742.92	14.231
743.23	19.495
743.55	17.829
743.86	22.000
744.18	13.636
744.49	15.612
744.80	18.107
745.12	20.253
745.43	19.512
745.74	17.672
746.06	16.949
746.37	18.565
746.68	21.951
747.00	18.333
747.31	13.734
747.62	20.385
747.94	13.765
748.25	12.851
748.56	14.286
748.88	14.530
749.19	19.828
749.50	14.286
749.82	20.884
750.13	20.641
750.44	19.333
750.75	16.615
751.07	19.077
751.38	21.451
751.69	21.086
752.01	14.887
752.32	15.686
752.63	19.388
752.94	15.571
753.26	13.755
753.57	13.704
753.88	16.854
754.19	20.900
754.51	16.399
754.82	20.900
755.13	19.344
755.44	16.041
755.75	18.092
756.07	19.701
756.38	18.868
756.69	22.289
757.00	16.343
757.31	18.579
757.63	17.391
757.94	19.718
758.25	19.865
758.56	19.172
758.87	19.545
759.18	17.867
759.50	19.547
759.81	19.888
760.12	20.485
760.43	19.531
760.74	21.675
761.05	16.750
761.36	13.976
761.67	15.990
761.99	19.459
762.30	17.073
762.61	16.832
762.92	19.776
763.23	16.854
763.54	15.827
763.85	19.931
764.16	16.162
764.47	16.549
764.78	17.252
765.10	18.182
765.41	18.974
765.72	17.196
766.03	16.949
766.34	19.122
766.65	13.589
766.96	15.936
767.27	13.825
767.58	6.468
767.89	16.827
768.20	16.432
768.51	14.815
768.82	20.884
769.13	15.909
769.44	8.077
769.75	20.217
770.06	17.692
770.37	19.685
770.68	12.340
770.99	13.765
771.30	18.148
771.61	13.688
771.92	15.556
772.23	17.004
772.54	6.481
772.85	15.207
773.16	20.000
773.47	9.524
773.78	11.892
774.09	13.636
774.39	13.000
774.70	17.486
775.01	8.537
775.32	10.588
775.63	8.589
775.94	9.554
776.25	12.258
776.56	12.821
776.87	15.646
777.18	5.517
777.48	-3.497
777.79	8.108
778.10	4.412
778.41	10.417
778.72	12.414
779.03	6.790
779.34	10.909
779.65	21.244
779.95	18.333
780.26	10.227
780.57	5.161
780.88	13.768
781.19	12.258
781.50	14.706
781.80	9.677
782.11	11.111
782.42	10.606
782.73	-3.593
783.04	8.380
783.34	3.636
783.65	14.379
783.96	13.665
784.27	8.333
784.57	5.960
784.88	13.571
785.19	2.362
785.50	7.874
785.81	9.023
786.11	6.154
786.42	2.878
786.73	1.439
787.04	7.519
787.34	3.279
787.65	9.600
787.96	8.209
788.26	14.685
788.57	6.993
788.88	7.895
789.19	15.033
789.49	2.740
789.80	6.383
790.11	3.150
790.41	5.469
790.72	-1.695
791.03	-3.883
791.33	3.478
791.64	9.649
791.95	1.786
792.25	3.810
792.56	-7.143
792.87	-1.042
793.17	2.679
793.48	-7.292
793.79	-15.663
794.09	-2.752
794.40	-5.505
794.70	5.442
795.01	5.844
795.32	3.425
795.62	9.859
795.93	3.030
796.23	4.098
796.54	3.571
796.85	-5.319
797.15	-11.957
797.46	-8.219
797.76	-2.500
798.07	-1.087
798.37	-9.278
798.68	-14.286
798.99	-4.598
799.29	-4.494
799.60	-7.447
799.90	-6.024
800.21	-24.615
800.51	-16.418
800.82	-26.471
801.12	-23.288
801.43	-22.059
801.73	-1.695
802.04	-12.121
802.34	-23.333
802.65	-40.678
802.95	-17.910
803.26	-6.780
803.56	-16.438
803.87	-18.571
804.17	-9.589
804.48	-35.088
804.78	-4.167
805.09	-17.241
805.39	-4.054
805.70	-15.493
806.00	1.220
806.30	-2.410
806.61	-12.329
806.91	13.462
807.22	-2.222
807.52	-10.345
807.83	-9.722
808.13	0.000
808.43	-1.124
808.74	-5.000
809.04	-19.118
809.35	-25.333
809.65	-12.857
809.95	-10.959
810.26	-47.368
810.56	-13.793
810.86	-8.824
811.17	-15.789
811.47	-27.869
811.77	-26.667
812.08	-22.034
812.38	-11.667
812.69	-8.621
812.99	-43.396
813.29	-48.718
813.59	-14.000
813.90	-35.088
814.20	-23.636
814.50	-1.408
814.81	-3.846
815.11	-26.230
815.41	-17.910
815.72	-17.241
816.02	-21.429
816.32	-26.667
816.62	-40.909
816.93	-42.222
817.23	-9.259
817.53	-34.043
817.84	-7.143
818.14	-35.294
818.44	-34.694
818.74	-13.333
819.04	-71.795
819.35	-57.143
819.65	-96.154
819.95	-30.189
820.25	-6.667
820.56	-50.000
820.86	-65.625
821.16	-56.410
821.46	-44.186
821.76	-46.000
822.07	-21.429
822.37	-52.174
822.67	-44.681
822.97	-62.162
823.27	-62.500
823.57	-8.163
823.88	-20.000
824.18	-30.000
824.48	-56.667
824.78	-88.000
825.08	-48.485
825.38	0.000
825.69	-34.043
825.99	-27.778
826.29	-100.000
826.59	-61.538
826.89	-32.558
827.19	-28.000
827.49	-38.235
827.79	-29.167
828.09	-67.568
828.39	-80.000
828.70	-31.707
829.00	-44.186
829.30	-67.857
829.60	-32.353
829.90	-39.130
830.20	-65.714
830.50	-68.966
830.80	-116.667
831.10	-61.538
831.40	-61.765
831.70	-76.190
832.00	-9.677
832.30	-194.118
832.60	-87.500
832.90	-223.077
833.20	-157.895
833.50	-110.000
833.80	-131.579
834.10	-147.619
834.40	-33.333
834.70	-46.875
835.00	-68.571
835.30	-50.000
835.60	-76.667
835.90	-72.000
836.20	-154.545
836.50	-48.000
836.80	-72.727
837.10	-74.074
837.40	-74.074
837.70	-150.000
838.00	-42.857
838.30	-95.652
838.60	-82.759
838.90	-200.000
839.19	-126.087
839.49	-208.333
839.79	-82.609
840.09	-187.500
840.39	-100.000
840.69	-29.032
840.99	-67.857
841.29	-133.333
841.59	-89.474
841.88	-41.026
842.18	-88.462
842.48	-210.000
842.78	-105.000
843.08	-43.333
843.38	-61.290
843.68	-150.000
843.97	-50.000
844.27	-112.500
844.57	-89.474
844.87	-260.000
845.17	-226.667
845.47	-95.238
845.76	-114.286
846.06	-222.222
846.36	-158.824
846.66	-53.846
846.96	-146.667
847.25	-94.118
847.55	-30.435
847.85	-105.000
848.15	-117.647
848.44	-209.091
848.74	-95.238
849.04	-66.667
849.34	-112.500
849.63	-43.478
849.93	1700.000
850.23	-140.000
850.53	-65.385
850.82	-227.273
851.12	-59.091
851.42	-200.000
851.71	-138.462
852.01	-125.000
852.31	-153.846
852.61	-100.000
852.90	-183.333
853.20	-88.889
853.50	-255.556
853.79	-128.571
854.09	-122.727
854.39	-183.333
854.68	-41.935
854.98	-88.462
855.28	-122.222
855.57	-75.000
855.87	-84.000
856.17	-77.273
856.46	-14.815
856.76	-150.000
857.05	-104.348
857.35	-79.167
857.65	-184.615
857.94	-119.048
858.24	-51.852
858.53	-100.000
858.83	-94.118
859.13	-123.529
859.42	-88.235
859.72	-92.857
860.01	-125.000
860.31	-300.000
860.60	-190.000
860.90	-146.667
861.20	-122.222
861.49	-176.923
861.79	-70.000
862.08	-161.538
862.38	-59.375
862.67	-94.118
862.97	-112.500
863.26	-222.222
863.56	-170.000
863.85	-163.636
864.15	-116.667
864.44	-633.333
864.74	-157.143
865.03	-131.250
865.33	-310.000
865.62	-109.677
865.92	-59.091
866.21	-69.565
866.51	-107.143
866.80	-540.000
867.10	-175.000
867.39	-225.000
867.69	2500.000
867.98	-314.286
868.27	-129.412
868.57	-3500.000
868.86	-290.000
869.16	-100.000
869.45	-66.667
869.75	-163.636
870.04	-385.714
870.33	-158.333
870.63	-457.143
870.92	-475.000
871.22	-362.500
871.51	-227.273
871.80	-1066.667
872.10	-900.000
>>>>>End Processed Spectral Data<<<<<
