SpectraSuite Data File
++++++++++++++++++++++++++++++++++++
Date: Thu May 14 15:00:34 PDT 2015
User: schluterlab
Dark Spectrum Present: Yes
Reference Spectrum Present: Yes
Number of Sampled Component Spectra: 1
Spectrometers: USB2E3373
Integration Time (usec): 3000 (USB2E3373)
Spectra Averaged: 3 (USB2E3373)
Boxcar Smoothing: 0 (USB2E3373)
Correct for Electrical Dark: No (USB2E3373)
Strobe/Lamp Enabled: No (USB2E3373)
Correct for Detector Non-linearity: No (USB2E3373)
Correct for Stray Light: No (USB2E3373)
Number of Pixels in Processed Spectrum: 2048
>>>>>Begin Processed Spectral Data<<<<<
178.53	0.000
178.91	371.429
179.29	-3100.000
179.67	-2400.000
180.04	264.286
180.42	220.000
180.80	680.000
181.18	-3000.000
181.56	-2000.000
181.94	425.000
182.31	-350.000
182.69	933.333
183.07	-850.000
183.45	525.000
183.83	-316.667
184.20	-900.000
184.58	1800.000
184.96	-775.000
185.34	-322.222
185.72	-300.000
186.09	288.889
186.47	1350.000
186.85	620.000
187.23	-300.000
187.61	-2900.000
187.98	500.000
188.36	625.000
188.74	-375.000
189.12	-533.333
189.49	-118.750
189.87	-312.500
190.25	-255.556
190.63	-420.000
191.00	-322.222
191.38	0.000
191.76	-600.000
192.14	-350.000
192.51	650.000
192.89	-333.333
193.27	0.000
193.65	-285.714
194.02	-3000.000
194.40	-300.000
194.78	342.857
195.15	0.000
195.53	-154.545
195.91	0.000
196.29	-550.000
196.66	-107.692
197.04	-3100.000
197.42	-271.429
197.79	-800.000
198.17	-262.500
198.55	-385.714
198.92	-111.111
199.30	-200.000
199.68	-145.455
200.05	-107.143
200.43	-1200.000
200.81	471.429
201.18	0.000
201.56	300.000
201.94	0.000
202.31	800.000
202.69	-266.667
203.07	1800.000
203.44	-211.111
203.82	-675.000
204.19	-175.000
204.57	-383.333
204.95	-337.500
205.32	-2500.000
205.70	750.000
206.08	-300.000
206.45	-350.000
206.83	440.000
207.20	-416.667
207.58	-600.000
207.96	-516.667
208.33	-183.333
208.71	233.333
209.08	-183.333
209.46	0.000
209.84	533.333
210.21	1150.000
210.59	1300.000
210.96	866.667
211.34	-400.000
211.71	-237.500
212.09	-2000.000
212.46	0.000
212.84	1800.000
213.22	-580.000
213.59	-525.000
213.97	-120.000
214.34	-766.667
214.72	516.667
215.09	-550.000
215.47	0.000
215.84	357.143
216.22	1400.000
216.59	-420.000
216.97	-240.000
217.34	-450.000
217.72	-312.500
218.09	-775.000
218.47	-775.000
218.84	0.000
219.22	500.000
219.59	-58.824
219.97	-70.000
220.34	1100.000
220.72	-311.111
221.09	-130.769
221.47	-800.000
221.84	-160.000
222.22	-328.571
222.59	0.000
222.97	-275.000
223.34	-600.000
223.72	-1400.000
224.09	-300.000
224.46	-600.000
224.84	-280.000
225.21	-328.571
225.59	-650.000
225.96	-675.000
226.34	-73.077
226.71	466.667
227.08	-1200.000
227.46	-153.333
227.83	-550.000
228.21	-63.158
228.58	262.500
228.95	1350.000
229.33	-141.667
229.70	-180.000
230.08	-31.579
230.45	210.000
230.82	-333.333
231.20	-92.857
231.57	-83.333
231.95	-209.091
232.32	-190.909
232.69	-125.000
233.07	-500.000
233.44	-70.588
233.81	-320.000
234.19	-122.222
234.56	-68.182
234.93	-48.276
235.31	-110.526
235.68	-77.778
236.05	-145.000
236.43	-57.692
236.80	-24.000
237.17	-62.963
237.55	-51.515
237.92	-260.000
238.29	-83.871
238.67	-22.727
239.04	-25.000
239.41	-61.905
239.79	-43.478
240.16	-24.074
240.53	-43.478
240.91	-35.294
241.28	-29.508
241.65	-19.403
242.02	-14.865
242.40	-26.154
242.77	-22.667
243.14	-15.854
243.51	-35.526
243.89	-24.359
244.26	-0.990
244.63	-8.824
245.00	-2.804
245.38	-10.526
245.75	-12.389
246.12	-8.730
246.49	-11.628
246.87	-5.714
247.24	-4.636
247.61	-3.947
247.98	-4.027
248.36	-6.790
248.73	-9.816
249.10	0.000
249.47	5.970
249.84	-1.047
250.22	-1.554
250.59	0.000
250.96	-0.909
251.33	-7.653
251.70	0.855
252.08	2.500
252.45	2.869
252.82	-1.653
253.19	0.781
253.56	1.141
253.94	1.154
254.31	0.000
254.68	5.944
255.05	6.515
255.42	1.701
255.79	-0.971
256.16	-1.325
256.54	-0.993
256.91	5.246
257.28	0.328
257.65	3.822
258.02	0.000
258.39	3.419
258.76	3.364
259.14	3.161
259.51	3.458
259.88	1.700
260.25	3.611
260.62	6.301
260.99	5.738
261.36	7.507
261.73	3.183
262.10	3.571
262.47	4.290
262.85	6.818
263.22	2.857
263.59	1.316
263.96	3.325
264.33	2.302
264.70	5.926
265.07	7.876
265.44	7.937
265.81	3.472
266.18	3.855
266.55	4.911
266.92	3.872
267.29	6.127
267.66	5.543
268.03	5.022
268.40	3.758
268.77	4.556
269.14	3.744
269.51	2.412
269.88	9.631
270.25	5.634
270.62	4.641
270.99	6.263
271.36	7.129
271.73	5.894
272.10	4.609
272.47	5.210
272.84	4.618
273.21	4.810
273.58	6.250
273.95	5.000
274.32	3.422
274.69	6.190
275.06	6.227
275.43	4.621
275.80	6.878
276.17	6.481
276.54	5.410
276.91	5.546
277.28	6.148
277.65	6.284
278.02	6.434
278.39	3.261
278.76	2.636
279.13	6.383
279.50	6.357
279.87	5.188
280.23	3.521
280.60	6.102
280.97	7.566
281.34	5.772
281.71	7.953
282.08	5.648
282.45	4.583
282.82	5.808
283.19	7.108
283.56	3.934
283.92	7.057
284.29	8.215
284.66	6.568
285.03	4.006
285.40	5.564
285.77	6.811
286.14	6.870
286.51	5.023
286.87	5.687
287.24	5.723
287.61	4.634
287.98	5.891
288.35	6.065
288.72	6.361
289.08	6.881
289.45	4.734
289.82	4.518
290.19	5.460
290.56	5.915
290.93	6.277
291.29	6.887
291.66	5.923
292.03	5.292
292.40	5.986
292.77	2.695
293.13	6.225
293.50	3.811
293.87	4.161
294.24	5.867
294.60	6.068
294.97	5.235
295.34	5.378
295.71	4.666
296.08	3.876
296.44	4.044
296.81	4.629
297.18	5.230
297.55	4.717
297.91	4.745
298.28	3.436
298.65	5.945
299.02	4.368
299.38	5.835
299.75	4.907
300.12	5.208
300.48	3.802
300.85	4.724
301.22	5.257
301.59	5.023
301.95	5.311
302.32	5.000
302.69	4.053
303.05	5.441
303.42	3.880
303.79	4.688
304.15	5.047
304.52	4.123
304.89	4.503
305.25	5.487
305.62	4.493
305.99	4.536
306.35	4.435
306.72	3.723
307.09	5.482
307.45	5.487
307.82	5.651
308.19	4.440
308.55	4.918
308.92	3.992
309.29	5.651
309.65	4.094
310.02	3.861
310.38	4.134
310.75	4.466
311.12	4.698
311.48	4.594
311.85	4.843
312.22	3.321
312.58	4.601
312.95	4.971
313.31	4.517
313.68	4.670
314.05	5.872
314.41	5.556
314.78	4.269
315.14	5.898
315.51	4.801
315.87	5.491
316.24	5.571
316.61	5.595
316.97	4.163
317.34	5.115
317.70	5.153
318.07	5.291
318.43	5.867
318.80	5.686
319.16	5.751
319.53	3.599
319.89	4.207
320.26	6.228
320.62	4.433
320.99	5.633
321.35	5.268
321.72	6.326
322.08	4.509
322.45	5.872
322.81	5.144
323.18	5.841
323.54	5.345
323.91	5.338
324.27	4.991
324.64	6.297
325.00	6.551
325.37	5.897
325.73	6.860
326.10	6.488
326.46	5.945
326.83	5.925
327.19	5.748
327.56	5.138
327.92	5.744
328.29	5.806
328.65	4.858
329.01	5.838
329.38	6.992
329.74	6.849
330.11	6.079
330.47	5.560
330.84	6.374
331.20	5.833
331.56	5.199
331.93	6.109
332.29	5.932
332.66	5.399
333.02	6.281
333.38	6.376
333.75	5.808
334.11	5.922
334.48	5.941
334.84	6.712
335.20	5.038
335.57	5.902
335.93	6.694
336.29	5.241
336.66	4.626
337.02	6.020
337.38	6.293
337.75	5.950
338.11	6.308
338.47	5.542
338.84	4.992
339.20	5.055
339.56	6.096
339.93	5.911
340.29	6.039
340.65	5.109
341.02	5.906
341.38	5.821
341.74	5.327
342.11	5.390
342.47	5.560
342.83	5.878
343.20	5.070
343.56	5.293
343.92	5.604
344.28	5.781
344.65	5.659
345.01	5.382
345.37	5.210
345.73	4.988
346.10	5.772
346.46	5.380
346.82	6.217
347.19	5.348
347.55	5.615
347.91	6.018
348.27	6.070
348.63	5.712
349.00	5.817
349.36	5.204
349.72	5.804
350.08	5.721
350.45	5.171
350.81	5.732
351.17	5.263
351.53	5.989
351.89	6.074
352.26	5.746
352.62	5.224
352.98	5.038
353.34	4.705
353.70	4.854
354.07	5.216
354.43	5.543
354.79	5.385
355.15	5.298
355.51	6.506
355.87	5.909
356.24	5.779
356.60	5.248
356.96	5.634
357.32	5.428
357.68	5.198
358.04	6.063
358.40	5.149
358.77	5.994
359.13	4.801
359.49	4.610
359.85	5.584
360.21	5.667
360.57	5.097
360.93	5.078
361.29	5.123
361.66	5.286
362.02	6.472
362.38	4.849
362.74	5.656
363.10	5.502
363.46	5.609
363.82	5.469
364.18	4.996
364.54	4.841
364.90	5.351
365.26	4.759
365.62	5.467
365.98	5.446
366.35	5.772
366.71	5.238
367.07	5.345
367.43	5.778
367.79	5.574
368.15	6.421
368.51	6.292
368.87	5.291
369.23	5.467
369.59	5.260
369.95	5.747
370.31	5.942
370.67	5.777
371.03	4.778
371.39	5.843
371.75	5.296
372.11	5.149
372.47	5.619
372.83	6.479
373.19	6.338
373.55	5.217
373.91	4.772
374.27	6.016
374.63	5.616
374.99	5.438
375.35	6.234
375.71	5.742
376.07	5.294
376.42	6.171
376.78	5.842
377.14	5.864
377.50	5.882
377.86	7.020
378.22	6.467
378.58	6.302
378.94	6.221
379.30	6.327
379.66	6.055
380.02	6.290
380.38	5.760
380.74	6.423
381.09	5.807
381.45	6.080
381.81	6.206
382.17	6.176
382.53	6.784
382.89	6.885
383.25	6.858
383.61	5.382
383.97	6.419
384.32	5.981
384.68	5.684
385.04	6.998
385.40	6.305
385.76	6.213
386.12	6.104
386.48	6.647
386.83	6.555
387.19	5.910
387.55	5.869
387.91	6.507
388.27	7.102
388.62	6.014
388.98	5.979
389.34	6.777
389.70	6.275
390.06	6.098
390.42	6.807
390.77	6.683
391.13	6.221
391.49	6.703
391.85	5.636
392.20	6.702
392.56	7.442
392.92	6.979
393.28	6.799
393.64	6.648
393.99	6.682
394.35	6.834
394.71	6.766
395.07	6.527
395.42	6.396
395.78	7.374
396.14	6.774
396.50	6.176
396.85	6.082
397.21	6.627
397.57	5.948
397.92	6.644
398.28	6.084
398.64	6.293
399.00	6.126
399.35	6.702
399.71	6.630
400.07	6.569
400.42	5.879
400.78	6.366
401.14	7.001
401.49	6.254
401.85	6.163
402.21	6.315
402.57	7.160
402.92	6.560
403.28	6.850
403.63	6.026
403.99	5.701
404.35	6.254
404.70	7.195
405.06	6.467
405.42	6.616
405.77	6.925
406.13	6.861
406.49	6.644
406.84	6.704
407.20	7.043
407.55	6.118
407.91	6.788
408.27	6.243
408.62	6.399
408.98	6.965
409.34	5.572
409.69	6.551
410.05	7.034
410.40	6.613
410.76	6.898
411.11	7.189
411.47	6.634
411.83	6.878
412.18	6.627
412.54	6.343
412.89	6.927
413.25	6.998
413.60	6.261
413.96	6.235
414.31	6.062
414.67	6.679
415.03	6.092
415.38	6.494
415.74	6.414
416.09	7.156
416.45	6.011
416.80	5.692
417.16	6.450
417.51	6.351
417.87	6.744
418.22	6.946
418.58	5.762
418.93	7.159
419.29	6.042
419.64	6.122
420.00	5.994
420.35	6.345
420.71	5.916
421.06	6.038
421.42	6.307
421.77	6.193
422.12	6.342
422.48	6.708
422.83	7.119
423.19	6.260
423.54	7.246
423.90	6.405
424.25	6.720
424.61	5.798
424.96	6.535
425.31	6.953
425.67	6.280
426.02	6.198
426.38	6.257
426.73	6.194
427.09	7.266
427.44	6.117
427.79	6.025
428.15	5.993
428.50	6.517
428.85	6.659
429.21	6.968
429.56	6.515
429.92	7.027
430.27	6.554
430.62	6.595
430.98	6.542
431.33	6.500
431.68	6.753
432.04	6.602
432.39	7.284
432.74	6.564
433.10	6.706
433.45	6.243
433.80	6.223
434.16	6.715
434.51	7.297
434.86	6.623
435.22	6.642
435.57	6.840
435.92	7.067
436.28	6.542
436.63	6.554
436.98	6.871
437.34	6.652
437.69	6.659
438.04	6.822
438.39	6.605
438.75	6.475
439.10	7.347
439.45	6.428
439.81	7.062
440.16	6.488
440.51	7.135
440.86	6.115
441.22	6.699
441.57	6.866
441.92	6.984
442.27	7.172
442.63	7.253
442.98	6.777
443.33	6.681
443.68	7.780
444.03	7.479
444.39	7.443
444.74	6.432
445.09	7.096
445.44	6.902
445.79	7.040
446.15	7.811
446.50	7.390
446.85	7.150
447.20	7.640
447.55	7.113
447.91	6.911
448.26	6.184
448.61	7.333
448.96	7.564
449.31	7.317
449.66	6.209
450.02	7.015
450.37	7.246
450.72	6.781
451.07	7.403
451.42	6.701
451.77	6.670
452.12	6.998
452.47	6.892
452.83	7.264
453.18	6.363
453.53	6.261
453.88	7.344
454.23	6.554
454.58	7.139
454.93	6.735
455.28	6.623
455.63	6.481
455.98	7.039
456.34	6.655
456.69	6.290
457.04	7.092
457.39	7.262
457.74	7.271
458.09	6.205
458.44	7.543
458.79	7.375
459.14	6.922
459.49	6.621
459.84	7.345
460.19	6.552
460.54	7.439
460.89	7.411
461.24	6.264
461.59	7.250
461.94	6.617
462.29	7.111
462.64	6.457
462.99	6.591
463.34	7.008
463.69	7.034
464.04	7.782
464.39	7.175
464.74	7.412
465.09	7.555
465.44	7.189
465.79	7.033
466.14	7.295
466.49	7.526
466.84	6.446
467.19	7.514
467.54	6.463
467.89	7.126
468.24	6.925
468.59	6.427
468.94	6.643
469.29	7.558
469.64	6.802
469.99	6.565
470.34	6.993
470.68	6.835
471.03	7.007
471.38	6.475
471.73	6.892
472.08	6.916
472.43	7.044
472.78	7.557
473.13	6.131
473.48	7.251
473.83	6.790
474.17	7.034
474.52	6.795
474.87	8.527
475.22	7.493
475.57	6.334
475.92	7.516
476.27	7.029
476.61	7.165
476.96	6.569
477.31	7.178
477.66	7.503
478.01	6.863
478.36	7.378
478.70	7.389
479.05	7.055
479.40	6.614
479.75	8.069
480.10	6.869
480.45	7.429
480.79	7.755
481.14	7.031
481.49	7.269
481.84	7.659
482.19	7.484
482.53	8.089
482.88	7.133
483.23	7.915
483.58	6.769
483.92	6.782
484.27	7.070
484.62	7.426
484.97	7.621
485.31	7.145
485.66	6.805
486.01	7.128
486.36	7.332
486.70	7.771
487.05	7.865
487.40	7.453
487.75	7.812
488.09	7.523
488.44	7.491
488.79	7.555
489.13	7.676
489.48	6.602
489.83	7.726
490.17	7.169
490.52	7.471
490.87	7.741
491.22	7.192
491.56	8.106
491.91	7.414
492.26	7.399
492.60	6.996
492.95	7.459
493.30	7.396
493.64	7.052
493.99	7.763
494.34	7.186
494.68	6.938
495.03	7.709
495.37	7.679
495.72	7.800
496.07	7.625
496.41	7.250
496.76	7.506
497.11	7.771
497.45	7.337
497.80	7.330
498.14	7.166
498.49	7.813
498.84	7.770
499.18	7.827
499.53	7.758
499.87	8.352
500.22	6.812
500.56	7.197
500.91	6.957
501.26	7.864
501.60	6.319
501.95	7.642
502.29	7.810
502.64	7.696
502.98	7.895
503.33	7.041
503.67	7.239
504.02	7.180
504.36	8.356
504.71	7.395
505.06	7.185
505.40	7.358
505.75	7.240
506.09	7.459
506.44	7.660
506.78	7.523
507.13	8.022
507.47	7.342
507.82	7.386
508.16	7.027
508.51	7.501
508.85	7.133
509.19	7.816
509.54	7.829
509.88	7.431
510.23	8.208
510.57	8.362
510.92	7.547
511.26	7.263
511.61	6.953
511.95	7.321
512.30	7.779
512.64	7.546
512.98	8.154
513.33	7.964
513.67	7.904
514.02	7.869
514.36	8.031
514.70	7.396
515.05	7.821
515.39	8.189
515.74	8.696
516.08	7.713
516.42	8.373
516.77	7.939
517.11	7.581
517.46	7.794
517.80	7.857
518.14	8.596
518.49	7.918
518.83	8.568
519.17	8.131
519.52	8.229
519.86	8.553
520.20	7.827
520.55	8.105
520.89	8.277
521.23	7.538
521.58	8.588
521.92	8.215
522.26	7.274
522.61	7.755
522.95	8.478
523.29	7.816
523.64	7.623
523.98	8.329
524.32	8.367
524.66	8.082
525.01	8.550
525.35	7.410
525.69	7.367
526.04	7.463
526.38	8.103
526.72	8.189
527.06	8.270
527.41	8.513
527.75	8.848
528.09	7.851
528.43	7.697
528.78	7.514
529.12	7.741
529.46	7.589
529.80	8.352
530.15	7.942
530.49	7.711
530.83	8.442
531.17	7.826
531.51	7.581
531.86	8.233
532.20	8.963
532.54	7.720
532.88	7.576
533.22	8.309
533.57	8.425
533.91	8.418
534.25	8.423
534.59	8.103
534.93	8.093
535.27	8.056
535.62	8.641
535.96	8.019
536.30	7.286
536.64	8.288
536.98	8.487
537.32	8.025
537.66	8.297
538.01	8.338
538.35	7.125
538.69	7.813
539.03	8.216
539.37	8.186
539.71	8.709
540.05	8.453
540.39	7.213
540.73	7.529
541.07	7.357
541.42	7.856
541.76	7.888
542.10	7.780
542.44	7.552
542.78	8.637
543.12	7.449
543.46	8.059
543.80	8.034
544.14	7.720
544.48	8.156
544.82	7.899
545.16	6.977
545.50	7.130
545.84	7.410
546.18	9.074
546.52	7.962
546.86	7.421
547.20	7.952
547.54	7.179
547.88	7.414
548.22	7.661
548.56	7.373
548.90	7.642
549.24	7.903
549.58	7.634
549.92	7.844
550.26	7.832
550.60	8.424
550.94	8.085
551.28	7.789
551.62	7.682
551.96	7.961
552.30	9.178
552.64	7.965
552.98	8.235
553.32	7.460
553.66	7.974
554.00	7.945
554.34	7.722
554.68	7.295
555.02	6.965
555.36	7.298
555.69	7.687
556.03	7.755
556.37	8.448
556.71	7.990
557.05	8.371
557.39	8.029
557.73	7.794
558.07	7.417
558.41	7.575
558.75	7.370
559.08	8.003
559.42	7.407
559.76	7.802
560.10	8.372
560.44	7.784
560.78	8.062
561.12	7.389
561.45	7.664
561.79	8.730
562.13	7.825
562.47	6.782
562.81	7.848
563.15	7.702
563.48	8.080
563.82	7.195
564.16	7.995
564.50	7.449
564.84	7.729
565.17	7.529
565.51	7.422
565.85	8.076
566.19	7.488
566.52	7.782
566.86	7.527
567.20	7.450
567.54	7.541
567.88	8.002
568.21	7.460
568.55	8.058
568.89	8.352
569.23	8.196
569.56	7.972
569.90	7.733
570.24	7.690
570.57	7.569
570.91	7.685
571.25	7.723
571.59	7.654
571.92	7.356
572.26	7.517
572.60	7.644
572.93	7.765
573.27	7.305
573.61	7.623
573.95	7.332
574.28	7.965
574.62	7.162
574.96	7.367
575.29	7.469
575.63	7.600
575.97	7.473
576.30	7.599
576.64	7.397
576.98	7.472
577.31	7.249
577.65	7.573
577.98	7.304
578.32	7.262
578.66	7.331
578.99	7.434
579.33	7.048
579.67	7.480
580.00	7.575
580.34	7.788
580.67	7.282
581.01	7.334
581.35	7.676
581.68	7.347
582.02	7.117
582.35	7.761
582.69	7.424
583.02	7.681
583.36	7.435
583.70	7.203
584.03	7.319
584.37	7.208
584.70	7.433
585.04	7.138
585.37	7.004
585.71	7.573
586.04	7.442
586.38	7.591
586.72	7.195
587.05	7.342
587.39	7.554
587.72	7.321
588.06	7.544
588.39	7.842
588.73	7.540
589.06	7.336
589.40	7.283
589.73	7.584
590.07	7.228
590.40	8.046
590.73	7.423
591.07	7.595
591.40	7.504
591.74	7.194
592.07	7.268
592.41	7.334
592.74	7.313
593.08	7.611
593.41	7.728
593.75	7.471
594.08	7.361
594.41	7.724
594.75	7.174
595.08	6.999
595.42	7.468
595.75	7.491
596.09	7.828
596.42	7.417
596.75	7.333
597.09	8.162
597.42	7.032
597.75	7.291
598.09	7.937
598.42	7.881
598.76	7.260
599.09	7.654
599.42	7.576
599.76	7.626
600.09	7.508
600.42	7.808
600.76	6.968
601.09	7.103
601.42	7.243
601.76	7.276
602.09	7.720
602.42	7.052
602.76	7.638
603.09	7.232
603.42	7.551
603.76	7.259
604.09	7.523
604.42	7.450
604.76	7.154
605.09	7.020
605.42	7.416
605.75	7.731
606.09	7.055
606.42	7.005
606.75	6.859
607.09	6.759
607.42	7.707
607.75	7.386
608.08	7.695
608.42	6.651
608.75	7.546
609.08	7.088
609.41	7.411
609.75	7.545
610.08	7.520
610.41	7.264
610.74	7.101
611.07	7.238
611.41	7.534
611.74	7.436
612.07	7.387
612.40	7.462
612.73	7.677
613.07	6.993
613.40	7.218
613.73	6.885
614.06	6.968
614.39	6.997
614.72	7.424
615.06	7.026
615.39	7.105
615.72	7.488
616.05	7.139
616.38	7.316
616.71	7.471
617.05	6.709
617.38	7.223
617.71	7.991
618.04	7.070
618.37	7.432
618.70	7.014
619.03	7.049
619.36	7.152
619.69	7.431
620.03	6.717
620.36	7.485
620.69	6.971
621.02	7.283
621.35	7.112
621.68	7.158
622.01	6.833
622.34	6.764
622.67	7.423
623.00	6.545
623.33	7.034
623.66	7.652
623.99	6.583
624.32	7.862
624.65	6.628
624.99	6.827
625.32	7.381
625.65	7.148
625.98	7.051
626.31	7.087
626.64	6.813
626.97	6.377
627.30	6.378
627.63	7.727
627.96	7.733
628.29	7.237
628.62	5.793
628.95	6.661
629.28	6.202
629.61	7.239
629.94	6.695
630.26	6.780
630.59	6.477
630.92	6.061
631.25	6.619
631.58	6.874
631.91	4.592
632.24	6.532
632.57	6.641
632.90	6.419
633.23	6.020
633.56	6.429
633.89	6.198
634.22	6.653
634.55	7.307
634.88	5.952
635.20	8.396
635.53	5.876
635.86	6.501
636.19	8.378
636.52	6.857
636.85	6.742
637.18	7.069
637.51	5.806
637.83	6.534
638.16	7.258
638.49	5.986
638.82	6.201
639.15	5.727
639.48	7.968
639.81	6.813
640.13	6.832
640.46	5.939
640.79	6.495
641.12	5.590
641.45	5.395
641.77	7.445
642.10	7.218
642.43	7.181
642.76	6.369
643.09	6.027
643.41	7.283
643.74	5.517
644.07	7.310
644.40	4.243
644.73	5.951
645.05	5.874
645.38	6.475
645.71	5.865
646.04	7.747
646.36	6.131
646.69	5.982
647.02	7.951
647.35	5.649
647.67	5.797
648.00	8.439
648.33	5.706
648.66	4.565
648.98	6.122
649.31	6.495
649.64	6.906
649.96	6.101
650.29	4.172
650.62	7.355
650.94	5.856
651.27	5.389
651.60	5.994
651.92	4.407
652.25	6.368
652.58	6.602
652.90	4.651
653.23	8.451
653.56	5.991
653.88	8.708
654.21	7.183
654.54	5.202
654.86	5.807
655.19	5.897
655.52	6.704
655.84	7.065
656.17	8.449
656.49	11.875
656.82	13.193
657.15	10.160
657.47	7.607
657.80	5.666
658.13	4.393
658.45	5.562
658.78	6.876
659.10	6.604
659.43	6.164
659.75	5.797
660.08	5.602
660.41	5.955
660.73	4.333
661.06	3.671
661.38	3.030
661.71	4.655
662.03	7.055
662.36	6.619
662.68	5.629
663.01	5.310
663.33	5.482
663.66	7.875
663.98	3.846
664.31	5.066
664.63	2.119
664.96	4.900
665.28	3.811
665.61	7.343
665.93	6.429
666.26	4.839
666.58	4.797
666.91	5.981
667.23	3.619
667.56	3.353
667.88	4.800
668.21	2.344
668.53	3.475
668.86	4.519
669.18	5.092
669.50	4.771
669.83	3.200
670.15	3.346
670.48	4.365
670.80	4.971
671.13	6.805
671.45	4.724
671.77	3.955
672.10	4.833
672.42	4.369
672.75	4.916
673.07	4.627
673.39	4.622
673.72	5.201
674.04	5.862
674.37	4.651
674.69	6.173
675.01	3.810
675.34	5.916
675.66	4.682
675.98	6.530
676.31	5.664
676.63	5.513
676.95	7.088
677.28	4.032
677.60	2.756
677.92	3.839
678.25	5.484
678.57	6.050
678.89	5.973
679.22	5.226
679.54	3.419
679.86	3.390
680.18	2.653
680.51	4.560
680.83	5.728
681.15	5.690
681.48	4.491
681.80	5.527
682.12	1.923
682.44	5.843
682.77	6.028
683.09	5.492
683.41	5.426
683.73	4.554
684.06	4.059
684.38	4.472
684.70	5.386
685.02	5.680
685.34	3.494
685.67	4.574
685.99	4.294
686.31	5.233
686.63	4.897
686.96	4.732
687.28	4.235
687.60	4.377
687.92	5.788
688.24	5.342
688.56	3.621
688.89	6.534
689.21	5.479
689.53	3.725
689.85	1.972
690.17	4.444
690.49	4.183
690.82	3.564
691.14	2.429
691.46	5.354
691.78	5.525
692.10	4.771
692.42	2.143
692.74	5.808
693.06	3.148
693.39	5.693
693.71	3.008
694.03	4.089
694.35	4.762
694.67	4.517
694.99	4.468
695.31	3.311
695.63	4.762
695.95	3.727
696.27	3.297
696.59	5.973
696.91	2.252
697.23	5.275
697.56	3.666
697.88	3.220
698.20	4.143
698.52	4.735
698.84	3.326
699.16	6.327
699.48	4.603
699.80	3.191
700.12	6.114
700.44	2.535
700.76	6.176
701.08	4.843
701.40	2.332
701.72	3.234
702.04	4.278
702.36	2.618
702.68	4.156
703.00	3.178
703.32	2.956
703.64	4.890
703.96	3.819
704.28	2.948
704.60	5.063
704.91	2.296
705.23	2.192
705.55	6.964
705.87	0.303
706.19	2.761
706.51	0.301
706.83	1.441
707.15	1.058
707.47	2.804
707.79	4.148
708.11	-0.212
708.43	1.075
708.74	0.223
709.06	0.928
709.38	4.930
709.70	6.700
710.02	1.809
710.34	3.989
710.66	0.000
710.98	0.273
711.29	0.000
711.61	2.260
711.93	2.279
712.25	2.432
712.57	6.195
712.89	6.471
713.20	3.254
713.52	2.890
713.84	0.000
714.16	6.316
714.48	3.093
714.80	4.156
715.11	0.000
715.43	3.979
715.75	2.895
716.07	3.591
716.39	4.098
716.70	0.904
717.02	1.967
717.34	-0.697
717.66	1.342
717.97	-1.027
718.29	0.000
718.61	2.303
718.93	0.971
719.24	0.311
719.56	0.307
719.88	1.201
720.20	0.968
720.51	1.553
720.83	1.250
721.15	-0.658
721.46	-5.137
721.78	1.333
722.10	-0.324
722.42	-1.007
722.73	1.290
723.05	-2.807
723.37	-0.694
723.68	2.151
724.00	2.166
724.32	-1.056
724.63	-0.350
724.95	4.255
725.27	-0.348
725.58	-4.240
725.90	2.414
726.22	0.627
726.53	2.597
726.85	4.088
727.16	-1.208
727.48	4.281
727.80	1.987
728.11	-1.767
728.43	4.714
728.74	2.676
729.06	1.325
729.38	0.000
729.69	-1.678
730.01	0.595
730.32	-2.424
730.64	0.943
730.96	0.000
731.27	5.587
731.59	1.099
731.90	1.558
732.22	1.042
732.53	-1.934
732.85	1.714
733.16	2.933
733.48	2.744
733.80	1.114
734.11	1.994
734.43	5.405
734.74	7.342
735.06	1.508
735.37	1.622
735.69	-0.270
736.00	1.412
736.32	3.235
736.63	1.389
736.95	1.149
737.26	1.212
737.58	0.000
737.89	2.941
738.21	-0.612
738.52	-2.623
738.83	3.413
739.15	-0.709
739.46	2.721
739.78	3.681
740.09	-1.146
740.41	3.790
740.72	-2.333
741.04	3.560
741.35	-0.702
741.66	-1.176
741.98	1.230
742.29	-0.418
742.61	0.000
742.92	-1.154
743.23	0.361
743.55	-2.326
743.86	1.200
744.18	-2.479
744.49	-1.688
744.80	1.235
745.12	1.688
745.43	1.626
745.74	-4.310
746.06	-2.119
746.37	2.110
746.68	2.439
747.00	0.417
747.31	-0.429
747.62	2.692
747.94	-1.619
748.25	-4.819
748.56	-8.571
748.88	-2.137
749.19	0.000
749.50	-6.926
749.82	-0.803
750.13	3.559
750.44	0.333
750.75	-0.615
751.07	4.615
751.38	0.946
751.69	1.597
752.01	-2.589
752.32	0.000
752.63	0.340
752.94	-0.346
753.26	-1.115
753.57	-0.370
753.88	-3.371
754.19	1.929
754.51	2.251
754.82	0.643
755.13	3.934
755.44	1.706
755.75	2.303
756.07	5.373
756.38	1.572
756.69	3.313
757.00	0.000
757.31	2.732
757.63	-1.790
757.94	2.113
758.25	3.837
758.56	1.961
758.87	3.636
759.18	2.400
759.50	5.382
759.81	2.801
760.12	1.078
760.43	3.646
760.74	2.463
761.05	2.500
761.36	0.241
761.67	2.538
761.99	4.054
762.30	1.220
762.61	-0.990
762.92	-2.239
763.23	-0.749
763.54	1.799
763.85	-3.780
764.16	-2.694
764.47	1.056
764.78	-0.639
765.10	0.587
765.41	4.103
765.72	2.116
766.03	0.847
766.34	-0.627
766.65	-1.742
766.96	-0.398
767.27	-3.226
767.58	-10.945
767.89	-1.923
768.20	-4.695
768.51	0.926
768.82	-2.008
769.13	-1.894
769.44	-8.846
769.75	3.971
770.06	0.000
770.37	1.181
770.68	-6.383
770.99	-5.668
771.30	2.963
771.61	0.000
771.92	-2.593
772.23	2.429
772.54	-12.037
772.85	-2.304
773.16	1.429
773.47	-5.820
773.78	-6.486
774.09	-5.682
774.39	2.000
774.70	-1.639
775.01	-7.927
775.32	-9.412
775.63	-7.975
775.94	-8.280
776.25	-0.645
776.56	-6.410
776.87	-4.082
777.18	-4.828
777.48	-6.993
777.79	-7.432
778.10	-19.118
778.41	-4.167
778.72	-6.897
779.03	-8.642
779.34	-3.030
779.65	-2.073
779.95	-4.444
780.26	-2.273
780.57	-3.226
780.88	-2.899
781.19	0.645
781.50	1.176
781.80	-2.151
782.11	4.233
782.42	-6.061
782.73	-4.192
783.04	-3.352
783.34	-11.515
783.65	-12.418
783.96	-8.075
784.27	-5.952
784.57	-7.947
784.88	-14.286
785.19	-13.386
785.50	-10.236
785.81	-9.774
786.11	-14.615
786.42	-12.230
786.73	-13.669
787.04	-8.271
787.34	-17.213
787.65	-11.200
787.96	-5.224
788.26	-6.993
788.57	-2.098
788.88	-6.579
789.19	-1.307
789.49	-6.164
789.80	-5.674
790.11	-8.661
790.41	-10.937
790.72	-17.797
791.03	-18.447
791.33	-11.304
791.64	-14.912
791.95	-23.214
792.25	-10.476
792.56	-12.500
792.87	-17.708
793.17	1.786
793.48	-23.958
793.79	-28.916
794.09	-21.101
794.40	-18.349
794.70	-8.163
795.01	-11.688
795.32	-17.808
795.62	-8.451
795.93	-11.364
796.23	-10.656
796.54	-20.536
796.85	-10.638
797.15	-18.478
797.46	-27.397
797.76	-28.750
798.07	-25.000
798.37	-28.866
798.68	-23.377
798.99	-20.690
799.29	-20.225
799.60	-10.638
799.90	-18.072
800.21	-29.231
800.51	-38.806
800.82	-29.412
801.12	-36.986
801.43	-35.294
801.73	-33.898
802.04	-28.788
802.34	-58.333
802.65	-30.508
802.95	-19.403
803.26	-18.644
803.56	-41.096
803.87	-31.429
804.17	-27.397
804.48	-52.632
804.78	-22.222
805.09	-27.586
805.39	-16.216
805.70	-29.577
806.00	-9.756
806.30	-25.301
806.61	-23.288
806.91	-14.423
807.22	-18.889
807.52	-22.989
807.83	-18.056
808.13	-2.410
808.43	-16.854
808.74	-12.500
809.04	-36.765
809.35	-24.000
809.65	-20.000
809.95	-19.178
810.26	-42.105
810.56	-24.138
810.86	-7.353
811.17	-36.842
811.47	-36.066
811.77	-42.222
812.08	-13.559
812.38	-11.667
812.69	-25.862
812.99	-47.170
813.29	-74.359
813.59	-28.000
813.90	-26.316
814.20	-47.273
814.50	-8.451
814.81	-21.795
815.11	-29.508
815.41	-14.925
815.72	-25.862
816.02	-10.714
816.32	-24.444
816.62	-31.818
816.93	-42.222
817.23	-1.852
817.53	-51.064
817.84	-9.524
818.14	-67.647
818.44	-40.816
818.74	-42.222
819.04	-58.974
819.35	-54.286
819.65	-115.385
819.95	-32.075
820.25	-37.778
820.56	-78.571
820.86	-56.250
821.16	-25.641
821.46	-41.860
821.76	-44.000
822.07	-41.071
822.37	-65.217
822.67	-55.319
822.97	-116.216
823.27	-52.500
823.57	-36.735
823.88	-24.444
824.18	-47.500
824.48	-60.000
824.78	-76.000
825.08	-45.455
825.38	-35.556
825.69	-46.809
825.99	-41.667
826.29	-85.714
826.59	-87.179
826.89	-58.140
827.19	-36.000
827.49	-61.765
827.79	-41.667
828.09	-70.270
828.39	-86.667
828.70	-58.537
829.00	-46.512
829.30	-82.143
829.60	-55.882
829.90	-39.130
830.20	-37.143
830.50	-72.414
830.80	-100.000
831.10	-103.846
831.40	-35.294
831.70	-80.952
832.00	-45.161
832.30	-205.882
832.60	-116.667
832.90	-200.000
833.20	-100.000
833.50	-140.000
833.80	-63.158
834.10	-138.095
834.40	-66.667
834.70	-56.250
835.00	-97.143
835.30	-47.059
835.60	-50.000
835.90	-112.000
836.20	-159.091
836.50	-60.000
836.80	-87.879
837.10	-85.185
837.40	-107.407
837.70	-143.750
838.00	-60.714
838.30	-121.739
838.60	-48.276
838.90	-71.429
839.19	-126.087
839.49	-291.667
839.79	-95.652
840.09	-162.500
840.39	-125.000
840.69	-58.065
840.99	-96.429
841.29	-106.667
841.59	-136.842
841.88	-17.949
842.18	-73.077
842.48	-240.000
842.78	-130.000
843.08	-26.667
843.38	-29.032
843.68	-111.111
843.97	-20.588
844.27	-175.000
844.57	-152.632
844.87	-290.000
845.17	-126.667
845.47	-80.952
845.76	-100.000
846.06	-300.000
846.36	-129.412
846.66	-115.385
846.96	-246.667
847.25	-147.059
847.55	-82.609
847.85	-120.000
848.15	-111.765
848.44	-245.455
848.74	-104.762
849.04	-87.500
849.34	-125.000
849.63	-108.696
849.93	1700.000
850.23	-133.333
850.53	-69.231
850.82	-272.727
851.12	-95.455
851.42	-218.182
851.71	-146.154
852.01	-110.000
852.31	-100.000
852.61	-131.579
852.90	-141.667
853.20	-100.000
853.50	-300.000
853.79	-123.810
854.09	-86.364
854.39	-325.000
854.68	-61.290
854.98	-88.462
855.28	-122.222
855.57	-100.000
855.87	-76.000
856.17	-81.818
856.46	-74.074
856.76	-172.222
857.05	-139.130
857.35	-112.500
857.65	-153.846
857.94	-71.429
858.24	-37.037
858.53	-73.913
858.83	-94.118
859.13	-82.353
859.42	-82.353
859.72	-121.429
860.01	-140.000
860.31	-277.778
860.60	-180.000
860.90	-60.000
861.20	-88.889
861.49	-176.923
861.79	-96.667
862.08	-184.615
862.38	-31.250
862.67	-58.824
862.97	-137.500
863.26	-211.111
863.56	-140.000
863.85	-190.909
864.15	-88.889
864.44	-966.667
864.74	-185.714
865.03	-250.000
865.33	-320.000
865.62	-90.323
865.92	-90.909
866.21	-69.565
866.51	-107.143
866.80	-460.000
867.10	-141.667
867.39	-208.333
867.69	3000.000
867.98	-285.714
868.27	-105.882
868.57	-3200.000
868.86	-320.000
869.16	-80.952
869.45	-62.500
869.75	-236.364
870.04	-300.000
870.33	-141.667
870.63	-342.857
870.92	-525.000
871.22	-400.000
871.51	-181.818
871.80	-833.333
872.10	-1300.000
>>>>>End Processed Spectral Data<<<<<
