SpectraSuite Data File
++++++++++++++++++++++++++++++++++++
Date: Thu May 14 14:42:28 PDT 2015
User: schluterlab
Dark Spectrum Present: Yes
Reference Spectrum Present: Yes
Number of Sampled Component Spectra: 1
Spectrometers: USB2E3373
Integration Time (usec): 3000 (USB2E3373)
Spectra Averaged: 3 (USB2E3373)
Boxcar Smoothing: 0 (USB2E3373)
Correct for Electrical Dark: No (USB2E3373)
Strobe/Lamp Enabled: No (USB2E3373)
Correct for Detector Non-linearity: No (USB2E3373)
Correct for Stray Light: No (USB2E3373)
Number of Pixels in Processed Spectrum: 2048
>>>>>Begin Processed Spectral Data<<<<<
178.53	0.000
178.91	-157.143
179.29	300.000
179.67	900.000
180.04	78.571
180.42	-80.000
180.80	-240.000
181.18	-800.000
181.56	900.000
181.94	-225.000
182.31	-50.000
182.69	-500.000
183.07	800.000
183.45	100.000
183.83	116.667
184.20	66.667
184.58	200.000
184.96	100.000
185.34	-11.111
185.72	200.000
186.09	-11.111
186.47	-150.000
186.85	60.000
187.23	-88.889
187.61	-900.000
187.98	-180.000
188.36	-25.000
188.74	225.000
189.12	333.333
189.49	81.250
189.87	37.500
190.25	88.889
190.63	140.000
191.00	-11.111
191.38	0.000
191.76	75.000
192.14	150.000
192.51	300.000
192.89	150.000
193.27	0.000
193.65	228.571
194.02	-200.000
194.40	114.286
194.78	-114.286
195.15	0.000
195.53	109.091
195.91	0.000
196.29	125.000
196.66	46.154
197.04	0.000
197.42	57.143
197.79	-350.000
198.17	50.000
198.55	0.000
198.92	122.222
199.30	25.000
199.68	72.727
200.05	71.429
200.43	100.000
200.81	-0.000
201.18	0.000
201.56	122.222
201.94	0.000
202.31	-233.333
202.69	55.556
203.07	200.000
203.44	133.333
203.82	-75.000
204.19	116.667
204.57	66.667
204.95	-62.500
205.32	800.000
205.70	-25.000
206.08	83.333
206.45	166.667
206.83	80.000
207.20	116.667
207.58	80.000
207.96	150.000
208.33	200.000
208.71	16.667
209.08	316.667
209.46	0.000
209.84	33.333
210.21	-300.000
210.59	-250.000
210.96	-66.667
211.34	200.000
211.71	87.500
212.09	-300.000
212.46	0.000
212.84	-300.000
213.22	60.000
213.59	50.000
213.97	120.000
214.34	66.667
214.72	-66.667
215.09	150.000
215.47	0.000
215.84	28.571
216.22	50.000
216.59	180.000
216.97	-40.000
217.34	-25.000
217.72	100.000
218.09	0.000
218.47	200.000
218.84	0.000
219.22	-220.000
219.59	76.471
219.97	95.000
220.34	-450.000
220.72	33.333
221.09	46.154
221.47	333.333
221.84	50.000
222.22	0.000
222.59	0.000
222.97	112.500
223.34	100.000
223.72	800.000
224.09	225.000
224.46	50.000
224.84	400.000
225.21	42.857
225.59	175.000
225.96	0.000
226.34	76.923
226.71	33.333
227.08	200.000
227.46	53.333
227.83	75.000
228.21	52.632
228.58	50.000
228.95	-50.000
229.33	33.333
229.70	60.000
230.08	115.789
230.45	10.000
230.82	533.333
231.20	128.571
231.57	33.333
231.95	163.636
232.32	63.636
232.69	50.000
233.07	125.000
233.44	70.588
233.81	90.000
234.19	44.444
234.56	50.000
234.93	55.172
235.31	5.263
235.68	122.222
236.05	10.000
236.43	65.385
236.80	100.000
237.17	44.444
237.55	33.333
237.92	90.000
238.29	25.806
238.67	43.182
239.04	36.111
239.41	21.429
239.79	21.739
240.16	33.333
240.53	36.957
240.91	23.529
241.28	31.148
241.65	40.299
242.02	51.351
242.40	23.077
242.77	40.000
243.14	36.585
243.51	35.526
243.89	28.205
244.26	33.663
244.63	35.294
245.00	38.318
245.38	26.316
245.75	25.664
246.12	27.778
246.49	31.783
246.87	27.143
247.24	27.152
247.61	30.921
247.98	28.188
248.36	27.778
248.73	28.834
249.10	27.869
249.47	28.358
249.84	32.984
250.22	27.461
250.59	32.778
250.96	30.909
251.33	23.980
251.70	31.624
252.08	27.500
252.45	26.639
252.82	22.727
253.19	25.391
253.56	31.179
253.94	24.231
254.31	29.167
254.68	27.622
255.05	30.619
255.42	24.150
255.79	25.243
256.16	28.146
256.54	24.834
256.91	27.541
257.28	26.557
257.65	23.567
258.02	20.944
258.39	27.920
258.76	28.135
259.14	29.310
259.51	28.818
259.88	28.329
260.25	25.833
260.62	26.575
260.99	26.230
261.36	27.882
261.73	25.199
262.10	28.846
262.47	28.418
262.85	31.061
263.22	23.117
263.59	22.105
263.96	28.389
264.33	25.064
264.70	26.420
265.07	28.162
265.44	26.757
265.81	26.389
266.18	26.077
266.55	25.893
266.92	25.513
267.29	26.915
267.66	25.942
268.03	26.201
268.40	28.601
268.77	25.285
269.14	24.890
269.51	26.754
269.88	25.615
270.25	26.962
270.62	25.738
270.99	27.879
271.36	27.723
271.73	26.326
272.10	26.653
272.47	26.854
272.84	26.104
273.21	25.651
273.58	26.008
273.95	24.231
274.32	24.525
274.69	23.404
275.06	25.092
275.43	24.399
275.80	25.397
276.17	22.037
276.54	26.679
276.91	23.792
277.28	26.040
277.65	26.750
278.02	24.816
278.39	25.362
278.76	24.077
279.13	23.404
279.50	26.804
279.87	24.329
280.23	21.303
280.60	25.932
280.97	23.355
281.34	24.788
281.71	24.873
282.08	22.259
282.45	23.568
282.82	23.862
283.19	21.163
283.56	23.770
283.92	25.075
284.29	24.645
284.66	24.959
285.03	21.154
285.40	23.338
285.77	23.065
286.14	23.817
286.51	23.592
286.87	23.065
287.24	22.892
287.61	23.169
287.98	24.169
288.35	23.669
288.72	21.893
289.08	23.280
289.45	21.450
289.82	22.440
290.19	23.132
290.56	21.972
290.93	22.397
291.29	22.039
291.66	20.799
292.03	20.081
292.40	23.129
292.77	22.237
293.13	19.621
293.50	19.974
293.87	20.134
294.24	21.600
294.60	22.124
294.97	19.597
295.34	20.871
295.71	19.924
296.08	18.863
296.44	20.466
296.81	19.854
297.18	19.303
297.55	19.458
297.91	19.454
298.28	18.483
298.65	18.906
299.02	18.890
299.38	19.908
299.75	18.692
300.12	18.866
300.48	19.124
300.85	20.472
301.22	17.673
301.59	18.265
301.95	19.209
302.32	19.222
302.69	17.525
303.05	18.498
303.42	18.404
303.79	17.708
304.15	18.507
304.52	17.970
304.89	18.220
305.25	18.116
305.62	17.659
305.99	18.351
306.35	16.835
306.72	19.235
307.09	17.259
307.45	18.323
307.82	18.264
308.19	17.154
308.55	18.129
308.92	18.598
309.29	18.295
309.65	18.226
310.02	18.317
310.38	17.815
310.75	18.738
311.12	18.600
311.48	18.182
311.85	18.519
312.22	19.260
312.58	19.906
312.95	18.069
313.31	20.054
313.68	19.780
314.05	19.964
314.41	19.217
314.78	19.437
315.14	20.599
315.51	21.330
315.87	20.792
316.24	21.187
316.61	20.160
316.97	21.357
317.34	20.018
317.70	22.183
318.07	22.310
318.43	22.959
318.80	23.411
319.16	23.777
319.53	21.508
319.89	23.138
320.26	23.665
320.62	25.089
320.99	24.469
321.35	24.584
321.72	24.279
322.08	25.518
322.45	26.739
322.81	26.625
323.18	25.752
323.54	26.552
323.91	28.826
324.27	28.227
324.64	27.876
325.00	28.441
325.37	28.501
325.73	29.256
326.10	29.440
326.46	31.189
326.83	32.346
327.19	30.079
327.56	31.304
327.92	30.527
328.29	30.403
328.65	32.245
329.01	32.995
329.38	33.109
329.74	33.219
330.11	34.675
330.47	33.446
330.84	34.970
331.20	35.000
331.56	36.568
331.93	35.816
332.29	37.373
332.66	35.216
333.02	34.925
333.38	36.493
333.75	36.616
334.11	37.615
334.48	36.881
334.84	38.488
335.20	35.936
335.57	38.786
335.93	38.099
336.29	38.103
336.66	37.931
337.02	37.458
337.38	38.520
337.75	38.264
338.11	38.015
338.47	38.462
338.84	39.425
339.20	37.574
339.56	38.633
339.93	38.670
340.29	38.406
340.65	37.307
341.02	39.425
341.38	39.612
341.74	38.902
342.11	39.340
342.47	37.967
342.83	39.533
343.20	39.820
343.56	38.492
343.92	38.751
344.28	39.219
344.65	40.310
345.01	39.080
345.37	39.191
345.73	39.673
346.10	40.250
346.46	39.636
346.82	39.101
347.19	38.426
347.55	39.226
347.91	38.633
348.27	38.847
348.63	38.995
349.00	38.926
349.36	38.885
349.72	38.170
350.08	38.633
350.45	38.859
350.81	39.291
351.17	38.647
351.53	38.893
351.89	38.800
352.26	38.806
352.62	37.090
352.98	38.397
353.34	37.640
353.70	39.368
354.07	38.227
354.43	39.104
354.79	38.594
355.15	38.631
355.51	38.743
355.87	37.547
356.24	38.631
356.60	38.064
356.96	39.733
357.32	37.993
357.68	38.507
358.04	37.350
358.40	38.060
358.77	37.061
359.13	38.626
359.49	37.770
359.85	38.651
360.21	38.235
360.57	38.693
360.93	37.659
361.29	37.684
361.66	38.957
362.02	38.553
362.38	38.510
362.74	38.268
363.10	39.065
363.46	38.920
363.82	37.855
364.18	38.564
364.54	38.174
364.90	38.796
365.26	38.276
365.62	39.067
365.98	39.687
366.35	38.188
366.71	38.571
367.07	38.904
367.43	37.820
367.79	39.416
368.15	39.197
368.51	39.107
368.87	39.125
369.23	38.533
369.59	38.456
369.95	38.269
370.31	39.028
370.67	38.721
371.03	38.435
371.39	38.415
371.75	38.927
372.11	38.889
372.47	39.066
372.83	38.743
373.19	37.558
373.55	38.957
373.91	38.241
374.27	38.228
374.63	39.581
374.99	38.926
375.35	39.221
375.71	38.581
376.07	38.799
376.42	39.610
376.78	38.968
377.14	38.428
377.50	39.532
377.86	39.470
378.22	39.162
378.58	39.834
378.94	38.380
379.30	39.074
379.66	39.624
380.02	39.469
380.38	41.417
380.74	40.056
381.09	40.186
381.45	40.170
381.81	40.867
382.17	40.380
382.53	39.708
382.89	39.221
383.25	40.914
383.61	40.278
383.97	40.931
384.32	41.926
384.68	39.327
385.04	41.064
385.40	41.780
385.76	40.914
386.12	40.156
386.48	42.176
386.83	41.240
387.19	40.035
387.55	41.138
387.91	40.068
388.27	40.589
388.62	40.206
388.98	40.496
389.34	41.072
389.70	40.383
390.06	40.379
390.42	41.928
390.77	41.300
391.13	40.669
391.49	41.546
391.85	40.485
392.20	40.095
392.56	41.051
392.92	41.385
393.28	42.012
393.64	40.726
393.99	42.069
394.35	41.355
394.71	41.737
395.07	40.719
395.42	39.977
395.78	41.926
396.14	41.771
396.50	40.439
396.85	39.595
397.21	41.538
397.57	41.519
397.92	41.237
398.28	40.087
398.64	40.332
399.00	39.581
399.35	40.314
399.71	40.707
400.07	41.101
400.42	39.872
400.78	40.625
401.14	40.694
401.49	41.899
401.85	40.756
402.21	41.425
402.57	41.432
402.92	40.130
403.28	40.632
403.63	40.334
403.99	39.727
404.35	39.397
404.70	40.963
405.06	40.163
405.42	41.101
405.77	40.785
406.13	40.465
406.49	39.921
406.84	41.163
407.20	40.917
407.55	40.521
407.91	40.603
408.27	39.870
408.62	41.012
408.98	40.104
409.34	40.352
409.69	39.864
410.05	41.442
410.40	41.821
410.76	40.942
411.11	40.444
411.47	41.646
411.83	40.623
412.18	41.807
412.54	40.782
412.89	40.570
413.25	40.576
413.60	40.207
413.96	40.326
414.31	40.397
414.67	41.562
415.03	39.815
415.38	40.038
415.74	40.990
416.09	41.147
416.45	40.889
416.80	39.718
417.16	40.868
417.51	41.220
417.87	41.631
418.22	42.216
418.58	40.706
418.93	42.026
419.29	41.492
419.64	42.017
420.00	41.424
420.35	41.606
420.71	41.183
421.06	40.253
421.42	41.972
421.77	41.034
422.12	41.649
422.48	41.526
422.83	42.114
423.19	42.122
423.54	42.754
423.90	41.634
424.25	42.827
424.61	42.480
424.96	42.943
425.31	42.463
425.67	41.546
426.02	42.944
426.38	43.341
426.73	42.913
427.09	43.772
427.44	42.490
427.79	42.399
428.15	43.322
428.50	43.652
428.85	43.571
429.21	43.883
429.56	43.880
429.92	43.440
430.27	44.386
430.62	44.846
430.98	43.384
431.33	43.109
431.68	45.115
432.04	44.033
432.39	44.189
432.74	44.578
433.10	44.673
433.45	43.534
433.80	44.796
434.16	45.816
434.51	45.786
434.86	46.091
435.22	45.271
435.57	46.816
435.92	45.687
436.28	46.530
436.63	47.570
436.98	45.089
437.34	46.618
437.69	46.120
438.04	45.849
438.39	46.812
438.75	47.261
439.10	46.512
439.45	46.451
439.81	46.554
440.16	45.898
440.51	46.265
440.86	46.581
441.22	46.999
441.57	47.746
441.92	47.333
442.27	48.434
442.63	46.796
442.98	48.292
443.33	47.554
443.68	47.968
444.03	48.119
444.39	48.081
444.74	48.954
445.09	46.832
445.44	48.103
445.79	49.042
446.15	48.304
446.50	47.855
446.85	48.784
447.20	47.969
447.55	49.791
447.91	48.063
448.26	49.260
448.61	48.778
448.96	50.590
449.31	48.940
449.66	48.420
450.02	49.578
450.37	49.760
450.72	49.516
451.07	49.487
451.42	48.527
451.77	49.416
452.12	49.210
452.47	48.841
452.83	51.971
453.18	49.270
453.53	50.086
453.88	50.304
454.23	51.299
454.58	50.842
454.93	51.092
455.28	52.258
455.63	50.824
455.98	50.670
456.34	50.648
456.69	51.323
457.04	52.364
457.39	51.220
457.74	53.803
458.09	50.961
458.44	51.185
458.79	50.438
459.14	51.180
459.49	52.801
459.84	51.784
460.19	50.639
460.54	52.754
460.89	52.144
461.24	50.862
461.59	51.577
461.94	50.542
462.29	52.072
462.64	51.599
462.99	53.672
463.34	53.018
463.69	51.348
464.04	52.918
464.39	53.027
464.74	51.653
465.09	52.537
465.44	52.521
465.79	52.459
466.14	51.798
466.49	52.842
466.84	52.176
467.19	52.254
467.54	51.939
467.89	53.218
468.24	52.410
468.59	53.098
468.94	51.923
469.29	52.490
469.64	53.719
469.99	54.175
470.34	52.290
470.68	54.819
471.03	54.093
471.38	54.545
471.73	52.991
472.08	54.569
472.43	53.943
472.78	55.605
473.13	54.994
473.48	54.018
473.83	55.833
474.17	53.927
474.52	55.562
474.87	55.039
475.22	56.282
475.57	54.102
475.92	54.206
476.27	54.420
476.61	55.296
476.96	55.162
477.31	55.347
477.66	56.139
478.01	54.652
478.36	54.985
478.70	56.010
479.05	57.157
479.40	56.071
479.75	54.995
480.10	56.561
480.45	55.242
480.79	55.601
481.14	55.469
481.49	55.520
481.84	55.831
482.19	56.731
482.53	57.280
482.88	57.377
483.23	56.781
483.58	56.638
483.92	55.984
484.27	55.334
484.62	56.188
484.97	56.415
485.31	55.649
485.66	53.605
486.01	53.463
486.36	55.243
486.70	57.209
487.05	58.479
487.40	57.395
487.75	56.947
488.09	56.720
488.44	55.395
488.79	56.863
489.13	56.662
489.48	56.738
489.83	56.499
490.17	56.298
490.52	56.732
490.87	57.699
491.22	57.539
491.56	57.594
491.91	57.872
492.26	57.724
492.60	57.674
492.95	57.613
493.30	58.628
493.64	58.695
493.99	58.509
494.34	57.622
494.68	58.030
495.03	59.075
495.37	59.654
495.72	58.186
496.07	57.318
496.41	57.572
496.76	60.092
497.11	60.042
497.45	59.603
497.80	58.996
498.14	59.184
498.49	59.651
498.84	61.472
499.18	59.199
499.53	59.417
499.87	60.791
500.22	59.929
500.56	59.964
500.91	59.954
501.26	60.773
501.60	59.832
501.95	60.182
502.29	60.421
502.64	61.390
502.98	60.095
503.33	60.734
503.67	60.532
504.02	60.289
504.36	61.841
504.71	60.910
505.06	60.300
505.40	61.106
505.75	60.838
506.09	62.293
506.44	62.396
506.78	61.697
507.13	61.365
507.47	63.430
507.82	61.884
508.16	62.380
508.51	61.978
508.85	63.014
509.19	62.672
509.54	62.776
509.88	61.583
510.23	64.157
510.57	63.606
510.92	62.796
511.26	63.636
511.61	61.999
511.95	62.762
512.30	62.974
512.64	61.369
512.98	62.181
513.33	64.062
513.67	64.049
514.02	62.494
514.36	63.785
514.70	65.365
515.05	64.025
515.39	63.255
515.74	65.111
516.08	64.131
516.42	65.777
516.77	65.195
517.11	63.177
517.46	65.589
517.80	66.275
518.14	65.941
518.49	65.293
518.83	63.438
519.17	63.651
519.52	65.094
519.86	65.470
520.20	65.602
520.55	65.663
520.89	65.653
521.23	66.723
521.58	65.706
521.92	66.346
522.26	65.063
522.61	65.451
522.95	67.013
523.29	66.322
523.64	65.639
523.98	66.629
524.32	68.080
524.66	66.249
525.01	65.629
525.35	64.216
525.69	65.313
526.04	65.327
526.38	66.667
526.72	66.667
527.06	67.038
527.41	66.414
527.75	67.933
528.09	67.296
528.43	65.660
528.78	67.283
529.12	66.456
529.46	65.767
529.80	67.963
530.15	67.594
530.49	67.556
530.83	66.942
531.17	68.160
531.51	66.486
531.86	66.647
532.20	68.598
532.54	65.350
532.88	68.485
533.22	66.942
533.57	67.109
533.91	67.059
534.25	66.761
534.59	68.563
534.93	68.195
535.27	67.887
535.62	68.107
535.96	68.623
536.30	66.863
536.64	68.228
536.98	68.081
537.32	67.778
537.66	67.748
538.01	66.103
538.35	67.357
538.69	67.608
539.03	69.037
539.37	67.786
539.71	68.048
540.05	69.484
540.39	67.298
540.73	67.395
541.07	68.363
541.42	67.336
541.76	66.370
542.10	66.586
542.44	67.844
542.78	67.153
543.12	67.640
543.46	67.582
543.80	67.686
544.14	67.983
544.48	68.853
544.82	68.282
545.16	68.456
545.50	68.065
545.84	68.524
546.18	69.198
546.52	69.045
546.86	68.239
547.20	68.766
547.54	67.915
547.88	68.113
548.22	67.135
548.56	68.403
548.90	69.970
549.24	69.179
549.58	69.968
549.92	68.941
550.26	69.903
550.60	67.900
550.94	68.887
551.28	68.977
551.62	70.081
551.96	68.350
552.30	70.873
552.64	69.384
552.98	69.931
553.32	71.768
553.66	69.711
554.00	68.916
554.34	69.755
554.68	69.400
555.02	69.514
555.36	71.072
555.69	69.058
556.03	69.546
556.37	70.463
556.71	70.767
557.05	70.032
557.39	68.945
557.73	70.343
558.07	70.265
558.41	71.694
558.75	70.859
559.08	70.703
559.42	69.684
559.76	69.607
560.10	70.462
560.44	69.525
560.78	71.000
561.12	70.690
561.45	70.499
561.79	69.048
562.13	69.994
562.47	69.297
562.81	69.810
563.15	71.212
563.48	69.981
563.82	70.254
564.16	70.563
564.50	70.322
564.84	69.617
565.17	69.882
565.51	68.930
565.85	70.309
566.19	69.931
566.52	71.036
566.86	69.666
567.20	69.114
567.54	70.207
567.88	70.133
568.21	70.306
568.55	70.216
568.89	69.768
569.23	69.244
569.56	69.285
569.90	68.175
570.24	68.432
570.57	69.179
570.91	67.881
571.25	67.602
571.59	68.745
571.92	67.884
572.26	67.628
572.60	67.568
572.93	67.381
573.27	67.828
573.61	67.311
573.95	67.128
574.28	66.340
574.62	67.826
574.96	66.806
575.29	66.799
575.63	66.944
575.97	66.874
576.30	66.494
576.64	66.977
576.98	67.175
577.31	67.017
577.65	67.128
577.98	67.131
578.32	67.237
578.66	66.265
578.99	67.336
579.33	67.763
579.67	67.112
580.00	67.229
580.34	66.558
580.67	66.571
581.01	66.897
581.35	66.452
581.68	66.708
582.02	67.003
582.35	68.119
582.69	68.012
583.02	67.931
583.36	67.509
583.70	67.598
584.03	68.107
584.37	67.490
584.70	67.262
585.04	66.984
585.37	67.256
585.71	66.796
586.04	67.812
586.38	68.384
586.72	68.188
587.05	68.585
587.39	68.761
587.72	68.445
588.06	67.529
588.39	68.459
588.73	67.540
589.06	68.369
589.40	70.344
589.73	69.762
590.07	68.501
590.40	69.439
590.73	68.894
591.07	70.104
591.40	68.818
591.74	69.118
592.07	69.752
592.41	68.257
592.74	67.874
593.08	68.121
593.41	69.612
593.75	69.052
594.08	69.312
594.41	69.840
594.75	68.250
595.08	69.078
595.42	69.123
595.75	68.905
596.09	69.434
596.42	68.578
596.75	69.433
597.09	69.212
597.42	68.971
597.75	69.267
598.09	69.087
598.42	69.883
598.76	68.131
599.09	68.850
599.42	68.723
599.76	69.495
600.09	68.569
600.42	68.202
600.76	68.923
601.09	68.271
601.42	68.692
601.76	68.966
602.09	68.585
602.42	67.939
602.76	69.557
603.09	70.411
603.42	69.545
603.76	68.182
604.09	70.014
604.42	70.275
604.76	69.330
605.09	70.124
605.42	69.338
605.75	68.692
606.09	69.728
606.42	68.442
606.75	67.841
607.09	68.510
607.42	68.902
607.75	69.558
608.08	69.298
608.42	68.239
608.75	70.647
609.08	68.676
609.41	69.078
609.75	69.464
610.08	70.756
610.41	68.904
610.74	68.361
611.07	69.405
611.41	70.090
611.74	69.792
612.07	71.014
612.40	70.913
612.73	71.345
613.07	69.976
613.40	69.779
613.73	68.994
614.06	70.363
614.39	69.388
614.72	69.675
615.06	69.682
615.39	68.391
615.72	70.664
616.05	69.645
616.38	71.241
616.71	68.704
617.05	68.530
617.38	69.395
617.71	70.842
618.04	69.563
618.37	70.820
618.70	70.758
619.03	71.804
619.36	70.838
619.69	71.813
620.03	72.881
620.36	70.552
620.69	69.525
621.02	71.325
621.35	73.875
621.68	72.234
622.01	72.313
622.34	70.711
622.67	71.959
623.00	70.715
623.33	71.334
623.66	71.790
623.99	71.889
624.32	72.320
624.65	71.622
624.99	72.822
625.32	71.522
625.65	71.477
625.98	70.780
626.31	72.785
626.64	71.136
626.97	71.493
627.30	73.349
627.63	70.368
627.96	72.072
628.29	72.685
628.62	71.704
628.95	73.357
629.28	71.878
629.61	73.401
629.94	72.469
630.26	71.102
630.59	73.575
630.92	72.987
631.25	73.435
631.58	76.083
631.91	75.258
632.24	74.063
632.57	73.055
632.90	74.624
633.23	74.898
633.56	75.000
633.89	72.211
634.22	74.844
634.55	74.948
634.88	74.784
635.20	74.812
635.53	75.819
635.86	75.623
636.19	74.125
636.52	75.105
636.85	73.442
637.18	73.389
637.51	75.376
637.83	75.637
638.16	75.461
638.49	73.357
638.82	74.070
639.15	74.685
639.48	76.674
639.81	72.979
640.13	75.147
640.46	74.061
640.79	74.755
641.12	73.416
641.45	74.906
641.77	77.535
642.10	74.016
642.43	77.527
642.76	75.474
643.09	74.247
643.41	76.611
643.74	75.862
644.07	76.414
644.40	75.106
644.73	77.068
645.05	78.120
645.38	76.259
645.71	75.073
646.04	75.466
646.36	76.496
646.69	77.761
647.02	77.523
647.35	75.115
647.67	80.032
648.00	80.414
648.33	76.577
648.66	75.464
648.98	74.286
649.31	75.913
649.64	74.900
649.96	74.403
650.29	72.045
650.62	73.692
650.94	75.826
651.27	75.299
651.60	73.099
651.92	73.708
652.25	72.214
652.58	73.728
652.90	75.581
653.23	74.366
653.56	75.321
653.88	74.579
654.21	72.676
654.54	74.277
654.86	74.504
655.19	70.514
655.52	69.034
655.84	64.591
656.17	77.471
656.49	100.042
656.82	100.008
657.15	100.000
657.47	84.997
657.80	51.756
658.13	40.641
658.45	53.599
658.78	65.325
659.10	63.349
659.43	62.717
659.75	62.181
660.08	60.448
660.41	63.524
660.73	66.705
661.06	70.631
661.38	73.684
661.71	73.793
662.03	74.780
662.36	73.703
662.68	75.235
663.01	72.920
663.33	75.614
663.66	75.458
663.98	79.038
664.31	75.797
664.63	77.071
664.96	74.773
665.28	71.143
665.61	74.825
665.93	75.893
666.26	73.297
666.58	75.461
666.91	78.318
667.23	72.952
667.56	74.753
667.88	77.000
668.21	75.000
668.53	74.903
668.86	74.263
669.18	74.745
669.50	72.366
669.83	73.000
670.15	72.244
670.48	75.992
670.80	74.761
671.13	74.291
671.45	75.197
671.77	77.778
672.10	69.833
672.42	71.036
672.75	71.582
673.07	69.851
673.39	70.108
673.72	72.987
674.04	73.103
674.37	72.630
674.69	75.132
675.01	73.524
675.34	72.901
675.66	71.161
675.98	70.709
676.31	72.461
676.63	75.285
676.95	72.797
677.28	73.790
677.60	71.654
677.92	69.674
678.25	74.771
678.57	73.132
678.89	72.014
679.22	71.254
679.54	68.205
679.86	68.644
680.18	73.798
680.51	68.553
680.83	70.213
681.15	71.034
681.48	70.812
681.80	70.121
682.12	71.678
682.44	69.282
682.77	71.454
683.09	72.159
683.41	71.899
683.73	69.450
684.06	70.664
684.38	70.125
684.70	73.609
685.02	70.052
685.34	67.887
685.67	69.401
685.99	68.712
686.31	65.262
686.63	71.722
686.96	66.877
687.28	67.427
687.60	69.360
687.92	67.524
688.24	67.613
688.56	67.931
688.89	69.147
689.21	72.994
689.53	70.392
689.85	71.203
690.17	67.778
690.49	67.331
690.82	69.109
691.14	70.040
691.46	69.790
691.78	69.429
692.10	66.972
692.42	68.393
692.74	67.695
693.06	66.481
693.39	69.450
693.71	69.549
694.03	67.472
694.35	68.000
694.67	70.637
694.99	70.213
695.31	71.523
695.63	71.861
695.95	68.116
696.27	69.231
696.59	69.912
696.91	68.018
697.23	73.187
697.56	70.672
697.88	66.098
698.20	69.115
698.52	67.614
698.84	70.894
699.16	70.816
699.48	68.410
699.80	68.723
700.12	64.847
700.44	69.124
700.76	66.746
701.08	69.976
701.40	71.503
701.72	65.423
702.04	72.193
702.36	68.325
702.68	70.660
703.00	67.237
703.32	70.936
703.64	67.726
703.96	66.110
704.28	66.093
704.60	67.089
704.91	68.622
705.23	68.219
705.55	69.916
705.87	73.030
706.19	72.699
706.51	68.072
706.83	68.876
707.15	71.429
707.47	66.355
707.79	63.755
708.11	63.983
708.43	64.516
708.74	62.277
709.06	67.285
709.38	65.493
709.70	66.998
710.02	65.633
710.34	61.968
710.66	67.877
710.98	68.852
711.29	64.560
711.61	68.644
711.93	66.382
712.25	62.973
712.57	71.386
712.89	67.941
713.20	67.456
713.52	69.364
713.84	62.117
714.16	67.632
714.48	62.887
714.80	66.494
715.11	64.829
715.43	67.905
715.75	62.632
716.07	67.680
716.39	68.579
716.70	64.157
717.02	69.508
717.34	67.247
717.66	64.430
717.97	66.438
718.29	65.636
718.61	69.737
718.93	66.343
719.24	66.460
719.56	64.724
719.88	64.565
720.20	71.935
720.51	65.839
720.83	62.813
721.15	65.132
721.46	71.918
721.78	66.333
722.10	65.372
722.42	66.107
722.73	63.548
723.05	69.825
723.37	69.097
723.68	65.950
724.00	73.646
724.32	61.972
724.63	63.636
724.95	66.312
725.27	64.460
725.58	65.371
725.90	67.241
726.22	65.517
726.53	62.338
726.85	65.094
727.16	63.142
727.48	64.526
727.80	63.576
728.11	65.018
728.43	63.636
728.74	65.552
729.06	63.245
729.38	65.909
729.69	68.121
730.01	60.714
730.32	60.000
730.64	64.151
730.96	62.733
731.27	61.453
731.59	61.538
731.90	59.221
732.22	60.156
732.53	57.182
732.85	61.429
733.16	65.982
733.48	60.976
733.80	59.331
734.11	61.823
734.43	58.649
734.74	64.557
735.06	58.291
735.37	63.514
735.69	58.649
736.00	58.475
736.32	59.299
736.63	62.500
736.95	60.345
737.26	66.970
737.58	61.818
737.89	60.882
738.21	63.609
738.52	57.705
738.83	66.553
739.15	63.121
739.46	64.966
739.78	60.123
740.09	58.166
740.41	60.058
740.72	62.000
741.04	61.489
741.35	62.807
741.66	64.314
741.98	68.033
742.29	62.762
742.61	68.421
742.92	60.769
743.23	62.455
743.55	62.791
743.86	64.400
744.18	62.397
744.49	60.338
744.80	61.317
745.12	64.557
745.43	62.602
745.74	67.241
746.06	60.169
746.37	68.776
746.68	67.886
747.00	62.500
747.31	67.811
747.62	64.615
747.94	61.538
748.25	66.265
748.56	61.224
748.88	63.675
749.19	66.810
749.50	67.965
749.82	65.060
750.13	64.057
750.44	59.000
750.75	58.462
751.07	59.077
751.38	62.145
751.69	61.022
752.01	60.194
752.32	57.190
752.63	62.925
752.94	61.246
753.26	57.249
753.57	62.963
753.88	62.172
754.19	56.913
754.51	58.199
754.82	56.592
755.13	62.623
755.44	60.410
755.75	58.553
756.07	56.418
756.38	58.805
756.69	61.145
757.00	52.632
757.31	56.284
757.63	54.476
757.94	53.286
758.25	54.628
758.56	52.941
758.87	52.500
759.18	54.933
759.50	57.507
759.81	56.022
760.12	57.951
760.43	57.812
760.74	54.926
761.05	56.500
761.36	55.422
761.67	53.807
761.99	57.568
762.30	59.451
762.61	55.446
762.92	56.716
763.23	60.300
763.54	64.388
763.85	55.670
764.16	56.229
764.47	59.507
764.78	53.994
765.10	57.185
765.41	53.077
765.72	52.116
766.03	57.627
766.34	52.665
766.65	56.098
766.96	57.769
767.27	60.369
767.58	60.697
767.89	67.308
768.20	59.155
768.51	57.870
768.82	53.815
769.13	60.606
769.44	50.769
769.75	56.679
770.06	58.077
770.37	56.693
770.68	58.723
770.99	51.417
771.30	60.741
771.61	62.738
771.92	55.556
772.23	59.514
772.54	61.574
772.85	60.829
773.16	53.810
773.47	53.439
773.78	59.459
774.09	60.795
774.39	52.500
774.70	67.213
775.01	57.927
775.32	55.294
775.63	58.896
775.94	57.325
776.25	60.000
776.56	64.744
776.87	55.782
777.18	62.759
777.48	51.049
777.79	54.730
778.10	55.147
778.41	61.806
778.72	62.759
779.03	51.235
779.34	58.788
779.65	56.995
779.95	54.444
780.26	57.386
780.57	58.065
780.88	65.942
781.19	60.000
781.50	62.941
781.80	59.140
782.11	60.847
782.42	54.040
782.73	52.096
783.04	59.777
783.34	50.909
783.65	57.516
783.96	49.689
784.27	50.595
784.57	57.616
784.88	54.286
785.19	55.118
785.50	52.756
785.81	58.647
786.11	63.846
786.42	52.518
786.73	55.396
787.04	53.383
787.34	57.377
787.65	57.600
787.96	61.940
788.26	53.147
788.57	64.336
788.88	54.605
789.19	64.052
789.49	54.795
789.80	60.993
790.11	55.118
790.41	46.094
790.72	55.932
791.03	40.777
791.33	54.783
791.64	54.386
791.95	47.321
792.25	60.000
792.56	51.786
792.87	53.125
793.17	57.143
793.48	50.000
793.79	51.807
794.09	48.624
794.40	60.550
794.70	55.102
795.01	48.052
795.32	41.781
795.62	47.183
795.93	52.273
796.23	55.738
796.54	51.786
796.85	51.064
797.15	52.174
797.46	53.425
797.76	71.250
798.07	56.522
798.37	41.237
798.68	63.636
798.99	54.023
799.29	48.315
799.60	53.191
799.90	53.012
800.21	52.308
800.51	58.209
800.82	47.059
801.12	57.534
801.43	51.471
801.73	59.322
802.04	59.091
802.34	53.333
802.65	67.797
802.95	49.254
803.26	52.542
803.56	43.836
803.87	64.286
804.17	63.014
804.48	47.368
804.78	61.111
805.09	58.621
805.39	56.757
805.70	42.254
806.00	40.244
806.30	43.373
806.61	52.055
806.91	57.692
807.22	41.111
807.52	35.632
807.83	55.556
808.13	60.241
808.43	52.809
808.74	37.500
809.04	45.588
809.35	50.667
809.65	57.143
809.95	52.055
810.26	36.842
810.56	48.276
810.86	42.647
811.17	47.368
811.47	40.984
811.77	68.889
812.08	57.627
812.38	55.000
812.69	55.172
812.99	50.943
813.29	53.846
813.59	58.000
813.90	57.895
814.20	70.909
814.50	56.338
814.81	55.128
815.11	52.459
815.41	41.791
815.72	70.690
816.02	62.500
816.32	75.556
816.62	54.545
816.93	64.444
817.23	62.963
817.53	31.915
817.84	71.429
818.14	55.882
818.44	53.061
818.74	62.222
819.04	53.846
819.35	68.571
819.65	73.077
819.95	41.509
820.25	48.889
820.56	35.714
820.86	84.375
821.16	66.667
821.46	34.884
821.76	54.000
822.07	51.786
822.37	60.870
822.67	51.064
822.97	40.541
823.27	40.000
823.57	81.633
823.88	51.111
824.18	65.000
824.48	66.667
824.78	80.000
825.08	54.545
825.38	62.222
825.69	51.064
825.99	77.778
826.29	60.000
826.59	56.410
826.89	46.512
827.19	34.000
827.49	50.000
827.79	54.167
828.09	43.243
828.39	70.000
828.70	46.341
829.00	25.581
829.30	35.714
829.60	85.294
829.90	56.522
830.20	51.429
830.50	55.172
830.80	111.111
831.10	61.538
831.40	85.294
831.70	128.571
832.00	67.742
832.30	23.529
832.60	33.333
832.90	53.846
833.20	26.316
833.50	65.000
833.80	84.211
834.10	0.000
834.40	55.556
834.70	68.750
835.00	28.571
835.30	79.412
835.60	83.333
835.90	68.000
836.20	54.545
836.50	84.000
836.80	15.152
837.10	33.333
837.40	66.667
837.70	6.250
838.00	17.857
838.30	69.565
838.60	65.517
838.90	114.286
839.19	47.826
839.49	0.000
839.79	78.261
840.09	93.750
840.39	30.000
840.69	67.742
840.99	53.571
841.29	133.333
841.59	31.579
841.88	71.795
842.18	84.615
842.48	80.000
842.78	5.000
843.08	73.333
843.38	51.613
843.68	11.111
843.97	26.471
844.27	56.250
844.57	57.895
844.87	100.000
845.17	53.333
845.47	85.714
845.76	38.095
846.06	211.111
846.36	58.824
846.66	84.615
846.96	53.333
847.25	52.941
847.55	65.217
847.85	25.000
848.15	58.824
848.44	45.455
848.74	61.905
849.04	8.333
849.34	106.250
849.63	43.478
849.93	-400.000
850.23	73.333
850.53	92.308
850.82	63.636
851.12	90.909
851.42	72.727
851.71	138.462
852.01	40.000
852.31	115.385
852.61	63.158
852.90	58.333
853.20	100.000
853.50	22.222
853.79	28.571
854.09	9.091
854.39	-16.667
854.68	58.065
854.98	50.000
855.28	77.778
855.57	32.143
855.87	36.000
856.17	86.364
856.46	59.259
856.76	55.556
857.05	17.391
857.35	37.500
857.65	15.385
857.94	23.810
858.24	77.778
858.53	100.000
858.83	47.059
859.13	35.294
859.42	100.000
859.72	107.143
860.01	90.000
860.31	100.000
860.60	0.000
860.90	86.667
861.20	44.444
861.49	100.000
861.79	60.000
862.08	61.538
862.38	28.125
862.67	52.941
862.97	62.500
863.26	88.889
863.56	100.000
863.85	27.273
864.15	38.889
864.44	233.333
864.74	142.857
865.03	37.500
865.33	100.000
865.62	35.484
865.92	40.909
866.21	43.478
866.51	-28.571
866.80	0.000
867.10	91.667
867.39	33.333
867.69	-1600.000
867.98	214.286
868.27	94.118
868.57	-400.000
868.86	10.000
869.16	47.619
869.45	37.500
869.75	136.364
870.04	114.286
870.33	50.000
870.63	0.000
870.92	0.000
871.22	-25.000
871.51	27.273
871.80	33.333
872.10	450.000
>>>>>End Processed Spectral Data<<<<<
