SpectraSuite Data File
++++++++++++++++++++++++++++++++++++
Date: Thu May 14 15:18:08 PDT 2015
User: schluterlab
Dark Spectrum Present: Yes
Reference Spectrum Present: Yes
Number of Sampled Component Spectra: 1
Spectrometers: USB2E3373
Integration Time (usec): 3000 (USB2E3373)
Spectra Averaged: 3 (USB2E3373)
Boxcar Smoothing: 0 (USB2E3373)
Correct for Electrical Dark: No (USB2E3373)
Strobe/Lamp Enabled: No (USB2E3373)
Correct for Detector Non-linearity: No (USB2E3373)
Correct for Stray Light: No (USB2E3373)
Number of Pixels in Processed Spectrum: 2048
>>>>>Begin Processed Spectral Data<<<<<
178.53	0.000
178.91	614.286
179.29	-4400.000
179.67	-4300.000
180.04	385.714
180.42	420.000
180.80	880.000
181.18	-4200.000
181.56	-4600.000
181.94	1175.000
182.31	-775.000
182.69	1166.667
183.07	-1650.000
183.45	1125.000
183.83	-700.000
184.20	-1266.667
184.58	3300.000
184.96	-1000.000
185.34	-400.000
185.72	-700.000
186.09	466.667
186.47	2100.000
186.85	1040.000
187.23	-522.222
187.61	-4500.000
187.98	920.000
188.36	1150.000
188.74	-975.000
189.12	-1233.333
189.49	-237.500
189.87	-500.000
190.25	-422.222
190.63	-720.000
191.00	-433.333
191.38	0.000
191.76	-1000.000
192.14	-500.000
192.51	1900.000
192.89	-616.667
193.27	0.000
193.65	-585.714
194.02	-4500.000
194.40	-371.429
194.78	585.714
195.15	0.000
195.53	-281.818
195.91	0.000
196.29	-975.000
196.66	-330.769
197.04	-6000.000
197.42	-757.143
197.79	-2300.000
198.17	-525.000
198.55	-671.429
198.92	-322.222
199.30	-537.500
199.68	-281.818
200.05	-257.143
200.43	-2100.000
200.81	642.857
201.18	0.000
201.56	544.444
201.94	0.000
202.31	1500.000
202.69	-477.778
203.07	4400.000
203.44	-477.778
203.82	-900.000
204.19	-275.000
204.57	-616.667
204.95	-525.000
205.32	-3400.000
205.70	1050.000
206.08	-533.333
206.45	-550.000
206.83	1080.000
207.20	-566.667
207.58	-920.000
207.96	-700.000
208.33	-666.667
208.71	358.333
209.08	-433.333
209.46	0.000
209.84	833.333
210.21	1900.000
210.59	1950.000
210.96	1500.000
211.34	-1025.000
211.71	-512.500
212.09	-4000.000
212.46	0.000
212.84	2350.000
213.22	-980.000
213.59	-1100.000
213.97	-330.000
214.34	-1100.000
214.72	800.000
215.09	-1150.000
215.47	0.000
215.84	571.429
216.22	2550.000
216.59	-800.000
216.97	-840.000
217.34	-950.000
217.72	-412.500
218.09	-1100.000
218.47	-1300.000
218.84	0.000
219.22	700.000
219.59	-200.000
219.97	-205.000
220.34	2400.000
220.72	-511.111
221.09	-269.231
221.47	-1533.333
221.84	-390.000
222.22	-642.857
222.59	0.000
222.97	-400.000
223.34	-1020.000
223.72	-4500.000
224.09	-1150.000
224.46	-1175.000
224.84	-680.000
225.21	-628.571
225.59	-1125.000
225.96	-875.000
226.34	-111.538
226.71	900.000
227.08	-2100.000
227.46	-240.000
227.83	-1050.000
228.21	-189.474
228.58	450.000
228.95	2250.000
229.33	-266.667
229.70	-350.000
230.08	-142.105
230.45	480.000
230.82	-1300.000
231.20	-278.571
231.57	-316.667
231.95	-345.455
232.32	-354.545
232.69	-195.000
233.07	-1000.000
233.44	-217.647
233.81	-450.000
234.19	-205.556
234.56	-159.091
234.93	-110.345
235.31	-178.947
235.68	-194.444
236.05	-190.000
236.43	-123.077
236.80	-128.000
237.17	-129.630
237.55	-115.152
237.92	-450.000
238.29	-129.032
238.67	-86.364
239.04	-102.778
239.41	-104.762
239.79	-80.435
240.16	-74.074
240.53	-76.087
240.91	-82.353
241.28	-59.016
241.65	-37.313
242.02	-41.892
242.40	-46.154
242.77	-42.667
243.14	-50.000
243.51	-59.211
243.89	-48.718
244.26	-25.743
244.63	-29.412
245.00	-26.168
245.38	-22.807
245.75	-45.133
246.12	-31.746
246.49	-34.109
246.87	-26.429
247.24	-14.570
247.61	-18.421
247.98	-24.832
248.36	-19.753
248.73	-22.699
249.10	-18.033
249.47	-9.453
249.84	-12.042
250.22	-22.798
250.59	-15.000
250.96	-6.818
251.33	-19.898
251.70	-12.821
252.08	-11.250
252.45	-9.836
252.82	-13.636
253.19	-10.547
253.56	-6.844
253.94	-10.769
254.31	-8.712
254.68	-5.594
255.05	-8.143
255.42	-10.884
255.79	-9.061
256.16	-8.940
256.54	-9.934
256.91	-7.541
257.28	-8.852
257.65	-11.465
258.02	-10.619
258.39	-7.692
258.76	-3.364
259.14	-2.586
259.51	-4.035
259.88	-8.215
260.25	-4.444
260.62	-6.027
260.99	-4.918
261.36	-4.558
261.73	-7.427
262.10	-7.692
262.47	-5.094
262.85	-1.768
263.22	-7.273
263.59	-8.421
263.96	-5.115
264.33	-4.604
264.70	-2.716
265.07	-2.148
265.44	-0.907
265.81	-5.787
266.18	-4.535
266.55	-4.018
266.92	-6.606
267.29	-3.282
267.66	-3.548
268.03	-1.965
268.40	-2.714
268.77	-6.606
269.14	-6.608
269.51	-3.509
269.88	-1.844
270.25	-1.006
270.62	-3.586
270.99	-1.212
271.36	-0.792
271.73	-0.393
272.10	-0.601
272.47	-2.605
272.84	-2.410
273.21	-1.804
273.58	-3.226
273.95	-3.846
274.32	-3.232
274.69	-3.288
275.06	-1.832
275.43	-2.588
275.80	-1.411
276.17	-3.148
276.54	-3.358
276.91	-3.220
277.28	-2.351
277.65	-1.077
278.02	-1.103
278.39	-1.449
278.76	-2.812
279.13	-2.128
279.50	-2.062
279.87	-0.358
280.23	-3.697
280.60	-1.356
280.97	-1.645
281.34	-2.886
281.71	-0.169
282.08	-3.488
282.45	-3.273
282.82	-2.669
283.19	-1.777
283.56	-1.967
283.92	-0.450
284.29	-0.474
284.66	-0.493
285.03	-3.846
285.40	-1.236
285.77	-2.322
286.14	-2.290
286.51	-1.065
286.87	-2.844
287.24	-1.807
287.61	-2.840
287.98	-1.360
288.35	-1.036
288.72	-2.071
289.08	-0.586
289.45	-1.627
289.82	-2.410
290.19	-0.862
290.56	0.423
290.93	-1.854
291.29	-1.928
291.66	-2.479
292.03	-1.357
292.40	-0.952
292.77	-1.213
293.13	-0.541
293.50	-1.971
293.87	-0.805
294.24	0.267
294.60	-0.253
294.97	-3.221
295.34	-0.512
295.71	-0.757
296.08	-1.292
296.44	-0.123
296.81	-0.365
297.18	0.000
297.55	-1.297
297.91	-1.186
298.28	-2.251
298.65	-1.070
299.02	-0.826
299.38	-0.343
299.75	-0.467
300.12	-1.389
300.48	-1.382
300.85	-1.237
301.22	-0.336
301.59	-0.685
301.95	0.113
302.32	0.000
302.69	-0.329
303.05	0.109
303.42	-0.111
303.79	-0.312
304.15	-0.526
304.52	-0.951
304.89	0.524
305.25	0.725
305.62	-0.940
305.99	0.825
306.35	0.706
306.72	-1.034
307.09	-1.117
307.45	0.311
307.82	-0.303
308.19	-1.009
308.55	-0.193
308.92	-0.195
309.29	1.628
309.65	0.975
310.02	0.099
310.38	-0.098
310.75	0.874
311.12	0.096
311.48	-0.391
311.85	0.190
312.22	0.000
312.58	0.376
312.95	-0.287
313.31	0.723
313.68	0.824
314.05	0.994
314.41	1.730
314.78	0.636
315.14	0.998
315.51	1.939
315.87	1.710
316.24	1.096
316.61	2.398
316.97	0.633
317.34	0.970
317.70	2.795
318.07	2.116
318.43	2.721
318.80	3.010
319.16	2.318
319.53	1.200
319.89	1.665
320.26	3.025
320.62	1.596
320.99	2.031
321.35	2.588
321.72	4.093
322.08	2.885
322.45	4.155
322.81	3.249
323.18	4.779
323.54	4.397
323.91	4.893
324.27	5.422
324.64	6.213
325.00	5.887
325.37	7.453
325.73	7.107
326.10	7.867
326.46	8.143
326.83	7.846
327.19	8.583
327.56	8.854
327.92	8.969
328.29	8.387
328.65	9.380
329.01	9.983
329.38	10.783
329.74	11.387
330.11	10.531
330.47	10.531
330.84	11.025
331.20	12.167
331.56	12.218
331.93	12.385
332.29	12.542
332.66	12.375
333.02	12.395
333.38	12.332
333.75	13.552
334.11	13.761
334.48	12.954
334.84	14.104
335.20	13.434
335.57	13.069
335.93	13.554
336.29	13.977
336.66	13.373
337.02	14.047
337.38	14.201
337.75	13.967
338.11	13.877
338.47	14.392
338.84	14.382
339.20	13.311
339.56	14.827
339.93	14.122
340.29	13.688
340.65	14.355
341.02	15.004
341.38	14.875
341.74	13.963
342.11	14.562
342.47	14.694
342.83	14.654
343.20	14.064
343.56	15.317
343.92	14.412
344.28	14.687
344.65	15.581
345.01	14.587
345.37	14.386
345.73	13.952
346.10	15.133
346.46	14.873
346.82	15.805
347.19	14.744
347.55	13.657
347.91	14.636
348.27	14.188
348.63	15.461
349.00	13.870
349.36	15.167
349.72	13.914
350.08	14.042
350.45	13.460
350.81	14.404
351.17	14.286
351.53	14.936
351.89	14.882
352.26	14.552
352.62	13.881
352.98	13.740
353.34	13.667
353.70	14.099
354.07	14.978
354.43	14.199
354.79	14.734
355.15	14.643
355.51	15.351
355.87	14.734
356.24	15.285
356.60	14.412
356.96	14.900
357.32	14.052
357.68	14.056
358.04	14.521
358.40	15.000
358.77	15.716
359.13	14.697
359.49	14.052
359.85	14.358
360.21	14.419
360.57	15.004
360.93	14.386
361.29	14.105
361.66	14.555
362.02	16.214
362.38	15.952
362.74	15.293
363.10	15.818
363.46	15.374
363.82	15.909
364.18	15.271
364.54	15.975
364.90	15.318
365.26	15.310
365.62	16.067
365.98	16.338
366.35	15.503
366.71	17.279
367.07	15.629
367.43	16.152
367.79	16.589
368.15	16.254
368.51	15.697
368.87	17.374
369.23	16.267
369.59	16.120
369.95	16.836
370.31	16.340
370.67	15.612
371.03	16.274
371.39	14.842
371.75	16.437
372.11	15.921
372.47	15.775
372.83	17.212
373.19	16.945
373.55	16.938
373.91	15.883
374.27	16.235
374.63	16.171
374.99	16.777
375.35	17.208
375.71	16.710
376.07	16.010
376.42	16.373
376.78	18.148
377.14	16.968
377.50	17.647
377.86	17.611
378.22	17.784
378.58	18.193
378.94	18.545
379.30	18.161
379.66	17.695
380.02	18.119
380.38	17.857
380.74	17.859
381.09	18.293
381.45	19.148
381.81	18.735
382.17	18.705
382.53	18.304
382.89	18.962
383.25	19.050
383.61	18.750
383.97	19.022
384.32	19.318
384.68	18.735
385.04	19.549
385.40	19.800
385.76	19.343
386.12	20.048
386.48	19.118
386.83	20.977
387.19	19.583
387.55	19.894
387.91	19.521
388.27	19.400
388.62	18.729
388.98	19.289
389.34	19.976
389.70	20.686
390.06	19.953
390.42	19.880
390.77	20.409
391.13	20.423
391.49	20.592
391.85	20.121
392.20	20.225
392.56	20.260
392.92	20.774
393.28	20.287
393.64	20.503
393.99	20.395
394.35	20.911
394.71	20.898
395.07	19.281
395.42	19.931
395.78	21.328
396.14	20.083
396.50	19.834
396.85	21.109
397.21	19.882
397.57	20.259
397.92	20.160
398.28	19.826
398.64	20.309
399.00	19.372
399.35	20.000
399.71	20.435
400.07	20.943
400.42	20.780
400.78	20.255
401.14	19.977
401.49	20.239
401.85	20.523
402.21	19.815
402.57	19.836
402.92	20.686
403.28	19.379
403.63	20.704
403.99	19.596
404.35	19.898
404.70	19.773
405.06	19.783
405.42	19.731
405.77	19.738
406.13	20.043
406.49	19.707
406.84	19.834
407.20	19.899
407.55	19.503
407.91	19.170
408.27	19.140
408.62	19.488
408.98	19.849
409.34	18.240
409.69	19.468
410.05	20.692
410.40	19.838
410.76	19.798
411.11	19.229
411.47	20.086
411.83	20.106
412.18	20.060
412.54	19.680
412.89	19.616
413.25	19.639
413.60	19.299
413.96	19.639
414.31	19.263
414.67	20.095
415.03	20.000
415.38	20.177
415.74	19.181
416.09	19.679
416.45	18.973
416.80	18.482
417.16	20.243
417.51	19.614
417.87	20.049
418.22	20.419
418.58	18.897
418.93	20.605
419.29	19.729
419.64	20.408
420.00	19.407
420.35	20.550
420.71	20.103
421.06	19.264
421.42	19.782
421.77	19.763
422.12	19.503
422.48	19.662
422.83	21.303
423.19	20.637
423.54	21.018
423.90	19.989
424.25	20.693
424.61	20.092
424.96	20.593
425.31	21.709
425.67	20.075
426.02	20.310
426.38	20.666
426.73	20.089
427.09	21.569
427.44	20.426
427.79	21.061
428.15	20.719
428.50	21.067
428.85	20.264
429.21	21.277
429.56	21.372
429.92	20.835
430.27	21.446
430.62	21.202
430.98	22.332
431.33	21.017
431.68	20.881
432.04	21.889
432.39	21.264
432.74	20.776
433.10	21.904
433.45	21.572
433.80	21.996
434.16	21.746
434.51	22.816
434.86	22.856
435.22	22.742
435.57	22.288
435.92	21.592
436.28	21.786
436.63	22.774
436.98	22.705
437.34	22.210
437.69	22.234
438.04	21.893
438.39	22.746
438.75	22.690
439.10	22.674
439.45	22.527
439.81	22.429
440.16	22.198
440.51	22.185
440.86	22.846
441.22	22.240
441.57	24.004
441.92	23.860
442.27	24.091
442.63	23.199
442.98	22.999
443.33	23.567
443.68	23.340
444.03	24.835
444.39	24.272
444.74	23.430
445.09	23.467
445.44	23.973
445.79	24.952
446.15	23.895
446.50	23.824
446.85	23.930
447.20	25.000
447.55	24.948
447.91	24.503
448.26	23.573
448.61	24.017
448.96	25.107
449.31	23.754
449.66	23.475
450.02	24.895
450.37	23.655
450.72	24.273
451.07	24.658
451.42	24.610
451.77	24.847
452.12	24.549
452.47	24.837
452.83	25.619
453.18	23.876
453.53	24.296
453.88	24.186
454.23	24.802
454.58	24.028
454.93	24.454
455.28	24.383
455.63	24.559
455.98	25.307
456.34	23.852
456.69	24.280
457.04	24.232
457.39	24.612
457.74	24.888
458.09	24.822
458.44	24.138
458.79	24.085
459.14	25.695
459.49	24.392
459.84	25.761
460.19	24.375
460.54	25.667
460.89	24.828
461.24	23.966
461.59	24.792
461.94	24.758
462.29	25.364
462.64	25.166
462.99	24.796
463.34	24.594
463.69	24.385
464.04	24.792
464.39	24.327
464.74	24.002
465.09	25.317
465.44	24.893
465.79	24.802
466.14	25.221
466.49	24.632
466.84	25.069
467.19	24.855
467.54	24.559
467.89	24.828
468.24	24.820
468.59	24.088
468.94	23.718
469.29	24.535
469.64	24.476
469.99	24.920
470.34	24.319
470.68	24.402
471.03	24.361
471.38	24.199
471.73	24.837
472.08	23.985
472.43	24.985
472.78	24.748
473.13	24.968
473.48	25.136
473.83	26.582
474.17	24.853
474.52	25.857
474.87	25.803
475.22	25.803
475.57	25.389
475.92	25.933
476.27	24.920
476.61	24.351
476.96	24.661
477.31	24.950
477.66	25.971
478.01	25.521
478.36	25.673
478.70	26.158
479.05	25.358
479.40	26.061
479.75	25.937
480.10	25.249
480.45	25.661
480.79	25.669
481.14	25.414
481.49	25.534
481.84	25.674
482.19	25.634
482.53	25.842
482.88	26.894
483.23	25.700
483.58	25.284
483.92	25.266
484.27	25.487
484.62	25.083
484.97	25.311
485.31	24.639
485.66	23.683
486.01	24.303
486.36	25.608
486.70	26.734
487.05	28.031
487.40	26.840
487.75	26.667
488.09	26.036
488.44	25.863
488.79	25.599
489.13	24.801
489.48	24.505
489.83	24.588
490.17	25.071
490.52	25.246
490.87	25.888
491.22	25.390
491.56	25.555
491.91	25.556
492.26	25.227
492.60	25.361
492.95	25.362
493.30	25.101
493.64	25.668
493.99	24.825
494.34	25.218
494.68	25.353
495.03	25.507
495.37	25.699
495.72	25.442
496.07	25.197
496.41	24.367
496.76	25.313
497.11	26.285
497.45	25.637
497.80	26.522
498.14	25.306
498.49	25.000
498.84	25.366
499.18	25.866
499.53	25.022
499.87	26.154
500.22	25.022
500.56	25.281
500.91	26.087
501.26	26.182
501.60	24.658
501.95	25.923
502.29	25.581
502.64	25.186
502.98	24.935
503.33	24.536
503.67	24.858
504.02	25.482
504.36	25.916
504.71	25.448
505.06	25.603
505.40	25.731
505.75	25.865
506.09	25.046
506.44	25.487
506.78	25.826
507.13	25.173
507.47	25.865
507.82	25.284
508.16	24.761
508.51	24.754
508.85	25.461
509.19	25.107
509.54	26.513
509.88	25.644
510.23	25.304
510.57	25.761
510.92	25.109
511.26	24.723
511.61	25.157
511.95	25.427
512.30	25.997
512.64	24.988
512.98	24.712
513.33	25.504
513.67	25.344
514.02	25.703
514.36	25.780
514.70	25.833
515.05	25.652
515.39	25.879
515.74	25.769
516.08	25.779
516.42	26.897
516.77	25.973
517.11	25.786
517.46	25.716
517.80	25.922
518.14	25.843
518.49	25.434
518.83	25.120
519.17	24.771
519.52	25.157
519.86	25.343
520.20	25.027
520.55	24.863
520.89	24.606
521.23	24.623
521.58	24.972
521.92	25.949
522.26	25.086
522.61	25.000
522.95	25.317
523.29	25.115
523.64	24.832
523.98	25.556
524.32	26.418
524.66	24.758
525.01	25.142
525.35	24.067
525.69	24.710
526.04	24.856
526.38	25.517
526.72	24.683
527.06	24.633
527.41	24.956
527.75	25.713
528.09	25.679
528.43	24.571
528.78	24.104
529.12	24.197
529.46	24.621
529.80	24.428
530.15	24.638
530.49	24.140
530.83	24.498
531.17	24.194
531.51	24.188
531.86	24.519
532.20	25.305
532.54	23.698
532.88	24.727
533.22	24.867
533.57	24.582
533.91	24.691
534.25	24.534
534.59	24.310
534.93	24.618
535.27	23.493
535.62	24.105
535.96	24.927
536.30	24.266
536.64	23.964
536.98	24.477
537.32	24.938
537.66	24.641
538.01	23.746
538.35	23.508
538.69	23.498
539.03	24.647
539.37	24.441
539.71	24.384
540.05	24.161
540.39	23.289
540.73	24.044
541.07	24.034
541.42	23.627
541.76	23.132
542.10	24.125
542.44	23.630
542.78	23.601
543.12	23.838
543.46	23.687
543.80	23.741
544.14	22.980
544.48	24.527
544.82	23.639
545.16	24.329
545.50	23.787
545.84	23.576
546.18	24.198
546.52	24.076
546.86	23.208
547.20	23.919
547.54	23.970
547.88	23.026
548.22	22.865
548.56	24.225
548.90	23.881
549.24	23.587
549.58	23.533
549.92	23.533
550.26	23.430
550.60	23.229
550.94	24.256
551.28	24.422
551.62	24.259
551.96	22.977
552.30	23.518
552.64	24.020
552.98	23.518
553.32	22.894
553.66	23.408
554.00	24.086
554.34	23.488
554.68	23.434
555.02	24.376
555.36	24.786
555.69	23.254
556.03	22.636
556.37	24.030
556.71	23.335
557.05	23.706
557.39	22.827
557.73	23.448
558.07	22.450
558.41	24.120
558.75	23.867
559.08	22.965
559.42	23.251
559.76	24.220
560.10	22.840
560.44	23.615
560.78	24.312
561.12	23.337
561.45	23.540
561.79	24.115
562.13	24.461
562.47	23.551
562.81	23.418
563.15	23.169
563.48	23.866
563.82	22.854
564.16	23.198
564.50	22.348
564.84	23.245
565.17	23.294
565.51	22.957
565.85	24.287
566.19	22.638
566.52	23.113
566.86	23.882
567.20	22.675
567.54	22.783
567.88	23.649
568.21	23.271
568.55	23.837
568.89	22.833
569.23	23.743
569.56	22.978
569.90	23.343
570.24	23.137
570.57	22.611
570.91	22.413
571.25	23.170
571.59	23.267
571.92	23.054
572.26	22.446
572.60	22.905
572.93	22.878
573.27	22.225
573.61	22.605
573.95	22.360
574.28	22.471
574.62	22.556
574.96	21.857
575.29	22.230
575.63	22.084
575.97	22.491
576.30	21.984
576.64	22.310
576.98	22.187
577.31	22.054
577.65	22.266
577.98	21.800
578.32	21.916
578.66	22.051
578.99	22.240
579.33	22.099
579.67	22.212
580.00	22.095
580.34	21.880
580.67	21.536
581.01	22.090
581.35	21.898
581.68	21.810
582.02	22.296
582.35	22.410
582.69	22.631
583.02	22.276
583.36	22.366
583.70	21.904
584.03	22.126
584.37	22.143
584.70	21.785
585.04	21.274
585.37	21.962
585.71	22.093
586.04	22.149
586.38	22.377
586.72	21.534
587.05	21.745
587.39	22.164
587.72	21.938
588.06	22.050
588.39	22.579
588.73	21.958
589.06	22.207
589.40	22.157
589.73	22.365
590.07	22.347
590.40	22.143
590.73	21.774
591.07	22.748
591.40	21.695
591.74	21.820
592.07	22.899
592.41	21.412
592.74	22.009
593.08	21.911
593.41	22.397
593.75	22.586
594.08	22.266
594.41	22.083
594.75	22.086
595.08	22.039
595.42	21.753
595.75	21.957
596.09	22.128
596.42	22.035
596.75	22.347
597.09	21.899
597.42	22.050
597.75	21.717
598.09	21.984
598.42	21.673
598.76	21.628
599.09	22.072
599.42	21.958
599.76	21.657
600.09	21.955
600.42	21.989
600.76	21.664
601.09	21.507
601.42	21.593
601.76	22.034
602.09	21.658
602.42	21.447
602.76	21.181
603.09	21.769
603.42	21.640
603.76	21.318
604.09	22.214
604.42	21.651
604.76	21.271
605.09	21.779
605.42	21.172
605.75	21.346
606.09	21.090
606.42	20.722
606.75	20.802
607.09	21.045
607.42	21.464
607.75	21.766
608.08	21.192
608.42	20.798
608.75	22.015
609.08	20.756
609.41	21.438
609.75	21.741
610.08	21.240
610.41	20.561
610.74	20.714
611.07	21.670
611.41	21.345
611.74	22.171
612.07	21.131
612.40	21.578
612.73	21.076
613.07	21.174
613.40	20.789
613.73	21.714
614.06	21.148
614.39	21.477
614.72	20.718
615.06	21.222
615.39	21.363
615.72	20.948
616.05	20.884
616.38	21.241
616.71	21.212
617.05	20.341
617.38	20.706
617.71	20.896
618.04	21.425
618.37	21.475
618.70	21.380
619.03	19.654
619.36	21.085
619.69	20.564
620.03	21.281
620.36	20.736
620.69	20.419
621.02	20.210
621.35	21.190
621.68	22.054
622.01	21.139
622.34	20.921
622.67	21.168
623.00	20.378
623.33	21.898
623.66	21.077
623.99	20.540
624.32	20.598
624.65	20.978
624.99	21.456
625.32	20.705
625.65	21.645
625.98	20.407
626.31	20.128
626.64	21.026
626.97	19.430
627.30	19.058
627.63	20.555
627.96	22.222
628.29	20.545
628.62	20.235
628.95	20.421
629.28	20.901
629.61	21.717
629.94	20.669
630.26	19.831
630.59	20.121
630.92	19.654
631.25	20.930
631.58	21.469
631.91	20.337
632.24	20.941
632.57	20.398
632.90	21.063
633.23	20.102
633.56	20.816
633.89	19.112
634.22	20.374
634.55	21.190
634.88	20.671
635.20	20.775
635.53	20.113
635.86	19.610
636.19	20.148
636.52	19.409
636.85	20.633
637.18	18.919
637.51	20.860
637.83	21.373
638.16	20.392
638.49	19.836
638.82	18.602
639.15	19.817
639.48	20.323
639.81	19.861
640.13	21.673
640.46	17.939
640.79	19.975
641.12	21.491
641.45	20.075
641.77	21.951
642.10	17.454
642.43	19.814
642.76	19.106
643.09	19.315
643.41	19.328
643.74	18.483
644.07	19.310
644.40	20.792
644.73	18.287
645.05	18.062
645.38	19.424
645.71	18.475
646.04	20.086
646.36	17.080
646.69	19.018
647.02	21.407
647.35	19.084
647.67	19.324
648.00	17.197
648.33	19.069
648.66	18.830
648.98	20.000
649.31	19.486
649.64	20.717
649.96	18.170
650.29	16.690
650.62	19.519
650.94	18.168
651.27	15.868
651.60	17.251
651.92	17.781
652.25	18.958
652.58	18.294
652.90	17.878
653.23	19.155
653.56	20.542
653.88	20.084
654.21	17.887
654.54	18.497
654.86	19.547
655.19	16.562
655.52	21.868
655.84	21.147
656.17	23.793
656.49	33.198
656.82	35.658
657.15	28.000
657.47	21.355
657.80	15.920
658.13	12.077
658.45	15.403
658.78	18.558
659.10	16.909
659.43	15.829
659.75	15.322
660.08	13.782
660.41	14.806
660.73	14.139
661.06	15.712
661.38	16.268
661.71	14.828
662.03	15.344
662.36	18.962
662.68	16.698
663.01	16.991
663.33	16.824
663.66	19.780
663.98	17.308
664.31	17.448
664.63	16.185
664.96	17.423
665.28	13.430
665.61	17.133
665.93	18.036
666.26	18.996
666.58	15.683
666.91	17.944
667.23	16.952
667.56	17.949
667.88	18.200
668.21	13.867
668.53	15.251
668.86	16.896
669.18	15.886
669.50	19.085
669.83	12.600
670.15	17.717
670.48	18.254
670.80	14.149
671.13	13.422
671.45	16.142
671.77	16.949
672.10	16.333
672.42	16.181
672.75	16.436
673.07	14.776
673.39	14.638
673.72	16.275
674.04	17.414
674.37	16.995
674.69	18.342
675.01	15.048
675.34	15.458
675.66	14.419
675.98	16.045
676.31	16.992
676.63	16.920
676.95	16.475
677.28	16.935
677.60	14.173
677.92	16.315
678.25	15.722
678.57	16.726
678.89	15.017
679.22	12.892
679.54	15.385
679.86	13.898
680.18	16.750
680.51	15.723
680.83	16.039
681.15	14.828
681.48	15.717
681.80	15.544
682.12	14.685
682.44	14.858
682.77	15.248
683.09	15.152
683.41	16.667
683.73	15.370
684.06	16.052
684.38	15.742
684.70	15.799
685.02	14.114
685.34	14.143
685.67	14.984
685.99	15.491
686.31	13.372
686.63	15.798
686.96	14.038
687.28	14.984
687.60	14.310
687.92	15.273
688.24	14.524
688.56	13.103
688.89	14.519
689.21	13.894
689.53	13.529
689.85	13.412
690.17	13.519
690.49	12.948
690.82	15.248
691.14	14.777
691.46	13.958
691.78	16.943
692.10	13.578
692.42	12.321
692.74	14.882
693.06	11.667
693.39	14.231
693.71	14.474
694.03	14.498
694.35	14.286
694.67	12.936
694.99	13.830
695.31	13.245
695.63	16.017
695.95	13.458
696.27	12.747
696.59	14.823
696.91	14.189
697.23	15.165
697.56	13.035
697.88	12.121
698.20	15.066
698.52	14.773
698.84	12.058
699.16	18.367
699.48	11.925
699.80	15.319
700.12	13.100
700.44	10.829
700.76	12.589
701.08	13.075
701.40	13.731
701.72	13.930
702.04	10.695
702.36	7.068
702.68	10.758
703.00	9.780
703.32	12.315
703.64	13.203
703.96	10.501
704.28	8.845
704.60	12.658
704.91	11.480
705.23	11.781
705.55	11.142
705.87	13.030
706.19	12.883
706.51	3.614
706.83	10.663
707.15	8.201
707.47	12.150
707.79	13.537
708.11	11.229
708.43	9.032
708.74	9.375
709.06	12.761
709.38	12.441
709.70	13.648
710.02	8.010
710.34	11.436
710.66	10.615
710.98	8.743
711.29	7.418
711.61	9.887
711.93	7.407
712.25	8.108
712.57	11.504
712.89	14.412
713.20	5.917
713.52	10.983
713.84	8.078
714.16	10.789
714.48	8.247
714.80	13.506
715.11	13.386
715.43	9.284
715.75	12.105
716.07	10.497
716.39	10.109
716.70	9.337
717.02	9.180
717.34	4.181
717.66	8.054
717.97	4.795
718.29	6.186
718.61	7.237
718.93	9.709
719.24	9.938
719.56	10.429
719.88	9.309
720.20	9.032
720.51	4.969
720.83	8.125
721.15	6.908
721.46	4.452
721.78	5.333
722.10	7.443
722.42	3.020
722.73	2.581
723.05	5.263
723.37	6.944
723.68	8.961
724.00	5.054
724.32	5.282
724.63	4.895
724.95	9.929
725.27	7.666
725.58	2.827
725.90	8.621
726.22	8.150
726.53	7.143
726.85	7.547
727.16	10.574
727.48	11.621
727.80	7.616
728.11	4.947
728.43	12.458
728.74	2.676
729.06	5.629
729.38	5.519
729.69	7.383
730.01	6.845
730.32	5.152
730.64	9.119
730.96	6.211
731.27	6.983
731.59	9.341
731.90	5.974
732.22	6.510
732.53	7.459
732.85	4.857
733.16	7.331
733.48	6.402
733.80	6.407
734.11	6.268
734.43	8.378
734.74	11.392
735.06	8.794
735.37	7.027
735.69	8.378
736.00	8.192
736.32	8.356
736.63	10.278
736.95	8.046
737.26	8.485
737.58	7.576
737.89	9.118
738.21	2.141
738.52	2.295
738.83	3.754
739.15	6.383
739.46	7.143
739.78	8.282
740.09	4.298
740.41	8.746
740.72	6.333
741.04	5.825
741.35	5.263
741.66	2.745
741.98	6.557
742.29	-2.092
742.61	4.825
742.92	5.000
743.23	7.581
743.55	0.775
743.86	2.800
744.18	0.413
744.49	-1.688
744.80	4.527
745.12	0.422
745.43	-0.813
745.74	2.586
746.06	-2.542
746.37	5.907
746.68	4.878
747.00	2.917
747.31	3.004
747.62	6.154
747.94	0.405
748.25	0.803
748.56	-1.224
748.88	-0.427
749.19	6.034
749.50	-0.433
749.82	2.811
750.13	8.185
750.44	3.333
750.75	5.538
751.07	3.077
751.38	4.732
751.69	2.236
752.01	4.207
752.32	6.536
752.63	5.782
752.94	4.152
753.26	2.602
753.57	1.481
753.88	1.124
754.19	8.682
754.51	2.894
754.82	5.145
755.13	4.918
755.44	5.461
755.75	3.289
756.07	9.851
756.38	6.289
756.69	9.639
757.00	4.432
757.31	5.464
757.63	4.859
757.94	4.930
758.25	7.223
758.56	8.279
758.87	10.455
759.18	6.667
759.50	8.215
759.81	7.283
760.12	9.973
760.43	9.375
760.74	6.650
761.05	6.750
761.36	4.096
761.67	4.822
761.99	5.135
762.30	2.744
762.61	2.640
762.92	1.493
763.23	3.371
763.54	6.835
763.85	3.436
764.16	7.744
764.47	3.521
764.78	3.514
765.10	6.158
765.41	6.154
765.72	4.497
766.03	1.977
766.34	2.821
766.65	0.348
766.96	3.984
767.27	4.147
767.58	-2.488
767.89	3.846
768.20	2.817
768.51	0.000
768.82	-2.410
769.13	0.000
769.44	-2.692
769.75	4.332
770.06	3.462
770.37	6.693
770.68	-3.830
770.99	-3.239
771.30	7.037
771.61	1.901
771.92	-0.370
772.23	3.644
772.54	-6.481
772.85	0.922
773.16	0.000
773.47	-5.820
773.78	-5.405
774.09	-2.841
774.39	6.500
774.70	-2.732
775.01	-12.195
775.32	-6.471
775.63	-3.681
775.94	-12.102
776.25	-3.871
776.56	-4.487
776.87	-2.721
777.18	-8.276
777.48	-5.594
777.79	-7.432
778.10	-13.971
778.41	-11.111
778.72	-3.448
779.03	-6.173
779.34	-9.697
779.65	-5.181
779.95	-8.889
780.26	-9.659
780.57	-2.581
780.88	-2.899
781.19	-9.032
781.50	0.000
781.80	3.226
782.11	-6.349
782.42	-13.131
782.73	-7.186
783.04	-7.263
783.34	-10.909
783.65	-9.804
783.96	-5.590
784.27	-8.333
784.57	-8.609
784.88	-12.143
785.19	-16.535
785.50	-10.236
785.81	-11.278
786.11	-13.077
786.42	-15.108
786.73	-22.302
787.04	-8.271
787.34	-16.393
787.65	-15.200
787.96	-5.970
788.26	-7.692
788.57	-8.392
788.88	-19.079
789.19	-11.111
789.49	-15.753
789.80	-12.766
790.11	-11.024
790.41	-14.062
790.72	-17.797
791.03	-36.893
791.33	-14.783
791.64	-11.404
791.95	-17.857
792.25	-29.524
792.56	-12.500
792.87	-33.333
793.17	-12.500
793.48	-33.333
793.79	-51.807
794.09	-23.853
794.40	-16.514
794.70	-6.803
795.01	-14.286
795.32	-10.959
795.62	-16.901
795.93	-14.394
796.23	-13.934
796.54	-24.107
796.85	-36.170
797.15	-33.696
797.46	-39.726
797.76	-38.750
798.07	-23.913
798.37	-32.990
798.68	-37.662
798.99	-24.138
799.29	-23.596
799.60	-17.021
799.90	-32.530
800.21	-41.538
800.51	-52.239
800.82	-51.471
801.12	-46.575
801.43	-55.882
801.73	-55.932
802.04	-39.394
802.34	-50.000
802.65	-40.678
802.95	-32.836
803.26	-54.237
803.56	-38.356
803.87	-38.571
804.17	-45.205
804.48	-87.719
804.78	-30.556
805.09	-77.586
805.39	-31.081
805.70	-47.887
806.00	-29.268
806.30	-32.530
806.61	-34.247
806.91	-20.192
807.22	-32.222
807.52	-45.977
807.83	-23.611
808.13	-24.096
808.43	-30.337
808.74	-41.250
809.04	-54.412
809.35	-34.667
809.65	-30.000
809.95	-19.178
810.26	-73.684
810.56	-63.793
810.86	-42.647
811.17	-57.895
811.47	-63.934
811.77	-97.778
812.08	-57.627
812.38	-45.000
812.69	-56.897
812.99	-73.585
813.29	-112.821
813.59	-60.000
813.90	-40.351
814.20	-72.727
814.50	-28.169
814.81	-39.744
815.11	-36.066
815.41	-41.791
815.72	-43.103
816.02	-57.143
816.32	-66.667
816.62	-90.909
816.93	-66.667
817.23	-46.296
817.53	-68.085
817.84	-69.048
818.14	-94.118
818.44	-55.102
818.74	-55.556
819.04	-97.436
819.35	-125.714
819.65	-157.692
819.95	-47.170
820.25	-75.556
820.56	-83.333
820.86	-106.250
821.16	-94.872
821.46	-86.047
821.76	-72.000
822.07	-50.000
822.37	-63.043
822.67	-76.596
822.97	-110.811
823.27	-100.000
823.57	-59.184
823.88	-44.444
824.18	-65.000
824.48	-143.333
824.78	-140.000
825.08	-87.879
825.38	-60.000
825.69	-65.957
825.99	-108.333
826.29	-114.286
826.59	-92.308
826.89	-111.628
827.19	-76.000
827.49	-120.588
827.79	-62.500
828.09	-94.595
828.39	-120.000
828.70	-92.683
829.00	-69.767
829.30	-146.429
829.60	-79.412
829.90	-69.565
830.20	-94.286
830.50	-151.724
830.80	-183.333
831.10	-123.077
831.40	-88.235
831.70	-180.952
832.00	-80.645
832.30	-270.588
832.60	-175.000
832.90	-269.231
833.20	-215.789
833.50	-195.000
833.80	-173.684
834.10	-238.095
834.40	-83.333
834.70	-78.125
835.00	-120.000
835.30	-108.824
835.60	-110.000
835.90	-176.000
836.20	-240.909
836.50	-144.000
836.80	-127.273
837.10	-129.630
837.40	-125.926
837.70	-281.250
838.00	-89.286
838.30	-152.174
838.60	-65.517
838.90	-257.143
839.19	-204.348
839.49	-391.667
839.79	-169.565
840.09	-275.000
840.39	-180.000
840.69	-74.194
840.99	-178.571
841.29	-306.667
841.59	-210.526
841.88	-66.667
842.18	-169.231
842.48	-540.000
842.78	-225.000
843.08	-123.333
843.38	-122.581
843.68	-238.889
843.97	-102.941
844.27	-231.250
844.57	-221.053
844.87	-550.000
845.17	-246.667
845.47	-133.333
845.76	-147.619
846.06	-488.889
846.36	-300.000
846.66	-111.538
846.96	-266.667
847.25	-235.294
847.55	-160.870
847.85	-190.000
848.15	-182.353
848.44	-381.818
848.74	-166.667
849.04	-158.333
849.34	-231.250
849.63	-139.130
849.93	2400.000
850.23	-180.000
850.53	-123.077
850.82	-309.091
851.12	-118.182
851.42	-409.091
851.71	-276.923
852.01	-245.000
852.31	-346.154
852.61	-226.316
852.90	-358.333
853.20	-205.556
853.50	-500.000
853.79	-204.762
854.09	-159.091
854.39	-358.333
854.68	-125.806
854.98	-150.000
855.28	-177.778
855.57	-117.857
855.87	-136.000
856.17	-136.364
856.46	-114.815
856.76	-216.667
857.05	-165.217
857.35	-183.333
857.65	-323.077
857.94	-171.429
858.24	-125.926
858.53	-182.609
858.83	-205.882
859.13	-235.294
859.42	-235.294
859.72	-250.000
860.01	-170.000
860.31	-488.889
860.60	-420.000
860.90	-233.333
861.20	-205.556
861.49	-261.538
861.79	-130.000
862.08	-292.308
862.38	-87.500
862.67	-205.882
862.97	-231.250
863.26	-500.000
863.56	-390.000
863.85	-354.545
864.15	-227.778
864.44	-1400.000
864.74	-214.286
865.03	-231.250
865.33	-520.000
865.62	-141.935
865.92	-136.364
866.21	-113.043
866.51	-242.857
866.80	-840.000
867.10	-316.667
867.39	-400.000
867.69	4800.000
867.98	-571.429
868.27	-229.412
868.57	-4600.000
868.86	-460.000
869.16	-166.667
869.45	-158.333
869.75	-336.364
870.04	-600.000
870.33	-308.333
870.63	-742.857
870.92	-1050.000
871.22	-587.500
871.51	-436.364
871.80	-1566.667
872.10	-2200.000
>>>>>End Processed Spectral Data<<<<<
