SpectraSuite Data File
++++++++++++++++++++++++++++++++++++
Date: Thu May 14 15:16:13 PDT 2015
User: schluterlab
Dark Spectrum Present: Yes
Reference Spectrum Present: Yes
Number of Sampled Component Spectra: 1
Spectrometers: USB2E3373
Integration Time (usec): 3000 (USB2E3373)
Spectra Averaged: 3 (USB2E3373)
Boxcar Smoothing: 0 (USB2E3373)
Correct for Electrical Dark: No (USB2E3373)
Strobe/Lamp Enabled: No (USB2E3373)
Correct for Detector Non-linearity: No (USB2E3373)
Correct for Stray Light: No (USB2E3373)
Number of Pixels in Processed Spectrum: 2048
>>>>>Begin Processed Spectral Data<<<<<
178.53	0.000
178.91	571.429
179.29	-5400.000
179.67	-4500.000
180.04	450.000
180.42	440.000
180.80	840.000
181.18	-3700.000
181.56	-3200.000
181.94	975.000
182.31	-1150.000
182.69	1433.333
183.07	-2100.000
183.45	1075.000
183.83	-666.667
184.20	-1066.667
184.58	3600.000
184.96	-950.000
185.34	-433.333
185.72	-620.000
186.09	511.111
186.47	2350.000
186.85	980.000
187.23	-555.556
187.61	-4400.000
187.98	880.000
188.36	975.000
188.74	-875.000
189.12	-1400.000
189.49	-218.750
189.87	-425.000
190.25	-300.000
190.63	-660.000
191.00	-466.667
191.38	0.000
191.76	-1175.000
192.14	-583.333
192.51	2200.000
192.89	-633.333
193.27	0.000
193.65	-471.429
194.02	-4800.000
194.40	-471.429
194.78	585.714
195.15	0.000
195.53	-354.545
195.91	0.000
196.29	-800.000
196.66	-246.154
197.04	-3700.000
197.42	-571.429
197.79	-2250.000
198.17	-525.000
198.55	-557.143
198.92	-377.778
199.30	-537.500
199.68	-272.727
200.05	-135.714
200.43	-2250.000
200.81	657.143
201.18	0.000
201.56	522.222
201.94	0.000
202.31	1266.667
202.69	-522.222
203.07	3300.000
203.44	-477.778
203.82	-1175.000
204.19	-425.000
204.57	-850.000
204.95	-487.500
205.32	-4300.000
205.70	950.000
206.08	-700.000
206.45	-683.333
206.83	920.000
207.20	-666.667
207.58	-1040.000
207.96	-800.000
208.33	-616.667
208.71	383.333
209.08	-650.000
209.46	0.000
209.84	700.000
210.21	1800.000
210.59	1650.000
210.96	1300.000
211.34	-900.000
211.71	-400.000
212.09	-4200.000
212.46	0.000
212.84	2500.000
213.22	-840.000
213.59	-750.000
213.97	-360.000
214.34	-1433.333
214.72	733.333
215.09	-975.000
215.47	0.000
215.84	685.714
216.22	2350.000
216.59	-780.000
216.97	-800.000
217.34	-1075.000
217.72	-425.000
218.09	-900.000
218.47	-1125.000
218.84	0.000
219.22	780.000
219.59	-211.765
219.97	-165.000
220.34	2350.000
220.72	-477.778
221.09	-276.923
221.47	-1133.333
221.84	-380.000
222.22	-600.000
222.59	0.000
222.97	-425.000
223.34	-960.000
223.72	-4600.000
224.09	-825.000
224.46	-1025.000
224.84	-740.000
225.21	-685.714
225.59	-1125.000
225.96	-950.000
226.34	-107.692
226.71	666.667
227.08	-2250.000
227.46	-220.000
227.83	-1050.000
228.21	-200.000
228.58	425.000
228.95	2200.000
229.33	-300.000
229.70	-410.000
230.08	-121.053
230.45	460.000
230.82	-1333.333
231.20	-292.857
231.57	-308.333
231.95	-336.364
232.32	-336.364
232.69	-115.000
233.07	-950.000
233.44	-194.118
233.81	-380.000
234.19	-161.111
234.56	-150.000
234.93	-117.241
235.31	-184.211
235.68	-194.444
236.05	-205.000
236.43	-73.077
236.80	-80.000
237.17	-122.222
237.55	-87.879
237.92	-390.000
238.29	-103.226
238.67	-59.091
239.04	-63.889
239.41	-76.190
239.79	-50.000
240.16	-48.148
240.53	-63.043
240.91	-56.863
241.28	-27.869
241.65	-1.493
242.02	-14.865
242.40	-36.923
242.77	-18.667
243.14	-18.293
243.51	-30.263
243.89	-7.692
244.26	1.980
244.63	1.961
245.00	-7.477
245.38	-8.772
245.75	-10.619
246.12	1.587
246.49	0.000
246.87	9.286
247.24	5.960
247.61	8.553
247.98	6.711
248.36	11.728
248.73	6.748
249.10	12.022
249.47	17.910
249.84	21.466
250.22	14.508
250.59	11.667
250.96	17.727
251.33	15.816
251.70	13.675
252.08	15.833
252.45	24.180
252.82	19.008
253.19	15.625
253.56	19.392
253.94	19.615
254.31	23.106
254.68	22.727
255.05	24.756
255.42	19.728
255.79	22.330
256.16	28.477
256.54	24.834
256.91	24.918
257.28	20.984
257.65	22.293
258.02	19.469
258.39	24.786
258.76	25.994
259.14	27.586
259.51	26.801
259.88	24.646
260.25	27.222
260.62	26.027
260.99	26.230
261.36	23.861
261.73	26.260
262.10	25.824
262.47	25.737
262.85	28.535
263.22	28.312
263.59	21.579
263.96	27.110
264.33	24.041
264.70	28.395
265.07	30.310
265.44	28.571
265.81	26.389
266.18	30.612
266.55	27.009
266.92	27.790
267.29	27.352
267.66	29.268
268.03	29.039
268.40	26.305
268.77	27.335
269.14	27.533
269.51	27.412
269.88	27.254
270.25	29.980
270.62	27.637
270.99	28.081
271.36	27.525
271.73	28.487
272.10	29.860
272.47	27.054
272.84	29.116
273.21	28.657
273.58	27.823
273.95	29.038
274.32	28.137
274.69	26.112
275.06	29.304
275.43	24.954
275.80	27.690
276.17	25.370
276.54	29.104
276.91	28.444
277.28	26.763
277.65	28.725
278.02	29.044
278.39	26.087
278.76	28.998
279.13	28.191
279.50	28.866
279.87	28.623
280.23	26.056
280.60	28.136
280.97	29.276
281.34	28.183
281.71	30.118
282.08	28.073
282.45	27.005
282.82	27.943
283.19	26.333
283.56	26.230
283.92	27.628
284.29	27.014
284.66	27.915
285.03	25.321
285.40	27.821
285.77	26.316
286.14	29.160
286.51	26.941
286.87	26.382
287.24	27.861
287.61	27.504
287.98	26.435
288.35	26.331
288.72	26.183
289.08	27.233
289.45	24.852
289.82	27.711
290.19	24.569
290.56	26.620
290.93	25.392
291.29	24.242
291.66	25.482
292.03	23.066
292.40	26.803
292.77	24.394
293.13	25.981
293.50	22.470
293.87	23.893
294.24	23.467
294.60	22.756
294.97	20.805
295.34	23.688
295.71	22.699
296.08	24.160
296.44	21.446
296.81	21.924
297.18	22.914
297.55	22.524
297.91	21.827
298.28	19.550
298.65	22.949
299.02	20.779
299.38	22.654
299.75	21.846
300.12	21.875
300.48	21.429
300.85	22.047
301.22	21.365
301.59	21.575
301.95	21.582
302.32	20.889
302.69	21.139
303.05	21.872
303.42	20.621
303.79	21.875
304.15	20.189
304.52	21.036
304.89	20.209
305.25	20.186
305.62	20.167
305.99	21.340
306.35	20.363
306.72	21.510
307.09	19.086
307.45	21.118
307.82	21.998
308.19	19.475
308.55	20.829
308.92	19.961
309.29	19.923
309.65	19.786
310.02	20.495
310.38	19.685
310.75	20.000
311.12	20.901
311.48	20.332
311.85	19.563
312.22	19.734
312.58	19.437
312.95	18.929
313.31	20.325
313.68	20.696
314.05	19.603
314.41	19.763
314.78	19.709
315.14	21.779
315.51	20.406
315.87	19.622
316.24	20.822
316.61	21.226
316.97	19.729
317.34	19.577
317.70	20.437
318.07	20.282
318.43	20.493
318.80	21.488
319.16	19.399
319.53	17.909
319.89	18.755
320.26	20.730
320.62	19.149
320.99	20.591
321.35	19.686
321.72	20.744
322.08	19.387
322.45	20.506
322.81	21.390
323.18	19.292
323.54	19.828
323.91	20.819
324.27	19.191
324.64	20.067
325.00	20.481
325.37	20.066
325.73	21.157
326.10	21.249
326.46	21.498
326.83	21.057
327.19	20.394
327.56	20.474
327.92	21.086
328.29	19.113
328.65	19.765
329.01	21.151
329.38	21.061
329.74	20.890
330.11	20.634
330.47	20.977
330.84	19.121
331.20	21.167
331.56	21.144
331.93	20.669
332.29	20.593
332.66	20.515
333.02	19.347
333.38	19.715
333.75	20.034
334.11	20.767
334.48	20.050
334.84	21.071
335.20	19.731
335.57	20.405
335.93	20.083
336.29	19.052
336.66	18.923
337.02	19.649
337.38	19.728
337.75	19.917
338.11	20.774
338.47	20.265
338.84	19.120
339.20	19.040
339.56	20.099
339.93	19.212
340.29	20.129
340.65	20.114
341.02	20.431
341.38	20.695
341.74	19.613
342.11	20.113
342.47	18.110
342.83	20.370
343.20	20.442
343.56	19.006
343.92	18.975
344.28	19.219
344.65	20.078
345.01	19.891
345.37	19.907
345.73	17.615
346.10	18.487
346.46	19.304
346.82	19.026
347.19	20.244
347.55	19.044
347.91	19.837
348.27	19.499
348.63	20.259
349.00	18.867
349.36	19.703
349.72	18.750
350.08	19.094
350.45	18.783
350.81	18.627
351.17	19.098
351.53	19.105
351.89	19.210
352.26	19.030
352.62	18.881
352.98	19.313
353.34	18.596
353.70	19.414
354.07	19.374
354.43	17.464
354.79	19.596
355.15	18.985
355.51	18.787
355.87	19.671
356.24	18.099
356.60	18.625
356.96	18.013
357.32	19.108
357.68	18.960
358.04	19.461
358.40	18.806
358.77	18.640
359.13	18.464
359.49	18.216
359.85	19.072
360.21	18.867
360.57	18.019
360.93	17.630
361.29	19.789
361.66	18.320
362.02	19.137
362.38	18.763
362.74	18.156
363.10	18.226
363.46	18.352
363.82	17.969
364.18	17.452
364.54	19.018
364.90	18.863
365.26	17.241
365.62	18.933
365.98	18.380
366.35	19.060
366.71	19.796
367.07	19.012
367.43	19.370
367.79	19.509
368.15	18.863
368.51	19.486
368.87	18.811
369.23	19.200
369.59	17.964
369.95	18.999
370.31	19.514
370.67	18.913
371.03	18.767
371.39	17.797
371.75	17.607
372.11	19.106
372.47	17.942
372.83	18.979
373.19	19.079
373.55	18.360
373.91	18.200
374.27	18.241
374.63	18.539
374.99	19.032
375.35	19.740
375.71	18.774
376.07	17.560
376.42	18.703
376.78	19.142
377.14	19.089
377.50	19.292
377.86	19.520
378.22	18.743
378.58	19.441
378.94	17.899
379.30	18.512
379.66	19.283
380.02	19.042
380.38	20.161
380.74	18.761
381.09	18.815
381.45	18.636
381.81	19.496
382.17	18.884
382.53	19.181
382.89	18.454
383.25	19.461
383.61	18.345
383.97	18.021
384.32	19.438
384.68	18.619
385.04	19.375
385.40	20.153
385.76	19.988
386.12	19.150
386.48	19.824
386.83	19.905
387.19	19.003
387.55	18.955
387.91	19.064
388.27	19.457
388.62	19.244
388.98	18.556
389.34	20.035
389.70	18.826
390.06	18.117
390.42	19.217
390.77	20.108
391.13	19.366
391.49	19.263
391.85	19.091
392.20	20.403
392.56	19.315
392.92	20.120
393.28	20.066
393.64	19.553
393.99	19.930
394.35	19.977
394.71	19.281
395.07	19.641
395.42	19.018
395.78	19.622
396.14	19.846
396.50	19.359
396.85	19.738
397.21	19.645
397.57	19.906
397.92	20.218
398.28	19.011
398.64	19.050
399.00	19.319
399.35	19.791
399.71	19.891
400.07	20.382
400.42	20.023
400.78	20.718
401.14	20.148
401.49	20.580
401.85	19.884
402.21	19.699
402.57	20.070
402.92	19.326
403.28	19.496
403.63	19.570
403.99	20.131
404.35	19.443
404.70	19.830
405.06	19.674
405.42	18.618
405.77	20.229
406.13	19.881
406.49	20.327
406.84	19.945
407.20	19.843
407.55	19.685
407.91	19.296
408.27	20.024
408.62	20.593
408.98	19.791
409.34	18.416
409.69	19.592
410.05	20.223
410.40	20.360
410.76	19.462
411.11	20.339
411.47	19.595
411.83	20.400
412.18	21.145
412.54	20.391
412.89	19.558
413.25	20.090
413.60	19.931
413.96	20.338
414.31	20.000
414.67	20.274
415.03	20.000
415.38	20.681
415.74	19.609
416.09	20.111
416.45	18.222
416.80	19.339
417.16	20.179
417.51	20.112
417.87	20.172
418.22	19.820
418.58	18.587
418.93	20.722
419.29	19.852
419.64	19.808
420.00	18.754
420.35	19.427
420.71	19.357
421.06	20.184
421.42	19.553
421.77	19.440
422.12	19.715
422.48	20.430
422.83	21.030
423.19	19.469
423.54	20.796
423.90	19.658
424.25	19.947
424.61	18.944
424.96	19.714
425.31	19.851
425.67	19.646
426.02	20.863
426.38	20.207
426.73	19.141
427.09	20.934
427.44	19.115
427.79	19.514
428.15	19.521
428.50	19.551
428.85	19.690
429.21	19.521
429.56	19.348
429.92	20.049
430.27	20.096
430.62	19.590
430.98	20.364
431.33	19.941
431.68	20.546
432.04	20.620
432.39	19.657
432.74	20.320
433.10	20.173
433.45	19.287
433.80	20.172
434.16	19.267
434.51	19.784
434.86	20.684
435.22	20.776
435.57	20.460
435.92	19.143
436.28	18.771
436.63	20.153
436.98	19.431
437.34	20.180
437.69	19.318
438.04	19.408
438.39	19.874
438.75	19.314
439.10	20.930
439.45	19.955
439.81	19.322
440.16	19.786
440.51	18.673
440.86	20.122
441.22	19.346
441.57	19.602
441.92	19.738
442.27	21.061
442.63	20.169
442.98	20.811
443.33	20.358
443.68	20.119
444.03	20.790
444.39	19.972
444.74	20.470
445.09	19.868
445.44	20.548
445.79	20.833
446.15	20.349
446.50	19.070
446.85	20.525
447.20	20.068
447.55	20.450
447.91	19.005
448.26	20.243
448.61	19.341
448.96	19.957
449.31	19.565
449.66	19.118
450.02	19.462
450.37	20.884
450.72	19.806
451.07	19.761
451.42	20.046
451.77	19.733
452.12	20.542
452.47	19.608
452.83	19.820
453.18	18.681
453.53	19.931
453.88	18.940
454.23	19.831
454.58	20.081
454.93	19.053
455.28	19.145
455.63	19.955
455.98	20.782
456.34	19.729
456.69	20.400
457.04	19.326
457.39	19.235
457.74	19.743
458.09	19.330
458.44	19.666
458.79	19.649
459.14	20.031
459.49	19.921
459.84	20.094
460.19	18.601
460.54	20.613
460.89	18.899
461.24	19.195
461.59	19.812
461.94	19.053
462.29	20.213
462.64	18.467
462.99	18.832
463.34	19.533
463.69	19.402
464.04	20.567
464.39	19.451
464.74	19.327
465.09	19.089
465.44	20.118
465.79	20.254
466.14	20.115
466.49	19.684
466.84	20.441
467.19	19.711
467.54	18.801
467.89	18.333
468.24	20.000
468.59	18.819
468.94	18.881
469.29	18.776
469.64	19.644
469.99	18.802
470.34	18.750
470.68	18.660
471.03	19.843
471.38	18.770
471.73	19.051
472.08	18.338
472.43	19.025
472.78	19.395
473.13	19.785
473.48	19.094
473.83	19.153
474.17	19.695
474.52	19.663
474.87	19.878
475.22	19.549
475.57	19.782
475.92	20.010
476.27	20.021
476.61	19.418
476.96	19.030
477.31	19.950
477.66	20.147
478.01	19.522
478.36	19.840
478.70	19.803
479.05	20.706
479.40	19.102
479.75	20.557
480.10	19.943
480.45	19.508
480.79	20.136
481.14	20.037
481.49	19.718
481.84	19.974
482.19	19.957
482.53	20.376
482.88	20.204
483.23	20.231
483.58	18.952
483.92	18.661
484.27	19.052
484.62	19.596
484.97	19.673
485.31	19.289
485.66	18.742
486.01	19.649
486.36	20.618
486.70	22.511
487.05	22.781
487.40	22.104
487.75	21.450
488.09	20.428
488.44	19.883
488.79	19.224
489.13	19.768
489.48	18.718
489.83	19.517
490.17	19.563
490.52	19.499
490.87	19.966
491.22	19.541
491.56	19.454
491.91	19.756
492.26	19.342
492.60	19.633
492.95	19.789
493.30	19.812
493.64	19.141
493.99	18.991
494.34	18.598
494.68	19.315
495.03	19.692
495.37	19.618
495.72	19.274
496.07	20.158
496.41	19.091
496.76	20.434
497.11	19.406
497.45	19.767
497.80	19.502
498.14	19.773
498.49	19.485
498.84	19.561
499.18	19.928
499.53	19.641
499.87	19.736
500.22	19.056
500.56	19.928
500.91	19.542
501.26	20.682
501.60	19.046
501.95	19.453
502.29	20.448
502.64	20.332
502.98	19.931
503.33	19.352
503.67	19.451
504.02	19.746
504.36	20.286
504.71	19.384
505.06	19.418
505.40	20.064
505.75	19.718
506.09	19.475
506.44	19.313
506.78	20.046
507.13	19.733
507.47	20.038
507.82	19.602
508.16	19.407
508.51	19.831
508.85	19.934
509.19	19.754
509.54	20.461
509.88	19.378
510.23	19.961
510.57	20.638
510.92	20.174
511.26	19.336
511.61	19.169
511.95	19.766
512.30	19.793
512.64	19.890
512.98	19.360
513.33	19.909
513.67	19.378
514.02	19.469
514.36	20.205
514.70	19.635
515.05	19.917
515.39	19.633
515.74	20.414
516.08	19.546
516.42	20.408
516.77	20.347
517.11	19.649
517.46	19.406
517.80	20.096
518.14	19.913
518.49	19.523
518.83	19.745
519.17	18.955
519.52	19.602
519.86	20.011
520.20	20.128
520.55	20.318
520.89	19.144
521.23	19.654
521.58	20.339
521.92	20.283
522.26	19.931
522.61	19.502
522.95	20.127
523.29	19.310
523.64	19.843
523.98	20.650
524.32	20.516
524.66	20.034
525.01	19.309
525.35	19.874
525.69	20.012
526.04	19.747
526.38	19.310
526.72	20.185
527.06	19.883
527.41	19.650
527.75	19.774
528.09	20.012
528.43	19.597
528.78	18.960
529.12	19.725
529.46	19.449
529.80	20.023
530.15	20.116
530.49	19.217
530.83	19.540
531.17	19.654
531.51	19.976
531.86	19.832
532.20	20.000
532.54	19.090
532.88	20.182
533.22	19.859
533.57	19.677
533.91	20.202
534.25	20.237
534.59	19.770
534.93	20.091
535.27	19.549
535.62	20.296
535.96	20.046
536.30	19.918
536.64	20.120
536.98	20.849
537.32	19.938
537.66	19.963
538.01	20.302
538.35	20.341
538.69	18.990
539.03	20.785
539.37	19.670
539.71	19.520
540.05	19.964
540.39	19.071
540.73	19.004
541.07	19.926
541.42	19.256
541.76	19.098
542.10	19.602
542.44	19.123
542.78	20.316
543.12	20.262
543.46	20.330
543.80	18.585
544.14	20.168
544.48	21.040
544.82	20.048
545.16	20.155
545.50	18.814
545.84	20.637
546.18	19.938
546.52	19.299
546.86	20.000
547.20	19.911
547.54	19.975
547.88	19.168
548.22	19.240
548.56	20.538
548.90	20.537
549.24	19.149
549.58	20.126
549.92	19.770
550.26	20.129
550.60	19.719
550.94	19.340
551.28	20.396
551.62	19.609
551.96	19.029
552.30	19.503
552.64	20.286
552.98	18.902
553.32	20.579
553.66	20.386
554.00	19.546
554.34	19.562
554.68	19.819
555.02	19.580
555.36	20.118
555.69	18.386
556.03	20.050
556.37	20.275
556.71	20.038
557.05	20.575
557.39	19.575
557.73	19.353
558.07	19.669
558.41	20.465
558.75	19.878
559.08	19.485
559.42	19.273
559.76	19.267
560.10	19.357
560.44	19.657
560.78	19.625
561.12	19.828
561.45	19.891
561.79	20.879
562.13	20.333
562.47	19.051
562.81	19.873
563.15	19.760
563.48	20.012
563.82	19.528
564.16	19.079
564.50	20.501
564.84	20.177
565.17	20.176
565.51	19.448
565.85	19.715
566.19	19.585
566.52	19.895
566.86	20.430
567.20	20.392
567.54	19.915
567.88	20.438
568.21	19.960
568.55	20.767
568.89	20.881
569.23	20.279
569.56	20.516
569.90	21.133
570.24	21.484
570.57	22.065
570.91	21.096
571.25	21.522
571.59	21.264
571.92	21.162
572.26	21.652
572.60	21.977
572.93	21.180
573.27	21.354
573.61	21.175
573.95	21.559
574.28	21.374
574.62	21.623
574.96	21.791
575.29	21.591
575.63	21.460
575.97	21.078
576.30	21.021
576.64	21.403
576.98	21.321
577.31	21.463
577.65	21.709
577.98	21.574
578.32	21.493
578.66	21.674
578.99	21.667
579.33	21.610
579.67	21.215
580.00	20.949
580.34	21.291
580.67	20.786
581.01	20.965
581.35	21.625
581.68	21.668
582.02	22.264
582.35	22.378
582.69	22.032
583.02	22.220
583.36	21.709
583.70	21.518
584.03	21.190
584.37	20.884
584.70	21.002
585.04	20.856
585.37	20.681
585.71	21.510
586.04	21.907
586.38	21.309
586.72	21.158
587.05	20.645
587.39	21.167
587.72	21.435
588.06	21.494
588.39	21.583
588.73	20.899
589.06	21.050
589.40	21.543
589.73	20.951
590.07	20.889
590.40	21.062
590.73	20.573
591.07	20.514
591.40	20.412
591.74	19.913
592.07	20.300
592.41	20.584
592.74	20.305
593.08	21.274
593.41	21.172
593.75	21.609
594.08	21.387
594.41	21.538
594.75	20.923
595.08	20.390
595.42	20.260
595.75	20.536
596.09	20.976
596.42	20.745
596.75	21.073
597.09	21.131
597.42	20.660
597.75	20.110
598.09	20.635
598.42	20.667
598.76	19.870
599.09	19.936
599.42	19.846
599.76	20.766
600.09	21.288
600.42	20.954
600.76	20.707
601.09	20.345
601.42	20.597
601.76	20.724
602.09	21.051
602.42	20.211
602.76	20.996
603.09	20.374
603.42	20.918
603.76	20.719
604.09	21.079
604.42	20.514
604.76	20.396
605.09	20.263
605.42	20.614
605.75	20.154
606.09	20.007
606.42	19.993
606.75	20.390
607.09	19.816
607.42	20.077
607.75	20.477
608.08	20.126
608.42	20.073
608.75	20.564
609.08	19.907
609.41	20.026
609.75	20.089
610.08	20.536
610.41	19.626
610.74	20.126
611.07	19.805
611.41	20.628
611.74	20.323
612.07	20.290
612.40	19.629
612.73	20.049
613.07	19.707
613.40	19.538
613.73	19.836
614.06	20.265
614.39	19.339
614.72	19.990
615.06	19.297
615.39	19.333
615.72	19.668
616.05	19.427
616.38	20.383
616.71	18.913
617.05	19.649
617.38	19.690
617.71	19.708
618.04	19.266
618.37	19.672
618.70	19.457
619.03	18.638
619.36	19.482
619.69	18.962
620.03	19.648
620.36	18.650
620.69	19.062
621.02	18.504
621.35	18.433
621.68	18.366
622.01	18.648
622.34	18.619
622.67	18.213
623.00	18.286
623.33	18.912
623.66	18.872
623.99	18.762
624.32	20.533
624.65	19.176
624.99	18.401
625.32	18.877
625.65	19.150
625.98	17.763
626.31	18.498
626.64	18.315
626.97	18.230
627.30	18.071
627.63	18.005
627.96	19.369
628.29	18.521
628.62	18.640
628.95	16.477
629.28	17.842
629.61	18.182
629.94	16.653
630.26	17.797
630.59	18.221
630.92	16.883
631.25	19.052
631.58	18.267
631.91	16.495
632.24	18.060
632.57	16.888
632.90	17.753
633.23	17.143
633.56	17.245
633.89	16.736
634.22	17.983
634.55	18.998
634.88	16.126
635.20	17.223
635.53	17.288
635.86	16.901
636.19	18.028
636.52	17.300
636.85	15.832
637.18	16.632
637.51	17.204
637.83	17.276
638.16	16.590
638.49	15.023
638.82	18.264
639.15	15.922
639.48	17.321
639.81	15.704
640.13	16.019
640.46	14.788
640.79	15.686
641.12	16.646
641.45	14.178
641.77	17.587
642.10	14.436
642.43	17.819
642.76	15.718
643.09	14.384
643.41	15.546
643.74	14.483
644.07	16.690
644.40	14.710
644.73	13.353
645.05	14.978
645.38	14.388
645.71	14.370
646.04	16.069
646.36	13.431
646.69	15.491
647.02	15.749
647.35	14.351
647.67	15.298
648.00	15.605
648.33	15.616
648.66	14.551
648.98	15.102
649.31	16.779
649.64	16.069
649.96	15.385
650.29	14.882
650.62	14.144
650.94	13.964
651.27	12.425
651.60	13.743
651.92	14.286
652.25	14.038
652.58	15.406
652.90	13.663
653.23	14.366
653.56	13.980
653.88	16.854
654.21	14.648
654.54	16.040
654.86	15.439
655.19	15.558
655.52	21.628
655.84	23.858
656.17	28.069
656.49	38.732
656.82	41.452
657.15	31.794
657.47	23.925
657.80	17.159
658.13	12.891
658.45	16.480
658.78	19.183
659.10	17.541
659.43	16.577
659.75	14.876
660.08	13.053
660.41	13.400
660.73	13.113
661.06	12.188
661.38	11.802
661.71	11.379
662.03	12.346
662.36	14.132
662.68	18.011
663.01	12.566
663.33	12.287
663.66	14.286
663.98	12.500
664.31	12.195
664.63	9.827
664.96	13.430
665.28	12.341
665.61	14.336
665.93	10.893
666.26	13.799
666.58	10.332
666.91	12.897
667.23	10.667
667.56	14.004
667.88	13.000
668.21	10.156
668.53	11.969
668.86	11.395
669.18	10.387
669.50	14.115
669.83	11.200
670.15	11.614
670.48	12.302
670.80	12.428
671.13	11.720
671.45	12.008
671.77	14.124
672.10	13.167
672.42	12.783
672.75	14.132
673.07	13.731
673.39	13.405
673.72	13.591
674.04	13.966
674.37	12.880
674.69	13.757
675.01	12.000
675.34	10.115
675.66	10.674
675.98	13.433
676.31	10.742
676.63	13.498
676.95	15.326
677.28	11.694
677.60	10.433
677.92	13.820
678.25	12.980
678.57	14.947
678.89	13.311
679.22	11.150
679.54	12.308
679.86	11.864
680.18	14.594
680.51	14.308
680.83	15.385
681.15	11.724
681.48	13.126
681.80	13.644
682.12	13.287
682.44	12.521
682.77	13.652
683.09	12.311
683.41	13.760
683.73	12.524
684.06	11.808
684.38	12.343
684.70	14.542
685.02	14.286
685.34	14.809
685.67	12.618
685.99	12.730
686.31	12.064
686.63	12.954
686.96	13.722
687.28	13.681
687.60	12.963
687.92	11.736
688.24	13.189
688.56	11.897
688.89	14.519
689.21	12.720
689.53	9.608
689.85	11.243
690.17	11.296
690.49	12.351
690.82	12.277
691.14	10.931
691.46	12.237
691.78	14.733
692.10	10.826
692.42	11.429
692.74	13.067
693.06	11.111
693.39	13.472
693.71	12.218
694.03	13.755
694.35	11.810
694.67	11.294
694.99	11.064
695.31	11.700
695.63	10.173
695.95	9.938
696.27	10.989
696.59	14.602
696.91	11.036
697.23	15.604
697.56	11.609
697.88	10.606
698.20	12.053
698.52	15.530
698.84	10.395
699.16	13.265
699.48	12.343
699.80	11.064
700.12	11.572
700.44	9.908
700.76	10.214
701.08	9.443
701.40	11.140
701.72	11.194
702.04	12.299
702.36	6.545
702.68	10.513
703.00	9.046
703.32	10.345
703.64	9.780
703.96	8.115
704.28	9.828
704.60	8.101
704.91	10.459
705.23	9.041
705.55	10.306
705.87	9.091
706.19	9.202
706.51	5.120
706.83	6.628
707.15	8.995
707.47	10.047
707.79	10.917
708.11	10.381
708.43	11.398
708.74	8.705
709.06	9.281
709.38	11.737
709.70	10.422
710.02	8.010
710.34	9.840
710.66	8.939
710.98	8.197
711.29	8.791
711.61	7.910
711.93	3.419
712.25	6.486
712.57	9.145
712.89	7.353
713.20	6.805
713.52	8.671
713.84	7.799
714.16	9.474
714.48	7.474
714.80	8.831
715.11	7.349
715.43	9.019
715.75	11.053
716.07	8.287
716.39	7.923
716.70	5.723
717.02	4.590
717.34	6.272
717.66	3.356
717.97	3.425
718.29	0.687
718.61	7.895
718.93	5.178
719.24	4.037
719.56	7.362
719.88	6.907
720.20	7.097
720.51	7.143
720.83	7.813
721.15	4.276
721.46	2.397
721.78	8.000
722.10	4.854
722.42	4.362
722.73	4.839
723.05	6.316
723.37	5.903
723.68	6.810
724.00	5.415
724.32	2.817
724.63	4.545
724.95	10.993
725.27	6.969
725.58	3.180
725.90	7.931
726.22	6.270
726.53	7.143
726.85	6.289
727.16	9.668
727.48	10.092
727.80	6.291
728.11	-0.353
728.43	4.377
728.74	1.003
729.06	6.291
729.38	4.545
729.69	6.040
730.01	8.036
730.32	3.333
730.64	8.176
730.96	6.211
731.27	10.894
731.59	9.890
731.90	5.714
732.22	6.771
732.53	6.630
732.85	6.571
733.16	5.865
733.48	3.354
733.80	5.850
734.11	10.541
734.43	8.108
734.74	12.405
735.06	9.799
735.37	8.108
735.69	8.378
736.00	6.215
736.32	8.625
736.63	6.111
736.95	6.322
737.26	7.576
737.58	7.273
737.89	7.941
738.21	4.587
738.52	3.934
738.83	7.509
739.15	6.383
739.46	8.163
739.78	7.669
740.09	7.450
740.41	9.038
740.72	4.333
741.04	6.472
741.35	7.368
741.66	1.569
741.98	-0.410
742.29	2.929
742.61	3.509
742.92	3.462
743.23	7.220
743.55	5.814
743.86	2.400
744.18	-0.413
744.49	-1.266
744.80	6.173
745.12	1.688
745.43	2.033
745.74	-2.155
746.06	1.695
746.37	0.000
746.68	6.098
747.00	0.833
747.31	1.288
747.62	4.615
747.94	1.215
748.25	-1.205
748.56	0.816
748.88	-0.427
749.19	6.034
749.50	-0.433
749.82	5.622
750.13	6.406
750.44	5.333
750.75	7.077
751.07	8.615
751.38	5.047
751.69	7.348
752.01	3.560
752.32	5.556
752.63	1.701
752.94	0.692
753.26	0.743
753.57	4.815
753.88	2.996
754.19	8.360
754.51	5.466
754.82	6.109
755.13	6.230
755.44	8.874
755.75	9.211
756.07	5.970
756.38	4.403
756.69	5.422
757.00	7.756
757.31	9.016
757.63	7.417
757.94	9.390
758.25	9.481
758.56	9.804
758.87	10.909
759.18	6.133
759.50	13.031
759.81	8.123
760.12	7.817
760.43	8.854
760.74	11.823
761.05	7.750
761.36	7.711
761.67	9.391
761.99	11.351
762.30	5.793
762.61	2.640
762.92	7.090
763.23	7.865
763.54	4.317
763.85	5.498
764.16	6.061
764.47	7.042
764.78	8.626
765.10	9.971
765.41	11.026
765.72	8.201
766.03	4.802
766.34	4.389
766.65	3.484
766.96	3.586
767.27	-4.608
767.58	-4.478
767.89	1.923
768.20	5.634
768.51	-2.778
768.82	-0.803
769.13	3.788
769.44	0.385
769.75	3.971
770.06	1.154
770.37	7.874
770.68	0.426
770.99	-3.239
771.30	5.556
771.61	2.281
771.92	0.370
772.23	5.263
772.54	-1.389
772.85	5.069
773.16	1.429
773.47	-5.820
773.78	-3.784
774.09	-6.818
774.39	4.000
774.70	3.279
775.01	-5.488
775.32	-9.412
775.63	-12.883
775.94	-15.287
776.25	-7.097
776.56	-3.846
776.87	-3.401
777.18	-6.207
777.48	-6.993
777.79	-8.784
778.10	-11.765
778.41	-2.083
778.72	-6.207
779.03	-5.556
779.34	-6.667
779.65	-6.218
779.95	-1.111
780.26	3.977
780.57	-9.032
780.88	-8.696
781.19	-1.290
781.50	-3.529
781.80	4.839
782.11	-5.291
782.42	-3.535
782.73	-8.383
783.04	-7.821
783.34	-4.848
783.65	-15.686
783.96	-7.453
784.27	-3.571
784.57	-13.907
784.88	-5.000
785.19	-13.386
785.50	-10.236
785.81	-6.015
786.11	-6.154
786.42	-19.424
786.73	-7.194
787.04	-2.256
787.34	-18.033
787.65	-11.200
787.96	-5.970
788.26	-3.497
788.57	-2.797
788.88	-7.237
789.19	0.654
789.49	-6.164
789.80	-7.801
790.11	-14.173
790.41	-10.937
790.72	-6.780
791.03	-18.447
791.33	-13.913
791.64	-19.298
791.95	-23.214
792.25	-23.810
792.56	-13.393
792.87	-22.917
793.17	-23.214
793.48	-35.417
793.79	-44.578
794.09	-17.431
794.40	-21.101
794.70	-5.442
795.01	-9.091
795.32	-12.329
795.62	-2.113
795.93	-10.606
796.23	-8.197
796.54	-26.786
796.85	-32.979
797.15	-27.174
797.46	-45.205
797.76	-37.500
798.07	-31.522
798.37	-26.804
798.68	-44.156
798.99	-20.690
799.29	-37.079
799.60	-30.851
799.90	-32.530
800.21	-40.000
800.51	-50.746
800.82	-60.294
801.12	-54.795
801.43	-52.941
801.73	-62.712
802.04	-42.424
802.34	-60.000
802.65	-42.373
802.95	-28.358
803.26	-55.932
803.56	-36.986
803.87	-34.286
804.17	-27.397
804.48	-91.228
804.78	-37.500
805.09	-63.793
805.39	-39.189
805.70	-54.930
806.00	-36.585
806.30	-30.120
806.61	-34.247
806.91	-18.269
807.22	-27.778
807.52	-39.080
807.83	-36.111
808.13	-25.301
808.43	-22.472
808.74	-33.750
809.04	-52.941
809.35	-45.333
809.65	-40.000
809.95	-34.247
810.26	-50.877
810.56	-41.379
810.86	-29.412
811.17	-54.386
811.47	-37.705
811.77	-84.444
812.08	-45.763
812.38	-46.667
812.69	-36.207
812.99	-64.151
813.29	-94.872
813.59	-52.000
813.90	-40.351
814.20	-47.273
814.50	-15.493
814.81	-26.923
815.11	-34.426
815.41	-35.821
815.72	-46.552
816.02	-55.357
816.32	-51.111
816.62	-84.091
816.93	-93.333
817.23	-51.852
817.53	-74.468
817.84	-52.381
818.14	-70.588
818.44	-44.898
818.74	-60.000
819.04	-92.308
819.35	-125.714
819.65	-180.769
819.95	-60.377
820.25	-62.222
820.56	-109.524
820.86	-109.375
821.16	-79.487
821.46	-97.674
821.76	-84.000
822.07	-58.929
822.37	-78.261
822.67	-68.085
822.97	-121.622
823.27	-107.500
823.57	-53.061
823.88	-64.444
824.18	-70.000
824.48	-106.667
824.78	-128.000
825.08	-115.152
825.38	-53.333
825.69	-59.574
825.99	-102.778
826.29	-142.857
826.59	-92.308
826.89	-83.721
827.19	-70.000
827.49	-117.647
827.79	-50.000
828.09	-108.108
828.39	-130.000
828.70	-92.683
829.00	-74.419
829.30	-164.286
829.60	-94.118
829.90	-69.565
830.20	-114.286
830.50	-124.138
830.80	-138.889
831.10	-150.000
831.40	-123.529
831.70	-161.905
832.00	-96.774
832.30	-317.647
832.60	-162.500
832.90	-353.846
833.20	-226.316
833.50	-195.000
833.80	-231.579
834.10	-219.048
834.40	-86.111
834.70	-90.625
835.00	-100.000
835.30	-88.235
835.60	-103.333
835.90	-120.000
836.20	-200.000
836.50	-128.000
836.80	-118.182
837.10	-148.148
837.40	-111.111
837.70	-262.500
838.00	-128.571
838.30	-173.913
838.60	-117.241
838.90	-285.714
839.19	-230.435
839.49	-400.000
839.79	-86.957
840.09	-218.750
840.39	-205.000
840.69	-90.323
840.99	-132.143
841.29	-280.000
841.59	-231.579
841.88	-64.103
842.18	-157.692
842.48	-400.000
842.78	-195.000
843.08	-110.000
843.38	-93.548
843.68	-205.556
843.97	-73.529
844.27	-206.250
844.57	-210.526
844.87	-420.000
845.17	-246.667
845.47	-171.429
845.76	-180.952
846.06	-455.556
846.36	-217.647
846.66	-138.462
846.96	-266.667
847.25	-247.059
847.55	-104.348
847.85	-165.000
848.15	-235.294
848.44	-327.273
848.74	-133.333
849.04	-166.667
849.34	-293.750
849.63	-156.522
849.93	2600.000
850.23	-246.667
850.53	-107.692
850.82	-345.455
851.12	-154.545
851.42	-381.818
851.71	-261.538
852.01	-245.000
852.31	-261.538
852.61	-184.211
852.90	-275.000
853.20	-205.556
853.50	-511.111
853.79	-171.429
854.09	-200.000
854.39	-391.667
854.68	-112.903
854.98	-169.231
855.28	-200.000
855.57	-146.429
855.87	-132.000
856.17	-172.727
856.46	-114.815
856.76	-211.111
857.05	-156.522
857.35	-145.833
857.65	-315.385
857.94	-161.905
858.24	-100.000
858.53	-147.826
858.83	-223.529
859.13	-264.706
859.42	-235.294
859.72	-235.714
860.01	-170.000
860.31	-355.556
860.60	-360.000
860.90	-193.333
861.20	-144.444
861.49	-323.077
861.79	-93.333
862.08	-307.692
862.38	-62.500
862.67	-229.412
862.97	-225.000
863.26	-466.667
863.56	-450.000
863.85	-381.818
864.15	-194.444
864.44	-1033.333
864.74	-242.857
865.03	-231.250
865.33	-440.000
865.62	-125.806
865.92	-150.000
866.21	-165.217
866.51	-235.714
866.80	-560.000
867.10	-308.333
867.39	-300.000
867.69	5200.000
867.98	-600.000
868.27	-194.118
868.57	-3900.000
868.86	-460.000
869.16	-219.048
869.45	-125.000
869.75	-309.091
870.04	-500.000
870.33	-316.667
870.63	-685.714
870.92	-900.000
871.22	-587.500
871.51	-336.364
871.80	-1566.667
872.10	-1650.000
>>>>>End Processed Spectral Data<<<<<
