SpectraSuite Data File
++++++++++++++++++++++++++++++++++++
Date: Thu May 14 14:28:33 PDT 2015
User: schluterlab
Dark Spectrum Present: Yes
Reference Spectrum Present: Yes
Number of Sampled Component Spectra: 1
Spectrometers: USB2E3373
Integration Time (usec): 3000 (USB2E3373)
Spectra Averaged: 3 (USB2E3373)
Boxcar Smoothing: 0 (USB2E3373)
Correct for Electrical Dark: No (USB2E3373)
Strobe/Lamp Enabled: No (USB2E3373)
Correct for Detector Non-linearity: No (USB2E3373)
Correct for Stray Light: No (USB2E3373)
Number of Pixels in Processed Spectrum: 2048
>>>>>Begin Processed Spectral Data<<<<<
178.53	0.000
178.91	-157.143
179.29	800.000
179.67	1400.000
180.04	14.286
180.42	-60.000
180.80	-180.000
181.18	1400.000
181.56	1000.000
181.94	-325.000
182.31	425.000
182.69	-300.000
183.07	350.000
183.45	-200.000
183.83	250.000
184.20	700.000
184.58	-1800.000
184.96	-25.000
185.34	66.667
185.72	360.000
186.09	33.333
186.47	-700.000
186.85	100.000
187.23	77.778
187.61	1100.000
187.98	-240.000
188.36	-75.000
188.74	275.000
189.12	400.000
189.49	118.750
189.87	-25.000
190.25	266.667
190.63	60.000
191.00	22.222
191.38	0.000
191.76	75.000
192.14	183.333
192.51	-950.000
192.89	300.000
193.27	0.000
193.65	200.000
194.02	1100.000
194.40	157.143
194.78	-85.714
195.15	0.000
195.53	190.909
195.91	0.000
196.29	275.000
196.66	161.538
197.04	0.000
197.42	28.571
197.79	500.000
198.17	162.500
198.55	242.857
198.92	111.111
199.30	250.000
199.68	254.545
200.05	92.857
200.43	400.000
200.81	-100.000
201.18	0.000
201.56	-100.000
201.94	0.000
202.31	-333.333
202.69	100.000
203.07	-1600.000
203.44	122.222
203.82	175.000
204.19	66.667
204.57	33.333
204.95	137.500
205.32	1200.000
205.70	-275.000
206.08	300.000
206.45	183.333
206.83	100.000
207.20	216.667
207.58	180.000
207.96	183.333
208.33	316.667
208.71	-50.000
209.08	300.000
209.46	0.000
209.84	-33.333
210.21	-400.000
210.59	-800.000
210.96	-300.000
211.34	575.000
211.71	187.500
212.09	1200.000
212.46	0.000
212.84	200.000
213.22	180.000
213.59	200.000
213.97	210.000
214.34	100.000
214.72	-116.667
215.09	225.000
215.47	0.000
215.84	-85.714
216.22	100.000
216.59	360.000
216.97	360.000
217.34	425.000
217.72	175.000
218.09	150.000
218.47	175.000
218.84	0.000
219.22	-220.000
219.59	123.529
219.97	95.000
220.34	-400.000
220.72	111.111
221.09	192.308
221.47	0.000
221.84	30.000
222.22	85.714
222.59	0.000
222.97	187.500
223.34	-40.000
223.72	1000.000
224.09	250.000
224.46	200.000
224.84	80.000
225.21	42.857
225.59	175.000
225.96	75.000
226.34	76.923
226.71	-166.667
227.08	650.000
227.46	120.000
227.83	400.000
228.21	136.842
228.58	-125.000
228.95	-200.000
229.33	75.000
229.70	150.000
230.08	126.316
230.45	-140.000
230.82	433.333
231.20	157.143
231.57	100.000
231.95	136.364
232.32	0.000
232.69	110.000
233.07	100.000
233.44	117.647
233.81	60.000
234.19	127.778
234.56	63.636
234.93	93.103
235.31	89.474
235.68	105.556
236.05	55.000
236.43	80.769
236.80	116.000
237.17	62.963
237.55	39.394
237.92	30.000
238.29	77.419
238.67	34.091
239.04	63.889
239.41	47.619
239.79	41.304
240.16	38.889
240.53	56.522
240.91	35.294
241.28	36.066
241.65	43.284
242.02	36.486
242.40	30.769
242.77	25.333
243.14	12.195
243.51	31.579
243.89	16.667
244.26	37.624
244.63	30.392
245.00	35.514
245.38	21.930
245.75	8.850
246.12	35.714
246.49	24.031
246.87	32.143
247.24	25.828
247.61	32.237
247.98	28.188
248.36	27.778
248.73	21.472
249.10	23.497
249.47	29.851
249.84	28.272
250.22	23.316
250.59	21.667
250.96	26.364
251.33	18.878
251.70	22.222
252.08	21.250
252.45	23.361
252.82	21.074
253.19	21.094
253.56	23.194
253.94	20.769
254.31	23.485
254.68	22.378
255.05	21.498
255.42	21.769
255.79	19.741
256.16	20.530
256.54	19.868
256.91	22.295
257.28	20.656
257.65	17.834
258.02	20.354
258.39	22.222
258.76	25.688
259.14	23.851
259.51	21.614
259.88	16.997
260.25	20.278
260.62	21.096
260.99	22.678
261.36	17.962
261.73	21.220
262.10	16.758
262.47	21.984
262.85	22.475
263.22	18.182
263.59	18.947
263.96	19.693
264.33	19.437
264.70	19.259
265.07	23.866
265.44	23.129
265.81	18.750
266.18	21.088
266.55	22.321
266.92	20.729
267.29	19.912
267.66	18.847
268.03	19.651
268.40	22.129
268.77	18.451
269.14	18.282
269.51	21.272
269.88	21.107
270.25	19.115
270.62	22.363
270.99	22.424
271.36	19.010
271.73	19.843
272.10	20.842
272.47	21.643
272.84	17.871
273.21	21.042
273.58	20.968
273.95	20.192
274.32	18.631
274.69	18.182
275.06	19.231
275.43	19.963
275.80	19.048
276.17	18.704
276.54	18.843
276.91	19.678
277.28	19.530
277.65	19.749
278.02	19.853
278.39	19.746
278.76	18.278
279.13	19.681
279.50	20.619
279.87	19.499
280.23	16.197
280.60	20.339
280.97	19.737
281.34	19.694
281.71	19.797
282.08	18.771
282.45	16.694
282.82	16.484
283.19	15.024
283.56	16.885
283.92	18.769
284.29	17.378
284.66	18.883
285.03	16.667
285.40	18.393
285.77	19.814
286.14	20.153
286.51	19.635
286.87	17.852
287.24	15.813
287.61	17.788
287.98	17.372
288.35	17.604
288.72	15.237
289.08	19.034
289.45	15.828
289.82	16.867
290.19	16.092
290.56	17.746
290.93	16.405
291.29	17.631
291.66	16.804
292.03	17.775
292.40	17.687
292.77	16.577
293.13	18.403
293.50	15.112
293.87	14.497
294.24	15.733
294.60	17.699
294.97	16.107
295.34	18.054
295.71	14.754
296.08	14.470
296.44	15.931
296.81	16.078
297.18	14.944
297.55	14.976
297.91	14.235
298.28	14.336
298.65	15.696
299.02	15.702
299.38	15.789
299.75	13.084
300.12	14.120
300.48	15.092
300.85	14.398
301.22	15.324
301.59	14.269
301.95	15.480
302.32	14.889
302.69	15.444
303.05	15.016
303.42	14.080
303.79	13.958
304.15	14.301
304.52	13.214
304.89	13.717
305.25	14.803
305.62	14.525
305.99	14.330
306.35	12.601
306.72	14.168
307.09	13.401
307.45	15.010
307.82	14.329
308.19	14.127
308.55	15.043
308.92	14.314
309.29	14.464
309.65	13.743
310.02	12.970
310.38	13.484
310.75	14.854
311.12	14.094
311.48	13.490
311.85	14.625
312.22	12.808
312.58	13.615
312.95	13.767
313.31	13.911
313.68	14.103
314.05	14.815
314.41	15.027
314.78	14.623
315.14	14.156
315.51	13.204
315.87	14.581
316.24	14.064
316.61	14.565
316.97	13.937
317.34	13.139
317.70	14.323
318.07	14.198
318.43	13.095
318.80	14.047
319.16	13.734
319.53	11.997
319.89	13.322
320.26	14.502
320.62	13.652
320.99	14.497
321.35	13.494
321.72	14.512
322.08	12.985
322.45	13.640
322.81	15.253
323.18	14.159
323.54	12.586
323.91	14.680
324.27	15.060
324.64	14.358
325.00	14.677
325.37	14.169
325.73	14.215
326.10	15.085
326.46	15.147
326.83	14.972
327.19	14.094
327.56	14.862
327.92	14.083
328.29	14.758
328.65	14.405
329.01	14.298
329.38	15.586
329.74	15.154
330.11	16.182
330.47	15.586
330.84	15.245
331.20	14.917
331.56	15.598
331.93	15.649
332.29	15.508
332.66	15.199
333.02	14.489
333.38	14.346
333.75	15.741
334.11	15.596
334.48	14.686
334.84	14.953
335.20	15.785
335.57	16.189
335.93	15.537
336.29	14.060
336.66	15.391
337.02	14.883
337.38	15.476
337.75	15.537
338.11	15.812
338.47	15.219
338.84	14.552
339.20	14.238
339.56	14.745
339.93	14.943
340.29	16.184
340.65	15.410
341.02	16.121
341.38	16.249
341.74	15.577
342.11	16.171
342.47	14.456
342.83	16.667
343.20	14.800
343.56	15.798
343.92	16.253
344.28	16.484
344.65	16.202
345.01	15.679
345.37	15.708
345.73	16.212
346.10	17.239
346.46	15.585
346.82	16.330
347.19	15.432
347.55	15.933
347.91	14.933
348.27	15.250
348.63	16.679
349.00	15.436
349.36	15.390
349.72	14.658
350.08	16.493
350.45	15.513
350.81	15.309
351.17	15.338
351.53	15.770
351.89	16.553
352.26	14.925
352.62	14.701
352.98	15.878
353.34	15.310
353.70	16.102
354.07	15.723
354.43	16.021
354.79	16.156
355.15	15.526
355.51	15.278
355.87	14.959
356.24	15.665
356.60	15.669
356.96	15.493
357.32	15.167
357.68	15.739
358.04	15.269
358.40	14.701
358.77	15.424
359.13	16.027
359.49	15.836
359.85	15.736
360.21	16.069
360.57	15.506
360.93	14.880
361.29	16.070
361.66	16.365
362.02	15.588
362.38	15.601
362.74	15.363
363.10	15.475
363.46	15.928
363.82	16.619
364.18	15.834
364.54	16.113
364.90	16.789
365.26	15.310
365.62	16.533
365.98	16.065
366.35	16.376
366.71	16.054
367.07	15.223
367.43	16.284
367.79	16.324
368.15	16.522
368.51	15.629
368.87	15.611
369.23	16.800
369.59	16.257
369.95	15.889
370.31	15.800
370.67	15.337
371.03	15.789
371.39	15.715
371.75	16.437
372.11	15.989
372.47	15.437
372.83	17.277
373.19	16.077
373.55	16.328
373.91	15.542
374.27	15.783
374.63	16.373
374.99	16.247
375.35	17.273
375.71	16.581
376.07	16.979
376.42	16.247
376.78	15.911
377.14	16.157
377.50	16.256
377.86	17.919
378.22	17.006
378.58	17.004
378.94	15.962
379.30	17.165
379.66	17.284
380.02	16.676
380.38	16.878
380.74	17.070
381.09	17.364
381.45	16.648
381.81	16.511
382.17	17.280
382.53	16.374
382.89	16.366
383.25	16.940
383.61	16.319
383.97	16.667
384.32	17.404
384.68	16.415
385.04	18.045
385.40	17.443
385.76	17.526
386.12	17.834
386.48	16.706
386.83	17.819
387.19	16.802
387.55	16.432
387.91	17.123
388.27	17.783
388.62	17.239
388.98	17.146
389.34	16.853
389.70	17.838
390.06	17.880
390.42	17.169
390.77	18.302
391.13	17.312
391.49	18.237
391.85	18.121
392.20	17.794
392.56	18.252
392.92	17.830
393.28	18.297
393.64	17.877
393.99	17.432
394.35	17.815
394.71	17.126
395.07	17.425
395.42	17.247
395.78	18.160
396.14	17.469
396.50	17.102
396.85	17.651
397.21	18.225
397.57	17.903
397.92	18.786
398.28	17.328
398.64	17.506
399.00	18.063
399.35	17.644
399.71	17.065
400.07	17.799
400.42	18.277
400.78	17.593
401.14	17.814
401.49	18.078
401.85	17.616
402.21	18.308
402.57	18.603
402.92	18.440
403.28	17.506
403.63	17.721
403.99	17.696
404.35	17.624
404.70	17.564
405.06	17.446
405.42	17.564
405.77	18.811
406.13	18.422
406.49	17.680
406.84	17.119
407.20	18.334
407.55	17.868
407.91	18.793
408.27	18.433
408.62	18.208
408.98	17.992
409.34	18.123
409.69	18.232
410.05	18.288
410.40	18.329
410.76	18.172
411.11	18.177
411.47	18.120
411.83	18.342
412.18	19.157
412.54	18.435
412.89	19.034
413.25	18.228
413.60	17.921
413.96	17.191
414.31	18.017
414.67	18.426
415.03	17.723
415.38	18.348
415.74	17.104
416.09	18.199
416.45	17.783
416.80	17.564
417.16	18.135
417.51	17.497
417.87	18.087
418.22	17.904
418.58	18.711
418.93	17.753
419.29	17.818
419.64	17.527
420.00	17.745
420.35	18.360
420.71	18.782
421.06	17.309
421.42	18.291
421.77	18.148
422.12	18.340
422.48	18.433
422.83	18.072
423.19	18.196
423.54	18.971
423.90	18.277
424.25	18.187
424.61	17.623
424.96	17.902
425.31	18.843
425.67	18.250
426.02	18.705
426.38	17.336
426.73	18.192
427.09	18.973
427.44	18.078
427.79	17.966
428.15	18.208
428.50	17.753
428.85	17.394
429.21	18.404
429.56	17.868
429.92	17.592
430.27	18.072
430.62	16.854
430.98	17.167
431.33	17.546
431.68	17.529
432.04	18.283
432.39	18.586
432.74	18.379
433.10	18.551
433.45	17.949
433.80	18.777
434.16	17.407
434.51	17.883
434.86	18.187
435.22	18.119
435.57	19.104
435.92	17.807
436.28	18.430
436.63	18.897
436.98	18.572
437.34	17.982
437.69	18.107
438.04	17.187
438.39	18.495
438.75	18.594
439.10	18.710
439.45	17.663
439.81	18.023
440.16	17.426
440.51	18.562
440.86	18.399
441.22	18.542
441.57	18.134
441.92	17.944
442.27	18.081
442.63	17.735
442.98	18.356
443.33	18.464
443.68	18.781
444.03	18.109
444.39	18.262
444.74	18.479
445.09	18.145
445.44	18.440
445.79	18.391
446.15	18.140
446.50	18.140
446.85	17.704
447.20	18.375
447.55	18.462
447.91	18.010
448.26	18.658
448.61	17.747
448.96	18.938
449.31	18.028
449.66	17.484
450.02	17.774
450.37	18.007
450.72	17.653
451.07	18.166
451.42	17.851
451.77	18.177
452.12	18.115
452.47	18.241
452.83	18.300
453.18	18.506
453.53	17.691
453.88	17.394
454.23	18.531
454.58	18.340
454.93	18.204
455.28	18.663
455.63	17.851
455.98	18.268
456.34	18.257
456.69	17.931
457.04	17.612
457.39	17.849
457.74	18.289
458.09	17.079
458.44	18.157
458.79	17.019
459.14	17.567
459.49	17.600
459.84	17.524
460.19	17.213
460.54	17.774
460.89	17.364
461.24	17.241
461.59	18.318
461.94	17.798
462.29	18.309
462.64	18.346
462.99	18.079
463.34	18.754
463.69	18.757
464.04	17.954
464.39	18.610
464.74	17.959
465.09	17.993
465.44	18.348
465.79	18.562
466.14	18.239
466.49	17.842
466.84	18.678
467.19	18.786
467.54	17.744
467.89	17.701
468.24	17.950
468.59	17.197
468.94	17.716
469.29	17.756
469.64	17.610
469.99	18.164
470.34	18.502
470.68	18.250
471.03	18.533
471.38	19.424
471.73	18.075
472.08	17.640
472.43	18.122
472.78	18.388
473.13	17.509
473.48	17.100
473.83	18.746
474.17	19.050
474.52	18.160
474.87	18.106
475.22	18.197
475.57	17.342
475.92	17.919
476.27	17.998
476.61	17.290
476.96	17.779
477.31	18.267
477.66	18.730
478.01	17.387
478.36	17.498
478.70	17.488
479.05	18.661
479.40	18.065
479.75	17.819
480.10	17.148
480.45	17.912
480.79	17.914
481.14	18.153
481.49	17.901
481.84	18.103
482.19	17.720
482.53	17.665
482.88	18.033
483.23	17.474
483.58	17.860
483.92	17.154
484.27	17.570
484.62	17.409
484.97	17.574
485.31	17.705
485.66	17.418
486.01	16.620
486.36	15.980
486.70	16.779
487.05	17.056
487.40	17.506
487.75	18.270
488.09	18.400
488.44	18.403
488.79	18.954
489.13	18.755
489.48	18.175
489.83	17.907
490.17	17.375
490.52	17.939
490.87	17.428
491.22	17.461
491.56	17.790
491.91	17.575
492.26	17.006
492.60	17.840
492.95	17.683
493.30	17.122
493.64	17.696
493.99	17.632
494.34	17.334
494.68	17.173
495.03	17.621
495.37	18.242
495.72	17.188
496.07	17.441
496.41	16.517
496.76	18.057
497.11	17.665
497.45	17.479
497.80	17.459
498.14	17.506
498.49	17.647
498.84	17.459
499.18	17.454
499.53	17.848
499.87	17.670
500.22	16.652
500.56	17.409
500.91	17.346
501.26	17.500
501.60	17.057
501.95	17.759
502.29	17.288
502.64	18.408
502.98	17.213
503.33	17.365
503.67	17.052
504.02	16.550
504.36	17.918
504.71	17.501
505.06	17.372
505.40	18.190
505.75	17.851
506.09	17.634
506.44	17.781
506.78	17.477
507.13	17.750
507.47	18.096
507.82	18.087
508.16	17.830
508.51	16.878
508.85	17.052
509.19	17.954
509.54	17.819
509.88	17.144
510.23	18.164
510.57	18.463
510.92	18.142
511.26	16.402
511.61	17.576
511.95	17.521
512.30	18.267
512.64	17.491
512.98	17.509
513.33	17.994
513.67	17.440
514.02	17.936
514.36	17.545
514.70	17.083
515.05	17.466
515.39	18.058
515.74	18.134
516.08	17.380
516.42	18.420
516.77	17.876
517.11	17.225
517.46	18.346
517.80	17.745
518.14	17.954
518.49	18.492
518.83	17.775
519.17	17.555
519.52	18.082
519.86	18.057
520.20	17.678
520.55	18.182
520.89	17.962
521.23	18.258
521.58	17.740
521.92	17.734
522.26	17.583
522.61	17.766
522.95	18.224
523.29	18.046
523.64	18.834
523.98	17.969
524.32	18.625
524.66	17.928
525.01	17.667
525.35	17.289
525.69	18.155
526.04	17.910
526.38	18.621
526.72	18.051
527.06	17.595
527.41	18.076
527.75	18.587
528.09	18.772
528.43	18.176
528.78	17.514
529.12	17.661
529.46	17.313
529.80	18.421
530.15	17.797
530.49	17.616
530.83	18.654
531.17	18.220
531.51	18.351
531.86	18.149
532.20	18.049
532.54	17.893
532.88	18.061
533.22	17.914
533.57	18.061
533.91	18.238
534.25	17.581
534.59	18.621
534.93	18.676
535.27	18.366
535.62	18.476
535.96	18.652
536.30	17.920
536.64	18.258
536.98	19.250
537.32	19.136
537.66	19.089
538.01	17.100
538.35	17.905
538.69	18.029
539.03	18.884
539.37	17.668
539.71	17.838
540.05	17.806
540.39	17.971
540.73	17.972
541.07	18.148
541.42	18.429
541.76	17.853
542.10	17.672
542.44	17.540
542.78	18.431
543.12	18.236
543.46	18.315
543.80	17.086
544.14	18.133
544.48	18.026
544.82	17.654
545.16	17.770
545.50	17.555
545.84	17.820
546.18	19.198
546.52	17.580
546.86	18.176
547.20	18.130
547.54	18.165
547.88	18.626
548.22	17.602
548.56	18.081
548.90	17.851
549.24	17.994
549.58	18.233
549.92	18.112
550.26	18.447
550.60	18.315
550.94	18.176
551.28	16.964
551.62	18.598
551.96	17.605
552.30	17.973
552.64	18.357
552.98	17.342
553.32	18.135
553.66	18.521
554.00	18.033
554.34	18.275
554.68	17.301
555.02	18.068
555.36	19.066
555.69	17.361
556.03	17.339
556.37	18.586
556.71	17.438
557.05	18.147
557.39	17.916
557.73	18.362
558.07	17.947
558.41	17.409
558.75	18.256
559.08	18.511
559.42	17.695
559.76	17.436
560.10	18.151
560.44	17.150
560.78	18.812
561.12	17.857
561.45	18.127
561.79	18.010
562.13	17.498
562.47	17.324
562.81	17.722
563.15	18.182
563.48	18.459
563.82	17.533
564.16	16.959
564.50	17.878
564.84	17.876
565.17	18.176
565.51	16.341
565.85	17.399
566.19	17.339
566.52	17.320
566.86	17.997
567.20	17.074
567.54	17.419
567.88	17.278
568.21	17.095
568.55	17.602
568.89	16.659
569.23	17.744
569.56	16.921
569.90	16.358
570.24	16.728
570.57	16.453
570.91	16.289
571.25	17.211
571.59	17.339
571.92	16.631
572.26	17.046
572.60	16.762
572.93	17.172
573.27	17.336
573.61	16.861
573.95	17.116
574.28	16.889
574.62	16.417
574.96	16.145
575.29	16.545
575.63	16.817
575.97	16.982
576.30	16.802
576.64	16.822
576.98	16.856
577.31	16.601
577.65	16.901
577.98	16.020
578.32	16.308
578.66	16.604
578.99	16.547
579.33	17.030
579.67	16.636
580.00	17.172
580.34	17.168
580.67	16.726
581.01	16.638
581.35	16.774
581.68	16.398
582.02	15.945
582.35	16.541
582.69	16.490
583.02	16.651
583.36	17.273
583.70	17.178
584.03	17.255
584.37	17.601
584.70	17.237
585.04	16.810
585.37	16.703
585.71	16.375
586.04	16.535
586.38	16.643
586.72	16.420
587.05	16.552
587.39	17.053
587.72	16.818
588.06	16.731
588.39	17.127
588.73	16.481
589.06	17.410
589.40	17.763
589.73	17.449
590.07	17.805
590.40	17.444
590.73	17.144
591.07	17.535
591.40	16.952
591.74	17.568
592.07	17.661
592.41	17.114
592.74	16.294
593.08	15.987
593.41	16.273
593.75	16.264
594.08	16.722
594.41	17.115
594.75	16.739
595.08	17.026
595.42	17.045
595.75	17.275
596.09	16.977
596.42	17.306
596.75	17.406
597.09	17.859
597.42	17.362
597.75	16.856
598.09	16.905
598.42	17.169
598.76	16.928
599.09	16.803
599.42	16.527
599.76	16.111
600.09	16.483
600.42	16.316
600.76	16.678
601.09	16.728
601.42	17.199
601.76	17.138
602.09	17.441
602.42	16.939
602.76	17.048
603.09	17.070
603.42	16.763
603.76	16.702
604.09	17.495
604.42	16.771
604.76	17.199
605.09	17.272
605.42	17.823
605.75	16.692
606.09	16.984
606.42	16.636
606.75	16.454
607.09	16.705
607.42	16.956
607.75	16.569
608.08	17.206
608.42	17.170
608.75	17.454
609.08	16.511
609.41	17.247
609.75	16.875
610.08	17.150
610.41	16.907
610.74	16.765
611.07	16.963
611.41	17.489
611.74	17.136
612.07	17.391
612.40	16.587
612.73	17.457
613.07	17.604
613.40	17.469
613.73	16.562
614.06	17.664
614.39	16.910
614.72	17.564
615.06	17.421
615.39	16.675
615.72	17.062
616.05	17.144
616.38	17.608
616.71	17.607
617.05	17.519
617.38	16.533
617.71	17.873
618.04	17.107
618.37	18.033
618.70	18.326
619.03	17.145
619.36	17.571
619.69	17.297
620.03	16.761
620.36	17.117
620.69	16.841
621.02	17.651
621.35	18.433
621.68	18.800
622.01	17.295
622.34	16.039
622.67	16.976
623.00	16.532
623.33	18.182
623.66	17.769
623.99	16.656
624.32	18.778
624.65	17.568
624.99	17.165
625.32	17.636
625.65	17.465
625.98	17.898
626.31	17.434
626.64	17.729
626.97	17.554
627.30	17.160
627.63	17.554
627.96	18.619
628.29	17.354
628.62	17.464
628.95	17.791
629.28	17.927
629.61	18.182
629.94	17.322
630.26	17.203
630.59	17.530
630.92	17.229
631.25	18.962
631.58	18.832
631.91	18.463
632.24	18.156
632.57	18.880
632.90	17.553
633.23	18.469
633.56	17.347
633.89	19.215
634.22	18.919
634.55	18.998
634.88	18.074
635.20	20.022
635.53	18.644
635.86	18.960
636.19	18.664
636.52	17.405
636.85	17.467
637.18	17.775
637.51	17.312
637.83	19.491
638.16	19.585
638.49	18.192
638.82	18.715
639.15	17.411
639.48	20.092
639.81	19.746
640.13	19.670
640.46	17.576
640.79	16.299
641.12	18.385
641.45	17.691
641.77	20.411
642.10	18.241
642.43	20.745
642.76	19.106
643.09	18.630
643.41	20.028
643.74	19.586
644.07	18.621
644.40	18.670
644.73	16.255
645.05	18.502
645.38	21.727
645.71	17.449
646.04	21.664
646.36	18.540
646.69	19.479
647.02	19.878
647.35	20.153
647.67	19.002
648.00	19.745
648.33	19.219
648.66	19.258
648.98	18.367
649.31	19.486
649.64	19.522
649.96	17.507
650.29	18.915
650.62	17.256
650.94	18.619
651.27	17.216
651.60	20.029
651.92	20.365
652.25	19.392
652.58	18.294
652.90	19.477
653.23	20.845
653.56	19.401
653.88	18.539
654.21	19.155
654.54	17.630
654.86	18.555
655.19	17.440
655.52	15.802
655.84	13.424
656.17	15.981
656.49	23.317
656.82	27.149
657.15	22.449
657.47	17.836
657.80	13.825
658.13	11.203
658.45	15.294
658.78	20.102
659.10	19.977
659.43	20.317
659.75	21.403
660.08	21.176
660.41	20.017
660.73	19.156
661.06	19.383
661.38	19.617
661.71	20.690
662.03	21.693
662.36	20.572
662.68	19.512
663.01	20.177
663.33	18.715
663.66	21.612
663.98	17.500
664.31	20.075
664.63	17.534
664.96	20.327
665.28	16.515
665.61	21.678
665.93	18.571
666.26	20.251
666.58	16.421
666.91	21.495
667.23	21.905
667.56	19.329
667.88	22.200
668.21	17.578
668.53	17.568
668.86	21.218
669.18	18.534
669.50	20.278
669.83	18.200
670.15	20.472
670.48	22.421
670.80	18.164
671.13	17.391
671.45	19.685
671.77	20.716
672.10	18.833
672.42	17.799
672.75	18.740
673.07	17.313
673.39	17.411
673.72	21.644
674.04	19.828
674.37	19.857
674.69	20.811
675.01	20.190
675.34	19.275
675.66	19.476
675.98	19.403
676.31	19.727
676.63	20.722
676.95	20.881
677.28	20.968
677.60	17.323
677.92	20.921
678.25	21.572
678.57	20.463
678.89	19.966
679.22	18.293
679.54	17.949
679.86	17.288
680.18	19.900
680.51	18.239
680.83	16.858
681.15	18.966
681.48	21.071
681.80	18.480
682.12	20.629
682.44	17.362
682.77	19.681
683.09	19.318
683.41	21.318
683.73	20.873
684.06	18.635
684.38	17.531
684.70	18.492
685.02	20.138
685.34	19.135
685.67	17.666
685.99	17.791
686.31	16.570
686.63	18.325
686.96	17.350
687.28	20.033
687.60	18.855
687.92	16.720
688.24	19.699
688.56	18.448
688.89	21.053
689.21	21.526
689.53	17.451
689.85	19.921
690.17	17.593
690.49	17.928
690.82	16.832
691.14	18.826
691.46	19.312
691.78	20.810
692.10	15.963
692.42	17.321
692.74	17.604
693.06	18.333
693.39	20.304
693.71	19.361
694.03	18.216
694.35	19.619
694.67	20.329
694.99	19.362
695.31	20.309
695.63	18.615
695.95	19.255
696.27	18.901
696.59	19.690
696.91	19.820
697.23	23.077
697.56	18.330
697.88	17.235
698.20	19.962
698.52	21.023
698.84	19.543
699.16	21.429
699.48	18.410
699.80	19.362
700.12	20.306
700.44	20.737
700.76	20.190
701.08	20.339
701.40	23.057
701.72	18.159
702.04	23.262
702.36	16.230
702.68	20.538
703.00	19.315
703.32	17.734
703.64	22.005
703.96	21.241
704.28	16.708
704.60	19.747
704.91	20.408
705.23	20.822
705.55	19.777
705.87	21.212
706.19	20.245
706.51	18.675
706.83	19.597
707.15	18.254
707.47	17.290
707.79	17.686
708.11	18.644
708.43	16.774
708.74	17.187
709.06	19.258
709.38	21.362
709.70	23.077
710.02	18.346
710.34	21.011
710.66	17.598
710.98	18.852
711.29	17.582
711.61	20.621
711.93	20.513
712.25	19.189
712.57	22.124
712.89	22.647
713.20	18.343
713.52	20.520
713.84	19.777
714.16	18.947
714.48	20.619
714.80	20.000
715.11	15.748
715.43	15.650
715.75	18.947
716.07	19.890
716.39	21.585
716.70	16.867
717.02	23.607
717.34	15.679
717.66	20.470
717.97	17.466
718.29	22.337
718.61	19.408
718.93	17.476
719.24	17.081
719.56	18.098
719.88	19.219
720.20	20.323
720.51	18.012
720.83	22.500
721.15	20.724
721.46	14.384
721.78	21.000
722.10	16.505
722.42	18.121
722.73	21.935
723.05	19.649
723.37	18.750
723.68	19.355
724.00	19.134
724.32	19.366
724.63	20.629
724.95	22.340
725.27	20.906
725.58	16.254
725.90	18.966
726.22	18.809
726.53	21.104
726.85	24.214
727.16	19.033
727.48	20.183
727.80	17.550
728.11	19.081
728.43	20.539
728.74	18.060
729.06	19.205
729.38	20.455
729.69	18.792
730.01	19.643
730.32	16.364
730.64	22.956
730.96	16.149
731.27	21.788
731.59	19.780
731.90	17.922
732.22	18.229
732.53	17.403
732.85	16.286
733.16	18.182
733.48	15.854
733.80	17.827
734.11	15.100
734.43	18.649
734.74	22.532
735.06	19.849
735.37	17.297
735.69	17.297
736.00	16.949
736.32	20.485
736.63	19.444
736.95	15.805
737.26	21.212
737.58	19.091
737.89	19.706
738.21	16.208
738.52	18.689
738.83	20.478
739.15	14.894
739.46	19.048
739.78	23.926
740.09	18.338
740.41	20.991
740.72	22.000
741.04	24.272
741.35	17.544
741.66	20.784
741.98	20.902
742.29	21.339
742.61	22.807
742.92	19.231
743.23	18.412
743.55	20.930
743.86	21.200
744.18	14.050
744.49	21.519
744.80	21.811
745.12	18.143
745.43	19.106
745.74	19.828
746.06	23.305
746.37	23.629
746.68	23.984
747.00	23.750
747.31	21.030
747.62	22.308
747.94	19.433
748.25	17.671
748.56	20.408
748.88	20.513
749.19	20.690
749.50	17.749
749.82	19.679
750.13	25.979
750.44	15.667
750.75	20.308
751.07	20.615
751.38	18.612
751.69	17.891
752.01	18.770
752.32	18.954
752.63	17.687
752.94	19.723
753.26	20.818
753.57	20.000
753.88	22.472
754.19	17.685
754.51	20.579
754.82	18.971
755.13	20.984
755.44	21.843
755.75	22.368
756.07	17.313
756.38	21.069
756.69	19.277
757.00	15.512
757.31	16.120
757.63	17.391
757.94	16.901
758.25	18.059
758.56	16.776
758.87	19.545
759.18	18.400
759.50	19.263
759.81	17.087
760.12	19.677
760.43	18.229
760.74	17.734
761.05	18.000
761.36	16.145
761.67	20.305
761.99	21.351
762.30	21.341
762.61	19.802
762.92	17.910
763.23	17.228
763.54	21.223
763.85	18.900
764.16	20.202
764.47	22.183
764.78	18.850
765.10	17.009
765.41	18.462
765.72	15.608
766.03	18.079
766.34	18.495
766.65	17.073
766.96	21.116
767.27	20.737
767.58	16.915
767.89	21.154
768.20	18.310
768.51	24.537
768.82	20.482
769.13	19.697
769.44	15.769
769.75	22.744
770.06	20.000
770.37	20.472
770.68	20.426
770.99	12.955
771.30	21.852
771.61	20.913
771.92	18.889
772.23	23.077
772.54	20.833
772.85	24.885
773.16	21.429
773.47	21.693
773.78	16.216
774.09	25.000
774.39	33.000
774.70	27.869
775.01	15.854
775.32	22.353
775.63	24.540
775.94	24.841
776.25	25.806
776.56	29.487
776.87	25.170
777.18	22.069
777.48	25.175
777.79	23.649
778.10	16.176
778.41	21.528
778.72	31.034
779.03	22.840
779.34	18.182
779.65	21.244
779.95	22.778
780.26	22.159
780.57	25.806
780.88	25.362
781.19	25.806
781.50	30.000
781.80	23.118
782.11	19.048
782.42	17.172
782.73	19.162
783.04	25.140
783.34	18.182
783.65	22.222
783.96	21.118
784.27	20.238
784.57	22.517
784.88	25.714
785.19	25.197
785.50	26.772
785.81	28.571
786.11	23.846
786.42	16.547
786.73	19.424
787.04	23.308
787.34	17.213
787.65	16.800
787.96	27.612
788.26	27.972
788.57	25.175
788.88	25.000
789.19	28.758
789.49	21.233
789.80	29.078
790.11	34.646
790.41	23.437
790.72	33.898
791.03	16.505
791.33	22.609
791.64	35.965
791.95	33.929
792.25	28.571
792.56	32.143
792.87	14.583
793.17	22.321
793.48	21.875
793.79	14.458
794.09	22.936
794.40	30.275
794.70	25.170
795.01	16.234
795.32	27.397
795.62	24.648
795.93	20.455
796.23	24.590
796.54	27.679
796.85	20.213
797.15	15.217
797.46	41.096
797.76	23.750
798.07	25.000
798.37	16.495
798.68	32.468
798.99	41.379
799.29	21.348
799.60	26.596
799.90	26.506
800.21	24.615
800.51	17.910
800.82	26.471
801.12	15.068
801.43	27.941
801.73	30.508
802.04	31.818
802.34	26.667
802.65	32.203
802.95	32.836
803.26	50.847
803.56	38.356
803.87	28.571
804.17	35.616
804.48	26.316
804.78	20.833
805.09	31.034
805.39	40.541
805.70	28.169
806.00	28.049
806.30	15.663
806.61	16.438
806.91	21.154
807.22	21.111
807.52	21.839
807.83	45.833
808.13	37.349
808.43	29.213
808.74	35.000
809.04	13.235
809.35	40.000
809.65	30.000
809.95	32.877
810.26	43.860
810.56	29.310
810.86	39.706
811.17	42.105
811.47	42.623
811.77	13.333
812.08	30.508
812.38	36.667
812.69	39.655
812.99	20.755
813.29	5.128
813.59	32.000
813.90	45.614
814.20	45.455
814.50	47.887
814.81	33.333
815.11	34.426
815.41	26.866
815.72	37.931
816.02	26.786
816.32	64.444
816.62	65.909
816.93	51.111
817.23	55.556
817.53	36.170
817.84	42.857
818.14	32.353
818.44	26.531
818.74	44.444
819.04	12.821
819.35	42.857
819.65	53.846
819.95	33.962
820.25	62.222
820.56	21.429
820.86	65.625
821.16	56.410
821.46	20.930
821.76	20.000
822.07	46.429
822.37	43.478
822.67	23.404
822.97	10.811
823.27	22.500
823.57	32.653
823.88	42.222
824.18	50.000
824.48	36.667
824.78	48.000
825.08	60.606
825.38	48.889
825.69	53.191
825.99	58.333
826.29	11.429
826.59	10.256
826.89	37.209
827.19	50.000
827.49	52.941
827.79	47.917
828.09	43.243
828.39	26.667
828.70	31.707
829.00	32.558
829.30	60.714
829.60	44.118
829.90	45.652
830.20	45.714
830.50	55.172
830.80	72.222
831.10	69.231
831.40	38.235
831.70	47.619
832.00	67.742
832.30	17.647
832.60	66.667
832.90	46.154
833.20	63.158
833.50	90.000
833.80	68.421
834.10	0.000
834.40	72.222
834.70	46.875
835.00	31.429
835.30	67.647
835.60	3.333
835.90	36.000
836.20	18.182
836.50	60.000
836.80	24.242
837.10	44.444
837.40	44.444
837.70	31.250
838.00	96.429
838.30	82.609
838.60	55.172
838.90	85.714
839.19	17.391
839.49	125.000
839.79	52.174
840.09	81.250
840.39	95.000
840.69	67.742
840.99	25.000
841.29	66.667
841.59	63.158
841.88	71.795
842.18	73.077
842.48	70.000
842.78	65.000
843.08	76.667
843.38	80.645
843.68	27.778
843.97	67.647
844.27	68.750
844.57	73.684
844.87	90.000
845.17	93.333
845.47	128.571
845.76	52.381
846.06	111.111
846.36	5.882
846.66	65.385
846.96	126.667
847.25	64.706
847.55	82.609
847.85	105.000
848.15	100.000
848.44	145.455
848.74	80.952
849.04	62.500
849.34	75.000
849.63	78.261
849.93	150.000
850.23	33.333
850.53	69.231
850.82	72.727
851.12	104.545
851.42	154.545
851.71	123.077
852.01	80.000
852.31	138.462
852.61	73.684
852.90	125.000
853.20	105.556
853.50	77.778
853.79	42.857
854.09	45.455
854.39	0.000
854.68	51.613
854.98	19.231
855.28	88.889
855.57	50.000
855.87	64.000
856.17	36.364
856.46	59.259
856.76	83.333
857.05	34.783
857.35	79.167
857.65	61.538
857.94	28.571
858.24	81.481
858.53	69.565
858.83	64.706
859.13	82.353
859.42	111.765
859.72	100.000
860.01	65.000
860.31	122.222
860.60	120.000
860.90	53.333
861.20	111.111
861.49	169.231
861.79	46.667
862.08	61.538
862.38	81.250
862.67	100.000
862.97	68.750
863.26	122.222
863.56	120.000
863.85	163.636
864.15	100.000
864.44	466.667
864.74	178.571
865.03	118.750
865.33	30.000
865.62	54.839
865.92	72.727
866.21	78.261
866.51	114.286
866.80	120.000
867.10	125.000
867.39	16.667
867.69	-400.000
867.98	128.571
868.27	70.588
868.57	-600.000
868.86	50.000
869.16	66.667
869.45	87.500
869.75	127.273
870.04	57.143
870.33	75.000
870.63	114.286
870.92	150.000
871.22	0.000
871.51	81.818
871.80	33.333
872.10	250.000
>>>>>End Processed Spectral Data<<<<<
