SpectraSuite Data File
++++++++++++++++++++++++++++++++++++
Date: Thu May 14 14:45:02 PDT 2015
User: schluterlab
Dark Spectrum Present: Yes
Reference Spectrum Present: Yes
Number of Sampled Component Spectra: 1
Spectrometers: USB2E3373
Integration Time (usec): 3000 (USB2E3373)
Spectra Averaged: 3 (USB2E3373)
Boxcar Smoothing: 0 (USB2E3373)
Correct for Electrical Dark: No (USB2E3373)
Strobe/Lamp Enabled: No (USB2E3373)
Correct for Detector Non-linearity: No (USB2E3373)
Correct for Stray Light: No (USB2E3373)
Number of Pixels in Processed Spectrum: 2048
>>>>>Begin Processed Spectral Data<<<<<
178.53	0.000
178.91	-42.857
179.29	-700.000
179.67	-500.000
180.04	121.429
180.42	-50.000
180.80	-20.000
181.18	100.000
181.56	100.000
181.94	50.000
182.31	25.000
182.69	133.333
183.07	150.000
183.45	125.000
183.83	-16.667
184.20	66.667
184.58	200.000
184.96	-25.000
185.34	33.333
185.72	100.000
186.09	166.667
186.47	200.000
186.85	160.000
187.23	-33.333
187.61	-800.000
187.98	140.000
188.36	-0.000
188.74	25.000
189.12	-66.667
189.49	12.500
189.87	0.000
190.25	77.778
190.63	-80.000
191.00	-44.444
191.38	0.000
191.76	-150.000
192.14	50.000
192.51	150.000
192.89	16.667
193.27	0.000
193.65	-42.857
194.02	-1000.000
194.40	42.857
194.78	28.571
195.15	0.000
195.53	100.000
195.91	0.000
196.29	100.000
196.66	15.385
197.04	-600.000
197.42	-71.429
197.79	-350.000
198.17	-25.000
198.55	14.286
198.92	88.889
199.30	-150.000
199.68	45.455
200.05	7.143
200.43	-350.000
200.81	114.286
201.18	0.000
201.56	77.778
201.94	0.000
202.31	200.000
202.69	-77.778
203.07	-300.000
203.44	88.889
203.82	-275.000
204.19	0.000
204.57	-33.333
204.95	-50.000
205.32	-900.000
205.70	150.000
206.08	50.000
206.45	16.667
206.83	40.000
207.20	16.667
207.58	-80.000
207.96	-150.000
208.33	16.667
208.71	50.000
209.08	0.000
209.46	0.000
209.84	16.667
210.21	-350.000
210.59	300.000
210.96	33.333
211.34	225.000
211.71	50.000
212.09	600.000
212.46	0.000
212.84	100.000
213.22	-40.000
213.59	100.000
213.97	50.000
214.34	-100.000
214.72	-16.667
215.09	-175.000
215.47	0.000
215.84	142.857
216.22	200.000
216.59	-100.000
216.97	0.000
217.34	-100.000
217.72	237.500
218.09	25.000
218.47	0.000
218.84	0.000
219.22	20.000
219.59	11.765
219.97	60.000
220.34	350.000
220.72	-55.556
221.09	69.231
221.47	-33.333
221.84	-20.000
222.22	-171.429
222.59	0.000
222.97	200.000
223.34	-180.000
223.72	0.000
224.09	0.000
224.46	-300.000
224.84	60.000
225.21	85.714
225.59	50.000
225.96	-175.000
226.34	65.385
226.71	50.000
227.08	-50.000
227.46	33.333
227.83	250.000
228.21	52.632
228.58	-0.000
228.95	100.000
229.33	108.333
229.70	0.000
230.08	47.368
230.45	110.000
230.82	-33.333
231.20	28.571
231.57	50.000
231.95	18.182
232.32	0.000
232.69	-25.000
233.07	-25.000
233.44	35.294
233.81	30.000
234.19	50.000
234.56	40.909
234.93	37.931
235.31	26.316
235.68	27.778
236.05	-10.000
236.43	57.692
236.80	64.000
237.17	59.259
237.55	12.121
237.92	20.000
238.29	61.290
238.67	25.000
239.04	52.778
239.41	45.238
239.79	26.087
240.16	27.778
240.53	39.130
240.91	23.529
241.28	45.902
241.65	44.776
242.02	33.784
242.40	38.462
242.77	44.000
243.14	41.463
243.51	36.842
243.89	30.769
244.26	46.535
244.63	46.078
245.00	38.318
245.38	35.088
245.75	30.088
246.12	42.857
246.49	37.209
246.87	44.286
247.24	41.722
247.61	38.158
247.98	40.940
248.36	46.914
248.73	34.356
249.10	39.344
249.47	45.274
249.84	42.932
250.22	40.933
250.59	42.222
250.96	42.273
251.33	41.327
251.70	38.462
252.08	42.500
252.45	38.525
252.82	35.950
253.19	35.937
253.56	41.445
253.94	35.385
254.31	42.803
254.68	40.909
255.05	41.368
255.42	38.435
255.79	37.864
256.16	36.424
256.54	37.748
256.91	43.279
257.28	39.672
257.65	39.172
258.02	37.758
258.39	37.607
258.76	42.508
259.14	43.103
259.51	39.769
259.88	37.677
260.25	39.444
260.62	42.466
260.99	42.077
261.36	43.164
261.73	39.523
262.10	40.385
262.47	42.359
262.85	42.172
263.22	37.143
263.59	37.895
263.96	41.432
264.33	40.665
264.70	42.222
265.07	39.379
265.44	39.229
265.81	37.963
266.18	39.002
266.55	40.402
266.92	37.585
267.29	40.700
267.66	40.355
268.03	41.921
268.40	36.743
268.77	38.724
269.14	35.903
269.51	39.035
269.88	40.164
270.25	36.620
270.62	41.139
270.99	42.020
271.36	38.218
271.73	38.900
272.10	40.481
272.47	40.481
272.84	38.353
273.21	40.080
273.58	40.323
273.95	36.731
274.32	37.072
274.69	38.685
275.06	36.996
275.43	35.860
275.80	36.155
276.17	36.296
276.54	36.754
276.91	38.283
277.28	37.432
277.65	37.702
278.02	37.684
278.39	38.949
278.76	37.961
279.13	39.362
279.50	38.144
279.87	36.673
280.23	33.979
280.60	37.966
280.97	38.158
281.34	36.163
281.71	35.364
282.08	37.375
282.45	36.661
282.82	35.793
283.19	34.895
283.56	35.738
283.92	36.186
284.29	36.651
284.66	38.752
285.03	36.699
285.40	35.858
285.77	35.294
286.14	36.794
286.51	36.073
286.87	34.913
287.24	35.843
287.61	34.529
287.98	33.082
288.35	34.911
288.72	34.320
289.08	36.018
289.45	33.580
289.82	33.283
290.19	32.040
290.56	33.521
290.93	32.668
291.29	33.058
291.66	32.507
292.03	31.750
292.40	33.741
292.77	30.189
293.13	30.988
293.50	32.852
293.87	30.336
294.24	30.667
294.60	30.468
294.97	29.530
295.34	29.834
295.71	27.995
296.08	29.070
296.44	29.289
296.81	28.136
297.18	29.016
297.55	28.184
297.91	28.707
298.28	27.488
298.65	27.348
299.02	27.863
299.38	28.833
299.75	27.804
300.12	27.662
300.48	27.074
300.85	27.447
301.22	28.076
301.59	26.712
301.95	27.232
302.32	27.111
302.69	27.163
303.05	26.333
303.42	27.162
303.79	26.146
304.15	26.393
304.52	26.216
304.89	25.340
305.25	26.915
305.62	25.601
305.99	26.804
306.35	25.806
306.72	27.611
307.09	24.772
307.45	24.431
307.82	26.539
308.19	25.025
308.55	25.458
308.92	26.582
309.29	25.192
309.65	25.146
310.02	25.149
310.38	25.000
310.75	25.243
311.12	25.983
311.48	24.927
311.85	23.932
312.22	24.858
312.58	25.540
312.95	24.761
313.31	25.926
313.68	25.000
314.05	26.920
314.41	25.501
314.78	25.068
315.14	24.864
315.51	25.023
315.87	25.653
316.24	25.845
316.61	25.577
316.97	24.525
317.34	23.810
317.70	25.153
318.07	25.750
318.43	25.085
318.80	25.251
319.16	24.635
319.53	23.650
319.89	23.751
320.26	24.466
320.62	23.848
320.99	24.654
321.35	23.937
321.72	26.326
322.08	24.887
322.45	24.932
322.81	25.542
323.18	25.133
323.54	24.483
323.91	24.911
324.27	23.752
324.64	25.105
325.00	24.627
325.37	23.505
325.73	24.959
326.10	24.818
326.46	24.756
326.83	24.420
327.19	24.488
327.56	24.901
327.92	24.626
328.29	24.516
328.65	23.786
329.01	23.519
329.38	23.252
329.74	24.658
330.11	25.086
330.47	23.926
330.84	23.084
331.20	24.417
331.56	24.263
331.93	24.184
332.29	25.424
332.66	26.080
333.02	23.534
333.38	22.651
333.75	22.896
334.11	23.686
334.48	24.257
334.84	25.149
335.20	23.426
335.57	24.115
335.93	23.802
336.29	22.463
336.66	23.717
337.02	24.247
337.38	24.745
337.75	22.810
338.11	23.549
338.47	24.069
338.84	23.604
339.20	22.157
339.56	23.064
339.93	24.138
340.29	23.269
340.65	23.277
341.02	22.187
341.38	24.252
341.74	23.890
342.11	23.411
342.47	21.604
342.83	23.510
343.20	23.630
343.56	22.374
343.92	22.578
344.28	21.484
344.65	23.178
345.01	22.231
345.37	23.095
345.73	22.837
346.10	23.791
346.46	23.022
346.82	22.547
347.19	22.689
347.55	22.686
347.91	22.957
348.27	22.458
348.63	22.544
349.00	21.775
349.36	22.974
349.72	21.726
350.08	22.808
350.45	21.597
350.81	21.946
351.17	22.331
351.53	23.275
351.89	22.020
352.26	22.239
352.62	22.388
352.98	22.061
353.34	22.106
353.70	22.342
354.07	22.057
354.43	22.551
354.79	21.391
355.15	22.664
355.51	22.442
355.87	22.139
356.24	22.205
356.60	21.582
356.96	22.090
357.32	21.264
357.68	21.523
358.04	21.482
358.40	20.746
358.77	21.930
359.13	20.679
359.49	21.041
359.85	21.175
360.21	21.808
360.57	21.464
360.93	21.016
361.29	21.053
361.66	22.013
362.02	22.756
362.38	21.644
362.74	20.740
363.10	21.320
363.46	21.814
363.82	20.526
364.18	21.253
364.54	21.508
364.90	21.538
365.26	21.034
365.62	20.933
365.98	20.694
366.35	21.007
366.71	21.905
367.07	21.448
367.43	21.208
367.79	21.102
368.15	21.739
368.51	21.854
368.87	20.705
369.23	21.000
369.59	20.833
369.95	21.433
370.31	21.202
370.67	21.527
371.03	21.399
371.39	19.342
371.75	21.527
372.11	21.612
372.47	20.718
372.83	21.531
373.19	21.414
373.55	21.138
373.91	19.973
374.27	20.763
374.63	21.989
374.99	20.358
375.35	21.948
375.71	21.419
376.07	21.885
376.42	21.159
376.78	21.504
377.14	21.335
377.50	21.063
377.86	21.244
378.22	20.958
378.58	20.630
378.94	21.009
379.30	22.027
379.66	21.223
380.02	21.293
380.38	21.371
380.74	21.070
381.09	20.732
381.45	21.477
381.81	21.604
382.17	21.081
382.53	21.345
382.89	20.542
383.25	20.926
383.61	20.312
383.97	20.966
384.32	21.950
384.68	20.824
385.04	21.168
385.40	21.626
385.76	21.981
386.12	21.065
386.48	22.000
386.83	21.335
387.19	20.510
387.55	21.068
387.91	20.947
388.27	22.517
388.62	21.535
388.98	21.151
389.34	21.567
389.70	21.732
390.06	21.433
390.42	21.145
390.77	21.011
391.13	21.538
391.49	22.162
391.85	21.091
392.20	21.767
392.56	22.268
392.92	21.647
393.28	22.112
393.64	21.173
393.99	22.255
394.35	21.963
394.71	22.395
395.07	21.796
395.42	21.531
395.78	21.938
396.14	22.400
396.50	21.081
396.85	22.004
397.21	21.243
397.57	22.144
397.92	21.879
398.28	21.238
398.64	21.625
399.00	21.099
399.35	21.152
399.71	21.467
400.07	21.224
400.42	20.955
400.78	22.049
401.14	21.400
401.49	21.489
401.85	21.802
402.21	21.379
402.57	22.007
402.92	20.390
403.28	21.253
403.63	21.241
403.99	21.021
404.35	21.262
404.70	20.907
405.06	21.141
405.42	21.370
405.77	20.883
406.13	21.124
406.49	21.396
406.84	21.551
407.20	20.850
407.55	20.957
407.91	21.684
408.27	20.789
408.62	21.233
408.98	21.532
409.34	20.235
409.69	20.705
410.05	20.750
410.40	21.810
410.76	21.593
411.11	21.157
411.47	21.499
411.83	21.046
412.18	21.084
412.54	21.103
412.89	20.896
413.25	20.937
413.60	21.137
413.96	20.979
414.31	21.133
414.67	21.586
415.03	21.108
415.38	20.744
415.74	21.319
416.09	21.160
416.45	20.852
416.80	21.175
417.16	20.881
417.51	20.672
417.87	21.704
418.22	20.958
418.58	20.198
418.93	22.061
419.29	21.332
419.64	20.168
420.00	20.475
420.35	20.887
420.71	20.965
421.06	20.184
421.42	20.585
421.77	20.625
422.12	21.247
422.48	20.276
422.83	21.468
423.19	20.849
423.54	20.852
423.90	20.541
424.25	21.013
424.61	20.896
424.96	21.527
425.31	21.178
425.67	20.880
426.02	21.693
426.38	21.642
426.73	20.647
427.09	21.107
427.44	20.153
427.79	20.619
428.15	19.920
428.50	20.225
428.85	20.723
429.21	21.170
429.56	20.632
429.92	20.885
430.27	20.145
430.62	21.104
430.98	20.462
431.33	20.479
431.68	20.594
432.04	20.975
432.39	22.121
432.74	20.263
433.10	20.660
433.45	20.401
433.80	20.333
434.16	20.919
434.51	20.966
434.86	21.553
435.22	20.776
435.57	21.108
435.92	20.479
436.28	20.819
436.63	20.863
436.98	20.021
437.34	20.575
437.69	20.693
438.04	20.254
438.39	20.391
438.75	20.476
439.10	20.560
439.45	20.291
439.81	20.169
440.16	20.214
440.51	20.346
440.86	20.345
441.22	19.936
441.57	20.283
441.92	19.787
442.27	21.667
442.63	20.964
442.98	20.598
443.33	20.936
443.68	20.168
444.03	21.778
444.39	20.851
444.74	20.572
445.09	20.122
445.44	20.443
445.79	20.307
446.15	20.709
446.50	20.362
446.85	20.331
447.20	20.986
447.55	20.345
447.91	19.791
448.26	20.032
448.61	20.616
448.96	21.084
449.31	20.679
449.66	19.880
450.02	21.361
450.37	20.618
450.72	20.614
451.07	21.241
451.42	20.797
451.77	20.567
452.12	21.275
452.47	20.618
452.83	20.777
453.18	19.848
453.53	20.333
453.88	20.155
454.23	20.678
454.58	20.894
454.93	19.417
455.28	20.891
455.63	19.727
455.98	20.335
456.34	20.848
456.69	19.694
457.04	20.213
457.39	19.734
457.74	20.973
458.09	19.275
458.44	19.989
458.79	19.030
459.14	19.822
459.49	19.808
459.84	20.672
460.19	19.545
460.54	20.159
460.89	20.646
461.24	20.000
461.59	20.642
461.94	20.137
462.29	21.109
462.64	19.795
462.99	19.837
463.34	20.896
463.69	20.106
464.04	20.011
464.39	20.011
464.74	20.011
465.09	20.358
465.44	20.064
465.79	20.730
466.14	20.010
466.49	20.368
466.84	20.331
467.19	20.173
467.54	20.153
467.89	19.425
468.24	20.443
468.59	19.224
468.94	20.047
469.29	19.496
469.64	20.598
469.99	19.694
470.34	19.059
470.68	20.027
471.03	20.170
471.38	19.751
471.73	19.766
472.08	19.797
472.43	20.108
472.78	19.710
473.13	19.532
473.48	19.940
473.83	19.327
474.17	19.285
474.52	19.302
474.87	20.266
475.22	19.718
475.57	19.886
475.92	18.915
476.27	19.968
476.61	19.367
476.96	18.613
477.31	19.703
477.66	20.042
478.01	19.268
478.36	19.242
478.70	19.606
479.05	19.734
479.40	19.694
479.75	19.933
480.10	19.801
480.45	19.417
480.79	19.637
481.14	19.072
481.49	19.627
481.84	19.626
482.19	19.441
482.53	19.108
482.88	20.425
483.23	18.808
483.58	19.476
483.92	19.060
484.27	19.348
484.62	18.647
484.97	19.946
485.31	18.972
485.66	18.499
486.01	18.966
486.36	19.333
486.70	20.488
487.05	20.840
487.40	20.710
487.75	20.509
488.09	20.456
488.44	20.160
488.79	20.573
489.13	20.094
489.48	19.534
489.83	18.954
490.17	18.267
490.52	19.089
490.87	18.697
491.22	18.544
491.56	19.497
491.91	18.884
492.26	19.256
492.60	18.671
492.95	19.219
493.30	18.288
493.64	18.572
493.99	19.035
494.34	18.162
494.68	18.158
495.03	19.207
495.37	19.352
495.72	19.274
496.07	18.931
496.41	18.275
496.76	19.641
497.11	19.193
497.45	18.472
497.80	19.147
498.14	19.002
498.49	18.888
498.84	19.516
499.18	18.668
499.53	18.700
499.87	18.945
500.22	18.611
500.56	18.668
500.91	18.902
501.26	19.000
501.60	18.869
501.95	19.627
502.29	19.702
502.64	19.370
502.98	18.723
503.33	18.790
503.67	18.273
504.02	19.221
504.36	18.543
504.71	18.374
505.06	18.872
505.40	19.104
505.75	18.989
506.09	19.475
506.44	18.802
506.78	18.945
507.13	19.318
507.47	18.948
507.82	18.939
508.16	18.642
508.51	18.753
508.85	18.422
509.19	18.948
509.54	18.972
509.88	18.358
510.23	19.233
510.57	19.285
510.92	18.771
511.26	18.567
511.61	18.252
511.95	18.448
512.30	18.907
512.64	17.991
512.98	18.409
513.33	18.599
513.67	18.511
514.02	19.315
514.36	18.517
514.70	18.542
515.05	19.030
515.39	18.793
515.74	19.883
516.08	18.067
516.42	19.309
516.77	18.244
517.11	17.690
517.46	18.611
517.80	19.188
518.14	18.988
518.49	17.950
518.83	17.669
519.17	17.717
519.52	18.291
519.86	18.743
520.20	18.104
520.55	18.456
520.89	18.243
521.23	18.314
521.58	18.814
521.92	18.414
522.26	18.041
522.61	18.056
522.95	18.743
523.29	19.023
523.64	17.601
523.98	18.939
524.32	19.484
524.66	17.814
525.01	18.063
525.35	18.093
525.69	18.503
526.04	18.140
526.38	17.874
526.72	18.454
527.06	17.830
527.41	18.776
527.75	18.290
528.09	19.126
528.43	18.236
528.78	18.786
529.12	18.349
529.46	18.662
529.80	18.021
530.15	18.841
530.49	18.268
530.83	18.359
531.17	18.519
531.51	17.990
531.86	19.171
532.20	18.841
532.54	17.594
532.88	18.182
533.22	18.209
533.57	19.042
533.91	19.360
534.25	18.372
534.59	19.023
534.93	18.506
535.27	17.972
535.62	19.386
535.96	18.942
536.30	18.978
536.64	18.559
536.98	19.188
537.32	18.395
537.66	18.341
538.01	17.764
538.35	17.540
538.69	18.269
539.03	19.129
539.37	18.846
539.71	19.099
540.05	18.405
540.39	18.215
540.73	17.729
541.07	18.271
541.42	18.193
541.76	17.616
542.10	18.999
542.44	18.210
542.78	18.796
543.12	19.011
543.46	18.498
543.80	18.405
544.14	18.312
544.48	18.381
544.82	19.390
545.16	19.917
545.50	18.814
545.84	17.942
546.18	20.062
546.52	18.153
546.86	19.119
547.20	18.702
547.54	18.664
547.88	18.867
548.22	18.070
548.56	18.666
548.90	18.687
549.24	18.663
549.58	18.927
549.92	17.857
550.26	18.964
550.60	19.081
550.94	18.499
551.28	19.010
551.62	18.935
551.96	18.964
552.30	19.057
552.64	18.046
552.98	18.091
553.32	19.743
553.66	18.521
554.00	19.105
554.34	18.726
554.68	18.205
555.02	18.857
555.36	19.855
555.69	17.745
556.03	18.222
556.37	19.650
556.71	19.277
557.05	18.850
557.39	19.044
557.73	18.626
558.07	17.550
558.41	19.468
558.75	17.715
559.08	18.928
559.42	18.930
559.76	18.657
560.10	17.816
560.44	18.865
560.78	18.500
561.12	19.027
561.45	18.917
561.79	19.597
562.13	19.100
562.47	18.187
562.81	19.177
563.15	19.192
563.48	19.826
563.82	18.863
564.16	19.019
564.50	19.428
564.84	19.292
565.17	20.000
565.51	18.239
565.85	18.765
566.19	18.376
566.52	18.841
566.86	19.298
567.20	18.162
567.54	18.640
567.88	19.266
568.21	18.972
568.55	19.424
568.89	20.109
569.23	19.941
569.56	18.953
569.90	19.743
570.24	19.798
570.57	19.564
570.91	20.514
571.25	20.364
571.59	20.206
571.92	20.309
572.26	20.566
572.60	20.093
572.93	20.512
573.27	20.596
573.61	20.408
573.95	20.126
574.28	20.065
574.62	20.396
574.96	20.291
575.29	20.423
575.63	20.467
575.97	20.479
576.30	19.862
576.64	20.377
576.98	20.433
577.31	20.521
577.65	21.028
577.98	20.200
578.32	20.316
578.66	20.675
578.99	20.479
579.33	20.854
579.67	20.490
580.00	20.454
580.34	20.004
580.67	20.366
581.01	20.619
581.35	20.242
581.68	20.124
582.02	20.635
582.35	21.095
582.69	21.040
583.02	21.155
583.36	21.277
583.70	20.723
584.03	20.878
584.37	20.834
584.70	20.293
585.04	20.274
585.37	20.128
585.71	20.453
586.04	20.432
586.38	20.636
586.72	20.481
587.05	20.491
587.39	20.469
587.72	20.909
588.06	20.938
588.39	20.563
588.73	20.317
589.06	20.796
589.40	20.129
589.73	20.533
590.07	20.325
590.40	20.453
590.73	20.396
591.07	20.514
591.40	20.140
591.74	19.634
592.07	20.382
592.41	19.637
592.74	19.666
593.08	19.713
593.41	20.735
593.75	20.402
594.08	20.812
594.41	20.385
594.75	19.861
595.08	20.458
595.42	19.773
595.75	20.310
596.09	21.315
596.42	19.993
596.75	20.301
597.09	21.131
597.42	20.262
597.75	20.267
598.09	20.198
598.42	20.386
598.76	19.755
599.09	19.936
599.42	19.611
599.76	20.238
600.09	20.621
600.42	20.220
600.76	20.343
601.09	19.881
601.42	20.014
601.76	20.655
602.09	20.014
602.42	20.429
602.76	20.443
603.09	20.374
603.42	19.906
603.76	20.437
604.09	20.653
604.42	20.881
604.76	19.749
605.09	20.981
605.42	20.016
605.75	20.038
606.09	20.157
606.42	20.139
606.75	19.903
607.09	19.624
607.42	19.615
607.75	20.477
608.08	19.692
608.42	20.193
608.75	20.025
609.08	19.482
609.41	19.674
609.75	20.134
610.08	20.009
610.41	19.244
610.74	19.748
611.07	19.938
611.41	20.852
611.74	21.016
612.07	20.243
612.40	19.867
612.73	18.729
613.07	20.000
613.40	19.923
613.73	20.077
614.06	19.971
614.39	19.679
614.72	19.311
615.06	19.538
615.39	19.043
615.72	19.573
616.05	20.155
616.38	20.030
616.71	20.272
617.05	19.329
617.38	19.957
617.71	19.708
618.04	20.022
618.37	19.727
618.70	20.136
619.03	19.056
619.36	18.804
619.69	20.115
620.03	19.774
620.36	18.773
620.69	19.432
621.02	19.685
621.35	19.303
621.68	20.680
622.01	18.790
622.34	18.480
622.67	19.244
623.00	18.084
623.33	18.912
623.66	20.233
623.99	19.026
624.32	19.298
624.65	19.048
624.99	18.921
625.32	20.118
625.65	19.488
625.98	19.322
626.31	18.285
626.64	19.341
626.97	18.605
627.30	17.920
627.63	18.455
627.96	19.219
628.29	18.521
628.62	18.808
628.95	18.405
629.28	18.012
629.61	18.434
629.94	17.406
630.26	18.559
630.59	17.185
630.92	18.355
631.25	18.068
631.58	18.362
631.91	17.338
632.24	18.444
632.57	17.268
632.90	17.854
633.23	18.469
633.56	18.265
633.89	18.079
634.22	17.256
634.55	18.580
634.88	16.342
635.20	19.160
635.53	18.870
635.86	19.393
636.19	18.558
636.52	17.932
636.85	19.714
637.18	17.775
637.51	18.065
637.83	19.934
638.16	17.857
638.49	17.254
638.82	18.038
639.15	17.755
639.48	18.707
639.81	18.245
640.13	18.139
640.46	17.212
640.79	16.544
641.12	18.634
641.45	16.562
641.77	19.127
642.10	15.354
642.43	18.484
642.76	15.989
643.09	18.082
643.41	17.367
643.74	16.276
644.07	17.103
644.40	16.549
644.73	16.691
645.05	16.153
645.38	18.705
645.71	15.836
646.04	17.934
646.36	15.328
646.69	17.638
647.02	19.419
647.35	18.779
647.67	18.196
648.00	17.516
648.33	17.417
648.66	16.833
648.98	15.782
649.31	17.862
649.64	18.327
649.96	18.568
650.29	16.968
650.62	18.388
650.94	17.417
651.27	16.168
651.60	17.105
651.92	16.261
652.25	17.945
652.58	16.781
652.90	16.715
653.23	19.014
653.56	17.832
653.88	19.242
654.21	17.324
654.54	17.341
654.86	18.414
655.19	16.437
655.52	18.915
655.84	18.978
656.17	24.090
656.49	34.335
656.82	38.712
657.15	30.912
657.47	23.450
657.80	17.396
658.13	13.688
658.45	18.034
658.78	22.309
659.10	21.733
659.43	21.245
659.75	20.632
660.08	20.000
660.41	18.362
660.73	15.735
661.06	18.062
661.38	17.225
661.71	15.690
662.03	14.991
662.36	15.742
662.68	17.261
663.01	16.460
663.33	17.391
663.66	16.484
663.98	16.538
664.31	15.760
664.63	14.836
664.96	17.786
665.28	14.338
665.61	17.133
665.93	17.857
666.26	15.950
666.58	17.343
666.91	16.636
667.23	16.571
667.56	15.976
667.88	17.200
668.21	15.039
668.53	18.533
668.86	16.503
669.18	15.071
669.50	16.302
669.83	14.400
670.15	15.945
670.48	17.063
670.80	16.252
671.13	14.178
671.45	16.339
671.77	18.644
672.10	17.000
672.42	15.696
672.75	16.129
673.07	17.313
673.39	16.795
673.72	17.617
674.04	17.759
674.37	18.605
674.69	18.695
675.01	16.762
675.34	16.221
675.66	18.914
675.98	19.216
676.31	16.211
676.63	18.441
676.95	15.900
677.28	16.331
677.60	15.551
677.92	15.163
678.25	16.088
678.57	18.683
678.89	17.918
679.22	16.899
679.54	17.265
679.86	14.915
680.18	14.428
680.51	17.925
680.83	18.167
681.15	16.724
681.48	17.789
681.80	18.480
682.12	16.608
682.44	16.194
682.77	16.312
683.09	17.045
683.41	18.217
683.73	18.216
684.06	16.052
684.38	17.174
684.70	18.312
685.02	17.040
685.34	15.973
685.67	15.773
685.99	16.718
686.31	17.006
686.63	17.062
686.96	17.508
687.28	16.938
687.60	17.003
687.92	16.077
688.24	19.533
688.56	16.034
688.89	17.060
689.21	17.221
689.53	16.471
689.85	15.976
690.17	14.630
690.49	16.932
690.82	17.822
691.14	14.372
691.46	15.679
691.78	18.416
692.10	15.963
692.42	14.643
692.74	14.519
693.06	15.000
693.39	19.924
693.71	16.165
694.03	16.543
694.35	16.381
694.67	17.248
694.99	14.681
695.31	14.128
695.63	16.883
695.95	15.528
696.27	13.846
696.59	15.929
696.91	15.090
697.23	16.484
697.56	17.719
697.88	17.614
698.20	17.137
698.52	19.129
698.84	16.840
699.16	17.755
699.48	19.038
699.80	16.383
700.12	17.686
700.44	17.972
700.76	17.577
701.08	17.676
701.40	16.062
701.72	15.672
702.04	16.043
702.36	15.445
702.68	15.159
703.00	17.359
703.32	17.488
703.64	17.604
703.96	13.365
704.28	14.251
704.60	18.987
704.91	16.582
705.23	14.247
705.55	14.485
705.87	15.152
706.19	16.564
706.51	12.651
706.83	16.138
707.15	13.757
707.47	14.019
707.79	15.502
708.11	13.771
708.43	15.269
708.74	12.946
709.06	16.705
709.38	19.953
709.70	15.881
710.02	17.313
710.34	16.755
710.66	11.453
710.98	14.754
711.29	13.462
711.61	17.797
711.93	14.245
712.25	15.946
712.57	20.354
712.89	17.059
713.20	14.793
713.52	19.364
713.84	17.827
714.16	16.579
714.48	14.691
714.80	17.403
715.11	17.323
715.43	15.119
715.75	19.474
716.07	15.470
716.39	15.027
716.70	15.663
717.02	17.705
717.34	12.195
717.66	14.430
717.97	15.411
718.29	17.182
718.61	16.118
718.93	16.828
719.24	15.528
719.56	14.110
719.88	16.216
720.20	18.710
720.51	17.081
720.83	15.625
721.15	12.500
721.46	10.274
721.78	18.333
722.10	14.239
722.42	14.094
722.73	14.194
723.05	12.632
723.37	16.319
723.68	13.978
724.00	15.162
724.32	14.085
724.63	16.434
724.95	16.667
725.27	17.770
725.58	15.901
725.90	16.207
726.22	15.047
726.53	16.558
726.85	20.440
727.16	17.523
727.48	14.373
727.80	19.536
728.11	14.488
728.43	20.202
728.74	16.388
729.06	17.219
729.38	16.558
729.69	16.443
730.01	16.964
730.32	15.455
730.64	13.836
730.96	13.975
731.27	19.553
731.59	19.505
731.90	15.584
732.22	16.927
732.53	13.536
732.85	16.571
733.16	17.009
733.48	14.634
733.80	17.827
734.11	17.379
734.43	17.297
734.74	19.494
735.06	15.578
735.37	17.027
735.69	18.649
736.00	19.209
736.32	21.024
736.63	15.833
736.95	17.816
737.26	17.879
737.58	14.242
737.89	20.588
738.21	16.208
738.52	13.770
738.83	17.747
739.15	17.376
739.46	17.347
739.78	17.178
740.09	14.900
740.41	18.950
740.72	14.667
741.04	19.094
741.35	17.193
741.66	17.647
741.98	18.033
742.29	15.063
742.61	16.667
742.92	13.077
743.23	18.051
743.55	12.403
743.86	17.600
744.18	16.116
744.49	13.080
744.80	18.519
745.12	17.722
745.43	16.667
745.74	14.655
746.06	13.983
746.37	17.722
746.68	13.415
747.00	15.000
747.31	13.734
747.62	21.923
747.94	18.219
748.25	12.851
748.56	14.694
748.88	14.103
749.19	16.810
749.50	12.987
749.82	16.867
750.13	17.082
750.44	15.667
750.75	15.692
751.07	14.769
751.38	17.035
751.69	16.613
752.01	17.799
752.32	17.320
752.63	19.048
752.94	15.571
753.26	14.870
753.57	20.741
753.88	13.109
754.19	15.756
754.51	15.434
754.82	18.006
755.13	20.000
755.44	16.382
755.75	17.434
756.07	20.000
756.38	14.151
756.69	21.084
757.00	12.742
757.31	13.115
757.63	14.834
757.94	17.136
758.25	19.413
758.56	16.558
758.87	17.727
759.18	17.333
759.50	18.980
759.81	13.725
760.12	18.329
760.43	15.625
760.74	17.734
761.05	17.500
761.36	13.494
761.67	15.228
761.99	16.216
762.30	18.293
762.61	16.172
762.92	19.776
763.23	19.101
763.54	15.108
763.85	19.588
764.16	15.488
764.47	18.662
764.78	16.933
765.10	15.836
765.41	20.513
765.72	14.021
766.03	17.797
766.34	12.853
766.65	14.286
766.96	14.343
767.27	15.207
767.58	12.935
767.89	20.192
768.20	13.146
768.51	15.741
768.82	19.277
769.13	17.803
769.44	11.154
769.75	16.245
770.06	18.077
770.37	21.260
770.68	15.745
770.99	11.741
771.30	22.963
771.61	15.970
771.92	13.704
772.23	17.004
772.54	13.889
772.85	21.659
773.16	22.857
773.47	12.698
773.78	8.649
774.09	15.341
774.39	20.500
774.70	23.497
775.01	12.805
775.32	14.118
775.63	11.656
775.94	9.554
776.25	16.774
776.56	20.513
776.87	16.327
777.18	18.621
777.48	23.077
777.79	13.514
778.10	2.941
778.41	12.500
778.72	17.241
779.03	16.049
779.34	17.576
779.65	15.026
779.95	19.444
780.26	18.750
780.57	16.774
780.88	23.913
781.19	21.290
781.50	21.176
781.80	18.280
782.11	17.460
782.42	15.152
782.73	18.563
783.04	17.877
783.34	15.152
783.65	9.804
783.96	13.665
784.27	19.048
784.57	16.556
784.88	22.857
785.19	11.811
785.50	16.535
785.81	11.278
786.11	20.000
786.42	9.353
786.73	13.669
787.04	24.812
787.34	11.475
787.65	15.200
787.96	19.403
788.26	17.483
788.57	20.979
788.88	23.684
789.19	17.647
789.49	13.014
789.80	7.092
790.11	18.110
790.41	19.531
790.72	18.644
791.03	10.680
791.33	12.174
791.64	19.298
791.95	7.143
792.25	21.905
792.56	18.750
792.87	16.667
793.17	16.964
793.48	12.500
793.79	16.867
794.09	8.257
794.40	14.679
794.70	23.129
795.01	10.390
795.32	10.274
795.62	14.789
795.93	14.394
796.23	15.574
796.54	6.250
796.85	13.830
797.15	8.696
797.46	12.329
797.76	13.750
798.07	23.913
798.37	9.278
798.68	6.494
798.99	13.793
799.29	21.348
799.60	15.957
799.90	12.048
800.21	4.615
800.51	14.925
800.82	10.294
801.12	6.849
801.43	8.824
801.73	-1.695
802.04	10.606
802.34	-1.667
802.65	11.864
802.95	31.343
803.26	22.034
803.56	10.959
803.87	17.143
804.17	13.699
804.48	0.000
804.78	12.500
805.09	0.000
805.39	24.324
805.70	16.901
806.00	15.854
806.30	21.687
806.61	1.370
806.91	20.192
807.22	15.556
807.52	2.299
807.83	27.778
808.13	22.892
808.43	14.607
808.74	13.750
809.04	2.941
809.35	25.333
809.65	14.286
809.95	6.849
810.26	3.509
810.56	10.345
810.86	26.471
811.17	-3.509
811.47	-1.639
811.77	-26.667
812.08	-1.695
812.38	8.333
812.69	17.241
812.99	-5.660
813.29	-17.949
813.59	6.000
813.90	8.772
814.20	21.818
814.50	32.394
814.81	20.513
815.11	14.754
815.41	4.478
815.72	13.793
816.02	12.500
816.32	4.444
816.62	9.091
816.93	8.889
817.23	11.111
817.53	17.021
817.84	21.429
818.14	0.000
818.44	16.327
818.74	24.444
819.04	2.564
819.35	-17.143
819.65	15.385
819.95	18.868
820.25	68.889
820.56	21.429
820.86	15.625
821.16	-10.256
821.46	4.651
821.76	14.000
822.07	10.714
822.37	-8.696
822.67	12.766
822.97	0.000
823.27	-2.500
823.57	10.204
823.88	35.556
824.18	37.500
824.48	3.333
824.78	16.000
825.08	9.091
825.38	26.667
825.69	23.404
825.99	25.000
826.29	-28.571
826.59	-5.128
826.89	11.628
827.19	18.000
827.49	26.471
827.79	27.083
828.09	-13.514
828.39	-10.000
828.70	7.317
829.00	2.326
829.30	-25.000
829.60	17.647
829.90	21.739
830.20	0.000
830.50	-10.345
830.80	-5.556
831.10	7.692
831.40	11.765
831.70	0.000
832.00	61.290
832.30	-23.529
832.60	-12.500
832.90	-76.923
833.20	10.526
833.50	-40.000
833.80	-31.579
834.10	-42.857
834.40	25.000
834.70	28.125
835.00	-34.286
835.30	17.647
835.60	3.333
835.90	12.000
836.20	-77.273
836.50	28.000
836.80	24.242
837.10	3.704
837.40	29.630
837.70	-31.250
838.00	42.857
838.30	-21.739
838.60	-17.241
838.90	-28.571
839.19	-39.130
839.49	-75.000
839.79	-4.348
840.09	-25.000
840.39	0.000
840.69	16.129
840.99	-32.143
841.29	-6.667
841.59	26.316
841.88	35.897
842.18	-15.385
842.48	20.000
842.78	10.000
843.08	26.667
843.38	35.484
843.68	-27.778
843.97	-8.824
844.27	0.000
844.57	26.316
844.87	80.000
845.17	20.000
845.47	38.095
845.76	-9.524
846.06	-66.667
846.36	-70.588
846.66	30.769
846.96	-66.667
847.25	-64.706
847.55	-39.130
847.85	-15.000
848.15	5.882
848.44	-63.636
848.74	38.095
849.04	-29.167
849.34	112.500
849.63	0.000
849.93	500.000
850.23	33.333
850.53	50.000
850.82	9.091
851.12	31.818
851.42	18.182
851.71	-38.462
852.01	-5.000
852.31	7.692
852.61	47.368
852.90	16.667
853.20	0.000
853.50	-55.556
853.79	14.286
854.09	4.545
854.39	-41.667
854.68	-9.677
854.98	-15.385
855.28	22.222
855.57	3.571
855.87	8.000
856.17	-4.545
856.46	29.630
856.76	11.111
857.05	-8.696
857.35	-8.333
857.65	-46.154
857.94	23.810
858.24	51.852
858.53	8.696
858.83	23.529
859.13	35.294
859.42	-11.765
859.72	107.143
860.01	10.000
860.31	-11.111
860.60	0.000
860.90	66.667
861.20	-22.222
861.49	-61.538
861.79	43.333
862.08	-53.846
862.38	53.125
862.67	17.647
862.97	-31.250
863.26	33.333
863.56	60.000
863.85	36.364
864.15	33.333
864.44	-166.667
864.74	-28.571
865.03	93.750
865.33	0.000
865.62	9.677
865.92	18.182
866.21	39.130
866.51	35.714
866.80	-60.000
867.10	-58.333
867.39	-16.667
867.69	500.000
867.98	0.000
868.27	-17.647
868.57	-900.000
868.86	-100.000
869.16	4.762
869.45	4.167
869.75	-18.182
870.04	-71.429
870.33	-16.667
870.63	-85.714
870.92	125.000
871.22	-125.000
871.51	-9.091
871.80	-266.667
872.10	-300.000
>>>>>End Processed Spectral Data<<<<<
