SpectraSuite Data File
++++++++++++++++++++++++++++++++++++
Date: Thu May 14 14:56:20 PDT 2015
User: schluterlab
Dark Spectrum Present: Yes
Reference Spectrum Present: Yes
Number of Sampled Component Spectra: 1
Spectrometers: USB2E3373
Integration Time (usec): 3000 (USB2E3373)
Spectra Averaged: 3 (USB2E3373)
Boxcar Smoothing: 0 (USB2E3373)
Correct for Electrical Dark: No (USB2E3373)
Strobe/Lamp Enabled: No (USB2E3373)
Correct for Detector Non-linearity: No (USB2E3373)
Correct for Stray Light: No (USB2E3373)
Number of Pixels in Processed Spectrum: 2048
>>>>>Begin Processed Spectral Data<<<<<
178.53	0.000
178.91	242.857
179.29	-3300.000
179.67	-1800.000
180.04	207.143
180.42	150.000
180.80	240.000
181.18	-2400.000
181.56	-800.000
181.94	450.000
182.31	-425.000
182.69	366.667
183.07	-1050.000
183.45	450.000
183.83	-350.000
184.20	-800.000
184.58	2000.000
184.96	-700.000
185.34	-300.000
185.72	-180.000
186.09	300.000
186.47	1250.000
186.85	440.000
187.23	-133.333
187.61	-2400.000
187.98	360.000
188.36	275.000
188.74	-525.000
189.12	-500.000
189.49	-31.250
189.87	-187.500
190.25	-122.222
190.63	-420.000
191.00	-288.889
191.38	0.000
191.76	-600.000
192.14	-283.333
192.51	900.000
192.89	-50.000
193.27	0.000
193.65	-285.714
194.02	-1700.000
194.40	-342.857
194.78	185.714
195.15	0.000
195.53	-163.636
195.91	0.000
196.29	-300.000
196.66	-115.385
197.04	-3400.000
197.42	-228.571
197.79	-1150.000
198.17	-250.000
198.55	-242.857
198.92	-177.778
199.30	-337.500
199.68	-172.727
200.05	-57.143
200.43	-1450.000
200.81	357.143
201.18	0.000
201.56	366.667
201.94	0.000
202.31	833.333
202.69	-255.556
203.07	900.000
203.44	11.111
203.82	-500.000
204.19	-125.000
204.57	-333.333
204.95	-312.500
205.32	-2000.000
205.70	225.000
206.08	-233.333
206.45	-150.000
206.83	640.000
207.20	-316.667
207.58	-420.000
207.96	-266.667
208.33	-200.000
208.71	166.667
209.08	-216.667
209.46	0.000
209.84	566.667
210.21	1000.000
210.59	850.000
210.96	833.333
211.34	-225.000
211.71	-200.000
212.09	-1000.000
212.46	0.000
212.84	1150.000
213.22	-480.000
213.59	-400.000
213.97	-130.000
214.34	-666.667
214.72	333.333
215.09	-550.000
215.47	0.000
215.84	200.000
216.22	1300.000
216.59	-320.000
216.97	-280.000
217.34	-500.000
217.72	-262.500
218.09	-550.000
218.47	-550.000
218.84	0.000
219.22	480.000
219.59	-105.882
219.97	-75.000
220.34	1050.000
220.72	-155.556
221.09	-84.615
221.47	-266.667
221.84	-110.000
222.22	-285.714
222.59	0.000
222.97	-187.500
223.34	-460.000
223.72	-1800.000
224.09	-475.000
224.46	-650.000
224.84	-400.000
225.21	-385.714
225.59	-500.000
225.96	-775.000
226.34	-34.615
226.71	383.333
227.08	-800.000
227.46	-20.000
227.83	-500.000
228.21	-73.684
228.58	212.500
228.95	1300.000
229.33	-116.667
229.70	-170.000
230.08	-47.368
230.45	230.000
230.82	-600.000
231.20	-64.286
231.57	-133.333
231.95	-109.091
232.32	-36.364
232.69	-40.000
233.07	-525.000
233.44	-82.353
233.81	-220.000
234.19	-27.778
234.56	-86.364
234.93	-13.793
235.31	-68.421
235.68	-55.556
236.05	-90.000
236.43	-42.308
236.80	28.000
237.17	-40.741
237.55	-36.364
237.92	-280.000
238.29	-38.710
238.67	-31.818
239.04	-27.778
239.41	-47.619
239.79	-30.435
240.16	-25.926
240.53	-36.957
240.91	-9.804
241.28	-22.951
241.65	-4.478
242.02	-13.514
242.40	-27.692
242.77	-14.667
243.14	-24.390
243.51	-17.105
243.89	-24.359
244.26	-7.921
244.63	-9.804
245.00	-2.804
245.38	-4.386
245.75	-20.354
246.12	-0.794
246.49	-10.078
246.87	-4.286
247.24	-3.311
247.61	0.000
247.98	0.671
248.36	-2.469
248.73	-4.908
249.10	-3.279
249.47	3.483
249.84	2.094
250.22	-3.109
250.59	0.556
250.96	4.091
251.33	0.000
251.70	3.419
252.08	5.833
252.45	4.098
252.82	-1.653
253.19	-2.344
253.56	3.042
253.94	1.923
254.31	1.515
254.68	5.594
255.05	6.189
255.42	2.381
255.79	2.913
256.16	-0.662
256.54	2.980
256.91	4.590
257.28	2.295
257.65	1.911
258.02	0.590
258.39	3.134
258.76	5.810
259.14	5.747
259.51	2.305
259.88	2.833
260.25	5.556
260.62	5.753
260.99	7.104
261.36	5.630
261.73	4.775
262.10	3.846
262.47	4.558
262.85	5.808
263.22	1.039
263.59	-2.632
263.96	3.325
264.33	0.512
264.70	4.444
265.07	6.205
265.44	6.122
265.81	2.778
266.18	5.215
266.55	2.902
266.92	1.822
267.29	3.282
267.66	3.548
268.03	4.148
268.40	5.010
268.77	2.961
269.14	2.203
269.51	3.509
269.88	5.533
270.25	3.823
270.62	2.110
270.99	3.636
271.36	5.545
271.73	3.536
272.10	6.814
272.47	3.006
272.84	3.414
273.21	3.407
273.58	4.839
273.95	3.077
274.32	3.802
274.69	3.482
275.06	4.762
275.43	4.251
275.80	3.527
276.17	3.889
276.54	3.358
276.91	1.968
277.28	5.244
277.65	3.411
278.02	2.757
278.39	3.986
278.76	3.163
279.13	3.546
279.50	4.639
279.87	4.293
280.23	1.056
280.60	6.271
280.97	4.112
281.34	4.244
281.71	6.768
282.08	3.987
282.45	2.291
282.82	3.454
283.19	1.454
283.56	3.279
283.92	4.354
284.29	6.477
284.66	4.433
285.03	2.724
285.40	4.637
285.77	4.334
286.14	3.817
286.51	3.653
286.87	3.160
287.24	4.217
287.61	3.737
287.98	3.021
288.35	3.107
288.72	5.325
289.08	5.710
289.45	3.846
289.82	4.367
290.19	4.598
290.56	5.775
290.93	4.993
291.29	5.372
291.66	5.096
292.03	3.528
292.40	4.626
292.77	4.178
293.13	4.871
293.50	3.679
293.87	3.356
294.24	6.000
294.60	6.068
294.97	2.953
295.34	5.378
295.71	5.044
296.08	5.426
296.44	3.554
296.81	4.263
297.18	4.732
297.55	5.307
297.91	5.457
298.28	4.384
298.65	5.945
299.02	4.959
299.38	6.751
299.75	5.374
300.12	6.134
300.48	6.336
300.85	5.062
301.22	6.376
301.59	5.251
301.95	7.458
302.32	5.889
302.69	6.243
303.05	5.876
303.42	5.876
303.79	6.146
304.15	6.204
304.52	5.814
304.89	6.702
305.25	6.315
305.62	6.270
305.99	7.526
306.35	7.258
306.72	6.618
307.09	6.396
307.45	7.350
307.82	6.660
308.19	7.972
308.55	6.654
308.92	7.108
309.29	7.088
309.65	7.505
310.02	6.733
310.38	6.890
310.75	6.990
311.12	8.533
311.48	7.625
311.85	8.357
312.22	8.065
312.58	9.014
312.95	7.553
313.31	9.033
313.68	9.249
314.05	10.569
314.41	9.107
314.78	8.992
315.14	8.893
315.51	10.619
315.87	10.891
316.24	9.863
316.61	11.279
316.97	9.502
317.34	10.582
317.70	10.830
318.07	11.111
318.43	11.480
318.80	10.953
319.16	10.730
319.53	10.111
319.89	9.465
320.26	11.566
320.62	10.993
320.99	11.542
321.35	11.183
321.72	12.744
322.08	11.001
322.45	12.376
322.81	11.823
323.18	12.301
323.54	12.672
323.91	14.591
324.27	13.769
324.64	14.777
325.00	14.760
325.37	14.578
325.73	16.446
326.10	16.464
326.46	16.531
326.83	16.493
327.19	17.795
327.56	17.233
327.92	18.568
328.29	18.306
328.65	19.012
329.01	18.528
329.38	19.545
329.74	20.719
330.11	21.404
330.47	20.640
330.84	19.983
331.20	21.417
331.56	20.104
331.93	21.674
332.29	23.220
332.66	22.924
333.02	22.194
333.38	22.651
333.75	22.391
334.11	23.436
334.48	22.772
334.84	23.025
335.20	23.594
335.57	23.019
335.93	23.636
336.29	22.962
336.66	21.362
337.02	22.993
337.38	23.980
337.75	22.479
338.11	24.558
338.47	24.069
338.84	24.450
339.20	22.915
339.56	24.382
339.93	22.496
340.29	23.430
340.65	22.384
341.02	25.379
341.38	24.656
341.74	23.487
342.11	24.457
342.47	22.399
342.83	25.362
343.20	24.285
343.56	24.940
343.92	24.179
344.28	23.672
344.65	25.349
345.01	24.415
345.37	23.717
345.73	24.786
346.10	24.727
346.46	24.446
346.82	23.521
347.19	25.363
347.55	23.900
347.91	25.186
348.27	24.810
348.63	25.590
349.00	25.578
349.36	25.130
349.72	24.702
350.08	25.632
350.45	24.183
350.81	24.510
351.17	25.038
351.53	25.398
351.89	25.968
352.26	24.328
352.62	24.254
352.98	25.420
353.34	24.421
353.70	25.578
354.07	25.633
354.43	25.057
354.79	25.206
355.15	25.313
355.51	25.439
355.87	24.383
356.24	26.464
356.60	25.277
356.96	26.464
357.32	24.238
357.68	24.597
358.04	25.973
358.40	25.896
358.77	26.316
359.13	26.883
359.49	25.651
359.85	25.743
360.21	26.184
360.57	25.844
360.93	26.798
361.29	27.439
361.66	26.647
362.02	27.209
362.38	26.915
362.74	27.235
363.10	26.754
363.46	26.524
363.82	26.136
364.18	27.516
364.54	26.625
364.90	27.893
365.26	27.724
365.62	27.000
365.98	27.502
366.35	27.718
366.71	27.279
367.07	27.064
367.43	27.315
367.79	28.467
368.15	28.763
368.51	28.146
368.87	26.911
369.23	27.933
369.59	28.142
369.95	27.383
370.31	28.224
370.67	28.680
371.03	29.432
371.39	28.005
371.75	29.780
372.11	28.117
372.47	29.384
372.83	29.516
373.19	28.486
373.55	28.997
373.91	29.039
374.27	27.943
374.63	29.364
374.99	29.708
375.35	29.610
375.71	28.645
376.07	29.761
376.42	29.912
376.78	30.392
377.14	30.193
377.50	30.424
377.86	29.926
378.22	30.120
378.58	29.786
378.94	31.045
379.30	31.049
379.66	30.982
380.02	31.968
380.38	31.279
380.74	31.211
381.09	30.952
381.45	31.591
381.81	33.138
382.17	31.235
382.53	31.871
382.89	32.280
383.25	32.356
383.61	31.887
383.97	31.567
384.32	31.758
384.68	31.903
385.04	32.215
385.40	32.823
385.76	33.587
386.12	31.897
386.48	32.765
386.83	34.505
387.19	31.692
387.55	32.042
387.91	32.420
388.27	33.430
388.62	32.932
388.98	32.205
389.34	32.764
389.70	34.108
390.06	33.037
390.42	33.072
390.77	34.437
391.13	32.746
391.49	33.756
391.85	32.606
392.20	33.274
392.56	33.018
392.92	33.097
393.28	32.781
393.64	33.296
393.99	33.469
394.35	33.762
394.71	34.371
395.07	33.533
395.42	32.496
395.78	34.430
396.14	34.878
396.50	33.789
396.85	33.035
397.21	34.024
397.57	32.686
397.92	34.250
398.28	32.754
398.64	33.924
399.00	32.827
399.35	33.979
399.71	33.804
400.07	34.250
400.42	33.353
400.78	33.912
401.14	33.409
401.49	34.224
401.85	33.547
402.21	33.314
402.57	34.918
402.92	34.220
403.28	33.255
403.63	32.518
403.99	33.254
404.35	32.746
404.70	32.691
405.06	33.261
405.42	33.841
405.77	33.642
406.13	33.063
406.49	33.277
406.84	33.075
407.20	33.594
407.55	33.979
407.91	34.129
408.27	32.391
408.62	33.450
408.98	33.314
409.34	31.730
409.69	33.313
410.05	32.239
410.40	33.121
410.76	33.427
411.11	33.606
411.47	32.924
411.83	33.980
412.18	33.735
412.54	32.247
412.89	33.586
413.25	32.731
413.60	32.740
413.96	34.033
414.31	33.371
414.67	33.572
415.03	33.538
415.38	33.165
415.74	33.965
416.09	33.806
416.45	32.436
416.80	33.660
417.16	34.163
417.51	33.998
417.87	33.906
418.22	34.132
418.58	33.953
418.93	34.750
419.29	34.834
419.64	34.334
420.00	33.353
420.35	34.194
420.71	34.233
421.06	34.388
421.42	34.346
421.77	34.303
422.12	35.307
422.48	34.460
422.83	36.583
423.19	36.286
423.54	36.892
423.90	35.229
424.25	35.840
424.61	35.419
424.96	35.420
425.31	37.208
425.67	36.339
426.02	36.801
426.38	37.141
426.73	37.667
427.09	37.832
427.44	37.794
427.79	37.811
428.15	37.500
428.50	37.416
428.85	38.002
429.21	38.617
429.56	37.266
429.92	37.494
430.27	37.542
430.62	38.935
430.98	38.465
431.33	38.514
431.68	38.458
432.04	39.411
432.39	38.190
432.74	39.098
433.10	39.805
433.45	38.685
433.80	39.700
434.16	38.120
434.51	40.288
434.86	40.825
435.22	40.489
435.57	39.976
435.92	39.733
436.28	39.306
436.63	41.617
436.98	39.291
437.34	41.488
437.69	40.286
438.04	40.137
438.39	40.322
438.75	39.513
439.10	40.751
439.45	40.637
439.81	40.734
440.16	40.161
440.51	41.416
440.86	40.133
441.22	40.622
441.57	41.352
441.92	40.883
442.27	42.576
442.63	41.431
442.98	41.782
443.33	41.084
443.68	41.427
444.03	41.863
444.39	41.886
444.74	41.603
445.09	40.902
445.44	42.518
445.79	42.002
446.15	41.624
446.50	41.034
446.85	41.148
447.20	41.925
447.55	42.364
447.91	42.670
448.26	42.970
448.61	41.764
448.96	43.240
449.31	42.312
449.66	42.375
450.02	42.247
450.37	41.982
450.72	42.626
451.07	43.223
451.42	42.692
451.77	43.413
452.12	42.551
452.47	43.018
452.83	43.412
453.18	42.790
453.53	43.079
453.88	42.684
454.23	42.938
454.58	43.471
454.93	43.447
455.28	44.371
455.63	42.752
455.98	43.575
456.34	43.345
456.69	44.092
457.04	44.740
457.39	44.013
457.74	43.904
458.09	43.602
458.44	43.103
458.79	43.218
459.14	43.209
459.49	44.029
459.84	44.596
460.19	42.810
460.54	44.747
460.89	43.833
461.24	44.253
461.59	44.881
461.94	43.754
462.29	44.681
462.64	44.780
462.99	43.817
463.34	43.997
463.69	43.845
464.04	45.581
464.39	42.489
464.74	43.786
465.09	44.521
465.44	44.474
465.79	44.104
466.14	43.095
466.49	44.053
466.84	45.399
467.19	43.988
467.54	44.066
467.89	43.333
468.24	44.211
468.59	43.833
468.94	43.531
469.29	43.971
469.64	43.992
469.99	44.614
470.34	43.255
470.68	45.660
471.03	45.318
471.38	45.389
471.73	45.644
472.08	45.622
472.43	44.792
472.78	44.899
473.13	44.501
473.48	44.773
473.83	45.270
474.17	44.783
474.52	46.182
474.87	44.850
475.22	45.183
475.57	44.860
475.92	44.649
476.27	44.409
476.61	44.548
476.96	44.838
477.31	45.693
477.66	45.960
478.01	45.806
478.36	44.566
478.70	46.059
479.05	46.268
479.40	45.656
479.75	45.485
480.10	44.623
480.45	45.624
480.79	46.077
481.14	46.278
481.49	45.934
481.84	44.386
482.19	46.280
482.53	46.699
482.88	45.680
483.23	46.109
483.58	45.852
483.92	45.080
484.27	45.385
484.62	45.050
484.97	44.907
485.31	43.858
485.66	41.075
486.01	40.406
486.36	42.033
486.70	44.621
487.05	47.088
487.40	45.902
487.75	45.852
488.09	45.309
488.44	45.129
488.79	45.025
489.13	44.605
489.48	44.427
489.83	45.392
490.17	45.808
490.52	44.745
490.87	46.320
491.22	46.707
491.56	45.648
491.91	45.966
492.26	46.646
492.60	46.261
492.95	46.599
493.30	46.437
493.64	46.781
493.99	45.614
494.34	45.427
494.68	46.809
495.03	46.696
495.37	46.693
495.72	47.302
496.07	46.713
496.41	44.745
496.76	46.038
497.11	45.648
497.45	46.483
497.80	47.579
498.14	46.531
498.49	46.094
498.84	46.938
499.18	46.334
499.53	46.457
499.87	46.242
500.22	46.082
500.56	46.109
500.91	46.453
501.26	47.818
501.60	46.443
501.95	46.591
502.29	46.775
502.64	46.874
502.98	46.721
503.33	45.572
503.67	47.013
504.02	45.841
504.36	47.721
504.71	46.624
505.06	47.112
505.40	47.532
505.75	47.404
506.09	46.639
506.44	47.772
506.78	47.936
507.13	47.211
507.47	47.371
507.82	47.064
508.16	47.610
508.51	47.398
508.85	47.048
509.19	47.229
509.54	47.743
509.88	47.450
510.23	47.790
510.57	47.366
510.92	47.557
511.26	47.138
511.61	46.789
511.95	46.803
512.30	47.218
512.64	46.027
512.98	47.174
513.33	47.833
513.67	48.496
514.02	48.441
514.36	47.724
514.70	47.865
515.05	49.114
515.39	47.664
515.74	49.099
516.08	47.861
516.42	48.980
516.77	47.792
517.11	46.777
517.46	48.462
517.80	49.172
518.14	48.368
518.49	49.078
518.83	48.483
519.17	47.604
519.52	47.432
519.86	49.155
520.20	48.456
520.55	47.755
520.89	48.818
521.23	48.018
521.58	49.718
521.92	48.669
522.26	48.797
522.61	48.611
522.95	48.616
523.29	48.448
523.64	48.543
523.98	48.089
524.32	50.716
524.66	48.549
525.01	48.641
525.35	49.282
525.69	47.912
526.04	46.843
526.38	48.908
526.72	49.135
527.06	48.915
527.41	48.571
527.75	48.812
528.09	46.694
528.43	47.069
528.78	47.746
529.12	47.878
529.46	48.173
529.80	48.055
530.15	48.058
530.49	48.873
530.83	48.288
531.17	49.940
531.51	49.218
531.86	48.017
532.20	48.232
532.54	47.277
532.88	48.606
533.22	47.024
533.57	46.913
533.91	47.363
534.25	47.880
534.59	47.414
534.93	46.972
535.27	47.155
535.62	47.186
535.96	48.402
536.30	46.357
536.64	48.709
536.98	48.585
537.32	47.716
537.66	49.095
538.01	46.586
538.35	45.798
538.69	47.055
539.03	48.007
539.37	46.938
539.71	47.207
540.05	48.441
540.39	46.516
540.73	46.509
541.07	47.823
541.42	46.131
541.76	45.967
542.10	46.864
542.44	46.102
542.78	47.141
543.12	47.080
543.46	45.910
543.80	45.683
544.14	46.918
544.48	47.872
544.82	47.397
545.16	47.406
545.50	45.956
545.84	45.254
546.18	47.531
546.52	47.643
546.86	46.792
547.20	47.074
547.54	47.191
547.88	47.197
548.22	46.491
548.56	46.284
548.90	47.940
549.24	46.809
549.58	46.498
549.92	47.130
550.26	47.055
550.60	47.160
550.94	47.671
551.28	45.875
551.62	48.315
551.96	46.861
552.30	46.590
552.64	45.986
552.98	46.663
553.32	47.460
553.66	46.881
554.00	46.469
554.34	47.812
554.68	45.126
555.02	46.124
555.36	47.074
555.69	45.612
556.03	45.082
556.37	46.058
556.71	46.100
557.05	46.070
557.39	47.711
557.73	45.178
558.07	46.026
558.41	46.379
558.75	46.450
559.08	47.738
559.42	45.130
559.76	46.744
560.10	46.149
560.44	46.900
560.78	46.375
561.12	46.613
561.45	45.742
561.79	46.154
562.13	46.827
562.47	45.006
562.81	47.089
563.15	46.528
563.48	45.805
563.82	46.312
564.16	45.609
564.50	44.934
564.84	45.841
565.17	46.118
565.51	44.764
565.85	46.021
566.19	43.952
566.52	44.939
566.86	46.180
567.20	43.883
567.54	44.450
567.88	44.343
568.21	44.121
568.55	43.981
568.89	43.078
569.23	43.177
569.56	43.103
569.90	42.124
570.24	42.934
570.57	41.982
570.91	41.090
571.25	41.597
571.59	40.857
571.92	41.205
572.26	40.948
572.60	40.868
572.93	41.024
573.27	40.770
573.61	40.233
573.95	40.350
574.28	39.851
574.62	40.041
574.96	39.943
575.29	39.150
575.63	39.871
575.97	39.281
576.30	39.946
576.64	39.728
576.98	39.749
577.31	39.838
577.65	39.435
577.98	38.893
578.32	38.776
578.66	38.824
578.99	39.033
579.33	40.084
579.67	39.619
580.00	39.402
580.34	39.114
580.67	38.967
581.01	39.507
581.35	38.515
581.68	38.864
582.02	38.648
582.35	40.020
582.69	39.891
583.02	39.768
583.36	39.515
583.70	39.650
584.03	39.645
584.37	40.163
584.70	39.364
585.04	38.642
585.37	39.174
585.71	39.115
586.04	38.639
586.38	39.763
586.72	39.584
587.05	38.961
587.39	39.965
587.72	39.426
588.06	40.111
588.39	40.179
588.73	40.026
589.06	40.576
589.40	40.904
589.73	40.681
590.07	40.418
590.40	40.297
590.73	40.368
591.07	41.251
591.40	41.563
591.74	41.494
592.07	41.575
592.41	40.536
592.74	40.185
593.08	40.701
593.41	39.924
593.75	39.425
594.08	40.200
594.41	40.769
594.75	39.887
595.08	39.872
595.42	40.779
595.75	39.974
596.09	41.037
596.42	40.846
596.75	41.297
597.09	41.576
597.42	40.564
597.75	40.455
598.09	42.024
598.42	39.646
598.76	39.855
599.09	39.836
599.42	39.490
599.76	39.881
600.09	40.274
600.42	39.439
600.76	39.993
601.09	39.628
601.42	40.027
601.76	40.276
602.09	40.100
602.42	39.477
602.76	40.775
603.09	40.896
603.42	40.137
603.76	39.429
604.09	41.270
604.42	40.734
604.76	39.954
605.09	41.045
605.42	40.670
605.75	40.154
606.09	39.231
606.42	39.548
606.75	39.280
607.09	39.670
607.42	39.538
607.75	40.094
608.08	39.937
608.42	39.500
608.75	40.381
609.08	39.219
609.41	40.185
609.75	41.250
610.08	41.601
610.41	40.229
610.74	39.748
611.07	40.409
611.41	40.897
611.74	41.016
612.07	41.187
612.40	41.445
612.73	41.858
613.07	40.978
613.40	41.386
613.73	40.636
614.06	40.677
614.39	40.622
614.72	40.175
615.06	39.894
615.39	40.793
615.72	39.905
616.05	40.797
616.38	41.473
616.71	40.387
617.05	39.989
617.38	41.306
617.71	41.307
618.04	41.230
618.37	42.131
618.70	43.100
619.03	41.637
619.36	41.615
619.69	41.576
620.03	40.866
620.36	40.920
620.69	41.949
621.02	42.782
621.35	44.267
621.68	44.902
622.01	42.206
622.34	41.632
622.67	42.474
623.00	41.970
623.33	42.269
623.66	41.115
623.99	41.870
624.32	43.405
624.65	41.763
624.99	42.198
625.32	41.346
625.65	42.886
625.98	42.508
626.31	42.027
626.64	43.077
626.97	43.136
627.30	42.293
627.63	41.635
627.96	44.069
628.29	43.658
628.62	43.745
628.95	44.435
629.28	44.095
629.61	44.949
629.94	44.017
630.26	42.712
630.59	43.351
630.92	41.905
631.25	44.812
631.58	46.798
631.91	44.424
632.24	44.476
632.57	44.782
632.90	45.838
633.23	45.714
633.56	45.612
633.89	44.628
634.22	45.426
634.55	45.511
634.88	46.212
635.20	45.640
635.53	46.667
635.86	44.745
636.19	44.963
636.52	45.675
636.85	44.637
637.18	44.491
637.51	45.269
637.83	44.408
638.16	45.853
638.49	45.775
638.82	45.209
639.15	44.215
639.48	46.767
639.81	46.074
640.13	45.347
640.46	44.364
640.79	44.118
641.12	44.099
641.45	45.797
641.77	47.497
642.10	45.932
642.43	48.005
642.76	45.393
643.09	45.616
643.41	46.639
643.74	47.448
644.07	47.172
644.40	45.120
644.73	46.880
645.05	47.137
645.38	47.626
645.71	45.748
646.04	47.202
646.36	46.423
646.69	46.933
647.02	47.095
647.35	47.328
647.67	48.148
648.00	49.204
648.33	47.447
648.66	46.790
648.98	44.490
649.31	44.249
649.64	46.481
649.96	44.164
650.29	45.341
650.62	43.989
650.94	44.144
651.27	44.012
651.60	45.614
651.92	45.897
652.25	47.033
652.58	43.604
652.90	44.477
653.23	44.507
653.56	43.081
653.88	43.680
654.21	44.225
654.54	44.364
654.86	46.034
655.19	42.409
655.52	41.740
655.84	37.299
656.17	42.438
656.49	58.857
656.82	64.003
657.15	50.407
657.47	38.801
657.80	28.982
658.13	22.602
658.45	29.771
658.78	36.218
659.10	34.824
659.43	34.530
659.75	34.576
660.08	32.493
660.41	35.070
660.73	38.426
661.06	42.291
661.38	43.222
661.71	47.931
662.03	45.679
662.36	46.333
662.68	46.904
663.01	45.664
663.33	48.960
663.66	47.985
663.98	47.115
664.31	48.593
664.63	45.665
664.96	45.191
665.28	41.198
665.61	45.629
665.93	46.071
666.26	45.878
666.58	44.649
666.91	47.103
667.23	45.333
667.56	49.507
667.88	48.000
668.21	44.531
668.53	42.857
668.86	45.776
669.18	48.473
669.50	46.918
669.83	46.600
670.15	47.441
670.48	49.405
670.80	45.889
671.13	45.558
671.45	44.882
671.77	48.776
672.10	40.000
672.42	43.689
672.75	41.475
673.07	41.940
673.39	41.448
673.72	42.450
674.04	46.034
674.37	45.617
674.69	43.210
675.01	46.095
675.34	43.130
675.66	42.322
675.98	43.284
676.31	48.047
676.63	44.106
676.95	47.318
677.28	46.573
677.60	45.276
677.92	47.601
678.25	44.973
678.57	49.110
678.89	40.785
679.22	42.334
679.54	42.735
679.86	42.881
680.18	42.786
680.51	43.239
680.83	43.699
681.15	44.138
681.48	44.041
681.80	46.287
682.12	42.657
682.44	40.401
682.77	43.262
683.09	43.561
683.41	44.961
683.73	44.782
684.06	42.804
684.38	40.787
684.70	44.883
685.02	41.997
685.34	41.431
685.67	42.114
685.99	42.025
686.31	37.645
686.63	41.864
686.96	41.167
687.28	41.857
687.60	41.077
687.92	39.711
688.24	44.741
688.56	38.276
688.89	41.198
689.21	43.640
689.53	40.392
689.85	43.590
690.17	41.667
690.49	40.837
690.82	41.584
691.14	40.081
691.46	42.065
691.78	40.700
692.10	41.835
692.42	40.179
692.74	39.564
693.06	39.630
693.39	40.987
693.71	41.729
694.03	41.264
694.35	41.714
694.67	44.764
694.99	42.766
695.31	44.150
695.63	42.208
695.95	42.029
696.27	42.198
696.59	41.150
696.91	42.117
697.23	41.978
697.56	37.678
697.88	38.447
698.20	41.808
698.52	42.045
698.84	41.788
699.16	41.020
699.48	42.259
699.80	40.426
700.12	38.865
700.44	43.088
700.76	41.568
701.08	41.404
701.40	43.523
701.72	42.040
702.04	45.455
702.36	40.576
702.68	42.543
703.00	39.120
703.32	41.379
703.64	41.809
703.96	38.902
704.28	42.506
704.60	43.544
704.91	39.796
705.23	43.288
705.55	42.061
705.87	47.273
706.19	46.319
706.51	39.759
706.83	42.939
707.15	38.889
707.47	39.953
707.79	40.611
708.11	38.136
708.43	40.860
708.74	37.277
709.06	39.907
709.38	41.549
709.70	43.672
710.02	40.568
710.34	41.489
710.66	40.503
710.98	42.350
711.29	37.912
711.61	42.938
711.93	42.735
712.25	38.108
712.57	44.543
712.89	45.294
713.20	40.533
713.52	43.353
713.84	42.061
714.16	40.263
714.48	43.814
714.80	43.377
715.11	38.058
715.43	39.257
715.75	39.737
716.07	40.608
716.39	38.525
716.70	39.759
717.02	40.656
717.34	38.676
717.66	40.604
717.97	37.329
718.29	38.832
718.61	38.816
718.93	39.482
719.24	42.857
719.56	38.650
719.88	35.135
720.20	42.581
720.51	37.578
720.83	41.875
721.15	41.118
721.46	38.356
721.78	40.000
722.10	33.981
722.42	41.275
722.73	41.613
723.05	41.754
723.37	40.278
723.68	43.011
724.00	43.321
724.32	36.620
724.63	36.364
724.95	42.199
725.27	41.463
725.58	38.163
725.90	42.069
726.22	37.931
726.53	37.013
726.85	36.478
727.16	38.671
727.48	37.309
727.80	40.397
728.11	33.216
728.43	41.077
728.74	39.465
729.06	41.722
729.38	38.961
729.69	39.597
730.01	38.988
730.32	33.333
730.64	38.994
730.96	35.714
731.27	39.665
731.59	33.791
731.90	32.727
732.22	36.719
732.53	34.254
732.85	37.714
733.16	38.123
733.48	35.976
733.80	37.883
734.11	36.182
734.43	37.568
734.74	38.987
735.06	33.668
735.37	36.486
735.69	39.189
736.00	37.288
736.32	36.658
736.63	35.833
736.95	31.897
737.26	35.758
737.58	35.152
737.89	35.588
738.21	33.945
738.52	34.098
738.83	36.177
739.15	37.943
739.46	39.796
739.78	36.196
740.09	32.378
740.41	35.277
740.72	38.667
741.04	39.159
741.35	36.140
741.66	34.902
741.98	38.934
742.29	37.238
742.61	36.842
742.92	34.615
743.23	38.628
743.55	38.372
743.86	30.400
744.18	33.471
744.49	31.646
744.80	39.918
745.12	44.304
745.43	35.366
745.74	38.362
746.06	41.102
746.37	37.975
746.68	40.244
747.00	37.917
747.31	41.631
747.62	36.538
747.94	37.652
748.25	35.341
748.56	34.286
748.88	32.906
749.19	41.379
749.50	35.065
749.82	42.570
750.13	36.655
750.44	38.667
750.75	34.154
751.07	33.846
751.38	34.700
751.69	35.463
752.01	33.657
752.32	33.660
752.63	34.694
752.94	37.370
753.26	38.662
753.57	36.667
753.88	39.700
754.19	36.013
754.51	38.264
754.82	37.942
755.13	38.033
755.44	40.956
755.75	37.500
756.07	34.925
756.38	34.906
756.69	35.843
757.00	32.687
757.31	33.880
757.63	33.248
757.94	33.333
758.25	34.086
758.56	33.769
758.87	32.045
759.18	34.667
759.50	35.694
759.81	35.014
760.12	33.962
760.43	34.635
760.74	35.714
761.05	32.500
761.36	31.566
761.67	30.964
761.99	31.351
762.30	34.756
762.61	29.703
762.92	33.955
763.23	32.584
763.54	29.496
763.85	35.739
764.16	34.007
764.47	32.394
764.78	35.783
765.10	33.138
765.41	35.128
765.72	33.333
766.03	32.486
766.34	28.527
766.65	32.753
766.96	30.279
767.27	31.336
767.58	30.348
767.89	36.058
768.20	32.394
768.51	37.037
768.82	36.145
769.13	36.364
769.44	33.077
769.75	34.296
770.06	34.615
770.37	35.827
770.68	34.043
770.99	28.745
771.30	37.407
771.61	31.939
771.92	27.778
772.23	35.223
772.54	30.093
772.85	34.562
773.16	39.524
773.47	30.159
773.78	22.162
774.09	36.932
774.39	29.500
774.70	31.694
775.01	31.098
775.32	24.706
775.63	31.902
775.94	28.025
776.25	36.129
776.56	32.051
776.87	36.054
777.18	28.966
777.48	34.266
777.79	27.027
778.10	32.353
778.41	36.111
778.72	33.103
779.03	32.099
779.34	27.273
779.65	32.642
779.95	33.889
780.26	26.705
780.57	32.903
780.88	33.333
781.19	35.484
781.50	32.353
781.80	37.097
782.11	33.862
782.42	28.283
782.73	31.737
783.04	25.698
783.34	26.061
783.65	31.373
783.96	22.360
784.27	30.357
784.57	31.126
784.88	32.857
785.19	26.772
785.50	26.772
785.81	28.571
786.11	33.077
786.42	23.022
786.73	17.266
787.04	28.571
787.34	27.869
787.65	29.600
787.96	28.358
788.26	27.972
788.57	27.273
788.88	29.605
789.19	41.176
789.49	21.918
789.80	35.461
790.11	22.835
790.41	30.469
790.72	24.576
791.03	19.417
791.33	25.217
791.64	24.561
791.95	21.429
792.25	14.286
792.56	16.964
792.87	32.292
793.17	21.429
793.48	21.875
793.79	13.253
794.09	26.606
794.40	28.440
794.70	28.571
795.01	19.481
795.32	19.863
795.62	25.352
795.93	22.727
796.23	28.689
796.54	19.643
796.85	21.277
797.15	19.565
797.46	19.178
797.76	10.000
798.07	23.913
798.37	13.402
798.68	23.377
798.99	20.690
799.29	21.348
799.60	20.213
799.90	20.482
800.21	18.462
800.51	13.433
800.82	17.647
801.12	4.110
801.43	4.412
801.73	6.780
802.04	21.212
802.34	6.667
802.65	6.780
802.95	25.373
803.26	1.695
803.56	13.699
803.87	17.143
804.17	23.288
804.48	1.754
804.78	15.278
805.09	15.517
805.39	29.730
805.70	8.451
806.00	20.732
806.30	8.434
806.61	8.219
806.91	22.115
807.22	23.333
807.52	12.644
807.83	27.778
808.13	32.530
808.43	14.607
808.74	12.500
809.04	7.353
809.35	17.333
809.65	17.143
809.95	15.068
810.26	-3.509
810.56	8.621
810.86	25.000
811.17	21.053
811.47	3.279
811.77	-6.667
812.08	15.254
812.38	5.000
812.69	13.793
812.99	15.094
813.29	-20.513
813.59	14.000
813.90	24.561
814.20	5.455
814.50	29.577
814.81	7.692
815.11	9.836
815.41	11.940
815.72	12.069
816.02	25.000
816.32	33.333
816.62	34.091
816.93	-11.111
817.23	9.259
817.53	4.255
817.84	19.048
818.14	-20.588
818.44	-2.041
818.74	11.111
819.04	-17.949
819.35	-8.571
819.65	-26.923
819.95	1.887
820.25	11.111
820.56	4.762
820.86	-6.250
821.16	-10.256
821.46	-20.930
821.76	2.000
822.07	16.071
822.37	-17.391
822.67	2.128
822.97	-16.216
823.27	0.000
823.57	14.286
823.88	2.222
824.18	17.500
824.48	3.333
824.78	-32.000
825.08	-9.091
825.38	6.667
825.69	19.149
825.99	2.778
826.29	-54.286
826.59	0.000
826.89	-32.558
827.19	2.000
827.49	-14.706
827.79	4.167
828.09	-13.514
828.39	-13.333
828.70	-12.195
829.00	2.326
829.30	-21.429
829.60	17.647
829.90	6.522
830.20	-8.571
830.50	-17.241
830.80	-44.444
831.10	-26.923
831.40	-20.588
831.70	4.762
832.00	12.903
832.30	-94.118
832.60	-58.333
832.90	-130.769
833.20	-10.526
833.50	-70.000
833.80	-47.368
834.10	-128.571
834.40	0.000
834.70	-12.500
835.00	-28.571
835.30	-20.588
835.60	-33.333
835.90	-44.000
836.20	-100.000
836.50	-8.000
836.80	-39.394
837.10	-7.407
837.40	-22.222
837.70	-181.250
838.00	-42.857
838.30	-34.783
838.60	-27.586
838.90	-114.286
839.19	-108.696
839.49	-133.333
839.79	-56.522
840.09	-118.750
840.39	-95.000
840.69	19.355
840.99	-7.143
841.29	-93.333
841.59	-100.000
841.88	-15.385
842.18	-26.923
842.48	-50.000
842.78	-10.000
843.08	-36.667
843.38	12.903
843.68	-88.889
843.97	-17.647
844.27	-87.500
844.57	-89.474
844.87	-140.000
845.17	-60.000
845.47	-47.619
845.76	-28.571
846.06	-155.556
846.36	-111.765
846.66	-30.769
846.96	-120.000
847.25	-105.882
847.55	-4.348
847.85	-45.000
848.15	-29.412
848.44	-172.727
848.74	-4.762
849.04	-87.500
849.34	-81.250
849.63	-8.696
849.93	950.000
850.23	-80.000
850.53	0.000
850.82	-136.364
851.12	-4.545
851.42	-181.818
851.71	-84.615
852.01	-30.000
852.31	-184.615
852.61	-68.421
852.90	-33.333
853.20	-11.111
853.50	-177.778
853.79	-76.190
854.09	-86.364
854.39	-175.000
854.68	6.452
854.98	-46.154
855.28	-11.111
855.57	-50.000
855.87	-40.000
856.17	-50.000
856.46	-22.222
856.76	-77.778
857.05	-100.000
857.35	-50.000
857.65	-69.231
857.94	-57.143
858.24	-7.407
858.53	-26.087
858.83	-64.706
859.13	-117.647
859.42	-94.118
859.72	-114.286
860.01	-85.000
860.31	-122.222
860.60	-170.000
860.90	-60.000
861.20	-50.000
861.49	-138.462
861.79	-23.333
862.08	-130.769
862.38	25.000
862.67	-17.647
862.97	-62.500
863.26	-255.556
863.56	-50.000
863.85	-81.818
864.15	-77.778
864.44	-466.667
864.74	-50.000
865.03	-31.250
865.33	-270.000
865.62	-25.806
865.92	22.727
866.21	4.348
866.51	-107.143
866.80	-360.000
867.10	-133.333
867.39	-200.000
867.69	2400.000
867.98	-200.000
868.27	-70.588
868.57	-2300.000
868.86	-270.000
869.16	-23.810
869.45	-37.500
869.75	-90.909
870.04	-257.143
870.33	-83.333
870.63	-414.286
870.92	-300.000
871.22	-312.500
871.51	-109.091
871.80	-633.333
872.10	-850.000
>>>>>End Processed Spectral Data<<<<<
