SpectraSuite Data File
++++++++++++++++++++++++++++++++++++
Date: Thu May 14 14:32:30 PDT 2015
User: schluterlab
Dark Spectrum Present: Yes
Reference Spectrum Present: Yes
Number of Sampled Component Spectra: 1
Spectrometers: USB2E3373
Integration Time (usec): 3000 (USB2E3373)
Spectra Averaged: 3 (USB2E3373)
Boxcar Smoothing: 0 (USB2E3373)
Correct for Electrical Dark: No (USB2E3373)
Strobe/Lamp Enabled: No (USB2E3373)
Correct for Detector Non-linearity: No (USB2E3373)
Correct for Stray Light: No (USB2E3373)
Number of Pixels in Processed Spectrum: 2048
>>>>>Begin Processed Spectral Data<<<<<
178.53	0.000
178.91	-214.286
179.29	500.000
179.67	2600.000
180.04	-57.143
180.42	-190.000
180.80	-240.000
181.18	1900.000
181.56	2400.000
181.94	-350.000
182.31	675.000
182.69	-533.333
183.07	950.000
183.45	-425.000
183.83	416.667
184.20	633.333
184.58	-2400.000
184.96	300.000
185.34	311.111
185.72	340.000
186.09	-66.667
186.47	-650.000
186.85	-140.000
187.23	166.667
187.61	1700.000
187.98	-220.000
188.36	-250.000
188.74	275.000
189.12	500.000
189.49	93.750
189.87	212.500
190.25	233.333
190.63	380.000
191.00	233.333
191.38	0.000
191.76	175.000
192.14	233.333
192.51	-750.000
192.89	366.667
193.27	0.000
193.65	242.857
194.02	1300.000
194.40	300.000
194.78	-242.857
195.15	0.000
195.53	209.091
195.91	0.000
196.29	550.000
196.66	153.846
197.04	800.000
197.42	285.714
197.79	750.000
198.17	225.000
198.55	185.714
198.92	255.556
199.30	187.500
199.68	200.000
200.05	207.143
200.43	400.000
200.81	-71.429
201.18	0.000
201.56	22.222
201.94	0.000
202.31	-466.667
202.69	88.889
203.07	-2900.000
203.44	133.333
203.82	325.000
204.19	208.333
204.57	350.000
204.95	150.000
205.32	2300.000
205.70	-550.000
206.08	300.000
206.45	433.333
206.83	-120.000
207.20	150.000
207.58	300.000
207.96	216.667
208.33	300.000
208.71	-58.333
209.08	433.333
209.46	0.000
209.84	-100.000
210.21	-1050.000
210.59	-950.000
210.96	-466.667
211.34	600.000
211.71	212.500
212.09	900.000
212.46	0.000
212.84	-400.000
213.22	220.000
213.59	425.000
213.97	150.000
214.34	466.667
214.72	-133.333
215.09	375.000
215.47	0.000
215.84	-414.286
216.22	-1000.000
216.59	420.000
216.97	120.000
217.34	350.000
217.72	300.000
218.09	650.000
218.47	200.000
218.84	0.000
219.22	-340.000
219.59	123.529
219.97	105.000
220.34	-350.000
220.72	211.111
221.09	207.692
221.47	533.333
221.84	200.000
222.22	142.857
222.59	0.000
222.97	300.000
223.34	220.000
223.72	900.000
224.09	275.000
224.46	600.000
224.84	380.000
225.21	228.571
225.59	500.000
225.96	425.000
226.34	57.692
226.71	-333.333
227.08	750.000
227.46	133.333
227.83	400.000
228.21	100.000
228.58	-150.000
228.95	-650.000
229.33	141.667
229.70	160.000
230.08	84.211
230.45	-140.000
230.82	333.333
231.20	107.143
231.57	158.333
231.95	109.091
232.32	109.091
232.69	75.000
233.07	425.000
233.44	141.176
233.81	180.000
234.19	150.000
234.56	63.636
234.93	82.759
235.31	68.421
235.68	72.222
236.05	70.000
236.43	103.846
236.80	92.000
237.17	81.481
237.55	48.485
237.92	130.000
238.29	77.419
238.67	34.091
239.04	69.444
239.41	50.000
239.79	43.478
240.16	40.741
240.53	39.130
240.91	29.412
241.28	26.230
241.65	50.746
242.02	32.432
242.40	26.154
242.77	40.000
243.14	17.073
243.51	19.737
243.89	28.205
244.26	31.683
244.63	25.490
245.00	23.364
245.38	21.053
245.75	11.504
246.12	30.952
246.49	17.829
246.87	28.571
247.24	21.854
247.61	19.079
247.98	19.463
248.36	20.988
248.73	15.951
249.10	20.219
249.47	28.358
249.84	23.037
250.22	14.508
250.59	18.889
250.96	16.818
251.33	19.388
251.70	15.385
252.08	20.833
252.45	21.311
252.82	18.595
253.19	16.406
253.56	18.251
253.94	16.538
254.31	16.288
254.68	18.182
255.05	18.567
255.42	17.007
255.79	15.858
256.16	16.556
256.54	14.901
256.91	18.033
257.28	17.049
257.65	14.013
258.02	14.159
258.39	15.100
258.76	18.349
259.14	14.368
259.51	15.274
259.88	12.181
260.25	17.222
260.62	19.452
260.99	17.760
261.36	18.231
261.73	14.589
262.10	15.659
262.47	13.941
262.85	17.172
263.22	10.909
263.59	12.105
263.96	15.090
264.33	16.113
264.70	13.827
265.07	16.706
265.44	17.234
265.81	13.657
266.18	15.420
266.55	14.509
266.92	11.845
267.29	15.536
267.66	15.965
268.03	17.686
268.40	13.361
268.77	12.756
269.14	11.894
269.51	15.789
269.88	14.754
270.25	15.292
270.62	16.034
270.99	14.747
271.36	16.634
271.73	13.163
272.10	14.028
272.47	12.224
272.84	14.257
273.21	15.230
273.58	13.710
273.95	13.654
274.32	14.449
274.69	12.186
275.06	14.103
275.43	11.645
275.80	14.109
276.17	13.519
276.54	15.485
276.91	10.376
277.28	14.828
277.65	15.619
278.02	15.625
278.39	12.862
278.76	12.478
279.13	13.475
279.50	16.151
279.87	15.206
280.23	10.739
280.60	14.407
280.97	13.816
281.34	10.017
281.71	12.352
282.08	13.621
282.45	12.766
282.82	13.658
283.19	12.116
283.56	13.115
283.92	14.414
284.29	13.270
284.66	13.465
285.03	12.981
285.40	13.138
285.77	11.765
286.14	13.282
286.51	12.329
286.87	11.058
287.24	13.253
287.61	11.061
287.98	12.538
288.35	12.722
288.72	12.870
289.08	12.738
289.45	10.651
289.82	10.693
290.19	11.063
290.56	11.831
290.93	11.270
291.29	11.708
291.66	10.744
292.03	10.583
292.40	12.925
292.77	11.186
293.13	11.231
293.50	11.958
293.87	11.141
294.24	11.467
294.60	12.010
294.97	9.933
295.34	10.883
295.71	10.593
296.08	10.207
296.44	9.314
296.81	9.988
297.18	10.461
297.55	10.377
297.91	8.778
298.28	8.768
298.65	11.058
299.02	8.973
299.38	10.069
299.75	11.215
300.12	10.417
300.48	9.217
300.85	9.899
301.22	10.179
301.59	8.105
301.95	10.169
302.32	10.111
302.69	9.858
303.05	9.793
303.42	9.645
303.79	10.208
304.15	9.043
304.52	8.668
304.89	8.691
305.25	10.041
305.62	9.091
305.99	8.866
306.35	8.266
306.72	9.617
307.09	9.645
307.45	8.385
307.82	9.183
308.19	9.788
308.55	9.836
308.92	9.250
309.29	8.525
309.65	9.162
310.02	8.020
310.38	9.547
310.75	8.447
311.12	8.917
311.48	9.091
311.85	9.212
312.22	8.539
312.58	9.859
312.95	8.413
313.31	9.304
313.68	8.333
314.05	9.214
314.41	8.834
314.78	8.810
315.14	9.982
315.51	10.157
315.87	9.811
316.24	8.493
316.61	10.124
316.97	8.145
317.34	8.642
317.70	9.956
318.07	10.229
318.43	10.289
318.80	10.117
319.16	8.498
319.53	8.912
319.89	7.888
320.26	10.943
320.62	7.890
320.99	9.695
321.35	8.872
321.72	10.605
322.08	8.206
322.45	9.304
322.81	9.206
323.18	9.912
323.54	9.483
323.91	9.609
324.27	9.552
324.64	9.824
325.00	8.872
325.37	9.419
325.73	9.421
326.10	9.489
326.46	10.586
326.83	10.328
327.19	9.449
327.56	9.012
327.92	10.386
328.29	8.710
328.65	8.626
329.01	8.799
329.38	9.604
329.74	10.103
330.11	9.332
330.47	8.846
330.84	9.475
331.20	9.667
331.56	8.666
331.93	9.958
332.29	9.407
332.66	10.050
333.02	8.878
333.38	9.480
333.75	9.007
334.11	9.675
334.48	9.653
334.84	10.535
335.20	9.068
335.57	9.781
335.93	9.669
336.29	9.151
336.66	9.083
337.02	9.448
337.38	9.609
337.75	10.000
338.11	10.093
338.47	9.843
338.84	8.714
339.20	9.436
339.56	9.802
339.93	8.292
340.29	10.386
340.65	9.327
341.02	9.657
341.38	9.943
341.74	8.797
342.11	8.850
342.47	8.658
342.83	9.340
343.20	9.403
343.56	9.383
343.92	8.647
344.28	8.594
344.65	10.388
345.01	8.736
345.37	9.953
345.73	7.794
346.10	9.126
346.46	8.940
346.82	9.963
347.19	9.626
347.55	8.953
347.91	8.618
348.27	9.408
348.63	9.216
349.00	8.874
349.36	9.145
349.72	8.929
350.08	9.658
350.45	8.669
350.81	9.578
351.17	8.195
351.53	9.249
351.89	9.036
352.26	8.209
352.62	9.104
352.98	8.397
353.34	7.543
353.70	8.320
354.07	8.346
354.43	8.960
354.79	8.452
355.15	8.536
355.51	9.064
355.87	8.153
356.24	9.278
356.60	8.795
356.96	9.118
357.32	8.476
357.68	9.224
358.04	8.009
358.40	8.134
358.77	8.991
359.13	8.567
359.49	7.955
359.85	8.194
360.21	9.182
360.57	7.968
360.93	8.392
361.29	9.053
361.66	8.834
362.02	9.395
362.38	8.925
362.74	8.450
363.10	9.422
363.46	8.795
363.82	9.020
364.18	8.445
364.54	8.368
364.90	8.495
365.26	7.793
365.62	8.933
365.98	8.713
366.35	9.060
366.71	7.619
367.07	8.119
367.43	8.339
367.79	8.096
368.15	8.629
368.51	8.322
368.87	8.818
369.23	8.733
369.59	8.128
369.95	8.587
370.31	8.778
370.67	8.391
371.03	8.380
371.39	8.529
371.75	8.391
372.11	8.740
372.47	8.192
372.83	9.031
373.19	8.005
373.55	9.079
373.91	8.180
374.27	8.732
374.63	8.593
374.99	8.289
375.35	8.701
375.71	8.774
376.07	8.586
376.42	7.872
376.78	8.825
377.14	8.671
377.50	8.033
377.86	9.113
378.22	8.623
378.58	8.918
378.94	8.509
379.30	8.729
379.66	8.230
380.02	8.425
380.38	7.834
380.74	7.662
381.09	8.479
381.45	8.693
381.81	8.724
382.17	8.551
382.53	8.772
382.89	8.916
383.25	8.499
383.61	7.697
383.97	8.068
384.32	8.792
384.68	7.715
385.04	9.427
385.40	8.544
385.76	8.851
386.12	9.216
386.48	9.059
386.83	8.880
387.19	8.806
387.55	8.392
387.91	8.505
388.27	9.065
388.62	8.591
388.98	8.517
389.34	8.544
389.70	8.309
390.06	8.467
390.42	8.554
390.77	9.272
391.13	8.275
391.49	8.877
391.85	8.545
392.20	8.778
392.56	9.155
392.92	8.615
393.28	8.568
393.64	8.547
393.99	9.297
394.35	9.287
394.71	8.743
395.07	8.084
395.42	8.567
395.78	8.653
396.14	8.259
396.50	8.135
396.85	8.825
397.21	8.462
397.57	8.068
397.92	8.763
398.28	8.039
398.64	8.924
399.00	7.853
399.35	8.901
399.71	8.696
400.07	8.422
400.42	8.673
400.78	8.565
401.14	9.163
401.49	8.869
401.85	8.198
402.21	8.691
402.57	8.803
402.92	8.629
403.28	7.728
403.63	7.399
403.99	7.779
404.35	8.812
404.70	9.178
405.06	8.967
405.42	8.372
405.77	9.487
406.13	8.158
406.49	8.502
406.84	8.366
407.20	8.161
407.55	8.177
407.91	8.548
408.27	9.128
408.62	8.551
408.98	9.112
409.34	7.918
409.69	8.467
410.05	8.910
410.40	9.049
410.76	9.030
411.11	8.884
411.47	8.477
411.83	9.465
412.18	9.096
412.54	8.714
412.89	8.906
413.25	8.465
413.60	8.788
413.96	9.091
414.31	8.669
414.67	9.183
415.03	9.292
415.38	8.638
415.74	8.674
416.09	9.870
416.45	9.330
416.80	9.058
417.16	9.068
417.51	9.029
417.87	8.522
418.22	8.922
418.58	8.674
418.93	9.837
419.29	9.001
419.64	7.803
420.00	8.368
420.35	8.366
420.71	8.558
421.06	9.201
421.42	9.117
421.77	7.862
422.12	8.404
422.48	8.653
422.83	9.146
423.19	8.541
423.54	8.407
423.90	8.283
424.25	9.013
424.61	8.152
424.96	9.281
425.31	8.864
425.67	8.105
426.02	8.799
426.38	8.726
426.73	8.650
427.09	9.804
427.44	7.974
427.79	9.508
428.15	8.505
428.50	8.820
428.85	8.496
429.21	8.936
429.56	8.144
429.92	8.256
430.27	8.867
430.62	8.647
430.98	8.559
431.33	8.016
431.68	8.477
432.04	8.786
432.39	8.998
432.74	9.018
433.10	8.924
433.45	8.584
433.80	9.227
434.16	9.039
434.51	8.376
434.86	8.415
435.22	8.714
435.57	8.550
435.92	8.459
436.28	8.874
436.63	8.575
436.98	8.535
437.34	8.568
437.69	8.586
438.04	8.302
438.39	8.041
438.75	8.246
439.10	9.355
439.45	9.335
439.81	8.362
440.16	8.525
440.51	8.974
440.86	8.282
441.22	8.950
441.57	8.910
441.92	8.875
442.27	8.737
442.63	9.538
442.98	9.285
443.33	9.100
443.68	8.771
444.03	9.595
444.39	9.154
444.74	8.780
445.09	8.768
445.44	8.693
445.79	8.812
446.15	8.890
446.50	9.612
446.85	9.193
447.20	8.269
447.55	9.257
447.91	8.482
448.26	8.034
448.61	9.245
448.96	9.227
449.31	8.961
449.66	8.115
450.02	8.966
450.37	9.057
450.72	8.988
451.07	9.169
451.42	8.608
451.77	9.005
452.12	9.368
452.47	8.794
452.83	8.784
453.18	8.990
453.53	8.501
453.88	8.669
454.23	10.056
454.58	9.576
454.93	8.252
455.28	9.512
455.63	8.641
455.98	8.939
456.34	9.187
456.69	8.583
457.04	8.983
457.39	9.368
457.74	9.116
458.09	8.786
458.44	9.483
458.79	8.406
459.14	8.495
459.49	9.111
459.84	9.234
460.19	8.384
460.54	8.688
460.89	8.999
461.24	9.023
461.59	9.242
461.94	8.614
462.29	8.567
462.64	8.811
462.99	9.102
463.34	9.409
463.69	10.023
464.04	9.728
464.39	8.800
464.74	9.578
465.09	8.593
465.44	9.388
465.79	8.778
466.14	8.807
466.49	8.368
466.84	8.760
467.19	8.786
467.54	8.696
467.89	8.621
468.24	8.920
468.59	8.107
468.94	8.741
469.29	8.218
469.64	9.282
469.99	9.305
470.34	9.530
470.68	9.091
471.03	9.234
471.38	9.026
471.73	9.363
472.08	9.074
472.43	8.429
472.78	9.068
473.13	8.913
473.48	9.668
473.83	9.170
474.17	9.027
474.52	8.539
474.87	9.690
475.22	9.521
475.57	8.775
475.92	8.910
476.27	8.626
476.61	8.930
476.96	8.394
477.31	9.356
477.66	9.969
478.01	8.795
478.36	8.624
478.70	8.916
479.05	8.180
479.40	9.674
479.75	10.038
480.10	9.048
480.45	9.207
480.79	9.252
481.14	9.191
481.49	9.405
481.84	9.095
482.19	8.602
482.53	9.182
482.88	8.684
483.23	8.582
483.58	8.734
483.92	8.289
484.27	8.891
484.62	8.663
484.97	9.176
485.31	8.694
485.66	8.426
486.01	7.886
486.36	7.699
486.70	7.900
487.05	8.142
487.40	8.428
487.75	8.422
488.09	8.707
488.44	8.909
488.79	9.612
489.13	8.762
489.48	9.243
489.83	8.612
490.17	8.384
490.52	8.990
490.87	9.349
491.22	8.406
491.56	9.130
491.91	9.115
492.26	9.606
492.60	9.139
492.95	9.215
493.30	8.785
493.64	9.417
493.99	9.035
494.34	8.232
494.68	9.036
495.03	9.207
495.37	8.833
495.72	9.206
496.07	9.071
496.41	9.009
496.76	9.008
497.11	8.620
497.45	8.718
497.80	9.596
498.14	8.481
498.49	8.686
498.84	9.644
499.18	8.862
499.53	9.865
499.87	9.538
500.22	9.083
500.56	8.502
500.91	9.611
501.26	9.045
501.60	9.147
501.95	9.596
502.29	9.258
502.64	9.357
502.98	8.714
503.33	8.942
503.67	9.071
504.02	8.713
504.36	9.607
504.71	8.957
505.06	9.095
505.40	9.689
505.75	9.290
506.09	9.392
506.44	9.192
506.78	9.725
507.13	9.682
507.47	9.522
507.82	9.422
508.16	8.939
508.51	9.470
508.85	9.211
509.19	9.616
509.54	9.990
509.88	9.422
510.23	10.102
510.57	10.391
510.92	10.256
511.26	9.380
511.61	9.271
511.95	9.126
512.30	9.847
512.64	8.896
512.98	9.755
513.33	10.181
513.67	9.587
514.02	9.453
514.36	9.821
514.70	9.688
515.05	9.906
515.39	10.184
515.74	10.339
516.08	10.565
516.42	10.570
516.77	10.147
517.11	9.747
517.46	10.286
517.80	10.743
518.14	10.337
518.49	10.249
518.83	10.484
519.17	10.232
519.52	10.954
519.86	10.507
520.20	10.596
520.55	10.131
520.89	10.417
521.23	10.664
521.58	10.282
521.92	10.142
522.26	9.851
522.61	10.012
522.95	10.265
523.29	10.460
523.64	10.762
523.98	10.496
524.32	11.404
524.66	10.814
525.01	10.872
525.35	9.937
525.69	9.977
526.04	10.276
526.38	10.230
526.72	10.438
527.06	10.557
527.41	10.729
527.75	10.808
528.09	10.508
528.43	10.776
528.78	10.925
529.12	10.321
529.46	10.512
529.80	11.156
530.15	10.667
530.49	10.380
530.83	10.921
531.17	10.753
531.51	10.830
531.86	11.659
532.20	10.122
532.54	11.011
532.88	10.970
533.22	10.607
533.57	10.791
533.91	10.887
534.25	10.684
534.59	10.057
534.93	10.300
535.27	10.366
535.62	10.574
535.96	10.633
536.30	10.106
536.64	11.291
536.98	10.886
537.32	10.926
537.66	12.165
538.01	11.118
538.35	10.414
538.69	10.397
539.03	11.097
539.37	10.542
539.71	11.471
540.05	11.151
540.39	10.452
540.73	11.050
541.07	10.975
541.42	11.282
541.76	10.202
542.10	10.374
542.44	10.658
542.78	11.253
543.12	10.667
543.46	10.134
543.80	10.612
544.14	11.071
544.48	11.052
544.82	10.592
545.16	10.972
545.50	11.324
545.84	10.533
546.18	12.284
546.52	10.701
546.86	10.063
547.20	10.369
547.54	10.924
547.88	11.151
548.22	10.468
548.56	10.825
548.90	10.567
549.24	11.125
549.58	11.104
549.92	11.097
550.26	11.974
550.60	11.168
550.94	11.125
551.28	11.551
551.62	11.658
551.96	11.003
552.30	12.046
552.64	11.574
552.98	11.104
553.32	10.932
553.66	11.318
554.00	11.917
554.34	11.068
554.68	11.362
555.02	11.104
555.36	11.637
555.69	10.762
556.03	10.530
556.37	11.765
556.71	11.604
557.05	11.502
557.39	11.812
557.73	11.493
558.07	10.596
558.41	11.362
558.75	11.427
559.08	11.900
559.42	11.523
559.76	12.415
560.10	10.650
560.44	11.544
560.78	11.938
561.12	11.638
561.45	11.314
561.79	11.355
562.13	11.337
562.47	11.036
562.81	10.759
563.15	11.806
563.48	11.436
563.82	11.427
564.16	11.326
564.50	11.085
564.84	11.327
565.17	11.588
565.51	10.242
565.85	10.570
566.19	11.175
566.52	10.825
566.86	10.753
567.20	10.712
567.54	11.312
567.88	10.958
568.21	10.474
568.55	10.552
568.89	10.350
569.23	10.266
569.56	9.887
569.90	9.729
570.24	10.017
570.57	9.493
570.91	9.400
571.25	9.517
571.59	9.880
571.92	9.622
572.26	9.397
572.60	9.692
572.93	9.852
573.27	9.525
573.61	9.502
573.95	9.323
574.28	9.203
574.62	9.163
574.96	8.910
575.29	9.319
575.63	9.309
575.97	9.317
576.30	9.524
576.64	9.186
576.98	9.294
577.31	9.286
577.65	9.286
577.98	9.074
578.32	8.825
578.66	8.914
578.99	9.113
579.33	9.160
579.67	9.248
580.00	9.485
580.34	9.206
580.67	9.289
581.01	9.238
581.35	9.040
581.68	8.926
582.02	8.893
582.35	9.207
582.69	9.066
583.02	9.232
583.36	9.468
583.70	8.953
584.03	9.479
584.37	9.677
584.70	9.340
585.04	9.230
585.37	9.346
585.71	9.450
586.04	9.049
586.38	9.424
586.72	9.225
587.05	9.312
587.39	9.025
587.72	9.258
588.06	9.405
588.39	9.385
588.73	10.000
589.06	9.819
589.40	9.680
589.73	10.347
590.07	9.947
590.40	10.412
590.73	10.110
591.07	10.797
591.40	10.575
591.74	9.897
592.07	11.003
592.41	10.174
592.74	10.472
593.08	9.777
593.41	9.711
593.75	9.598
594.08	9.543
594.41	9.840
594.75	10.063
595.08	9.522
595.42	10.065
595.75	9.816
596.09	10.030
596.42	9.961
596.75	10.652
597.09	11.111
597.42	10.250
597.75	10.153
598.09	11.032
598.42	10.495
598.76	9.935
599.09	10.324
599.42	9.688
599.76	9.805
600.09	9.977
600.42	9.977
600.76	9.974
601.09	9.559
601.42	9.921
601.76	9.966
602.09	9.793
602.42	10.033
602.76	10.258
603.09	10.316
603.42	9.538
603.76	10.007
604.09	9.901
604.42	10.128
604.76	9.855
605.09	10.331
605.42	10.686
605.75	10.500
606.09	10.228
606.42	10.179
606.75	9.783
607.09	9.831
607.42	10.520
607.75	10.199
608.08	10.182
608.42	9.714
608.75	11.111
609.08	10.187
609.41	10.454
609.75	10.625
610.08	10.862
610.41	10.323
610.74	10.126
611.07	10.124
611.41	10.404
611.74	10.808
612.07	11.033
612.40	10.219
612.73	10.220
613.07	11.051
613.40	11.357
613.73	10.833
614.06	10.648
614.39	10.107
614.72	10.432
615.06	10.683
615.39	10.343
615.72	10.379
616.05	10.733
616.38	11.403
616.71	11.651
617.05	10.170
617.38	11.825
617.71	11.177
618.04	11.279
618.37	11.202
618.70	11.369
619.03	11.171
619.36	10.974
619.69	10.955
620.03	11.299
620.36	11.288
620.69	11.166
621.02	11.745
621.35	11.829
621.68	12.509
622.01	11.530
622.34	10.600
622.67	11.340
623.00	10.391
623.33	11.413
623.66	10.830
623.99	11.784
624.32	11.566
624.65	10.746
624.99	10.988
625.32	11.496
625.65	11.463
625.98	11.254
626.31	12.403
626.64	12.234
626.97	11.178
627.30	11.086
627.63	11.853
627.96	12.913
628.29	12.607
628.62	13.014
628.95	12.007
629.28	12.914
629.61	13.384
629.94	11.799
630.26	12.458
630.59	13.126
630.92	11.948
631.25	13.685
631.58	12.994
631.91	12.652
632.24	13.833
632.57	12.619
632.90	13.541
633.23	14.082
633.56	12.755
633.89	12.810
634.22	13.825
634.55	13.883
634.88	12.446
635.20	14.855
635.53	12.994
635.86	14.410
636.19	13.150
636.52	13.713
636.85	13.585
637.18	13.410
637.51	13.656
637.83	15.172
638.16	13.825
638.49	13.146
638.82	12.740
639.15	13.173
639.48	14.434
639.81	14.203
640.13	14.723
640.46	11.515
640.79	13.848
641.12	14.161
641.45	13.927
641.77	15.276
642.10	14.567
642.43	15.691
642.76	14.499
643.09	13.836
643.41	13.165
643.74	14.207
644.07	16.138
644.40	14.144
644.73	14.804
645.05	15.712
645.38	14.676
645.71	14.516
646.04	16.643
646.36	14.453
646.69	15.031
647.02	16.972
647.35	17.252
647.67	15.137
648.00	14.331
648.33	15.165
648.66	15.121
648.98	15.646
649.31	15.291
649.64	14.741
649.96	14.058
650.29	13.352
650.62	13.154
650.94	12.613
651.27	15.419
651.60	13.304
651.92	14.134
652.25	14.906
652.58	14.030
652.90	13.081
653.23	13.521
653.56	16.262
653.88	14.185
654.21	13.944
654.54	14.740
654.86	14.873
655.19	13.676
655.52	10.934
655.84	8.018
656.17	9.560
656.49	13.360
656.82	15.254
657.15	12.417
657.47	9.584
657.80	7.125
658.13	5.826
658.45	8.029
658.78	10.119
659.10	10.070
659.43	10.473
659.75	10.863
660.08	12.493
660.41	13.069
660.73	12.999
661.06	13.363
661.38	15.470
661.71	15.000
662.03	14.815
662.36	17.710
662.68	17.824
663.01	15.398
663.33	17.202
663.66	19.780
663.98	15.000
664.31	15.760
664.63	14.644
664.96	17.060
665.28	15.064
665.61	16.608
665.93	16.071
666.26	15.412
666.58	15.498
666.91	18.131
667.23	16.952
667.56	17.160
667.88	16.200
668.21	15.430
668.53	14.672
668.86	16.699
669.18	14.868
669.50	16.302
669.83	14.200
670.15	16.929
670.48	16.468
670.80	13.767
671.13	14.178
671.45	13.386
671.77	17.514
672.10	14.167
672.42	14.239
672.75	13.978
673.07	14.478
673.39	13.867
673.72	14.597
674.04	16.207
674.37	15.921
674.69	17.108
675.01	14.286
675.34	13.168
675.66	17.416
675.98	17.537
676.31	14.844
676.63	19.202
676.95	17.241
677.28	15.323
677.60	17.126
677.92	17.274
678.25	17.002
678.57	17.438
678.89	17.918
679.22	13.066
679.54	14.188
679.86	12.203
680.18	13.433
680.51	15.409
680.83	13.912
681.15	13.621
681.48	15.371
681.80	15.026
682.12	15.035
682.44	14.858
682.77	14.184
683.09	16.667
683.41	16.860
683.73	14.801
684.06	14.945
684.38	12.522
684.70	18.133
685.02	14.630
685.34	12.646
685.67	12.461
685.99	14.724
686.31	11.192
686.63	12.638
686.96	13.565
687.28	14.984
687.60	14.141
687.92	13.826
688.24	15.526
688.56	14.828
688.89	16.878
689.21	16.634
689.53	13.137
689.85	14.201
690.17	15.556
690.49	14.741
690.82	14.455
691.14	13.158
691.46	16.252
691.78	18.048
692.10	12.661
692.42	13.214
692.74	13.430
693.06	13.333
693.39	16.888
693.71	13.910
694.03	14.126
694.35	14.857
694.67	15.606
694.99	15.319
695.31	15.232
695.63	15.801
695.95	15.528
696.27	15.604
696.59	17.478
696.91	17.117
697.23	16.264
697.56	12.424
697.88	12.500
698.20	14.689
698.52	17.235
698.84	16.008
699.16	18.980
699.48	14.854
699.80	11.702
700.12	14.192
700.44	15.899
700.76	17.102
701.08	17.433
701.40	18.135
701.72	19.900
702.04	17.380
702.36	15.183
702.68	17.359
703.00	14.670
703.32	16.256
703.64	17.604
703.96	17.422
704.28	14.988
704.60	17.215
704.91	16.837
705.23	20.822
705.55	18.663
705.87	20.909
706.19	19.939
706.51	17.470
706.83	13.545
707.15	12.698
707.47	17.290
707.79	13.537
708.11	12.924
708.43	14.624
708.74	12.723
709.06	15.545
709.38	16.667
709.70	18.610
710.02	18.088
710.34	18.883
710.66	14.804
710.98	16.940
711.29	15.110
711.61	17.514
711.93	18.803
712.25	16.486
712.57	20.649
712.89	18.235
713.20	13.609
713.52	17.630
713.84	14.763
714.16	18.158
714.48	17.268
714.80	17.403
715.11	16.798
715.43	14.324
715.75	17.632
716.07	14.088
716.39	19.945
716.70	17.169
717.02	19.672
717.34	17.422
717.66	18.792
717.97	18.836
718.29	16.838
718.61	19.079
718.93	17.476
719.24	15.528
719.56	19.325
719.88	15.015
720.20	15.161
720.51	16.770
720.83	17.812
721.15	16.447
721.46	17.808
721.78	17.000
722.10	14.563
722.42	17.785
722.73	16.129
723.05	18.947
723.37	19.444
723.68	16.846
724.00	17.329
724.32	18.662
724.63	17.483
724.95	22.340
725.27	16.028
725.58	17.668
725.90	20.000
726.22	17.868
726.53	20.779
726.85	14.465
727.16	16.616
727.48	17.431
727.80	17.550
728.11	16.961
728.43	16.162
728.74	17.391
729.06	19.205
729.38	15.260
729.69	20.805
730.01	16.369
730.32	16.970
730.64	15.094
730.96	14.596
731.27	17.877
731.59	17.857
731.90	16.623
732.22	13.542
732.53	10.773
732.85	17.429
733.16	12.610
733.48	15.244
733.80	16.435
734.11	13.390
734.43	17.027
734.74	19.241
735.06	14.824
735.37	14.595
735.69	15.405
736.00	16.102
736.32	16.173
736.63	15.278
736.95	15.805
737.26	20.909
737.58	17.879
737.89	17.941
738.21	12.232
738.52	15.082
738.83	19.795
739.15	21.277
739.46	18.027
739.78	19.632
740.09	13.754
740.41	17.201
740.72	16.667
741.04	16.505
741.35	21.404
741.66	21.176
741.98	20.492
742.29	19.665
742.61	16.228
742.92	17.308
743.23	19.856
743.55	16.279
743.86	17.200
744.18	11.983
744.49	16.456
744.80	22.634
745.12	16.034
745.43	19.512
745.74	18.534
746.06	18.644
746.37	19.831
746.68	22.358
747.00	21.250
747.31	19.313
747.62	21.538
747.94	14.170
748.25	16.064
748.56	15.918
748.88	17.521
749.19	24.138
749.50	20.346
749.82	18.474
750.13	19.573
750.44	16.000
750.75	16.923
751.07	18.462
751.38	15.457
751.69	17.891
752.01	14.887
752.32	16.340
752.63	13.605
752.94	16.955
753.26	17.844
753.57	16.296
753.88	18.352
754.19	16.720
754.51	19.614
754.82	17.363
755.13	16.393
755.44	18.771
755.75	20.066
756.07	18.507
756.38	15.409
756.69	17.169
757.00	12.188
757.31	15.847
757.63	14.066
757.94	13.615
758.25	13.995
758.56	11.765
758.87	14.318
759.18	14.133
759.50	16.431
759.81	12.045
760.12	14.555
760.43	16.667
760.74	15.271
761.05	14.750
761.36	11.566
761.67	13.452
761.99	14.595
762.30	13.415
762.61	17.162
762.92	15.672
763.23	18.727
763.54	16.187
763.85	19.244
764.16	14.141
764.47	16.901
764.78	16.933
765.10	14.076
765.41	17.179
765.72	13.492
766.03	20.621
766.34	12.539
766.65	13.937
766.96	19.124
767.27	17.051
767.58	16.915
767.89	22.115
768.20	24.413
768.51	20.370
768.82	20.080
769.13	15.530
769.44	11.538
769.75	19.134
770.06	17.692
770.37	22.047
770.68	15.319
770.99	14.575
771.30	18.148
771.61	17.490
771.92	14.815
772.23	18.623
772.54	15.741
772.85	24.424
773.16	23.333
773.47	16.931
773.78	11.892
774.09	20.455
774.39	24.000
774.70	25.137
775.01	18.902
775.32	18.235
775.63	16.564
775.94	20.382
776.25	22.581
776.56	25.641
776.87	25.170
777.18	22.069
777.48	19.580
777.79	22.973
778.10	22.794
778.41	20.833
778.72	20.000
779.03	20.370
779.34	22.424
779.65	23.834
779.95	20.556
780.26	18.750
780.57	23.871
780.88	28.986
781.19	23.226
781.50	21.765
781.80	20.968
782.11	25.397
782.42	17.677
782.73	17.964
783.04	17.318
783.34	10.909
783.65	20.261
783.96	18.634
784.27	21.429
784.57	23.841
784.88	19.286
785.19	23.622
785.50	25.984
785.81	21.805
786.11	28.462
786.42	11.511
786.73	18.705
787.04	18.045
787.34	27.869
787.65	24.000
787.96	19.403
788.26	25.175
788.57	25.175
788.88	21.711
789.19	24.183
789.49	25.342
789.80	29.078
790.11	27.559
790.41	21.875
790.72	33.051
791.03	21.359
791.33	15.652
791.64	32.456
791.95	34.821
792.25	32.381
792.56	20.536
792.87	35.417
793.17	28.571
793.48	21.875
793.79	9.639
794.09	19.266
794.40	20.183
794.70	20.408
795.01	16.883
795.32	16.438
795.62	23.944
795.93	31.818
796.23	33.607
796.54	34.821
796.85	19.149
797.15	33.696
797.46	21.918
797.76	27.500
798.07	33.696
798.37	18.557
798.68	27.273
798.99	29.885
799.29	31.461
799.60	29.787
799.90	26.506
800.21	44.615
800.51	41.791
800.82	32.353
801.12	10.959
801.43	27.941
801.73	44.068
802.04	39.394
802.34	23.333
802.65	28.814
802.95	32.836
803.26	38.983
803.56	39.726
803.87	45.714
804.17	36.986
804.48	15.789
804.78	36.111
805.09	37.931
805.39	37.838
805.70	33.803
806.00	25.610
806.30	25.301
806.61	19.178
806.91	29.808
807.22	28.889
807.52	24.138
807.83	48.611
808.13	39.759
808.43	31.461
808.74	41.250
809.04	25.000
809.35	37.333
809.65	31.429
809.95	45.205
810.26	29.825
810.56	32.759
810.86	44.118
811.17	49.123
811.47	29.508
811.77	46.667
812.08	28.814
812.38	40.000
812.69	48.276
812.99	15.094
813.29	33.333
813.59	66.000
813.90	56.140
814.20	40.000
814.50	33.803
814.81	33.333
815.11	42.623
815.41	50.746
815.72	56.897
816.02	44.643
816.32	57.778
816.62	56.818
816.93	40.000
817.23	42.593
817.53	59.574
817.84	57.143
818.14	52.941
818.44	51.020
818.74	31.111
819.04	35.897
819.35	51.429
819.65	19.231
819.95	35.849
820.25	60.000
820.56	54.762
820.86	71.875
821.16	53.846
821.46	44.186
821.76	34.000
822.07	57.143
822.37	30.435
822.67	55.319
822.97	27.027
823.27	77.500
823.57	61.224
823.88	51.111
824.18	60.000
824.48	63.333
824.78	84.000
825.08	57.576
825.38	68.889
825.69	61.702
825.99	55.556
826.29	40.000
826.59	23.077
826.89	30.233
827.19	48.000
827.49	70.588
827.79	54.167
828.09	35.135
828.39	40.000
828.70	46.341
829.00	51.163
829.30	85.714
829.60	76.471
829.90	56.522
830.20	51.429
830.50	55.172
830.80	77.778
831.10	57.692
831.40	88.235
831.70	100.000
832.00	100.000
832.30	23.529
832.60	75.000
832.90	130.769
833.20	142.105
833.50	65.000
833.80	84.211
834.10	38.095
834.40	91.667
834.70	62.500
835.00	48.571
835.30	58.824
835.60	50.000
835.90	72.000
836.20	59.091
836.50	84.000
836.80	36.364
837.10	59.259
837.40	77.778
837.70	106.250
838.00	92.857
838.30	95.652
838.60	113.793
838.90	64.286
839.19	21.739
839.49	125.000
839.79	52.174
840.09	56.250
840.39	85.000
840.69	74.194
840.99	42.857
841.29	146.667
841.59	121.053
841.88	94.872
842.18	96.154
842.48	120.000
842.78	85.000
843.08	80.000
843.38	70.968
843.68	22.222
843.97	70.588
844.27	131.250
844.57	78.947
844.87	100.000
845.17	100.000
845.47	80.952
845.76	95.238
846.06	200.000
846.36	129.412
846.66	84.615
846.96	106.667
847.25	82.353
847.55	121.739
847.85	135.000
848.15	188.235
848.44	154.545
848.74	52.381
849.04	100.000
849.34	125.000
849.63	65.217
849.93	-200.000
850.23	113.333
850.53	73.077
850.82	200.000
851.12	136.364
851.42	154.545
851.71	269.231
852.01	110.000
852.31	184.615
852.61	73.684
852.90	150.000
853.20	155.556
853.50	100.000
853.79	95.238
854.09	50.000
854.39	58.333
854.68	77.419
854.98	69.231
855.28	116.667
855.57	53.571
855.87	108.000
856.17	104.545
856.46	62.963
856.76	100.000
857.05	43.478
857.35	25.000
857.65	92.308
857.94	133.333
858.24	74.074
858.53	143.478
858.83	135.294
859.13	76.471
859.42	123.529
859.72	164.286
860.01	130.000
860.31	144.444
860.60	270.000
860.90	206.667
861.20	122.222
861.49	107.692
861.79	80.000
862.08	76.923
862.38	78.125
862.67	123.529
862.97	56.250
863.26	77.778
863.56	140.000
863.85	172.727
864.15	166.667
864.44	500.000
864.74	157.143
865.03	87.500
865.33	140.000
865.62	32.258
865.92	140.909
866.21	100.000
866.51	142.857
866.80	280.000
867.10	108.333
867.39	66.667
867.69	-1200.000
867.98	285.714
868.27	100.000
868.57	700.000
868.86	80.000
869.16	104.762
869.45	83.333
869.75	81.818
870.04	185.714
870.33	183.333
870.63	128.571
870.92	575.000
871.22	125.000
871.51	81.818
871.80	100.000
872.10	700.000
>>>>>End Processed Spectral Data<<<<<
