SpectraSuite Data File
++++++++++++++++++++++++++++++++++++
Date: Thu May 14 15:05:39 PDT 2015
User: schluterlab
Dark Spectrum Present: Yes
Reference Spectrum Present: Yes
Number of Sampled Component Spectra: 1
Spectrometers: USB2E3373
Integration Time (usec): 3000 (USB2E3373)
Spectra Averaged: 3 (USB2E3373)
Boxcar Smoothing: 0 (USB2E3373)
Correct for Electrical Dark: No (USB2E3373)
Strobe/Lamp Enabled: No (USB2E3373)
Correct for Detector Non-linearity: No (USB2E3373)
Correct for Stray Light: No (USB2E3373)
Number of Pixels in Processed Spectrum: 2048
>>>>>Begin Processed Spectral Data<<<<<
178.53	0.000
178.91	442.857
179.29	-3500.000
179.67	-2100.000
180.04	278.571
180.42	310.000
180.80	540.000
181.18	-3000.000
181.56	-2400.000
181.94	750.000
182.31	-550.000
182.69	733.333
183.07	-1250.000
183.45	600.000
183.83	-550.000
184.20	-1000.000
184.58	2400.000
184.96	-800.000
185.34	-322.222
185.72	-500.000
186.09	422.222
186.47	1400.000
186.85	660.000
187.23	-266.667
187.61	-2900.000
187.98	540.000
188.36	975.000
188.74	-800.000
189.12	-733.333
189.49	-162.500
189.87	-425.000
190.25	-266.667
190.63	-360.000
191.00	-355.556
191.38	0.000
191.76	-550.000
192.14	-416.667
192.51	1350.000
192.89	-216.667
193.27	0.000
193.65	-442.857
194.02	-3100.000
194.40	-400.000
194.78	442.857
195.15	0.000
195.53	-145.455
195.91	0.000
196.29	-625.000
196.66	-176.923
197.04	-2500.000
197.42	-485.714
197.79	-1350.000
198.17	-350.000
198.55	-442.857
198.92	-277.778
199.30	-337.500
199.68	-209.091
200.05	-185.714
200.43	-1450.000
200.81	485.714
201.18	0.000
201.56	366.667
201.94	0.000
202.31	1100.000
202.69	-288.889
203.07	1500.000
203.44	-322.222
203.82	-725.000
204.19	-200.000
204.57	-500.000
204.95	-362.500
205.32	-2700.000
205.70	800.000
206.08	-516.667
206.45	-316.667
206.83	740.000
207.20	-316.667
207.58	-740.000
207.96	-500.000
208.33	-233.333
208.71	216.667
209.08	-216.667
209.46	0.000
209.84	466.667
210.21	1300.000
210.59	1400.000
210.96	1033.333
211.34	-550.000
211.71	-237.500
212.09	-3200.000
212.46	0.000
212.84	1700.000
213.22	-580.000
213.59	-950.000
213.97	-230.000
214.34	-966.667
214.72	533.333
215.09	-700.000
215.47	0.000
215.84	485.714
216.22	1600.000
216.59	-500.000
216.97	-500.000
217.34	-675.000
217.72	-237.500
218.09	-600.000
218.47	-725.000
218.84	0.000
219.22	540.000
219.59	-135.294
219.97	-100.000
220.34	1500.000
220.72	-300.000
221.09	-161.538
221.47	-900.000
221.84	-220.000
222.22	-471.429
222.59	0.000
222.97	-325.000
223.34	-580.000
223.72	-2100.000
224.09	-725.000
224.46	-650.000
224.84	-440.000
225.21	-285.714
225.59	-850.000
225.96	-675.000
226.34	-57.692
226.71	366.667
227.08	-1500.000
227.46	-133.333
227.83	-700.000
228.21	-126.316
228.58	350.000
228.95	1700.000
229.33	-183.333
229.70	-270.000
230.08	-68.421
230.45	310.000
230.82	-900.000
231.20	-142.857
231.57	-175.000
231.95	-172.727
232.32	-209.091
232.69	-95.000
233.07	-775.000
233.44	-152.941
233.81	-220.000
234.19	-77.778
234.56	-68.182
234.93	-31.034
235.31	-136.842
235.68	-116.667
236.05	-115.000
236.43	-34.615
236.80	-44.000
237.17	-74.074
237.55	-72.727
237.92	-310.000
238.29	-116.129
238.67	-50.000
239.04	-61.111
239.41	-78.571
239.79	-67.391
240.16	-38.889
240.53	-32.609
240.91	-60.784
241.28	-40.984
241.65	-23.881
242.02	-29.730
242.40	-43.077
242.77	-33.333
243.14	-36.585
243.51	-51.316
243.89	-42.308
244.26	-21.782
244.63	-20.588
245.00	-24.299
245.38	-21.930
245.75	-28.319
246.12	-24.603
246.49	-19.380
246.87	-15.000
247.24	-11.921
247.61	-13.158
247.98	-18.792
248.36	-20.370
248.73	-19.632
249.10	-12.568
249.47	-9.950
249.84	-9.948
250.22	-11.917
250.59	-17.222
250.96	-7.273
251.33	-13.776
251.70	-6.838
252.08	-7.500
252.45	-4.508
252.82	-8.678
253.19	-11.328
253.56	-5.323
253.94	-10.769
254.31	-6.061
254.68	-5.944
255.05	-4.560
255.42	-9.864
255.79	-10.032
256.16	-10.596
256.54	-8.278
256.91	-8.197
257.28	-8.197
257.65	-9.236
258.02	-9.735
258.39	-8.547
258.76	-4.893
259.14	-5.460
259.51	-6.916
259.88	-8.215
260.25	-8.333
260.62	-6.849
260.99	-4.918
261.36	-2.413
261.73	-3.979
262.10	-7.967
262.47	-8.311
262.85	-3.030
263.22	-7.532
263.59	-8.947
263.96	-7.928
264.33	-7.161
264.70	-4.198
265.07	-2.864
265.44	-3.628
265.81	-7.176
266.18	-4.989
266.55	-5.134
266.92	-6.378
267.29	-4.595
267.66	-3.104
268.03	-5.895
268.40	-4.175
268.77	-7.289
269.14	-5.727
269.51	-4.386
269.88	-1.434
270.25	-3.421
270.62	-3.376
270.99	-5.455
271.36	-2.376
271.73	-5.501
272.10	-3.206
272.47	-3.407
272.84	-4.618
273.21	-3.407
273.58	-3.629
273.95	-6.538
274.32	-6.654
274.69	-5.029
275.06	-1.832
275.43	-5.730
275.80	-1.940
276.17	-5.741
276.54	-4.291
276.91	-4.472
277.28	-4.340
277.65	-4.129
278.02	-2.757
278.39	-5.072
278.76	-4.921
279.13	-4.787
279.50	-1.546
279.87	-1.968
280.23	-6.690
280.60	-3.559
280.97	-3.289
281.34	-7.131
281.71	-2.030
282.08	-3.821
282.45	-3.764
282.82	-2.669
283.19	-4.200
283.56	-4.098
283.92	-1.351
284.29	-2.212
284.66	-2.791
285.03	-4.487
285.40	-2.473
285.77	-4.025
286.14	-2.290
286.51	-3.653
286.87	-3.476
287.24	-3.614
287.61	-2.990
287.98	-3.021
288.35	-3.846
288.72	-3.994
289.08	-1.903
289.45	-2.515
289.82	-4.217
290.19	-4.454
290.56	-2.535
290.93	-2.282
291.29	-3.306
291.66	-2.204
292.03	-3.528
292.40	-0.680
292.77	-3.774
293.13	-1.759
293.50	-4.993
293.87	-4.430
294.24	-2.000
294.60	-1.517
294.97	-2.685
295.34	-2.049
295.71	-2.774
296.08	-3.359
296.44	-2.206
296.81	-1.218
297.18	-2.864
297.55	-2.358
297.91	-2.491
298.28	-3.555
298.65	-2.378
299.02	-4.368
299.38	-1.831
299.75	-3.388
300.12	-3.241
300.48	-2.419
300.85	-2.362
301.22	-1.454
301.59	-3.196
301.95	-1.921
302.32	-1.000
302.69	-2.191
303.05	-1.959
303.42	-1.885
303.79	-1.979
304.15	-1.893
304.52	-2.114
304.89	-1.675
305.25	-2.174
305.62	-1.672
305.99	-1.443
306.35	-2.218
306.72	-2.068
307.09	-2.335
307.45	-2.277
307.82	-1.715
308.19	-2.018
308.55	-1.157
308.92	-1.558
309.29	-1.341
309.65	-2.339
310.02	-3.069
310.38	-1.969
310.75	-1.845
311.12	-0.863
311.48	-2.248
311.85	-2.184
312.22	-1.139
312.58	-1.502
312.95	-2.294
313.31	-0.994
313.68	-0.824
314.05	-1.084
314.41	-0.364
314.78	-1.272
315.14	-0.817
315.51	-0.277
315.87	-0.270
316.24	-0.822
316.61	0.622
316.97	-2.262
317.34	-1.058
317.70	0.175
318.07	-0.705
318.43	0.340
318.80	0.836
319.16	-0.258
319.53	-1.285
319.89	-0.351
320.26	0.267
320.62	-0.621
320.99	-0.277
321.35	-0.555
321.72	1.023
322.08	-0.812
322.45	-0.181
322.81	-0.271
323.18	0.354
323.54	-0.603
323.91	0.356
324.27	-0.258
324.64	1.008
325.00	0.249
325.37	0.573
325.73	1.157
326.10	1.298
326.46	1.466
326.83	1.521
327.19	0.945
327.56	1.344
327.92	0.865
328.29	0.323
328.65	0.921
329.01	0.761
329.38	1.601
329.74	1.284
330.11	2.654
330.47	1.264
330.84	0.689
331.20	2.250
331.56	0.693
331.93	1.339
332.29	1.780
332.66	1.661
333.02	1.173
333.38	0.839
333.75	1.936
334.11	1.251
334.48	1.980
334.84	2.719
335.20	1.175
335.57	2.277
335.93	2.314
336.29	1.082
336.66	1.934
337.02	1.839
337.38	2.636
337.75	1.488
338.11	1.346
338.47	2.399
338.84	1.523
339.20	1.348
339.56	1.812
339.93	0.985
340.29	2.174
340.65	2.109
341.02	2.554
341.38	2.425
341.74	0.726
342.11	1.448
342.47	1.986
342.83	2.415
343.20	1.881
343.56	2.245
343.92	2.642
344.28	2.578
344.65	2.791
345.01	2.262
345.37	2.488
345.73	0.935
346.10	2.184
346.46	1.424
346.82	3.296
347.19	2.445
347.55	2.352
347.91	2.155
348.27	2.656
348.63	3.046
349.00	1.790
349.36	2.305
349.72	3.274
350.08	3.046
350.45	2.129
350.81	2.640
351.17	2.105
351.53	2.350
351.89	2.885
352.26	2.985
352.62	2.164
352.98	2.595
353.34	2.390
353.70	2.311
354.07	2.608
354.43	1.898
354.79	2.393
355.15	2.649
355.51	3.509
355.87	1.870
356.24	3.194
356.60	2.882
356.96	2.817
357.32	2.379
357.68	2.343
358.04	2.096
358.40	3.358
358.77	3.801
359.13	1.846
359.49	1.636
359.85	3.408
360.21	2.941
360.57	2.656
360.93	3.032
361.29	3.789
361.66	3.041
362.02	3.479
362.38	3.795
362.74	2.793
363.10	3.714
363.46	4.017
363.82	3.196
364.18	3.026
364.54	3.320
364.90	4.281
365.26	2.690
365.62	4.133
365.98	3.540
366.35	4.094
366.71	4.150
367.07	4.330
367.43	4.005
367.79	4.844
368.15	3.880
368.51	4.465
368.87	4.442
369.23	3.933
369.59	4.440
369.95	5.274
370.31	3.849
370.67	4.746
371.03	4.640
371.39	4.231
371.75	3.851
372.11	4.946
372.47	4.536
372.83	4.712
373.19	5.604
373.55	4.878
373.91	4.635
374.27	4.657
374.63	4.736
374.99	5.371
375.35	5.649
375.71	4.839
376.07	5.875
376.42	5.479
376.78	5.780
377.14	4.741
377.50	5.376
377.86	6.773
378.22	6.347
378.58	6.540
378.94	5.869
379.30	6.620
379.66	6.584
380.02	6.347
380.38	6.740
380.74	6.930
381.09	7.259
381.45	7.330
381.81	7.143
382.17	7.423
382.53	7.076
382.89	7.449
383.25	8.148
383.61	7.176
383.97	8.304
384.32	7.536
384.68	7.425
385.04	7.287
385.40	8.486
385.76	8.441
386.12	8.079
386.48	7.706
386.83	8.880
387.19	7.648
387.55	7.570
387.91	8.333
388.27	9.296
388.62	9.107
388.98	8.799
389.34	9.369
389.70	8.948
390.06	9.710
390.42	9.217
390.77	9.031
391.13	9.096
391.49	9.601
391.85	8.667
392.20	9.134
392.56	9.864
392.92	10.360
393.28	10.171
393.64	9.497
393.99	10.866
394.35	10.864
394.71	11.078
395.07	9.641
395.42	9.937
395.78	10.542
396.14	10.458
396.50	10.095
396.85	10.435
397.21	9.882
397.57	10.895
397.92	11.684
398.28	10.158
398.64	9.840
399.00	10.576
399.35	11.204
399.71	10.543
400.07	9.994
400.42	10.943
400.78	10.995
401.14	9.960
401.49	10.858
401.85	11.105
402.21	11.240
402.57	11.796
402.92	11.170
403.28	11.300
403.63	10.024
403.99	11.283
404.35	10.631
404.70	11.218
405.06	11.467
405.42	11.007
405.77	11.287
406.13	11.507
406.49	11.149
406.84	11.080
407.20	10.900
407.55	11.266
407.91	10.559
408.27	10.660
408.62	11.518
408.98	11.608
409.34	10.440
409.69	11.372
410.05	11.723
410.40	10.963
410.76	11.497
411.11	11.572
411.47	10.811
411.83	11.346
412.18	10.783
412.54	11.144
412.89	11.059
413.25	10.892
413.60	11.200
413.96	11.305
414.31	11.331
414.67	10.912
415.03	11.508
415.38	11.917
415.74	10.568
416.09	11.659
416.45	12.023
416.80	10.098
417.16	11.430
417.51	11.395
417.87	10.730
418.22	10.359
418.58	10.657
418.93	12.631
419.29	11.529
419.64	11.585
420.00	10.801
420.35	12.128
420.71	11.717
421.06	10.868
421.42	11.353
421.77	10.985
422.12	11.892
422.48	11.879
422.83	11.281
423.19	11.459
423.54	12.555
423.90	11.872
424.25	11.893
424.61	11.596
424.96	12.081
425.31	12.155
425.67	11.809
426.02	12.175
426.38	11.538
426.73	11.440
427.09	12.457
427.44	12.015
427.79	11.277
428.15	11.644
428.50	11.798
428.85	11.481
429.21	12.500
429.56	12.192
429.92	11.155
430.27	12.386
430.62	12.018
430.98	12.150
431.33	12.170
431.68	12.644
432.04	12.087
432.39	12.319
432.74	12.329
433.10	12.655
433.45	11.594
433.80	11.964
434.16	12.707
434.51	12.847
434.86	12.541
435.22	11.690
435.57	12.323
435.92	11.853
436.28	12.116
436.63	12.234
436.98	11.379
437.34	12.007
437.69	11.723
438.04	12.427
438.39	11.890
438.75	11.787
439.10	12.844
439.45	11.962
439.81	11.921
440.16	11.475
440.51	12.207
440.86	11.006
441.22	12.165
441.57	12.421
441.92	12.609
442.27	12.727
442.63	12.767
442.98	11.740
443.33	12.572
443.68	12.289
444.03	13.170
444.39	12.945
444.74	12.711
445.09	12.570
445.44	13.383
445.79	12.596
446.15	12.693
446.50	12.300
446.85	13.278
447.20	12.137
447.55	12.186
447.91	12.094
448.26	11.311
448.61	12.434
448.96	13.197
449.31	12.831
449.66	12.037
450.02	12.500
450.37	12.786
450.72	12.379
451.07	11.902
451.42	12.594
451.77	12.896
452.12	12.359
452.47	11.705
452.83	12.725
453.18	11.909
453.53	11.258
453.88	12.258
454.23	12.090
454.58	11.724
454.93	11.711
455.28	12.763
455.63	12.791
455.98	12.402
456.34	12.191
456.69	12.287
457.04	11.939
457.39	11.696
457.74	12.528
458.09	11.587
458.44	11.961
458.79	11.759
459.14	12.323
459.49	11.828
459.84	12.225
460.19	11.938
460.54	12.606
460.89	12.864
461.24	10.920
461.59	12.562
461.94	11.979
462.29	12.486
462.64	11.768
462.99	12.429
463.34	10.967
463.69	11.958
464.04	12.618
464.39	11.379
464.74	12.144
465.09	11.822
465.44	11.964
465.79	11.634
466.14	11.516
466.49	12.158
466.84	11.846
467.19	12.312
467.54	11.163
467.89	10.920
468.24	11.801
468.59	10.654
468.94	11.422
469.29	11.818
469.64	10.935
469.99	10.962
470.34	12.005
470.68	11.825
471.03	11.526
471.38	11.642
471.73	11.964
472.08	11.421
472.43	12.161
472.78	12.280
473.13	11.315
473.48	11.782
473.83	11.956
474.17	11.489
474.52	11.846
474.87	12.016
475.22	12.620
475.57	11.786
475.92	12.046
476.27	12.194
476.61	11.838
476.96	11.314
477.31	12.228
477.66	12.434
478.01	11.744
478.36	11.765
478.70	11.921
479.05	12.577
479.40	12.192
479.75	12.104
480.10	12.269
480.45	11.805
480.79	12.063
481.14	11.949
481.49	12.313
481.84	12.359
482.19	11.914
482.53	12.418
482.88	12.317
483.23	11.427
483.58	11.703
483.92	11.569
484.27	11.346
484.62	11.056
484.97	12.442
485.31	12.038
485.66	11.315
486.01	11.930
486.36	12.613
486.70	13.231
487.05	13.471
487.40	12.816
487.75	12.163
488.09	12.229
488.44	11.560
488.79	11.771
489.13	11.694
489.48	10.408
489.83	11.066
490.17	11.746
490.52	11.002
490.87	11.210
491.22	10.919
491.56	11.519
491.91	11.034
492.26	11.553
492.60	11.150
492.95	11.409
493.30	11.161
493.64	11.695
493.99	10.965
494.34	10.714
494.68	11.263
495.03	11.013
495.37	11.318
495.72	10.930
496.07	11.744
496.41	10.682
496.76	11.593
497.11	10.828
497.45	11.437
497.80	11.373
498.14	10.658
498.49	10.983
498.84	11.015
499.18	11.516
499.53	10.987
499.87	11.648
500.22	10.240
500.56	10.796
500.91	11.396
501.26	11.273
501.60	10.252
501.95	10.638
502.29	11.760
502.64	11.456
502.98	11.389
503.33	11.490
503.67	10.510
504.02	10.946
504.36	11.662
504.71	11.713
505.06	11.232
505.40	10.740
505.75	10.929
506.09	11.234
506.44	11.467
506.78	11.422
507.13	11.388
507.47	11.985
507.82	10.985
508.16	11.329
508.51	11.205
508.85	11.195
509.19	10.895
509.54	12.056
509.88	11.268
510.23	12.045
510.57	12.373
510.92	11.272
511.26	11.544
511.61	10.671
511.95	11.615
512.30	11.423
512.64	10.645
512.98	11.606
513.33	11.996
513.67	11.576
514.02	11.497
514.36	11.714
514.70	11.302
515.05	12.096
515.39	11.496
515.74	12.354
516.08	10.882
516.42	12.297
516.77	11.619
517.11	11.346
517.46	11.400
517.80	11.384
518.14	11.371
518.49	12.202
518.83	11.549
519.17	11.416
519.52	12.369
519.86	12.144
520.20	11.981
520.55	11.829
520.89	11.543
521.23	11.837
521.58	11.977
521.92	11.671
522.26	11.512
522.61	11.285
522.95	10.611
523.29	10.862
523.64	11.603
523.98	12.322
524.32	12.951
524.66	12.009
525.01	11.325
525.35	11.603
525.69	11.369
526.04	11.998
526.38	12.241
526.72	11.822
527.06	12.023
527.41	11.778
527.75	11.995
528.09	11.452
528.43	11.427
528.78	11.561
529.12	10.722
529.46	11.692
529.80	11.957
530.15	11.826
530.49	11.329
530.83	11.275
531.17	10.693
531.51	12.274
531.86	11.418
532.20	11.220
532.54	12.268
532.88	11.758
533.22	11.491
533.57	11.598
533.91	12.458
534.25	11.984
534.59	12.644
534.93	10.979
535.27	11.324
535.62	11.768
535.96	10.691
536.30	11.810
536.64	11.592
536.98	12.054
537.32	12.716
537.66	11.728
538.01	11.420
538.35	11.206
538.69	10.757
539.03	11.649
539.37	11.072
539.71	12.132
540.05	11.691
540.39	11.002
540.73	11.050
541.07	11.404
541.42	11.105
541.76	9.964
542.10	10.736
542.44	10.597
542.78	10.706
543.12	10.489
543.46	10.867
543.80	10.252
544.14	10.772
544.48	10.816
544.82	11.191
545.16	11.270
545.50	11.144
545.84	10.165
546.18	11.975
546.52	10.573
546.86	10.503
547.20	10.814
547.54	10.674
547.88	10.368
548.22	10.877
548.56	9.655
548.90	10.269
549.24	11.064
549.58	10.410
549.92	10.268
550.26	10.291
550.60	10.976
550.94	10.608
551.28	11.221
551.62	10.580
551.96	9.903
552.30	11.281
552.64	10.516
552.98	10.543
553.32	10.675
553.66	10.932
554.00	10.214
554.34	10.875
554.68	10.523
555.02	10.118
555.36	10.717
555.69	9.417
556.03	10.025
556.37	11.014
556.71	10.209
557.05	10.927
557.39	9.091
557.73	10.238
558.07	9.801
558.41	10.233
558.75	9.466
559.08	9.882
559.42	9.877
559.76	9.701
560.10	8.841
560.44	10.488
560.78	10.875
561.12	10.468
561.45	10.888
561.79	10.256
562.13	10.844
562.47	9.679
562.81	9.810
563.15	9.785
563.48	10.255
563.82	10.036
564.16	9.328
564.50	8.999
564.84	9.263
565.17	9.824
565.51	9.666
565.85	10.095
566.19	8.410
566.52	9.713
566.86	9.111
567.20	9.462
567.54	9.878
567.88	10.398
568.21	9.881
568.55	10.264
568.89	10.168
569.23	10.520
569.56	10.121
569.90	9.943
570.24	9.983
570.57	10.231
570.91	9.798
571.25	10.269
571.59	10.604
571.92	10.341
572.26	10.376
572.60	10.265
572.93	10.604
573.27	10.199
573.61	10.244
573.95	10.269
574.28	10.605
574.62	9.959
574.96	9.969
575.29	10.046
575.63	9.841
575.97	10.060
576.30	10.190
576.64	9.735
576.98	9.749
577.31	9.899
577.65	10.111
577.98	10.072
578.32	9.965
578.66	10.083
578.99	10.076
579.33	10.160
579.67	9.701
580.00	9.890
580.34	10.231
580.67	9.929
581.01	9.714
581.35	9.975
581.68	10.009
582.02	10.049
582.35	10.128
582.69	10.332
583.02	9.830
583.36	10.207
583.70	9.748
584.03	9.551
584.37	9.652
584.70	9.242
585.04	9.230
585.37	9.677
585.71	9.666
586.04	9.775
586.38	9.912
586.72	9.150
587.05	9.184
587.39	9.424
587.72	9.761
588.06	9.792
588.39	9.759
588.73	9.180
589.06	9.424
589.40	9.189
589.73	9.190
590.07	9.615
590.40	9.601
590.73	8.978
591.07	9.270
591.40	8.787
591.74	8.863
592.07	9.095
592.41	8.991
592.74	9.052
593.08	9.841
593.41	9.886
593.75	9.655
594.08	9.694
594.41	9.808
594.75	9.299
595.08	9.152
595.42	9.286
595.75	9.364
596.09	9.387
596.42	8.742
596.75	8.761
597.09	9.495
597.42	9.257
597.75	8.820
598.09	9.286
598.42	9.489
598.76	8.674
599.09	8.864
599.42	9.219
599.76	8.980
600.09	8.942
600.42	9.576
600.76	8.950
601.09	8.397
601.42	9.131
601.76	8.690
602.09	8.935
602.42	9.124
602.76	8.450
603.09	8.847
603.42	8.707
603.76	8.527
604.09	9.510
604.42	8.991
604.76	8.295
605.09	8.736
605.42	8.533
605.75	8.769
606.09	8.511
606.42	9.011
606.75	7.871
607.09	8.871
607.42	8.825
607.75	8.558
608.08	8.603
608.42	8.505
608.75	8.997
609.08	8.149
609.41	8.116
609.75	8.750
610.08	8.619
610.41	8.029
610.74	8.277
611.07	7.904
611.41	9.058
611.74	8.314
612.07	8.836
612.40	7.034
612.73	7.726
613.07	8.704
613.40	8.422
613.73	7.992
614.06	8.538
614.39	7.726
614.72	8.006
615.06	8.229
615.39	8.072
615.72	8.057
616.05	7.576
616.38	8.729
616.71	7.837
617.05	7.082
617.38	8.133
617.71	7.667
618.04	7.016
618.37	7.978
618.70	7.975
619.03	7.587
619.36	7.645
619.69	6.919
620.03	7.407
620.36	7.301
620.69	7.156
621.02	7.743
621.35	6.967
621.68	7.448
622.01	6.690
622.34	6.834
622.67	6.804
623.00	6.410
623.33	8.427
623.66	8.431
623.99	7.110
624.32	8.057
624.65	8.172
624.99	7.997
625.32	7.054
625.65	6.945
625.98	6.983
626.31	7.371
626.64	7.033
626.97	6.752
627.30	6.302
627.63	6.677
627.96	7.958
628.29	6.304
628.62	5.793
628.95	6.398
629.28	5.607
629.61	6.734
629.94	5.439
630.26	6.017
630.59	6.995
630.92	6.407
631.25	6.887
631.58	5.556
631.91	5.530
632.24	6.916
632.57	6.926
632.90	6.720
633.23	6.429
633.56	5.306
633.89	5.475
634.22	5.821
634.55	4.906
634.88	4.654
635.20	6.136
635.53	5.876
635.86	6.067
636.19	7.529
636.52	5.485
636.85	4.903
637.18	5.925
637.51	6.452
637.83	6.755
638.16	6.221
638.49	5.399
638.82	6.313
639.15	5.384
639.48	6.120
639.81	6.697
640.13	5.300
640.46	4.848
640.79	4.412
641.12	4.720
641.45	4.768
641.77	6.804
642.10	4.987
642.43	7.447
642.76	4.878
643.09	5.205
643.41	4.482
643.74	4.552
644.07	6.621
644.40	4.243
644.73	3.774
645.05	4.405
645.38	4.604
645.71	4.839
646.04	6.887
646.36	5.109
646.69	4.755
647.02	5.810
647.35	3.969
647.67	4.509
648.00	3.025
648.33	4.054
648.66	4.137
648.98	6.122
649.31	4.871
649.64	6.109
649.96	4.907
650.29	3.755
650.62	3.536
650.94	4.204
651.27	2.246
651.60	5.117
651.92	3.647
652.25	5.355
652.58	4.814
652.90	3.343
653.23	6.197
653.56	4.422
653.88	7.022
654.21	4.930
654.54	6.214
654.86	4.674
655.19	4.391
655.52	6.943
655.84	8.544
656.17	10.264
656.49	14.235
656.82	15.254
657.15	11.458
657.47	8.540
657.80	6.014
658.13	4.529
658.45	5.616
658.78	6.759
659.10	5.948
659.43	5.386
659.75	4.743
660.08	4.538
660.41	4.715
660.73	3.877
661.06	2.790
661.38	4.147
661.71	1.897
662.03	2.646
662.36	5.546
662.68	2.251
663.01	4.779
663.33	4.348
663.66	4.029
663.98	2.115
664.31	1.876
664.63	-0.385
664.96	1.996
665.28	2.541
665.61	5.070
665.93	1.607
666.26	4.122
666.58	2.768
666.91	3.364
667.23	4.000
667.56	2.367
667.88	3.800
668.21	1.367
668.53	0.193
668.86	1.768
669.18	0.407
669.50	4.970
669.83	2.800
670.15	1.378
670.48	4.167
670.80	2.868
671.13	2.079
671.45	2.165
671.77	2.260
672.10	2.333
672.42	3.560
672.75	2.611
673.07	2.985
673.39	4.006
673.72	4.530
674.04	4.138
674.37	2.862
674.69	4.762
675.01	1.333
675.34	2.099
675.66	1.873
675.98	4.104
676.31	0.586
676.63	2.662
676.95	3.448
677.28	0.403
677.60	-0.394
677.92	2.687
678.25	4.753
678.57	1.957
678.89	2.901
679.22	3.136
679.54	4.444
679.86	0.847
680.18	1.161
680.51	4.403
680.83	3.928
681.15	1.552
681.48	2.936
681.80	4.145
682.12	1.923
682.44	2.504
682.77	3.014
683.09	3.220
683.41	4.264
683.73	2.657
684.06	3.506
684.38	1.968
684.70	1.616
685.02	2.754
685.34	2.829
685.67	2.366
685.99	3.221
686.31	2.907
686.63	3.160
686.96	2.839
687.28	5.700
687.60	2.020
687.92	1.929
688.24	3.506
688.56	1.897
688.89	1.633
689.21	1.957
689.53	1.373
689.85	0.197
690.17	1.481
690.49	0.797
690.82	1.584
691.14	-1.822
691.46	2.677
691.78	4.236
692.10	1.468
692.42	2.321
692.74	1.815
693.06	0.926
693.39	2.087
693.71	3.008
694.03	2.416
694.35	1.714
694.67	3.901
694.99	1.702
695.31	-0.221
695.63	1.082
695.95	1.656
696.27	-0.220
696.59	0.221
696.91	-1.126
697.23	1.538
697.56	2.240
697.88	1.705
698.20	1.695
698.52	3.977
698.84	2.287
699.16	3.673
699.48	1.464
699.80	1.702
700.12	3.275
700.44	0.000
700.76	0.950
701.08	1.453
701.40	-1.295
701.72	1.493
702.04	-0.535
702.36	-1.571
702.68	1.467
703.00	-0.978
703.32	-2.956
703.64	0.244
703.96	3.103
704.28	-0.491
704.60	2.532
704.91	-0.510
705.23	0.274
705.55	-1.393
705.87	-0.303
706.19	-3.681
706.51	-2.410
706.83	-2.594
707.15	-1.058
707.47	-1.168
707.79	2.620
708.11	0.424
708.43	-0.645
708.74	-1.339
709.06	-0.232
709.38	1.643
709.70	2.233
710.02	1.034
710.34	-1.862
710.66	-3.631
710.98	-1.913
711.29	-2.473
711.61	-2.260
711.93	1.709
712.25	0.541
712.57	2.950
712.89	1.765
713.20	-0.592
713.52	0.289
713.84	0.836
714.16	0.263
714.48	-0.773
714.80	1.558
715.11	-0.525
715.43	0.000
715.75	3.684
716.07	-0.552
716.39	1.366
716.70	-2.108
717.02	-1.639
717.34	-1.742
717.66	0.671
717.97	-5.137
718.29	-2.405
718.61	-0.658
718.93	-0.971
719.24	-1.242
719.56	-0.307
719.88	-1.502
720.20	-2.258
720.51	-0.932
720.83	-2.813
721.15	-3.618
721.46	-5.479
721.78	-1.667
722.10	-2.913
722.42	-3.691
722.73	-2.903
723.05	-3.509
723.37	-2.778
723.68	1.075
724.00	-0.722
724.32	-7.394
724.63	-2.797
724.95	-1.064
725.27	-4.181
725.58	-4.594
725.90	0.000
726.22	-2.508
726.53	-1.299
726.85	-0.314
727.16	-3.625
727.48	0.306
727.80	-0.662
728.11	-3.534
728.43	-1.347
728.74	-3.010
729.06	-3.311
729.38	-1.948
729.69	-3.020
730.01	-0.893
730.32	-5.758
730.64	-1.258
730.96	-0.932
731.27	1.676
731.59	0.275
731.90	-0.779
732.22	-0.521
732.53	-4.144
732.85	0.000
733.16	-0.880
733.48	-4.573
733.80	-2.786
734.11	1.994
734.43	0.270
734.74	2.278
735.06	-0.251
735.37	-1.081
735.69	-0.541
736.00	-0.565
736.32	-0.539
736.63	1.944
736.95	-0.575
737.26	0.000
737.58	-3.636
737.89	0.882
738.21	-2.752
738.52	-2.623
738.83	-2.048
739.15	-8.511
739.46	-1.020
739.78	-0.613
740.09	-2.292
740.41	-1.166
740.72	-2.667
741.04	-2.589
741.35	-0.702
741.66	-4.706
741.98	-1.639
742.29	-4.184
742.61	-3.947
742.92	-4.615
743.23	-1.083
743.55	-6.589
743.86	-3.200
744.18	-10.744
744.49	-8.017
744.80	-3.704
745.12	-7.173
745.43	-3.252
745.74	-4.741
746.06	-4.661
746.37	-1.266
746.68	0.407
747.00	-5.417
747.31	-5.579
747.62	-1.154
747.94	-6.478
748.25	-7.229
748.56	-8.163
748.88	-8.120
749.19	-3.879
749.50	-7.359
749.82	-3.213
750.13	-0.712
750.44	-4.000
750.75	-2.462
751.07	-1.846
751.38	-1.893
751.69	-2.875
752.01	-2.913
752.32	-1.307
752.63	-3.741
752.94	-2.422
753.26	-9.294
753.57	-4.815
753.88	-4.120
754.19	0.322
754.51	-2.572
754.82	-1.286
755.13	0.328
755.44	-4.778
755.75	-3.947
756.07	1.493
756.38	-0.629
756.69	-0.301
757.00	-3.047
757.31	0.273
757.63	1.279
757.94	-1.174
758.25	1.580
758.56	2.179
758.87	2.500
759.18	-2.133
759.50	0.850
759.81	0.000
760.12	-0.270
760.43	-0.260
760.74	0.739
761.05	0.250
761.36	0.482
761.67	0.000
761.99	-1.081
762.30	-1.829
762.61	-2.310
762.92	-5.970
763.23	-5.618
763.54	-2.518
763.85	-4.124
764.16	-2.020
764.47	-2.465
764.78	-0.639
765.10	-0.293
765.41	2.564
765.72	-1.587
766.03	1.130
766.34	-3.762
766.65	-6.272
766.96	-6.375
767.27	-5.530
767.58	-8.458
767.89	-2.885
768.20	-3.756
768.51	-2.315
768.82	-5.622
769.13	1.515
769.44	-6.538
769.75	-1.444
770.06	-3.846
770.37	-0.787
770.68	-9.362
770.99	-8.502
771.30	0.741
771.61	-9.506
771.92	-2.222
772.23	0.405
772.54	-5.556
772.85	0.000
773.16	0.000
773.47	-9.524
773.78	-10.811
774.09	-9.659
774.39	0.000
774.70	-3.825
775.01	-7.317
775.32	-11.765
775.63	-11.043
775.94	-11.465
776.25	-9.032
776.56	-1.923
776.87	-8.844
777.18	-15.172
777.48	-6.294
777.79	-11.486
778.10	-19.853
778.41	-13.889
778.72	-13.103
779.03	-12.963
779.34	-7.273
779.65	-10.881
779.95	-10.000
780.26	-13.068
780.57	-11.613
780.88	-9.420
781.19	-1.290
781.50	1.176
781.80	-2.688
782.11	-9.524
782.42	-12.121
782.73	-17.365
783.04	-6.704
783.34	-9.091
783.65	-12.418
783.96	-7.453
784.27	-13.095
784.57	-11.921
784.88	-14.286
785.19	-10.236
785.50	-15.748
785.81	-9.774
786.11	-13.077
786.42	-19.424
786.73	-16.547
787.04	-15.038
787.34	-21.311
787.65	-12.800
787.96	-11.940
788.26	-9.091
788.57	-4.895
788.88	-14.474
789.19	-3.268
789.49	-10.959
789.80	-8.511
790.11	-4.724
790.41	-7.812
790.72	-9.322
791.03	-22.330
791.33	-13.913
791.64	-22.807
791.95	-21.429
792.25	-18.095
792.56	-22.321
792.87	-22.917
793.17	-11.607
793.48	-28.125
793.79	-33.735
794.09	-18.349
794.40	-27.523
794.70	-17.687
795.01	-11.688
795.32	-12.329
795.62	-11.268
795.93	-13.636
796.23	-13.115
796.54	-18.750
796.85	-29.787
797.15	-36.957
797.46	-46.575
797.76	-35.000
798.07	-17.391
798.37	-26.804
798.68	-41.558
798.99	-26.437
799.29	-22.472
799.60	-17.021
799.90	-31.325
800.21	-49.231
800.51	-29.851
800.82	-42.647
801.12	-43.836
801.43	-33.824
801.73	-40.678
802.04	-33.333
802.34	-36.667
802.65	-35.593
802.95	-32.836
803.26	-18.644
803.56	-36.986
803.87	-32.857
804.17	-24.658
804.48	-59.649
804.78	-19.444
805.09	-51.724
805.39	-29.730
805.70	-28.169
806.00	-15.854
806.30	-38.554
806.61	-39.726
806.91	-28.846
807.22	-15.556
807.52	-33.333
807.83	-29.167
808.13	-6.024
808.43	-20.225
808.74	-27.500
809.04	-41.176
809.35	-38.667
809.65	-34.286
809.95	-31.507
810.26	-45.614
810.56	-34.483
810.86	-22.059
811.17	-38.596
811.47	-49.180
811.77	-60.000
812.08	-52.542
812.38	-20.000
812.69	-15.517
812.99	-45.283
813.29	-89.744
813.59	-50.000
813.90	-38.596
814.20	-52.727
814.50	-19.718
814.81	-25.641
815.11	-34.426
815.41	-25.373
815.72	-18.966
816.02	-37.500
816.32	-35.556
816.62	-34.091
816.93	-51.111
817.23	-33.333
817.53	-40.426
817.84	-57.143
818.14	-70.588
818.44	-36.735
818.74	-57.778
819.04	-71.795
819.35	-88.571
819.65	-138.462
819.95	-50.943
820.25	-33.333
820.56	-57.143
820.86	-87.500
821.16	-61.538
821.46	-81.395
821.76	-76.000
822.07	-26.786
822.37	-41.304
822.67	-55.319
822.97	-94.595
823.27	-70.000
823.57	-44.898
823.88	-35.556
824.18	-62.500
824.48	-70.000
824.78	-112.000
825.08	-84.848
825.38	-44.444
825.69	-31.915
825.99	-58.333
826.29	-94.286
826.59	-82.051
826.89	-83.721
827.19	-60.000
827.49	-73.529
827.79	-41.667
828.09	-86.486
828.39	-120.000
828.70	-65.854
829.00	-69.767
829.30	-96.429
829.60	-58.824
829.90	-45.652
830.20	-82.857
830.50	-103.448
830.80	-105.556
831.10	-130.769
831.40	-88.235
831.70	-133.333
832.00	-87.097
832.30	-258.824
832.60	-120.833
832.90	-261.538
833.20	-126.316
833.50	-170.000
833.80	-147.368
834.10	-209.524
834.40	-61.111
834.70	-56.250
835.00	-91.429
835.30	-61.765
835.60	-80.000
835.90	-92.000
836.20	-136.364
836.50	-96.000
836.80	-100.000
837.10	-92.593
837.40	-70.370
837.70	-200.000
838.00	-75.000
838.30	-152.174
838.60	-96.552
838.90	-250.000
839.19	-143.478
839.49	-233.333
839.79	-113.043
840.09	-168.750
840.39	-155.000
840.69	-70.968
840.99	-96.429
841.29	-133.333
841.59	-105.263
841.88	-64.103
842.18	-88.462
842.48	-280.000
842.78	-120.000
843.08	-63.333
843.38	-61.290
843.68	-138.889
843.97	-38.235
844.27	-125.000
844.57	-152.632
844.87	-170.000
845.17	-246.667
845.47	-76.190
845.76	-128.571
846.06	-333.333
846.36	-217.647
846.66	-76.923
846.96	-226.667
847.25	-135.294
847.55	-86.957
847.85	-115.000
848.15	-117.647
848.44	-272.727
848.74	-147.619
849.04	-129.167
849.34	-162.500
849.63	-86.957
849.93	2050.000
850.23	-186.667
850.53	-84.615
850.82	-309.091
851.12	-95.455
851.42	-209.091
851.71	-176.923
852.01	-175.000
852.31	-207.692
852.61	-147.368
852.90	-216.667
853.20	-133.333
853.50	-400.000
853.79	-114.286
854.09	-136.364
854.39	-333.333
854.68	-64.516
854.98	-119.231
855.28	-138.889
855.57	-78.571
855.87	-92.000
856.17	-131.818
856.46	-114.815
856.76	-177.778
857.05	-134.783
857.35	-95.833
857.65	-223.077
857.94	-57.143
858.24	-55.556
858.53	-65.217
858.83	-76.471
859.13	-147.059
859.42	-123.529
859.72	-164.286
860.01	-105.000
860.31	-222.222
860.60	-330.000
860.90	-160.000
861.20	-94.444
861.49	-84.615
861.79	-60.000
862.08	-253.846
862.38	-71.875
862.67	-129.412
862.97	-125.000
863.26	-300.000
863.56	-170.000
863.85	-290.909
864.15	-138.889
864.44	-900.000
864.74	-164.286
865.03	-137.500
865.33	-270.000
865.62	-64.516
865.92	-104.545
866.21	-95.652
866.51	-214.286
866.80	-660.000
867.10	-283.333
867.39	-241.667
867.69	3800.000
867.98	-371.429
868.27	-158.824
868.57	-3700.000
868.86	-330.000
869.16	-123.810
869.45	-87.500
869.75	-236.364
870.04	-400.000
870.33	-200.000
870.63	-528.571
870.92	-675.000
871.22	-437.500
871.51	-327.273
871.80	-1466.667
872.10	-1300.000
>>>>>End Processed Spectral Data<<<<<
