SpectraSuite Data File
++++++++++++++++++++++++++++++++++++
Date: Thu May 14 14:28:19 PDT 2015
User: schluterlab
Dark Spectrum Present: Yes
Reference Spectrum Present: Yes
Number of Sampled Component Spectra: 1
Spectrometers: USB2E3373
Integration Time (usec): 3000 (USB2E3373)
Spectra Averaged: 3 (USB2E3373)
Boxcar Smoothing: 0 (USB2E3373)
Correct for Electrical Dark: No (USB2E3373)
Strobe/Lamp Enabled: No (USB2E3373)
Correct for Detector Non-linearity: No (USB2E3373)
Correct for Stray Light: No (USB2E3373)
Number of Pixels in Processed Spectrum: 2048
>>>>>Begin Processed Spectral Data<<<<<
178.53	0.000
178.91	-128.571
179.29	300.000
179.67	700.000
180.04	28.571
180.42	-140.000
180.80	40.000
181.18	300.000
181.56	1000.000
181.94	-425.000
182.31	225.000
182.69	-333.333
183.07	650.000
183.45	-25.000
183.83	216.667
184.20	366.667
184.58	-1100.000
184.96	100.000
185.34	177.778
185.72	240.000
186.09	-100.000
186.47	-700.000
186.85	60.000
187.23	-11.111
187.61	800.000
187.98	-180.000
188.36	-75.000
188.74	225.000
189.12	300.000
189.49	100.000
189.87	162.500
190.25	111.111
190.63	280.000
191.00	122.222
191.38	0.000
191.76	250.000
192.14	83.333
192.51	100.000
192.89	216.667
193.27	0.000
193.65	214.286
194.02	-200.000
194.40	142.857
194.78	-171.429
195.15	0.000
195.53	154.545
195.91	0.000
196.29	300.000
196.66	84.615
197.04	-100.000
197.42	14.286
197.79	400.000
198.17	175.000
198.55	28.571
198.92	177.778
199.30	62.500
199.68	181.818
200.05	157.143
200.43	450.000
200.81	-85.714
201.18	0.000
201.56	55.556
201.94	0.000
202.31	-433.333
202.69	122.222
203.07	-800.000
203.44	100.000
203.82	225.000
204.19	100.000
204.57	100.000
204.95	62.500
205.32	900.000
205.70	-300.000
206.08	216.667
206.45	200.000
206.83	-60.000
207.20	116.667
207.58	-80.000
207.96	166.667
208.33	316.667
208.71	-108.333
209.08	266.667
209.46	0.000
209.84	-50.000
210.21	-500.000
210.59	-700.000
210.96	-166.667
211.34	250.000
211.71	175.000
212.09	200.000
212.46	0.000
212.84	-100.000
213.22	120.000
213.59	425.000
213.97	60.000
214.34	333.333
214.72	50.000
215.09	225.000
215.47	0.000
215.84	-128.571
216.22	-350.000
216.59	320.000
216.97	100.000
217.34	325.000
217.72	212.500
218.09	225.000
218.47	75.000
218.84	0.000
219.22	-320.000
219.59	94.118
219.97	95.000
220.34	-300.000
220.72	77.778
221.09	76.923
221.47	700.000
221.84	90.000
222.22	100.000
222.59	0.000
222.97	137.500
223.34	200.000
223.72	600.000
224.09	150.000
224.46	125.000
224.84	240.000
225.21	-28.571
225.59	75.000
225.96	325.000
226.34	65.385
226.71	16.667
227.08	850.000
227.46	86.667
227.83	25.000
228.21	89.474
228.58	-75.000
228.95	-450.000
229.33	150.000
229.70	180.000
230.08	147.368
230.45	-30.000
230.82	566.667
231.20	128.571
231.57	25.000
231.95	127.273
232.32	163.636
232.69	75.000
233.07	-75.000
233.44	111.765
233.81	100.000
234.19	61.111
234.56	77.273
234.93	72.414
235.31	78.947
235.68	88.889
236.05	40.000
236.43	61.538
236.80	100.000
237.17	25.926
237.55	33.333
237.92	30.000
238.29	67.742
238.67	9.091
239.04	16.667
239.41	7.143
239.79	30.435
240.16	35.185
240.53	6.522
240.91	3.922
241.28	18.033
241.65	16.418
242.02	36.486
242.40	16.923
242.77	14.667
243.14	-1.220
243.51	6.579
243.89	5.128
244.26	15.842
244.63	10.784
245.00	12.150
245.38	2.632
245.75	6.195
246.12	10.317
246.49	4.651
246.87	15.000
247.24	13.907
247.61	15.132
247.98	12.081
248.36	6.173
248.73	3.681
249.10	2.732
249.47	7.960
249.84	10.995
250.22	4.663
250.59	7.778
250.96	6.818
251.33	0.000
251.70	11.538
252.08	7.083
252.45	3.689
252.82	0.826
253.19	4.687
253.56	4.943
253.94	3.846
254.31	5.682
254.68	6.643
255.05	5.863
255.42	3.061
255.79	4.854
256.16	2.649
256.54	4.305
256.91	5.574
257.28	1.967
257.65	4.140
258.02	2.360
258.39	5.128
258.76	5.199
259.14	4.598
259.51	3.458
259.88	2.266
260.25	3.889
260.62	4.932
260.99	8.197
261.36	8.311
261.73	2.653
262.10	4.121
262.47	2.949
262.85	6.313
263.22	2.597
263.59	0.789
263.96	3.325
264.33	3.069
264.70	1.975
265.07	5.967
265.44	6.122
265.81	4.167
266.18	4.989
266.55	5.134
266.92	2.278
267.29	4.158
267.66	3.769
268.03	1.747
268.40	4.593
268.77	1.139
269.14	2.203
269.51	1.535
269.88	4.713
270.25	2.616
270.62	4.641
270.99	3.838
271.36	3.960
271.73	3.733
272.10	3.206
272.47	3.407
272.84	5.422
273.21	3.607
273.58	3.024
273.95	2.692
274.32	2.471
274.69	1.354
275.06	5.861
275.43	2.033
275.80	4.056
276.17	2.407
276.54	4.664
276.91	4.114
277.28	4.702
277.65	3.950
278.02	3.860
278.39	1.268
278.76	1.933
279.13	1.241
279.50	3.952
279.87	2.683
280.23	2.289
280.60	3.051
280.97	3.125
281.34	1.698
281.71	4.738
282.08	2.824
282.45	1.964
282.82	2.669
283.19	2.262
283.56	2.951
283.92	3.003
284.29	4.423
284.66	4.269
285.03	1.282
285.40	3.246
285.77	1.703
286.14	2.748
286.51	2.283
286.87	1.106
287.24	2.259
287.61	2.840
287.98	2.417
288.35	3.107
288.72	2.515
289.08	3.367
289.45	1.923
289.82	0.904
290.19	1.437
290.56	3.380
290.93	2.710
291.29	2.342
291.66	0.826
292.03	0.678
292.40	3.810
292.77	2.830
293.13	3.518
293.50	1.708
293.87	2.953
294.24	3.867
294.60	2.781
294.97	1.477
295.34	3.201
295.71	2.774
296.08	2.067
296.44	3.186
296.81	2.923
297.18	3.861
297.55	1.415
297.91	2.254
298.28	1.422
298.65	2.973
299.02	3.070
299.38	2.860
299.75	3.037
300.12	1.620
300.48	2.535
300.85	3.150
301.22	3.020
301.59	1.598
301.95	2.260
302.32	2.778
302.69	2.519
303.05	2.394
303.42	2.772
303.79	1.979
304.15	2.839
304.52	1.374
304.89	1.990
305.25	3.416
305.62	2.717
305.99	3.093
306.35	2.520
306.72	2.172
307.09	2.437
307.45	1.967
307.82	2.624
308.19	2.422
308.55	3.375
308.92	2.434
309.29	2.490
309.65	2.924
310.02	2.079
310.38	3.150
310.75	2.524
311.12	2.972
311.48	1.955
311.85	2.184
312.22	2.751
312.58	3.286
312.95	1.816
313.31	3.252
313.68	4.212
314.05	4.246
314.41	3.825
314.78	4.178
315.14	3.358
315.51	2.862
315.87	2.970
316.24	3.562
316.61	3.819
316.97	2.534
317.34	2.822
317.70	3.319
318.07	3.704
318.43	3.997
318.80	4.599
319.16	3.176
319.53	2.142
319.89	2.454
320.26	3.648
320.62	3.369
320.99	3.324
321.35	2.957
321.72	4.651
322.08	2.435
322.45	3.252
322.81	3.520
323.18	3.274
323.54	3.362
323.91	4.004
324.27	4.045
324.64	4.030
325.00	2.902
325.37	3.276
325.73	4.050
326.10	4.298
326.46	3.746
326.83	4.724
327.19	3.543
327.56	4.506
327.92	3.619
328.29	2.903
328.65	3.685
329.01	3.299
329.38	3.538
329.74	4.795
330.11	3.767
330.47	3.875
330.84	4.565
331.20	4.083
331.56	3.813
331.93	3.766
332.29	3.644
332.66	3.738
333.02	3.518
333.38	3.272
333.75	3.872
334.11	3.169
334.48	3.878
334.84	3.908
335.20	3.610
335.57	3.879
335.93	4.463
336.29	3.411
336.66	3.616
337.02	3.763
337.38	3.997
337.75	2.810
338.11	3.196
338.47	4.301
338.84	3.384
339.20	2.022
339.56	4.036
339.93	3.612
340.29	3.945
340.65	3.893
341.02	4.868
341.38	4.365
341.74	3.067
342.11	3.379
342.47	3.336
342.83	3.945
343.20	3.352
343.56	2.807
343.92	3.523
344.28	3.594
344.65	3.953
345.01	4.446
345.37	3.266
345.73	3.196
346.10	4.446
346.46	3.006
346.82	4.719
347.19	4.736
347.55	4.856
347.91	3.715
348.27	4.173
348.63	4.494
349.00	3.281
349.36	5.204
349.72	3.125
350.08	3.938
350.45	3.194
350.81	3.394
351.17	3.534
351.53	2.957
351.89	4.632
352.26	3.134
352.62	3.582
352.98	2.595
353.34	3.585
353.70	2.542
354.07	3.800
354.43	2.809
354.79	3.216
355.15	3.532
355.51	3.801
355.87	2.917
356.24	3.802
356.60	3.474
356.96	2.891
357.32	3.197
357.68	2.782
358.04	2.994
358.40	2.985
358.77	3.947
359.13	2.806
359.49	2.230
359.85	3.771
360.21	3.085
360.57	3.374
360.93	3.808
361.29	3.860
361.66	3.331
362.02	3.410
362.38	4.146
362.74	2.374
363.10	4.333
363.46	3.255
363.82	2.770
364.18	3.871
364.54	3.942
364.90	3.746
365.26	3.241
365.62	3.800
365.98	3.404
366.35	3.356
366.71	3.605
367.07	3.451
367.43	4.071
367.79	3.517
368.15	3.880
368.51	4.060
368.87	4.050
369.23	3.200
369.59	3.005
369.95	3.448
370.31	3.444
370.67	3.645
371.03	3.532
371.39	2.619
371.75	3.439
372.11	3.591
372.47	3.318
372.83	4.188
373.19	3.736
373.55	3.388
373.91	2.999
374.27	3.622
374.63	3.248
374.99	3.316
375.35	3.442
375.71	3.355
376.07	3.551
376.42	3.652
376.78	3.667
377.14	3.743
377.50	3.416
377.86	3.941
378.22	3.772
378.58	3.627
378.94	3.052
379.30	2.929
379.66	3.880
380.02	3.924
380.38	3.514
380.74	2.986
381.09	3.542
381.45	4.091
381.81	3.981
382.17	3.800
382.53	3.275
382.89	3.330
383.25	3.224
383.61	2.778
383.97	3.357
384.32	3.230
384.68	2.726
385.04	4.049
385.40	4.243
385.76	3.576
386.12	2.873
386.48	3.471
386.83	3.933
387.19	3.360
387.55	3.345
387.91	3.368
388.27	3.811
388.62	3.895
388.98	3.158
389.34	3.712
389.70	2.963
390.06	3.612
390.42	3.253
390.77	4.034
391.13	3.462
391.49	3.744
391.85	2.970
392.20	3.618
392.56	3.839
392.92	3.980
393.28	3.704
393.64	2.682
393.99	3.777
394.35	3.914
394.71	3.772
395.07	3.054
395.42	3.826
395.78	4.266
396.14	3.803
396.50	3.207
396.85	3.578
397.21	3.787
397.57	3.651
397.92	3.608
398.28	2.988
398.64	3.146
399.00	3.508
399.35	3.194
399.71	2.989
400.07	3.593
400.42	3.318
400.78	3.414
401.14	3.927
401.49	3.582
401.85	3.081
402.21	3.302
402.57	3.638
402.92	3.783
403.28	2.986
403.63	3.282
403.99	3.207
404.35	2.956
404.70	4.193
405.06	2.772
405.42	2.986
405.77	3.326
406.13	2.917
406.49	3.435
406.84	3.380
407.20	3.186
407.55	2.604
407.91	3.080
408.27	2.945
408.62	3.607
408.98	3.714
409.34	2.639
409.69	2.905
410.05	3.634
410.40	3.712
410.76	3.758
411.11	3.214
411.47	3.501
411.83	3.233
412.18	3.193
412.54	3.320
412.89	3.667
413.25	2.878
413.60	2.987
413.96	3.904
414.31	3.173
414.67	3.637
415.03	3.138
415.38	3.216
415.74	3.054
416.09	3.455
416.45	3.444
416.80	3.366
417.16	2.937
417.51	3.176
417.87	3.311
418.22	3.473
418.58	3.656
418.93	3.667
419.29	2.898
419.64	3.061
420.00	3.383
420.35	3.425
420.71	3.159
421.06	3.220
421.42	2.810
421.77	2.962
422.12	3.224
422.48	2.560
422.83	3.505
423.19	2.706
423.54	3.153
423.90	3.258
424.25	3.307
424.61	2.411
424.96	3.130
425.31	3.503
425.67	3.006
426.02	2.435
426.38	2.813
426.73	3.292
427.09	3.403
427.44	3.605
427.79	2.819
428.15	2.626
428.50	2.865
428.85	2.813
429.21	3.564
429.56	2.616
429.92	2.555
430.27	3.181
430.62	2.247
430.98	2.656
431.33	2.884
431.68	3.065
432.04	2.895
432.39	2.625
432.74	2.968
433.10	3.407
433.45	2.508
433.80	3.004
434.16	3.254
434.51	3.186
434.86	2.877
435.22	2.657
435.57	2.830
435.92	3.450
436.28	2.958
436.63	2.949
436.98	3.435
437.34	3.439
437.69	2.091
438.04	3.173
438.39	3.733
438.75	2.933
439.10	3.594
439.45	2.963
439.81	3.390
440.16	2.574
440.51	3.122
440.86	3.669
441.22	3.430
441.57	3.407
441.92	3.007
442.27	3.131
442.63	3.428
442.98	3.362
443.33	2.788
443.68	3.122
444.03	3.340
444.39	3.421
444.74	3.471
445.09	3.092
445.44	3.372
445.79	3.305
446.15	3.854
446.50	3.514
446.85	4.086
447.20	3.337
447.55	3.243
447.91	2.827
448.26	2.854
448.61	3.082
448.96	3.380
449.31	3.128
449.66	2.941
450.02	3.323
450.37	4.102
450.72	2.745
451.07	3.474
451.42	2.773
451.77	2.779
452.12	3.217
452.47	3.030
452.83	3.209
453.18	3.444
453.53	2.987
453.88	3.479
454.23	3.616
454.58	3.540
454.93	2.913
455.28	3.853
455.63	3.525
455.98	3.352
456.34	2.827
456.69	3.469
457.04	3.191
457.39	3.492
457.74	3.468
458.09	3.185
458.44	4.418
458.79	2.424
459.14	3.356
459.49	2.716
459.84	3.043
460.19	3.331
460.54	3.010
460.89	2.753
461.24	2.759
461.59	3.818
461.94	2.396
462.29	2.912
462.64	3.018
462.99	2.825
463.34	3.699
463.69	3.458
464.04	3.780
464.39	3.195
464.74	3.478
465.09	3.114
465.44	2.897
465.79	3.067
466.14	3.179
466.49	2.895
466.84	3.196
467.19	3.295
467.54	2.703
467.89	2.931
468.24	3.767
468.59	2.721
468.94	2.914
469.29	3.299
469.64	2.797
469.99	3.378
470.34	3.156
470.68	2.529
471.03	4.060
471.38	3.336
471.73	3.056
472.08	3.109
472.43	3.432
472.78	3.967
473.13	2.845
473.48	3.142
473.83	3.656
474.17	3.576
474.52	2.766
474.87	3.267
475.22	3.211
475.57	2.960
475.92	3.186
476.27	3.301
476.61	2.856
476.96	2.659
477.31	3.663
477.66	3.935
478.01	3.610
478.36	3.290
478.70	2.857
479.05	2.556
479.40	3.110
479.75	3.218
480.10	3.032
480.45	3.236
480.79	3.220
481.14	2.987
481.49	2.999
481.84	3.046
482.19	3.226
482.53	3.017
482.88	2.703
483.23	3.024
483.58	2.795
483.92	2.349
484.27	3.175
484.62	2.888
484.97	3.227
485.31	2.640
485.66	2.944
486.01	2.955
486.36	2.587
486.70	2.938
487.05	2.615
487.40	2.879
487.75	3.028
488.09	3.071
488.44	2.836
488.79	3.204
489.13	3.331
489.48	2.524
489.83	3.139
490.17	2.552
490.52	3.284
490.87	3.384
491.22	3.033
491.56	3.541
491.91	2.791
492.26	3.678
492.60	2.711
492.95	3.510
493.30	2.420
493.64	2.584
493.99	2.982
494.34	2.744
494.68	2.527
495.03	3.128
495.37	2.885
495.72	3.129
496.07	2.936
496.41	2.360
496.76	3.128
497.11	2.803
497.45	2.633
497.80	3.598
498.14	2.948
498.49	2.665
498.84	3.108
499.18	3.284
499.53	3.318
499.87	3.297
500.22	2.315
500.56	3.059
500.91	2.975
501.26	3.545
501.60	2.696
501.95	3.908
502.29	3.028
502.64	3.323
502.98	3.279
503.33	3.024
503.67	2.529
504.02	3.109
504.36	3.307
504.71	2.710
505.06	2.638
505.40	3.062
505.75	3.005
506.09	3.269
506.44	3.064
506.78	3.486
507.13	3.550
507.47	3.174
507.82	2.794
508.16	3.107
508.51	2.813
508.85	2.976
509.19	2.984
509.54	3.266
509.88	3.060
510.23	3.108
510.57	3.480
510.92	3.000
511.26	2.982
511.61	2.752
511.95	2.831
512.30	2.954
512.64	2.649
512.98	3.202
513.33	4.133
513.67	3.213
514.02	3.475
514.36	3.478
514.70	3.073
515.05	3.389
515.39	3.097
515.74	4.030
516.08	3.751
516.42	2.983
516.77	2.471
517.11	3.146
517.46	3.234
517.80	3.795
518.14	3.754
518.49	3.633
518.83	3.459
519.17	3.016
519.52	3.616
519.86	3.379
520.20	3.887
520.55	2.957
520.89	3.322
521.23	3.629
521.58	3.333
521.92	4.079
522.26	3.379
522.61	3.646
522.95	2.768
523.29	3.563
523.64	3.587
523.98	4.221
524.32	3.553
524.66	3.358
525.01	3.398
525.35	3.102
525.69	2.668
526.04	3.559
526.38	3.391
526.72	3.864
527.06	3.284
527.41	3.440
527.75	3.444
528.09	3.424
528.43	3.079
528.78	3.295
529.12	3.326
529.46	3.204
529.80	3.490
530.15	3.826
530.49	2.669
530.83	3.719
531.17	3.106
531.51	3.610
531.86	3.666
532.20	4.085
532.54	3.770
532.88	3.636
533.22	3.654
533.57	3.289
533.91	3.984
534.25	3.166
534.59	3.218
534.93	2.830
535.27	3.549
535.62	3.468
535.96	3.312
536.30	3.173
536.64	3.904
536.98	3.936
537.32	3.951
537.66	3.306
538.01	3.565
538.35	3.410
538.69	3.065
539.03	3.433
539.37	3.592
539.71	3.604
540.05	3.717
540.39	3.545
540.73	3.522
541.07	3.372
541.42	3.485
541.76	3.440
542.10	3.378
542.44	2.801
542.78	3.832
543.12	3.993
543.46	3.480
543.80	2.998
544.14	3.351
544.48	3.842
544.82	3.950
545.16	3.578
545.50	3.116
545.84	3.123
546.18	3.951
546.52	2.548
546.86	3.459
547.20	2.735
547.54	2.996
547.88	3.376
548.22	3.392
548.56	3.043
548.90	3.284
549.24	4.073
549.58	3.470
549.92	3.189
550.26	3.883
550.60	3.893
550.94	3.299
551.28	3.564
551.62	4.447
551.96	3.560
552.30	4.589
552.64	4.231
552.98	3.431
553.32	3.537
553.66	2.830
554.00	3.216
554.34	3.668
554.68	3.292
555.02	3.285
555.36	4.076
555.69	3.075
556.03	2.837
556.37	3.692
556.71	3.424
557.05	3.259
557.39	3.251
557.73	3.567
558.07	3.510
558.41	3.455
558.75	3.245
559.08	3.340
559.42	3.429
559.76	4.274
560.10	3.617
560.44	3.100
560.78	3.938
561.12	4.249
561.45	3.285
561.79	3.419
562.13	3.389
562.47	2.898
562.81	4.114
563.15	3.030
563.48	3.480
563.82	2.358
564.16	3.028
564.50	2.741
564.84	3.422
565.17	3.824
565.51	2.934
565.85	3.147
566.19	3.514
566.52	3.160
566.86	3.339
567.20	3.154
567.54	2.708
567.88	3.211
568.21	3.211
568.55	2.878
568.89	2.951
569.23	3.464
569.56	2.814
569.90	3.100
570.24	2.901
570.57	2.502
570.91	2.541
571.25	2.864
571.59	2.950
571.92	2.505
572.26	2.832
572.60	2.594
572.93	3.228
573.27	2.866
573.61	3.097
573.95	2.986
574.28	2.710
574.62	2.501
574.96	2.845
575.29	2.710
575.63	2.841
575.97	2.994
576.30	3.059
576.64	2.529
576.98	2.847
577.31	2.847
577.65	2.579
577.98	2.843
578.32	2.611
578.66	2.620
578.99	2.806
579.33	2.623
579.67	2.539
580.00	2.877
580.34	2.901
580.67	2.648
581.01	2.726
581.35	2.844
581.68	2.697
582.02	2.769
582.35	2.549
582.69	2.480
583.02	2.691
583.36	2.916
583.70	2.658
584.03	2.640
584.37	3.184
584.70	2.616
585.04	2.790
585.37	2.629
585.71	2.740
586.04	2.686
586.38	2.878
586.72	2.407
587.05	2.328
587.39	2.892
587.72	2.536
588.06	2.684
588.39	2.913
588.73	2.831
589.06	2.709
589.40	2.735
589.73	2.796
590.07	3.017
590.40	3.110
590.73	3.075
591.07	3.351
591.40	2.605
591.74	2.862
592.07	3.613
592.41	2.997
592.74	3.053
593.08	2.771
593.41	3.033
593.75	2.845
594.08	2.787
594.41	2.885
594.75	2.723
595.08	2.692
595.42	3.019
595.75	3.164
596.09	3.219
596.42	2.723
596.75	3.049
597.09	2.990
597.42	2.741
597.75	2.979
598.09	3.373
598.42	3.297
598.76	2.293
599.09	2.848
599.42	2.682
599.76	3.004
600.09	3.170
600.42	3.470
600.76	2.675
601.09	2.722
601.42	2.712
601.76	3.276
602.09	2.573
602.42	3.235
602.76	2.878
603.09	2.827
603.42	2.746
603.76	2.572
604.09	2.945
604.42	2.642
604.76	2.816
605.09	2.752
605.42	3.469
605.75	2.962
606.09	2.800
606.42	2.955
606.75	2.999
607.09	2.727
607.42	3.044
607.75	2.735
608.08	2.881
608.42	3.184
608.75	3.192
609.08	2.759
609.41	3.044
609.75	2.634
610.08	2.814
610.41	3.059
610.74	2.983
611.07	2.664
611.41	3.004
611.74	3.464
612.07	2.992
612.40	3.089
612.73	2.738
613.07	2.738
613.40	3.850
613.73	3.130
614.06	2.601
614.39	3.256
614.72	3.105
615.06	3.032
615.39	2.465
615.72	3.223
616.05	2.963
616.38	3.027
616.71	3.344
617.05	2.556
617.38	3.585
617.71	3.564
618.04	3.562
618.37	3.716
618.70	3.281
619.03	2.330
619.36	3.453
619.69	3.011
620.03	2.825
620.36	2.883
620.69	3.023
621.02	3.609
621.35	4.209
621.68	3.977
622.01	3.843
622.34	2.371
622.67	2.680
623.00	1.754
623.33	2.986
623.66	3.502
623.99	2.699
624.32	3.574
624.65	2.896
624.99	2.861
625.32	3.919
625.65	2.428
625.98	2.983
626.31	2.622
626.64	3.516
626.97	3.226
627.30	3.113
627.63	2.851
627.96	4.955
628.29	3.580
628.62	3.107
628.95	3.155
629.28	2.549
629.61	3.956
629.94	3.096
630.26	2.712
630.59	3.454
630.92	2.857
631.25	4.562
631.58	2.919
631.91	3.187
632.24	3.650
632.57	3.510
632.90	2.508
633.23	3.163
633.56	4.490
633.89	2.583
634.22	4.678
634.55	3.653
634.88	4.329
635.20	3.875
635.53	3.503
635.86	3.575
636.19	5.938
636.52	3.692
636.85	4.188
637.18	3.326
637.51	3.871
637.83	5.426
638.16	3.917
638.49	4.225
638.82	3.269
639.15	2.520
639.48	4.503
639.81	4.619
640.13	5.183
640.46	2.424
640.79	2.941
641.12	4.099
641.45	3.513
641.77	5.263
642.10	2.887
642.43	3.723
642.76	3.659
643.09	4.247
643.41	3.081
643.74	4.690
644.07	5.793
644.40	4.243
644.73	4.354
645.05	3.377
645.38	4.460
645.71	2.346
646.04	4.735
646.36	2.920
646.69	4.601
647.02	5.810
647.35	5.191
647.67	3.543
648.00	3.344
648.33	4.655
648.66	4.422
648.98	2.585
649.31	2.977
649.64	3.851
649.96	3.979
650.29	4.172
650.62	3.395
650.94	3.153
651.27	3.593
651.60	3.655
651.92	3.040
652.25	3.473
652.58	5.777
652.90	2.907
653.23	4.085
653.56	3.994
653.88	6.461
654.21	3.239
654.54	3.468
654.86	4.533
655.19	2.760
655.52	2.793
655.84	2.317
656.17	2.748
656.49	3.718
656.82	4.098
657.15	3.293
657.47	2.612
657.80	2.044
658.13	1.535
658.45	2.126
658.78	2.715
659.10	2.506
659.43	2.962
659.75	2.270
660.08	3.305
660.41	4.053
660.73	2.509
661.06	2.790
661.38	3.509
661.71	5.345
662.03	4.762
662.36	5.725
662.68	3.940
663.01	3.717
663.33	4.537
663.66	7.326
663.98	3.269
664.31	3.940
664.63	2.697
664.96	4.719
665.28	2.904
665.61	5.245
665.93	3.214
666.26	4.839
666.58	2.214
666.91	5.234
667.23	4.952
667.56	5.523
667.88	6.200
668.21	1.953
668.53	3.282
668.86	5.108
669.18	4.481
669.50	5.368
669.83	3.400
670.15	3.346
670.48	4.960
670.80	1.721
671.13	4.348
671.45	1.772
671.77	5.273
672.10	3.000
672.42	3.074
672.75	4.301
673.07	4.776
673.39	2.773
673.72	6.040
674.04	4.138
674.37	5.367
674.69	7.055
675.01	3.238
675.34	4.008
675.66	4.682
675.98	5.410
676.31	2.539
676.63	5.513
676.95	6.513
677.28	3.629
677.60	1.575
677.92	5.758
678.25	5.850
678.57	4.626
678.89	7.338
679.22	3.659
679.54	3.248
679.86	1.864
680.18	2.819
680.51	3.145
680.83	3.928
681.15	3.276
681.48	5.699
681.80	4.491
682.12	4.895
682.44	4.508
682.77	3.901
683.09	6.250
683.41	5.233
683.73	5.313
684.06	4.428
684.38	3.936
684.70	5.206
685.02	3.270
685.34	2.163
685.67	3.312
685.99	3.988
686.31	5.087
686.63	3.160
686.96	4.101
687.28	5.537
687.60	1.852
687.92	4.019
688.24	4.508
688.56	4.655
688.89	4.356
689.21	5.479
689.53	1.569
689.85	5.523
690.17	3.889
690.49	2.789
690.82	1.584
691.14	1.619
691.46	5.163
691.78	4.420
692.10	2.569
692.42	1.786
692.74	4.174
693.06	2.778
693.39	3.795
693.71	3.759
694.03	5.204
694.35	3.238
694.67	4.928
694.99	3.191
695.31	1.545
695.63	4.762
695.95	4.762
696.27	2.418
696.59	8.186
696.91	2.477
697.23	4.835
697.56	2.851
697.88	3.409
698.20	4.331
698.52	6.250
698.84	3.950
699.16	5.714
699.48	7.531
699.80	4.043
700.12	4.148
700.44	4.147
700.76	4.751
701.08	6.538
701.40	5.440
701.72	5.224
702.04	4.011
702.36	1.047
702.68	5.868
703.00	4.156
703.32	4.433
703.64	6.112
703.96	6.921
704.28	4.914
704.60	6.835
704.91	4.847
705.23	5.205
705.55	6.685
705.87	3.939
706.19	4.601
706.51	1.807
706.83	4.611
707.15	0.529
707.47	5.140
707.79	2.620
708.11	1.483
708.43	3.871
708.74	4.241
709.06	2.784
709.38	3.286
709.70	6.203
710.02	4.393
710.34	6.383
710.66	3.073
710.98	4.372
711.29	2.747
711.61	4.237
711.93	3.134
712.25	5.946
712.57	7.080
712.89	5.000
713.20	6.213
713.52	7.803
713.84	5.292
714.16	7.105
714.48	6.443
714.80	7.792
715.11	3.937
715.43	3.448
715.75	4.737
716.07	6.354
716.39	5.738
716.70	7.831
717.02	7.869
717.34	2.091
717.66	5.705
717.97	6.164
718.29	4.811
718.61	5.592
718.93	3.883
719.24	5.590
719.56	2.454
719.88	3.604
720.20	5.806
720.51	2.795
720.83	6.562
721.15	4.605
721.46	2.055
721.78	6.667
722.10	5.178
722.42	3.356
722.73	2.903
723.05	4.561
723.37	5.208
723.68	7.168
724.00	5.054
724.32	2.817
724.63	3.497
724.95	7.092
725.27	3.833
725.58	1.060
725.90	7.931
726.22	6.583
726.53	7.792
726.85	7.547
727.16	7.251
727.48	8.257
727.80	6.954
728.11	-0.353
728.43	5.051
728.74	3.010
729.06	6.623
729.38	6.494
729.69	6.040
730.01	6.845
730.32	2.727
730.64	3.774
730.96	4.037
731.27	8.380
731.59	6.319
731.90	2.857
732.22	2.865
732.53	4.972
732.85	3.143
733.16	4.985
733.48	5.488
733.80	4.178
734.11	2.564
734.43	4.865
734.74	6.076
735.06	5.025
735.37	5.676
735.69	5.405
736.00	4.520
736.32	6.469
736.63	6.667
736.95	7.184
737.26	3.636
737.58	1.515
737.89	5.588
738.21	5.199
738.52	3.607
738.83	8.532
739.15	3.191
739.46	7.483
739.78	7.055
740.09	2.865
740.41	6.706
740.72	4.000
741.04	6.472
741.35	5.263
741.66	3.922
741.98	6.967
742.29	4.603
742.61	7.018
742.92	1.538
743.23	7.220
743.55	7.752
743.86	2.800
744.18	4.132
744.49	5.485
744.80	8.230
745.12	8.017
745.43	8.943
745.74	1.293
746.06	7.203
746.37	6.329
746.68	8.130
747.00	5.000
747.31	6.867
747.62	8.462
747.94	4.858
748.25	2.008
748.56	5.306
748.88	5.128
749.19	8.190
749.50	3.463
749.82	4.418
750.13	4.982
750.44	6.000
750.75	5.538
751.07	5.231
751.38	7.886
751.69	0.958
752.01	5.502
752.32	4.248
752.63	4.082
752.94	3.460
753.26	3.717
753.57	5.926
753.88	3.745
754.19	5.145
754.51	2.894
754.82	5.145
755.13	3.934
755.44	3.413
755.75	8.553
756.07	8.955
756.38	4.088
756.69	4.518
757.00	3.324
757.31	7.104
757.63	3.581
757.94	2.113
758.25	5.643
758.56	2.614
758.87	6.136
759.18	4.000
759.50	7.649
759.81	6.162
760.12	4.582
760.43	3.906
760.74	4.433
761.05	2.750
761.36	0.241
761.67	4.315
761.99	4.865
762.30	2.744
762.61	7.921
762.92	2.239
763.23	4.869
763.54	5.396
763.85	2.405
764.16	5.387
764.47	4.930
764.78	6.390
765.10	2.346
765.41	6.667
765.72	0.529
766.03	4.237
766.34	3.135
766.65	3.833
766.96	5.179
767.27	2.304
767.58	2.488
767.89	9.615
768.20	7.042
768.51	7.407
768.82	5.221
769.13	8.712
769.44	0.000
769.75	6.859
770.06	7.308
770.37	5.906
770.68	2.553
770.99	-0.405
771.30	11.111
771.61	5.323
771.92	4.444
772.23	8.097
772.54	2.315
772.85	12.442
773.16	10.952
773.47	2.116
773.78	2.703
774.09	11.364
774.39	13.000
774.70	9.836
775.01	7.927
775.32	4.706
775.63	15.337
775.94	3.185
776.25	9.032
776.56	15.385
776.87	12.925
777.18	8.966
777.48	9.091
777.79	10.811
778.10	11.029
778.41	15.278
778.72	7.586
779.03	9.877
779.34	4.242
779.65	10.881
779.95	6.667
780.26	7.386
780.57	10.968
780.88	12.319
781.19	10.323
781.50	10.000
781.80	8.602
782.11	9.524
782.42	7.071
782.73	7.186
783.04	10.056
783.34	5.455
783.65	7.190
783.96	7.453
784.27	10.119
784.57	7.285
784.88	10.714
785.19	5.512
785.50	11.024
785.81	12.782
786.11	17.692
786.42	3.597
786.73	7.194
787.04	11.278
787.34	9.836
787.65	11.200
787.96	10.448
788.26	13.986
788.57	13.287
788.88	14.474
789.19	8.497
789.49	5.479
789.80	13.475
790.11	16.535
790.41	16.406
790.72	6.780
791.03	1.942
791.33	17.391
791.64	11.404
791.95	10.714
792.25	7.619
792.56	11.607
792.87	10.417
793.17	16.964
793.48	7.292
793.79	9.639
794.09	2.752
794.40	8.257
794.70	8.163
795.01	8.442
795.32	4.110
795.62	9.859
795.93	9.091
796.23	9.016
796.54	8.036
796.85	14.894
797.15	14.130
797.46	2.740
797.76	7.500
798.07	17.391
798.37	2.062
798.68	14.286
798.99	20.690
799.29	14.607
799.60	18.085
799.90	10.843
800.21	7.692
800.51	2.985
800.82	11.765
801.12	10.959
801.43	0.000
801.73	-11.864
802.04	19.697
802.34	1.667
802.65	28.814
802.95	16.418
803.26	23.729
803.56	1.370
803.87	21.429
804.17	8.219
804.48	-7.018
804.78	8.333
805.09	3.448
805.39	22.973
805.70	11.268
806.00	20.732
806.30	14.458
806.61	2.740
806.91	12.500
807.22	17.778
807.52	11.494
807.83	8.333
808.13	10.843
808.43	28.090
808.74	26.250
809.04	5.882
809.35	9.333
809.65	15.714
809.95	1.370
810.26	12.281
810.56	17.241
810.86	23.529
811.17	3.509
811.47	11.475
811.77	8.889
812.08	20.339
812.38	25.000
812.69	27.586
812.99	11.321
813.29	-7.692
813.59	26.000
813.90	8.772
814.20	21.818
814.50	25.352
814.81	23.077
815.11	19.672
815.41	14.925
815.72	24.138
816.02	16.071
816.32	37.778
816.62	27.273
816.93	35.556
817.23	29.630
817.53	40.426
817.84	30.952
818.14	29.412
818.44	18.367
818.74	33.333
819.04	7.692
819.35	14.286
819.65	0.000
819.95	15.094
820.25	37.778
820.56	30.952
820.86	15.625
821.16	-12.821
821.46	13.953
821.76	-4.000
822.07	17.857
822.37	10.870
822.67	17.021
822.97	16.216
823.27	15.000
823.57	34.694
823.88	15.556
824.18	40.000
824.48	33.333
824.78	60.000
825.08	24.242
825.38	42.222
825.69	21.277
825.99	22.222
826.29	-8.571
826.59	35.897
826.89	11.628
827.19	24.000
827.49	32.353
827.79	20.833
828.09	-8.108
828.39	-10.000
828.70	-4.878
829.00	18.605
829.30	35.714
829.60	52.941
829.90	28.261
830.20	11.429
830.50	27.586
830.80	33.333
831.10	19.231
831.40	38.235
831.70	76.190
832.00	54.839
832.30	-64.706
832.60	25.000
832.90	-7.692
833.20	36.842
833.50	10.000
833.80	57.895
834.10	9.524
834.40	36.111
834.70	28.125
835.00	28.571
835.30	23.529
835.60	30.000
835.90	72.000
836.20	18.182
836.50	48.000
836.80	30.303
837.10	7.407
837.40	11.111
837.70	18.750
838.00	46.429
838.30	13.043
838.60	55.172
838.90	21.429
839.19	30.435
839.49	58.333
839.79	43.478
840.09	0.000
840.39	15.000
840.69	41.935
840.99	64.286
841.29	13.333
841.59	52.632
841.88	30.769
842.18	23.077
842.48	0.000
842.78	75.000
843.08	43.333
843.38	64.516
843.68	16.667
843.97	44.118
844.27	50.000
844.57	-36.842
844.87	10.000
845.17	26.667
845.47	90.476
845.76	38.095
846.06	133.333
846.36	23.529
846.66	38.462
846.96	-13.333
847.25	88.235
847.55	60.870
847.85	60.000
848.15	135.294
848.44	72.727
848.74	80.952
849.04	4.167
849.34	68.750
849.63	56.522
849.93	-50.000
850.23	73.333
850.53	76.923
850.82	27.273
851.12	77.273
851.42	54.545
851.71	76.923
852.01	35.000
852.31	76.923
852.61	42.105
852.90	100.000
853.20	33.333
853.50	-55.556
853.79	33.333
854.09	13.636
854.39	25.000
854.68	32.258
854.98	38.462
855.28	50.000
855.57	39.286
855.87	60.000
856.17	9.091
856.46	62.963
856.76	22.222
857.05	21.739
857.35	54.167
857.65	46.154
857.94	52.381
858.24	107.407
858.53	60.870
858.83	94.118
859.13	64.706
859.42	76.471
859.72	57.143
860.01	45.000
860.31	244.444
860.60	50.000
860.90	100.000
861.20	44.444
861.49	107.692
861.79	36.667
862.08	53.846
862.38	50.000
862.67	52.941
862.97	93.750
863.26	122.222
863.56	180.000
863.85	81.818
864.15	111.111
864.44	133.333
864.74	92.857
865.03	12.500
865.33	80.000
865.62	22.581
865.92	77.273
866.21	43.478
866.51	64.286
866.80	240.000
867.10	8.333
867.39	0.000
867.69	-600.000
867.98	85.714
868.27	88.235
868.57	-200.000
868.86	-20.000
869.16	0.000
869.45	41.667
869.75	100.000
870.04	171.429
870.33	91.667
870.63	214.286
870.92	350.000
871.22	12.500
871.51	-45.455
871.80	0.000
872.10	550.000
>>>>>End Processed Spectral Data<<<<<
