SpectraSuite Data File
++++++++++++++++++++++++++++++++++++
Date: Thu May 14 15:19:35 PDT 2015
User: schluterlab
Dark Spectrum Present: Yes
Reference Spectrum Present: Yes
Number of Sampled Component Spectra: 1
Spectrometers: USB2E3373
Integration Time (usec): 3000 (USB2E3373)
Spectra Averaged: 3 (USB2E3373)
Boxcar Smoothing: 0 (USB2E3373)
Correct for Electrical Dark: No (USB2E3373)
Strobe/Lamp Enabled: No (USB2E3373)
Correct for Detector Non-linearity: No (USB2E3373)
Correct for Stray Light: No (USB2E3373)
Number of Pixels in Processed Spectrum: 2048
>>>>>Begin Processed Spectral Data<<<<<
178.53	0.000
178.91	685.714
179.29	-4900.000
179.67	-3900.000
180.04	371.429
180.42	430.000
180.80	820.000
181.18	-4500.000
181.56	-3800.000
181.94	925.000
182.31	-800.000
182.69	1366.667
183.07	-1900.000
183.45	975.000
183.83	-616.667
184.20	-1300.000
184.58	3800.000
184.96	-1125.000
185.34	-355.556
185.72	-720.000
186.09	644.444
186.47	2750.000
186.85	1040.000
187.23	-522.222
187.61	-4000.000
187.98	780.000
188.36	1050.000
188.74	-1125.000
189.12	-1400.000
189.49	-237.500
189.87	-425.000
190.25	-377.778
190.63	-620.000
191.00	-488.889
191.38	0.000
191.76	-1150.000
192.14	-800.000
192.51	2250.000
192.89	-616.667
193.27	0.000
193.65	-485.714
194.02	-4600.000
194.40	-428.571
194.78	571.429
195.15	0.000
195.53	-272.727
195.91	0.000
196.29	-900.000
196.66	-346.154
197.04	-5000.000
197.42	-557.143
197.79	-2200.000
198.17	-437.500
198.55	-500.000
198.92	-400.000
199.30	-487.500
199.68	-245.455
200.05	-200.000
200.43	-2250.000
200.81	700.000
201.18	0.000
201.56	577.778
201.94	0.000
202.31	1766.667
202.69	-455.556
203.07	3300.000
203.44	-366.667
203.82	-1175.000
204.19	-333.333
204.57	-700.000
204.95	-537.500
205.32	-3800.000
205.70	825.000
206.08	-683.333
206.45	-516.667
206.83	980.000
207.20	-600.000
207.58	-860.000
207.96	-716.667
208.33	-600.000
208.71	325.000
209.08	-566.667
209.46	0.000
209.84	850.000
210.21	2500.000
210.59	1650.000
210.96	1733.333
211.34	-1125.000
211.71	-425.000
212.09	-4200.000
212.46	0.000
212.84	2200.000
213.22	-840.000
213.59	-1000.000
213.97	-350.000
214.34	-1600.000
214.72	666.667
215.09	-1150.000
215.47	0.000
215.84	614.286
216.22	2450.000
216.59	-720.000
216.97	-840.000
217.34	-925.000
217.72	-537.500
218.09	-1125.000
218.47	-1175.000
218.84	0.000
219.22	820.000
219.59	-194.118
219.97	-140.000
220.34	2100.000
220.72	-522.222
221.09	-300.000
221.47	-1200.000
221.84	-350.000
222.22	-628.571
222.59	0.000
222.97	-475.000
223.34	-980.000
223.72	-4400.000
224.09	-850.000
224.46	-1225.000
224.84	-680.000
225.21	-600.000
225.59	-1325.000
225.96	-850.000
226.34	-119.231
226.71	750.000
227.08	-2300.000
227.46	-200.000
227.83	-950.000
228.21	-194.737
228.58	587.500
228.95	2150.000
229.33	-291.667
229.70	-360.000
230.08	-136.842
230.45	490.000
230.82	-1500.000
231.20	-250.000
231.57	-291.667
231.95	-445.455
232.32	-372.727
232.69	-155.000
233.07	-1100.000
233.44	-211.765
233.81	-390.000
234.19	-172.222
234.56	-140.909
234.93	-82.759
235.31	-200.000
235.68	-211.111
236.05	-230.000
236.43	-88.462
236.80	-88.000
237.17	-111.111
237.55	-100.000
237.92	-390.000
238.29	-116.129
238.67	-84.091
239.04	-91.667
239.41	-85.714
239.79	-56.522
240.16	-68.519
240.53	-69.565
240.91	-56.863
241.28	-62.295
241.65	-25.373
242.02	-32.432
242.40	-40.000
242.77	-32.000
243.14	-37.805
243.51	-46.053
243.89	-41.026
244.26	-13.861
244.63	-18.627
245.00	-21.495
245.38	-14.912
245.75	-22.124
246.12	-17.460
246.49	-17.054
246.87	-10.714
247.24	-7.947
247.61	-9.868
247.98	-17.450
248.36	-14.198
248.73	-12.883
249.10	-7.104
249.47	-6.468
249.84	0.000
250.22	-7.254
250.59	-7.778
250.96	-4.091
251.33	-11.735
251.70	-4.274
252.08	-2.083
252.45	-1.230
252.82	-3.719
253.19	-2.344
253.56	0.760
253.94	-2.308
254.31	-0.758
254.68	3.846
255.05	5.537
255.42	0.340
255.79	0.971
256.16	0.000
256.54	0.662
256.91	3.279
257.28	1.311
257.65	1.274
258.02	1.475
258.39	2.849
258.76	0.917
259.14	2.299
259.51	-2.305
259.88	-1.700
260.25	-0.833
260.62	2.192
260.99	4.645
261.36	5.094
261.73	-0.265
262.10	1.648
262.47	3.217
262.85	7.071
263.22	1.818
263.59	1.053
263.96	4.348
264.33	5.627
264.70	3.457
265.07	6.205
265.44	4.535
265.81	5.093
266.18	5.442
266.55	2.679
266.92	1.595
267.29	6.127
267.66	4.878
268.03	4.367
268.40	3.132
268.77	4.784
269.14	2.643
269.51	1.974
269.88	5.328
270.25	6.640
270.62	4.219
270.99	5.657
271.36	5.347
271.73	6.680
272.10	7.214
272.47	3.808
272.84	5.823
273.21	5.812
273.58	6.250
273.95	4.808
274.32	4.563
274.69	3.868
275.06	5.678
275.43	2.957
275.80	7.055
276.17	3.333
276.54	2.052
276.91	4.114
277.28	4.702
277.65	4.847
278.02	5.882
278.39	5.978
278.76	5.448
279.13	4.965
279.50	6.357
279.87	5.725
280.23	2.817
280.60	5.593
280.97	5.263
281.34	4.414
281.71	7.614
282.08	4.319
282.45	4.910
282.82	5.181
283.19	4.039
283.56	3.443
283.92	7.057
284.29	7.109
284.66	6.076
285.03	4.327
285.40	6.801
285.77	5.108
286.14	7.634
286.51	5.936
286.87	5.055
287.24	9.337
287.61	5.381
287.98	6.949
288.35	6.065
288.72	7.249
289.08	7.613
289.45	6.065
289.82	5.120
290.19	7.471
290.56	8.310
290.93	7.561
291.29	8.402
291.66	7.300
292.03	6.106
292.40	7.211
292.77	7.412
293.13	8.119
293.50	6.439
293.87	5.906
294.24	8.933
294.60	9.102
294.97	4.698
295.34	7.682
295.71	6.431
296.08	8.010
296.44	6.740
296.81	7.674
297.18	8.219
297.55	6.368
297.91	7.117
298.28	7.938
298.65	8.799
299.02	8.028
299.38	9.153
299.75	7.243
300.12	9.144
300.48	9.217
300.85	9.111
301.22	8.389
301.59	8.219
301.95	9.379
302.32	8.667
302.69	9.529
303.05	9.902
303.42	9.645
303.79	9.271
304.15	9.779
304.52	9.619
304.89	9.319
305.25	9.213
305.62	9.509
305.99	10.412
306.35	11.089
306.72	10.651
307.09	9.949
307.45	10.559
307.82	10.797
308.19	10.091
308.55	11.475
308.92	11.295
309.29	11.973
309.65	10.039
310.02	11.584
310.38	12.106
310.75	12.039
311.12	12.752
311.48	13.978
311.85	12.726
312.22	13.472
312.58	12.394
312.95	13.098
313.31	13.640
313.68	13.095
314.05	14.363
314.41	15.756
314.78	13.987
315.14	14.882
315.51	15.328
315.87	15.572
316.24	15.982
316.61	16.341
316.97	14.932
317.34	16.138
317.70	17.293
318.07	18.342
318.43	17.432
318.80	18.896
319.16	18.112
319.53	17.052
319.89	17.616
320.26	18.327
320.62	18.528
320.99	19.114
321.35	19.871
321.72	20.000
322.08	18.936
322.45	19.422
322.81	19.224
323.18	19.204
323.54	20.517
323.91	20.907
324.27	20.740
324.64	21.662
325.00	21.808
325.37	22.932
325.73	22.066
326.10	21.411
326.46	23.941
326.83	24.259
327.19	24.016
327.56	24.664
327.92	23.446
328.29	24.194
328.65	22.864
329.01	26.819
329.38	25.948
329.74	26.370
330.11	27.055
330.47	25.611
330.84	26.184
331.20	25.583
331.56	28.076
331.93	27.280
332.29	28.220
332.66	28.073
333.02	27.471
333.38	28.943
333.75	29.377
334.11	28.357
334.48	29.208
334.84	30.246
335.20	29.219
335.57	29.258
335.93	29.504
336.29	28.702
336.66	28.595
337.02	28.679
337.38	31.037
337.75	29.917
338.11	30.530
338.47	29.280
338.84	29.611
339.20	28.896
339.56	29.407
339.93	29.064
340.29	30.032
340.65	28.467
341.02	30.726
341.38	30.962
341.74	28.733
342.11	29.767
342.47	29.786
342.83	30.596
343.20	29.599
343.56	29.751
343.92	29.303
344.28	29.922
344.65	31.318
345.01	29.719
345.37	30.171
345.73	29.462
346.10	29.329
346.46	29.272
346.82	28.989
347.19	30.558
347.55	29.666
347.91	28.529
348.27	29.211
348.63	30.312
349.00	29.828
349.36	29.963
349.72	29.241
350.08	29.718
350.45	29.886
350.81	29.638
351.17	29.925
351.53	30.402
351.89	29.992
352.26	30.000
352.62	30.373
352.98	29.237
353.34	29.350
353.70	31.125
354.07	29.210
354.43	29.992
354.79	30.142
355.15	30.169
355.51	30.775
355.87	29.469
356.24	31.331
356.60	29.712
356.96	30.838
357.32	31.004
357.68	28.843
358.04	30.165
358.40	30.075
358.77	30.409
359.13	29.542
359.49	29.368
359.85	31.472
360.21	29.770
360.57	31.012
360.93	31.030
361.29	30.596
361.66	31.137
362.02	30.759
362.38	32.186
362.74	31.425
363.10	31.431
363.46	32.202
363.82	31.818
364.18	32.301
364.54	32.503
364.90	32.107
365.26	32.276
365.62	33.667
365.98	33.016
366.35	31.678
366.71	32.245
367.07	33.085
367.43	32.108
367.79	32.581
368.15	33.445
368.51	33.356
368.87	32.593
369.23	32.333
369.59	33.265
369.95	32.995
370.31	32.816
370.67	33.287
371.03	33.726
371.39	33.445
371.75	33.425
372.11	33.198
372.47	32.701
372.83	34.293
373.19	33.289
373.55	33.808
373.91	34.151
374.27	34.023
374.63	35.250
374.99	34.615
375.35	34.740
375.71	34.774
376.07	34.797
376.42	36.461
376.78	36.234
377.14	35.059
377.50	36.686
377.86	36.084
378.22	35.988
378.58	36.147
378.94	35.563
379.30	35.970
379.66	36.508
380.02	37.392
380.38	38.018
380.74	37.690
381.09	37.282
381.45	37.386
381.81	39.637
382.17	39.489
382.53	38.538
382.89	38.488
383.25	40.328
383.61	38.542
383.97	38.928
384.32	39.593
384.68	38.747
385.04	40.254
385.40	40.542
385.76	41.032
386.12	39.677
386.48	40.765
386.83	41.359
387.19	40.556
387.55	40.962
387.91	41.153
388.27	41.339
388.62	40.607
388.98	41.512
389.34	42.487
389.70	42.359
390.06	41.622
390.42	41.265
390.77	42.565
391.13	40.904
391.49	42.029
391.85	41.455
392.20	40.866
392.56	42.056
392.92	41.549
393.28	42.344
393.64	41.955
393.99	42.533
394.35	42.348
394.71	43.054
395.07	41.796
395.42	41.348
395.78	44.546
396.14	42.602
396.50	42.815
396.85	42.099
397.21	42.308
397.57	42.756
397.92	43.242
398.28	42.857
398.64	41.476
399.00	42.670
399.35	42.618
399.71	42.554
400.07	42.504
400.42	42.841
400.78	42.072
401.14	42.345
401.49	42.979
401.85	44.186
402.21	43.105
402.57	43.427
402.92	42.849
403.28	42.037
403.63	41.945
403.99	42.399
404.35	42.297
404.70	42.776
405.06	41.739
405.42	42.037
405.77	42.694
406.13	43.004
406.49	42.905
406.84	43.158
407.20	43.264
407.55	42.580
407.91	41.923
408.27	42.226
408.62	44.037
408.98	42.600
409.34	42.581
409.69	43.201
410.05	42.321
410.40	43.387
410.76	43.242
411.11	43.717
411.47	42.383
411.83	42.504
412.18	44.337
412.54	42.264
412.89	43.946
413.25	43.623
413.60	43.079
413.96	44.522
414.31	41.926
414.67	42.993
415.03	42.892
415.38	43.064
415.74	43.433
416.09	44.047
416.45	43.331
416.80	43.941
417.16	44.828
417.51	44.583
417.87	44.451
418.22	44.731
418.58	44.176
418.93	45.518
419.29	45.253
419.64	44.838
420.00	45.341
420.35	45.536
420.71	45.549
421.06	45.371
421.42	46.158
421.77	44.750
422.12	44.767
422.48	45.622
422.83	47.152
423.19	46.844
423.54	49.004
423.90	46.438
424.25	48.053
424.61	47.359
424.96	48.435
425.31	48.408
425.67	46.860
426.02	48.810
426.38	49.311
426.73	47.656
427.09	50.231
427.44	48.280
427.79	49.143
428.15	49.315
428.50	49.663
428.85	48.507
429.21	50.532
429.56	50.395
429.92	50.418
430.27	50.602
430.62	50.660
430.98	51.156
431.33	51.026
431.68	50.383
432.04	51.905
432.39	51.794
432.74	51.427
433.10	51.541
433.45	50.725
433.80	51.824
434.16	52.324
434.51	53.700
434.86	54.560
435.22	55.048
435.57	54.245
435.92	53.311
436.28	54.835
436.63	53.960
436.98	53.301
437.34	55.073
437.69	54.155
438.04	54.839
438.39	53.992
438.75	53.348
439.10	55.708
439.45	54.779
439.81	54.859
440.16	54.102
440.51	54.236
440.86	54.419
441.22	54.555
441.57	55.922
441.92	55.529
442.27	56.212
442.63	55.936
442.98	56.243
443.33	55.339
443.68	55.302
444.03	56.350
444.39	56.311
444.74	56.611
445.09	55.347
445.44	57.534
445.79	56.753
446.15	57.143
446.50	57.933
446.85	57.490
447.20	56.867
447.55	56.538
447.91	57.016
448.26	56.712
448.61	57.226
448.96	58.637
449.31	57.741
449.66	57.407
450.02	57.542
450.37	57.965
450.72	57.643
451.07	57.802
451.42	57.597
451.77	56.643
452.12	59.707
452.47	58.645
452.83	60.079
453.18	57.852
453.53	58.472
453.88	58.200
454.23	58.418
454.58	58.328
454.93	57.767
455.28	59.542
455.63	59.181
455.98	59.553
456.34	59.364
456.69	58.848
457.04	59.870
457.39	58.647
457.74	59.004
458.09	59.418
458.44	59.537
458.79	59.154
459.14	58.626
459.49	60.045
459.84	60.913
460.19	59.578
460.54	61.329
460.89	60.985
461.24	59.598
461.59	61.206
461.94	59.270
462.29	61.422
462.64	58.841
462.99	60.452
463.34	60.091
463.69	59.261
464.04	61.868
464.39	60.426
464.74	58.951
465.09	60.150
465.44	60.461
465.79	60.286
466.14	60.240
466.49	60.316
466.84	62.094
467.19	60.636
467.54	59.342
467.89	60.230
468.24	60.277
468.59	60.220
468.94	60.839
469.29	59.268
469.64	61.093
469.99	62.078
470.34	61.262
470.68	62.269
471.03	62.672
471.38	62.394
471.73	61.638
472.08	60.977
472.43	61.890
472.78	61.776
473.13	60.872
473.48	61.088
473.83	61.985
474.17	62.954
474.52	63.800
474.87	61.240
475.22	62.310
475.57	62.098
475.92	62.270
476.27	63.472
476.61	60.488
476.96	62.565
477.31	61.436
477.66	62.802
478.01	60.854
478.36	61.964
478.70	62.266
479.05	62.935
479.40	63.425
479.75	62.632
480.10	62.435
480.45	62.033
480.79	62.313
481.14	61.305
481.49	61.745
481.84	62.533
482.19	62.839
482.53	63.008
482.88	64.156
483.23	63.184
483.58	62.620
483.92	62.012
484.27	62.786
484.62	61.716
484.97	62.986
485.31	61.352
485.66	57.710
486.01	58.079
486.36	61.182
486.70	65.141
487.05	67.334
487.40	65.568
487.75	63.919
488.09	61.567
488.44	61.190
488.79	60.438
489.13	61.296
489.48	60.854
489.83	62.093
490.17	62.090
490.52	61.453
490.87	63.367
491.22	63.302
491.56	62.585
491.91	63.280
492.26	63.652
492.60	62.659
492.95	63.449
493.30	63.693
493.64	64.301
493.99	63.421
494.34	63.720
494.68	64.540
495.03	64.317
495.37	64.936
495.72	63.719
496.07	63.804
496.41	64.264
496.76	64.345
497.11	64.416
497.45	65.170
497.80	64.149
498.14	64.898
498.49	64.384
498.84	64.580
499.18	64.912
499.53	63.677
499.87	64.571
500.22	63.847
500.56	63.878
500.91	65.126
501.26	65.000
501.60	63.500
501.95	64.003
502.29	64.853
502.64	65.763
502.98	63.417
503.33	64.363
503.67	63.890
504.02	63.923
504.36	64.790
504.71	65.825
505.06	64.893
505.40	65.037
505.75	63.434
506.09	64.365
506.44	65.227
506.78	66.147
507.13	65.560
507.47	65.324
507.82	65.388
508.16	65.679
508.51	65.260
508.85	66.793
509.19	65.703
509.54	65.802
509.88	65.857
510.23	64.934
510.57	65.732
510.92	66.086
511.26	64.646
511.61	64.703
511.95	65.691
512.30	66.814
512.64	66.167
512.98	65.433
513.33	65.474
513.67	66.395
514.02	66.173
514.36	67.315
514.70	65.990
515.05	67.935
515.39	65.827
515.74	67.126
516.08	66.667
516.42	66.667
516.77	67.455
517.11	66.271
517.46	67.126
517.80	68.520
518.14	68.390
518.49	67.516
518.83	66.418
519.17	65.913
519.52	67.453
519.86	68.585
520.20	67.146
520.55	66.977
520.89	67.511
521.23	67.169
521.58	68.418
521.92	67.819
522.26	67.354
522.61	68.056
522.95	67.878
523.29	68.276
523.64	65.807
523.98	69.424
524.32	69.054
524.66	69.038
525.01	68.233
525.35	67.490
525.69	67.227
526.04	66.475
526.38	67.816
526.72	66.955
527.06	68.563
527.41	67.405
527.75	68.705
528.09	69.421
528.43	67.673
528.78	68.092
529.12	67.144
529.46	67.566
529.80	68.078
530.15	68.290
530.49	67.794
530.83	67.710
531.17	67.802
531.51	66.546
531.86	67.428
532.20	68.476
532.54	67.445
532.88	66.242
533.22	67.708
533.57	66.013
533.91	67.452
534.25	67.044
534.59	67.529
534.93	67.289
535.27	65.690
535.62	67.311
535.96	67.693
536.30	66.451
536.64	67.387
536.98	68.819
537.32	67.963
537.66	67.935
538.01	66.526
538.35	67.540
538.69	67.728
539.03	68.118
539.37	66.019
539.71	67.147
540.05	66.727
540.39	67.237
540.73	66.727
541.07	68.486
541.42	64.914
541.76	66.014
542.10	66.104
542.44	67.174
542.78	67.032
543.12	66.687
543.46	65.812
543.80	66.427
544.14	66.727
544.48	66.785
544.82	67.804
545.16	65.951
545.50	66.627
545.84	65.340
546.18	68.519
546.52	67.134
546.86	66.918
547.20	67.494
547.54	66.292
547.88	66.486
548.22	66.023
548.56	67.525
548.90	67.164
549.24	66.869
549.58	66.877
549.92	67.156
550.26	67.638
550.60	67.071
550.94	67.853
551.28	66.799
551.62	68.868
551.96	65.307
552.30	68.515
552.64	67.766
552.98	67.311
553.32	68.553
553.66	69.389
554.00	67.465
554.34	68.404
554.68	66.043
555.02	67.674
555.36	69.428
555.69	66.880
556.03	67.907
556.37	68.961
556.71	68.421
557.05	67.220
557.39	67.750
557.73	67.569
558.07	66.026
558.41	68.173
558.75	67.816
559.08	70.216
559.42	67.490
559.76	66.893
560.10	67.314
560.44	69.525
560.78	68.750
561.12	67.734
561.45	68.370
561.79	69.353
562.13	68.885
562.47	68.126
562.81	67.405
563.15	68.371
563.48	68.365
563.82	68.198
564.16	67.050
564.50	67.878
564.84	66.903
565.17	67.294
565.51	66.801
565.85	67.102
566.19	67.108
566.52	67.349
566.86	67.855
567.20	65.035
567.54	67.286
567.88	67.278
568.21	67.194
568.55	67.242
568.89	66.682
569.23	65.779
569.56	65.651
569.90	65.004
570.24	66.847
570.57	65.138
570.91	65.401
571.25	64.102
571.59	63.735
571.92	63.886
572.26	63.817
572.60	63.664
572.93	63.568
573.27	63.585
573.61	63.155
573.95	63.146
574.28	62.976
574.62	63.165
574.96	61.976
575.29	62.613
575.63	63.710
575.97	62.683
576.30	61.510
576.64	62.133
576.98	62.073
577.31	62.746
577.65	62.567
577.98	62.462
578.32	62.714
578.66	62.439
578.99	62.032
579.33	63.339
579.67	62.647
580.00	61.452
580.34	61.126
580.67	62.048
581.01	61.727
581.35	61.387
581.68	62.591
582.02	61.987
582.35	63.811
582.69	63.873
583.02	63.502
583.36	63.175
583.70	63.031
584.03	62.155
584.37	61.787
584.70	61.516
585.04	61.358
585.37	62.152
585.71	61.661
586.04	63.122
586.38	63.045
586.72	62.572
587.05	63.571
587.39	63.525
587.72	64.330
588.06	64.434
588.39	62.559
588.73	63.122
589.06	64.673
589.40	65.181
589.73	63.593
590.07	63.959
590.40	63.725
590.73	63.203
591.07	64.780
591.40	64.269
591.74	64.269
592.07	64.028
592.41	64.196
592.74	63.507
593.08	63.153
593.41	64.684
593.75	64.914
594.08	64.980
594.41	65.385
594.75	64.630
595.08	64.838
595.42	64.221
595.75	64.902
596.09	64.893
596.42	64.708
596.75	64.492
597.09	64.768
597.42	64.998
597.75	64.053
598.09	64.524
598.42	65.581
598.76	64.578
599.09	64.507
599.42	64.398
599.76	64.543
600.09	64.831
600.42	64.932
600.76	64.861
601.09	64.587
601.42	64.676
601.76	64.483
602.09	64.475
602.42	63.577
602.76	64.354
603.09	65.565
603.42	65.462
603.76	65.081
604.09	65.153
604.42	65.468
604.76	64.117
605.09	65.257
605.42	64.793
605.75	64.192
606.09	65.174
606.42	64.356
606.75	64.093
607.09	63.978
607.42	63.969
607.75	64.713
608.08	65.154
608.42	64.692
608.75	64.718
609.08	64.261
609.41	65.108
609.75	64.955
610.08	64.952
610.41	65.930
610.74	64.328
611.07	65.409
611.41	66.099
611.74	66.467
612.07	65.498
612.40	66.873
612.73	66.504
613.07	65.330
613.40	66.025
613.73	65.864
614.06	66.094
614.39	63.994
614.72	64.726
615.06	66.073
615.39	64.282
615.72	66.351
616.05	65.614
616.38	66.852
616.71	65.674
617.05	66.081
617.38	65.864
617.71	67.063
618.04	66.972
618.37	66.557
618.70	66.007
619.03	66.487
619.36	67.324
619.69	67.136
620.03	67.420
620.36	66.748
620.69	67.674
621.02	67.717
621.35	71.916
621.68	68.619
622.01	67.900
622.34	67.573
622.67	67.766
623.00	68.421
623.33	68.149
623.66	69.650
623.99	67.808
624.32	68.421
624.65	67.954
624.99	70.026
625.32	67.995
625.65	67.566
625.98	67.186
626.31	69.738
626.64	69.231
626.97	70.293
627.30	67.957
627.63	68.867
627.96	69.369
628.29	69.183
628.62	69.437
628.95	69.763
629.28	69.754
629.61	69.276
629.94	68.285
630.26	68.814
630.59	68.221
630.92	69.697
631.25	71.377
631.58	74.011
631.91	72.540
632.24	71.566
632.57	70.019
632.90	72.417
633.23	70.816
633.56	72.551
633.89	70.558
634.22	70.166
634.55	70.877
634.88	71.970
635.20	71.905
635.53	71.638
635.86	68.256
636.19	70.308
636.52	73.945
636.85	69.254
637.18	70.270
637.51	72.366
637.83	72.204
638.16	72.926
638.49	71.479
638.82	72.266
639.15	70.447
639.48	71.016
639.81	70.785
640.13	72.674
640.46	70.061
640.79	71.078
641.12	71.429
641.45	73.275
641.77	74.968
642.10	69.948
642.43	72.340
642.76	71.680
643.09	72.329
643.41	73.249
643.74	76.276
644.07	74.621
644.40	72.277
644.73	72.714
645.05	73.862
645.38	71.942
645.71	74.194
646.04	72.310
646.36	72.555
646.69	74.847
647.02	72.936
647.35	73.893
647.67	75.523
648.00	75.478
648.33	73.273
648.66	72.611
648.98	70.476
649.31	72.530
649.64	73.971
649.96	71.088
650.29	70.236
650.62	70.156
650.94	72.372
651.27	70.958
651.60	69.591
651.92	72.340
652.25	71.201
652.58	71.664
652.90	72.238
653.23	72.676
653.56	73.039
653.88	71.770
654.21	70.845
654.54	72.399
654.86	71.388
655.19	69.260
655.52	74.302
655.84	72.330
656.17	78.811
656.49	100.042
656.82	100.008
657.15	100.000
657.47	72.606
657.80	49.025
658.13	37.664
658.45	48.242
658.78	57.453
659.10	53.091
659.43	51.017
659.75	50.426
660.08	48.011
660.41	51.696
660.73	58.267
661.06	66.226
661.38	67.783
661.71	71.724
662.03	71.429
662.36	72.272
662.68	73.546
663.01	71.858
663.33	70.888
663.66	72.894
663.98	73.269
664.31	72.045
664.63	71.484
664.96	70.962
665.28	70.236
665.61	71.503
665.93	72.143
666.26	73.297
666.58	70.111
666.91	73.084
667.23	71.619
667.56	73.767
667.88	72.800
668.21	71.094
668.53	69.112
668.86	71.316
669.18	75.356
669.50	74.751
669.83	72.400
670.15	70.276
670.48	74.405
670.80	70.746
671.13	69.943
671.45	74.016
671.77	72.881
672.10	69.167
672.42	69.741
672.75	68.049
673.07	68.507
673.39	68.875
673.72	69.799
674.04	69.310
674.37	74.061
674.69	70.899
675.01	73.333
675.34	69.656
675.66	67.041
675.98	66.978
676.31	71.875
676.63	70.152
676.95	70.498
677.28	69.153
677.60	69.685
677.92	71.785
678.25	70.932
678.57	70.463
678.89	70.137
679.22	65.679
679.54	70.598
679.86	69.153
680.18	69.818
680.51	67.453
680.83	67.103
681.15	68.103
681.48	70.121
681.80	69.257
682.12	67.308
682.44	66.110
682.77	68.085
683.09	70.265
683.41	69.767
683.73	67.932
684.06	68.450
684.38	66.369
684.70	72.352
685.02	70.052
685.34	68.386
685.67	67.508
685.99	67.791
686.31	64.535
686.63	67.773
686.96	66.088
687.28	66.124
687.60	69.360
687.92	65.916
688.24	65.109
688.56	61.034
688.89	66.606
689.21	69.276
689.53	70.196
689.85	66.864
690.17	64.815
690.49	68.725
690.82	65.545
691.14	67.409
691.46	67.878
691.78	67.772
692.10	66.789
692.42	64.821
692.74	67.151
693.06	63.333
693.39	67.173
693.71	66.353
694.03	67.472
694.35	66.667
694.67	67.351
694.99	68.298
695.31	67.991
695.63	68.615
695.95	63.768
696.27	67.473
696.59	68.142
696.91	65.541
697.23	68.791
697.56	68.024
697.88	64.394
698.20	65.537
698.52	68.750
698.84	66.320
699.16	70.000
699.48	67.782
699.80	65.106
700.12	64.847
700.44	66.590
700.76	68.171
701.08	65.860
701.40	69.430
701.72	65.174
702.04	70.588
702.36	68.586
702.68	65.526
703.00	65.526
703.32	64.039
703.64	70.416
703.96	66.110
704.28	66.093
704.60	65.316
704.91	63.265
705.23	62.192
705.55	64.067
705.87	67.576
706.19	69.018
706.51	63.554
706.83	70.605
707.15	66.138
707.47	67.523
707.79	68.341
708.11	57.627
708.43	64.516
708.74	60.938
709.06	61.949
709.38	63.146
709.70	66.005
710.02	62.016
710.34	63.564
710.66	63.128
710.98	60.929
711.29	64.560
711.61	62.994
711.93	61.823
712.25	64.054
712.57	63.717
712.89	62.941
713.20	62.722
713.52	62.428
713.84	60.167
714.16	62.368
714.48	59.021
714.80	67.273
715.11	61.680
715.43	62.865
715.75	63.947
716.07	63.260
716.39	63.388
716.70	62.651
717.02	67.869
717.34	59.233
717.66	63.423
717.97	61.986
718.29	60.825
718.61	65.132
718.93	65.049
719.24	60.248
719.56	63.804
719.88	59.760
720.20	64.516
720.51	62.733
720.83	60.313
721.15	61.184
721.46	63.014
721.78	64.667
722.10	57.605
722.42	62.752
722.73	56.774
723.05	65.965
723.37	61.111
723.68	56.272
724.00	63.538
724.32	59.155
724.63	61.538
724.95	59.574
725.27	56.446
725.58	59.717
725.90	59.655
726.22	59.875
726.53	60.390
726.85	64.465
727.16	58.912
727.48	61.468
727.80	60.927
728.11	59.011
728.43	63.300
728.74	59.532
729.06	56.623
729.38	60.390
729.69	61.409
730.01	55.952
730.32	56.061
730.64	62.264
730.96	56.211
731.27	57.821
731.59	64.835
731.90	52.727
732.22	58.854
732.53	59.392
732.85	61.714
733.16	60.704
733.48	59.756
733.80	56.267
734.11	57.265
734.43	60.811
734.74	62.532
735.06	59.045
735.37	61.892
735.69	54.595
736.00	55.367
736.32	54.178
736.63	56.667
736.95	59.483
737.26	63.333
737.58	57.879
737.89	58.235
738.21	53.823
738.52	55.410
738.83	62.457
739.15	58.865
739.46	62.585
739.78	62.577
740.09	56.447
740.41	52.770
740.72	56.333
741.04	55.016
741.35	53.684
741.66	58.824
741.98	59.016
742.29	59.833
742.61	60.965
742.92	53.846
743.23	55.235
743.55	54.651
743.86	61.600
744.18	53.719
744.49	56.962
744.80	59.671
745.12	55.274
745.43	57.317
745.74	61.207
746.06	63.136
746.37	64.135
746.68	64.228
747.00	57.917
747.31	55.794
747.62	63.077
747.94	57.085
748.25	57.028
748.56	52.653
748.88	58.120
749.19	58.190
749.50	56.710
749.82	69.076
750.13	62.989
750.44	57.667
750.75	61.846
751.07	55.692
751.38	54.574
751.69	60.064
752.01	55.987
752.32	60.784
752.63	57.483
752.94	54.671
753.26	56.134
753.57	47.407
753.88	62.547
754.19	54.662
754.51	54.341
754.82	56.270
755.13	54.426
755.44	59.386
755.75	56.579
756.07	58.507
756.38	53.774
756.69	60.241
757.00	53.463
757.31	56.284
757.63	58.312
757.94	55.399
758.25	52.822
758.56	53.595
758.87	51.136
759.18	51.733
759.50	59.773
759.81	57.703
760.12	56.873
760.43	59.115
760.74	57.389
761.05	58.000
761.36	56.145
761.67	51.523
761.99	54.324
762.30	49.085
762.61	50.165
762.92	54.851
763.23	53.933
763.54	53.237
763.85	54.983
764.16	52.862
764.47	56.690
764.78	54.633
765.10	53.079
765.41	55.128
765.72	51.587
766.03	54.237
766.34	54.232
766.65	50.174
766.96	51.394
767.27	55.300
767.58	46.766
767.89	53.365
768.20	52.582
768.51	59.722
768.82	54.217
769.13	53.788
769.44	50.000
769.75	52.708
770.06	46.538
770.37	50.394
770.68	51.064
770.99	47.368
771.30	56.296
771.61	51.711
771.92	47.037
772.23	53.036
772.54	44.444
772.85	50.691
773.16	50.476
773.47	49.206
773.78	46.486
774.09	52.273
774.39	50.500
774.70	49.727
775.01	42.683
775.32	41.765
775.63	49.080
775.94	34.395
776.25	51.613
776.56	51.923
776.87	53.061
777.18	42.759
777.48	47.552
777.79	41.892
778.10	38.971
778.41	45.139
778.72	51.034
779.03	42.593
779.34	49.091
779.65	43.005
779.95	43.889
780.26	37.500
780.57	32.903
780.88	50.000
781.19	47.742
781.50	50.588
781.80	51.613
782.11	49.206
782.42	36.869
782.73	40.120
783.04	39.106
783.34	38.788
783.65	38.562
783.96	39.752
784.27	41.667
784.57	40.397
784.88	37.143
785.19	39.370
785.50	31.496
785.81	46.617
786.11	48.462
786.42	36.691
786.73	42.446
787.04	45.865
787.34	36.885
787.65	36.800
787.96	45.522
788.26	37.762
788.57	35.664
788.88	36.184
789.19	39.216
789.49	39.726
789.80	34.043
790.11	35.433
790.41	35.156
790.72	26.271
791.03	20.388
791.33	23.478
791.64	35.088
791.95	22.321
792.25	24.762
792.56	25.000
792.87	23.958
793.17	32.143
793.48	27.083
793.79	25.301
794.09	22.936
794.40	32.110
794.70	39.456
795.01	32.468
795.32	30.822
795.62	28.873
795.93	26.515
796.23	34.426
796.54	25.893
796.85	18.085
797.15	14.130
797.46	15.068
797.76	30.000
798.07	10.870
798.37	21.649
798.68	22.078
798.99	24.138
799.29	17.978
799.60	23.404
799.90	9.639
800.21	20.000
800.51	25.373
800.82	2.941
801.12	2.740
801.43	-4.412
801.73	0.000
802.04	16.667
802.34	6.667
802.65	-10.169
802.95	5.970
803.26	-6.780
803.56	5.479
803.87	15.714
804.17	17.808
804.48	-17.544
804.78	0.000
805.09	-15.517
805.39	14.865
805.70	-1.408
806.00	9.756
806.30	7.229
806.61	9.589
806.91	26.923
807.22	6.667
807.52	22.989
807.83	27.778
808.13	22.892
808.43	17.978
808.74	15.000
809.04	11.765
809.35	10.667
809.65	7.143
809.95	5.479
810.26	-21.053
810.56	-1.724
810.86	22.059
811.17	3.509
811.47	13.115
811.77	-37.778
812.08	-3.390
812.38	-8.333
812.69	15.517
812.99	-22.642
813.29	-33.333
813.59	-10.000
813.90	-1.754
814.20	0.000
814.50	19.718
814.81	3.846
815.11	-11.475
815.41	8.955
815.72	13.793
816.02	-8.929
816.32	-11.111
816.62	-34.091
816.93	-40.000
817.23	-20.370
817.53	-8.511
817.84	0.000
818.14	-26.471
818.44	-18.367
818.74	-26.667
819.04	-51.282
819.35	-28.571
819.65	-92.308
819.95	-20.755
820.25	-4.444
820.56	-21.429
820.86	-43.750
821.16	-61.538
821.46	-16.279
821.76	-44.000
822.07	-3.571
822.37	-34.783
822.67	-27.660
822.97	-35.135
823.27	-27.500
823.57	-26.531
823.88	-37.778
824.18	-42.500
824.48	-36.667
824.78	-108.000
825.08	-60.606
825.38	-15.556
825.69	-27.660
825.99	-22.222
826.29	-74.286
826.59	-56.410
826.89	-62.791
827.19	-24.000
827.49	-44.118
827.79	-20.833
828.09	-48.649
828.39	-63.333
828.70	-73.171
829.00	-34.884
829.30	-100.000
829.60	-35.294
829.90	-2.174
830.20	-60.000
830.50	-79.310
830.80	-161.111
831.10	-119.231
831.40	-70.588
831.70	-47.619
832.00	-29.032
832.30	-182.353
832.60	-141.667
832.90	-261.538
833.20	-115.789
833.50	-125.000
833.80	-194.737
834.10	-161.905
834.40	-52.778
834.70	-46.875
835.00	-105.714
835.30	-35.294
835.60	-86.667
835.90	-68.000
836.20	-122.727
836.50	-88.000
836.80	-81.818
837.10	-66.667
837.40	-85.185
837.70	-193.750
838.00	-64.286
838.30	-117.391
838.60	-48.276
838.90	-164.286
839.19	-178.261
839.49	-250.000
839.79	-113.043
840.09	-175.000
840.39	-165.000
840.69	-51.613
840.99	-117.857
841.29	-213.333
841.59	-157.895
841.88	-58.974
842.18	-130.769
842.48	-340.000
842.78	-180.000
843.08	-73.333
843.38	-70.968
843.68	-227.778
843.97	-73.529
844.27	-175.000
844.57	-173.684
844.87	-330.000
845.17	-213.333
845.47	-90.476
845.76	-119.048
846.06	-311.111
846.36	-211.765
846.66	-100.000
846.96	-273.333
847.25	-205.882
847.55	-117.391
847.85	-140.000
848.15	-194.118
848.44	-281.818
848.74	-123.810
849.04	-145.833
849.34	-181.250
849.63	-82.609
849.93	1700.000
850.23	-226.667
850.53	-92.308
850.82	-336.364
851.12	-127.273
851.42	-300.000
851.71	-192.308
852.01	-165.000
852.31	-276.923
852.61	-189.474
852.90	-266.667
853.20	-150.000
853.50	-411.111
853.79	-161.905
854.09	-131.818
854.39	-266.667
854.68	-64.516
854.98	-111.538
855.28	-122.222
855.57	-96.429
855.87	-100.000
856.17	-113.636
856.46	-96.296
856.76	-166.667
857.05	-186.957
857.35	-91.667
857.65	-200.000
857.94	-114.286
858.24	-74.074
858.53	-104.348
858.83	-147.059
859.13	-229.412
859.42	-170.588
859.72	-228.571
860.01	-110.000
860.31	-366.667
860.60	-250.000
860.90	-206.667
861.20	-177.778
861.49	-300.000
861.79	-133.333
862.08	-238.462
862.38	-78.125
862.67	-164.706
862.97	-187.500
863.26	-433.333
863.56	-370.000
863.85	-318.182
864.15	-138.889
864.44	-1366.667
864.74	-292.857
865.03	-187.500
865.33	-450.000
865.62	-129.032
865.92	-86.364
866.21	-108.696
866.51	-235.714
866.80	-780.000
867.10	-308.333
867.39	-350.000
867.69	4200.000
867.98	-442.857
868.27	-182.353
868.57	-4800.000
868.86	-360.000
869.16	-104.762
869.45	-116.667
869.75	-290.909
870.04	-485.714
870.33	-283.333
870.63	-600.000
870.92	-925.000
871.22	-537.500
871.51	-381.818
871.80	-1533.333
872.10	-2250.000
>>>>>End Processed Spectral Data<<<<<
