SpectraSuite Data File
++++++++++++++++++++++++++++++++++++
Date: Thu May 14 14:32:57 PDT 2015
User: schluterlab
Dark Spectrum Present: Yes
Reference Spectrum Present: Yes
Number of Sampled Component Spectra: 1
Spectrometers: USB2E3373
Integration Time (usec): 3000 (USB2E3373)
Spectra Averaged: 3 (USB2E3373)
Boxcar Smoothing: 0 (USB2E3373)
Correct for Electrical Dark: No (USB2E3373)
Strobe/Lamp Enabled: No (USB2E3373)
Correct for Detector Non-linearity: No (USB2E3373)
Correct for Stray Light: No (USB2E3373)
Number of Pixels in Processed Spectrum: 2048
>>>>>Begin Processed Spectral Data<<<<<
178.53	0.000
178.91	-257.143
179.29	900.000
179.67	1900.000
180.04	-21.429
180.42	-180.000
180.80	-100.000
181.18	2200.000
181.56	1800.000
181.94	-475.000
182.31	700.000
182.69	-433.333
183.07	900.000
183.45	-425.000
183.83	266.667
184.20	433.333
184.58	-1400.000
184.96	275.000
185.34	333.333
185.72	360.000
186.09	-11.111
186.47	-1050.000
186.85	-280.000
187.23	133.333
187.61	200.000
187.98	-220.000
188.36	-400.000
188.74	500.000
189.12	833.333
189.49	187.500
189.87	300.000
190.25	288.889
190.63	380.000
191.00	100.000
191.38	0.000
191.76	375.000
192.14	216.667
192.51	-950.000
192.89	383.333
193.27	0.000
193.65	300.000
194.02	1500.000
194.40	414.286
194.78	-185.714
195.15	0.000
195.53	318.182
195.91	0.000
196.29	500.000
196.66	130.769
197.04	1500.000
197.42	71.429
197.79	900.000
198.17	200.000
198.55	271.429
198.92	222.222
199.30	112.500
199.68	181.818
200.05	157.143
200.43	650.000
200.81	-128.571
201.18	0.000
201.56	-122.222
201.94	0.000
202.31	-266.667
202.69	77.778
203.07	-700.000
203.44	255.556
203.82	550.000
204.19	100.000
204.57	333.333
204.95	162.500
205.32	1600.000
205.70	-550.000
206.08	383.333
206.45	300.000
206.83	-200.000
207.20	333.333
207.58	120.000
207.96	416.667
208.33	383.333
208.71	-116.667
209.08	316.667
209.46	0.000
209.84	-166.667
210.21	-1250.000
210.59	-1000.000
210.96	-500.000
211.34	825.000
211.71	187.500
212.09	1300.000
212.46	0.000
212.84	-700.000
213.22	500.000
213.59	450.000
213.97	230.000
214.34	766.667
214.72	-150.000
215.09	650.000
215.47	0.000
215.84	-214.286
216.22	-200.000
216.59	480.000
216.97	420.000
217.34	425.000
217.72	225.000
218.09	250.000
218.47	450.000
218.84	0.000
219.22	-380.000
219.59	147.059
219.97	135.000
220.34	-650.000
220.72	144.444
221.09	215.385
221.47	700.000
221.84	120.000
222.22	342.857
222.59	0.000
222.97	250.000
223.34	420.000
223.72	1800.000
224.09	475.000
224.46	300.000
224.84	560.000
225.21	242.857
225.59	400.000
225.96	250.000
226.34	88.462
226.71	-266.667
227.08	800.000
227.46	146.667
227.83	400.000
228.21	115.789
228.58	-150.000
228.95	-900.000
229.33	183.333
229.70	270.000
230.08	178.947
230.45	-120.000
230.82	700.000
231.20	142.857
231.57	158.333
231.95	227.273
232.32	218.182
232.69	160.000
233.07	275.000
233.44	58.824
233.81	210.000
234.19	177.778
234.56	172.727
234.93	117.241
235.31	136.842
235.68	155.556
236.05	115.000
236.43	107.692
236.80	112.000
237.17	107.407
237.55	60.606
237.92	180.000
238.29	96.774
238.67	65.909
239.04	63.889
239.41	80.952
239.79	89.130
240.16	75.926
240.53	63.043
240.91	35.294
241.28	52.459
241.65	53.731
242.02	60.811
242.40	44.615
242.77	58.667
243.14	48.780
243.51	51.316
243.89	48.718
244.26	43.564
244.63	55.882
245.00	38.318
245.38	42.982
245.75	35.398
246.12	46.825
246.49	42.636
246.87	47.143
247.24	41.722
247.61	42.105
247.98	46.980
248.36	40.741
248.73	36.810
249.10	38.251
249.47	40.796
249.84	45.026
250.22	37.824
250.59	44.444
250.96	39.545
251.33	34.694
251.70	40.598
252.08	36.667
252.45	40.164
252.82	39.256
253.19	34.375
253.56	38.403
253.94	33.077
254.31	34.091
254.68	42.657
255.05	33.876
255.42	33.333
255.79	31.715
256.16	34.437
256.54	32.119
256.91	37.377
257.28	35.738
257.65	31.847
258.02	33.923
258.39	30.769
258.76	40.367
259.14	37.069
259.51	38.329
259.88	32.861
260.25	35.556
260.62	35.342
260.99	34.973
261.36	37.265
261.73	31.565
262.10	31.319
262.47	33.244
262.85	33.081
263.22	32.727
263.59	33.947
263.96	32.737
264.33	31.969
264.70	35.309
265.07	36.038
265.44	34.694
265.81	36.111
266.18	34.467
266.55	33.705
266.92	32.574
267.29	32.823
267.66	31.929
268.03	33.624
268.40	32.568
268.77	33.941
269.14	31.718
269.51	33.991
269.88	33.811
270.25	31.791
270.62	32.911
270.99	36.162
271.36	32.475
271.73	31.238
272.10	36.072
272.47	31.062
272.84	30.321
273.21	34.269
273.58	31.048
273.95	34.038
274.32	30.989
274.69	31.335
275.06	31.868
275.43	29.945
275.80	32.451
276.17	29.815
276.54	32.090
276.91	29.338
277.28	31.465
277.65	30.880
278.02	31.985
278.39	32.971
278.76	28.471
279.13	29.255
279.50	31.615
279.87	32.558
280.23	29.225
280.60	33.390
280.97	31.579
281.34	30.900
281.71	32.826
282.08	30.399
282.45	29.787
282.82	29.356
283.19	29.887
283.56	30.656
283.92	30.180
284.29	32.385
284.66	30.870
285.03	28.686
285.40	29.830
285.77	30.031
286.14	29.618
286.51	29.680
286.87	27.646
287.24	30.120
287.61	29.297
287.98	28.097
288.35	29.142
288.72	26.923
289.08	28.697
289.45	27.663
289.82	27.108
290.19	28.161
290.56	27.606
290.93	26.391
291.29	28.237
291.66	26.860
292.03	24.288
292.40	27.619
292.77	25.337
293.13	25.710
293.50	26.413
293.87	26.443
294.24	27.867
294.60	27.054
294.97	24.295
295.34	25.096
295.71	23.707
296.08	24.806
296.44	25.735
296.81	24.239
297.18	24.658
297.55	24.057
297.91	23.132
298.28	22.749
298.65	23.306
299.02	24.793
299.38	23.684
299.75	22.313
300.12	22.222
300.48	23.848
300.85	24.184
301.22	23.714
301.59	23.288
301.95	23.729
302.32	23.667
302.69	22.563
303.05	23.830
303.42	23.503
303.79	21.875
304.15	21.661
304.52	22.516
304.89	22.723
305.25	23.085
305.62	21.630
305.99	22.577
306.35	21.875
306.72	23.371
307.09	21.624
307.45	21.222
307.82	22.099
308.19	23.108
308.55	24.012
308.92	22.590
309.29	22.989
309.65	24.172
310.02	22.673
310.38	23.425
310.75	24.466
311.12	24.736
311.48	22.776
311.85	24.691
312.22	23.529
312.58	25.070
312.95	23.518
313.31	24.210
313.68	25.000
314.05	25.655
314.41	25.137
314.78	25.522
315.14	27.677
315.51	26.777
315.87	26.283
316.24	26.393
316.61	26.199
316.97	26.968
317.34	26.984
317.70	27.860
318.07	28.660
318.43	29.337
318.80	29.431
319.16	29.013
319.53	29.220
319.89	28.922
320.26	30.249
320.62	31.472
320.99	30.379
321.35	32.348
321.72	33.581
322.08	31.650
322.45	33.424
322.81	33.845
323.18	33.628
323.54	33.879
323.91	36.032
324.27	35.370
324.64	35.684
325.00	37.728
325.37	38.247
325.73	40.083
326.10	39.092
326.46	39.902
326.83	40.512
327.19	41.496
327.56	42.372
327.92	42.565
328.29	42.661
328.65	43.216
329.01	44.416
329.38	45.240
329.74	46.747
330.11	45.462
330.47	46.841
330.84	47.545
331.20	46.750
331.56	48.007
331.93	48.452
332.29	49.915
332.66	49.751
333.02	48.576
333.38	49.581
333.75	49.663
334.11	50.626
334.48	50.248
334.84	51.912
335.20	49.622
335.57	50.927
335.93	51.818
336.29	51.331
336.66	50.967
337.02	50.502
337.38	52.721
337.75	52.149
338.11	52.986
338.47	51.696
338.84	53.553
339.20	52.401
339.56	50.165
339.93	50.411
340.29	50.886
340.65	50.365
341.02	53.791
341.38	52.789
341.74	51.897
342.11	53.017
342.47	52.502
342.83	54.106
343.20	54.129
343.56	54.451
343.92	53.483
344.28	53.359
344.65	52.946
345.01	52.574
345.37	53.033
345.73	52.455
346.10	53.510
346.46	52.927
346.82	53.558
347.19	53.705
347.55	53.035
347.91	52.675
348.27	54.628
348.63	52.551
349.00	53.095
349.36	52.937
349.72	53.646
350.08	53.640
350.45	53.840
350.81	54.072
351.17	53.383
351.53	52.388
351.89	54.062
352.26	53.955
352.62	54.328
352.98	55.954
353.34	53.174
353.70	55.778
354.07	53.130
354.43	54.290
354.79	53.104
355.15	53.790
355.51	53.947
355.87	54.076
356.24	55.437
356.60	54.545
356.96	54.781
357.32	53.903
357.68	54.832
358.04	54.117
358.40	54.328
358.77	55.409
359.13	54.874
359.49	55.539
359.85	56.128
360.21	55.739
360.57	53.769
360.93	55.924
361.29	55.649
361.66	56.046
362.02	55.393
362.38	55.235
362.74	55.587
363.10	55.915
363.46	57.271
363.82	56.392
364.18	57.002
364.54	57.607
364.90	57.592
365.26	56.483
365.62	55.733
365.98	57.318
366.35	56.174
366.71	57.891
367.07	57.645
367.43	57.058
367.79	57.797
368.15	59.064
368.51	57.645
368.87	57.871
369.23	56.933
369.59	57.719
369.95	57.336
370.31	57.596
370.67	58.322
371.03	57.687
371.39	58.160
371.75	58.253
372.11	57.995
372.47	59.986
372.83	59.490
373.19	58.906
373.55	59.553
373.91	58.691
374.27	59.379
374.63	59.540
374.99	59.085
375.35	60.130
375.71	60.065
376.07	60.684
376.42	61.083
376.78	61.653
377.14	61.510
377.50	60.974
377.86	61.700
378.22	61.198
378.58	62.901
378.94	62.793
379.30	62.273
379.66	61.670
380.02	63.128
380.38	63.652
380.74	64.000
381.09	63.473
381.45	64.205
381.81	65.281
382.17	64.489
382.53	64.561
382.89	64.165
383.25	65.533
383.61	63.947
383.97	64.547
384.32	65.730
384.68	65.719
385.04	66.455
385.40	65.999
385.76	68.464
386.12	66.846
386.48	66.176
386.83	69.368
387.19	68.134
387.55	66.373
387.91	66.553
388.27	67.898
388.62	66.609
388.98	67.118
389.34	69.122
389.70	68.216
390.06	68.265
390.42	69.217
390.77	68.573
391.13	68.721
391.49	68.780
391.85	68.970
392.20	68.446
392.56	68.754
392.92	69.902
393.28	70.094
393.64	69.441
393.99	71.005
394.35	70.269
394.71	71.677
395.07	69.641
395.42	69.617
395.78	71.968
396.14	70.648
396.50	70.131
396.85	69.708
397.21	70.710
397.57	71.319
397.92	70.733
398.28	71.374
398.64	71.339
399.00	69.634
399.35	70.262
399.71	70.815
400.07	72.094
400.42	71.478
400.78	71.528
401.14	72.339
401.49	72.314
401.85	72.326
402.21	73.696
402.57	71.655
402.92	73.286
403.28	71.604
403.63	72.375
403.99	72.684
404.35	69.983
404.70	72.238
405.06	70.326
405.42	72.482
405.77	73.773
406.13	73.096
406.49	73.198
406.84	71.413
407.20	72.275
407.55	73.168
407.91	73.979
408.27	72.674
408.62	73.880
408.98	73.244
409.34	72.199
409.69	75.031
410.05	72.978
410.40	75.116
410.76	73.808
411.11	74.226
411.47	74.570
411.83	74.250
412.18	75.241
412.54	75.578
412.89	73.632
413.25	74.944
413.60	74.612
413.96	74.068
414.31	72.975
414.67	73.822
415.03	72.554
415.38	74.716
415.74	73.855
416.09	76.311
416.45	73.450
416.80	74.969
417.16	76.437
417.51	74.720
417.87	74.004
418.22	75.449
418.58	76.518
418.93	75.320
419.29	76.819
419.64	75.450
420.00	75.786
420.35	76.474
420.71	75.531
421.06	74.296
421.42	76.433
421.77	74.906
422.12	75.053
422.48	76.600
422.83	76.287
423.19	75.756
423.54	76.770
423.90	75.207
424.25	77.707
424.61	76.751
424.96	76.991
425.31	77.017
425.67	76.543
426.02	77.532
426.38	77.382
426.73	77.009
427.09	78.028
427.44	78.263
427.79	76.783
428.15	76.256
428.50	76.910
428.85	77.727
429.21	77.926
429.56	77.690
429.92	76.658
430.27	77.687
430.62	77.626
430.98	77.177
431.33	75.709
431.68	75.766
432.04	78.162
432.39	77.933
432.74	78.368
433.10	79.178
433.45	79.320
433.80	78.702
434.16	78.254
434.51	79.805
434.86	80.347
435.22	80.287
435.57	80.778
435.92	79.188
436.28	79.181
436.63	81.049
436.98	77.724
437.34	80.947
437.69	78.646
438.04	79.693
438.39	77.771
438.75	80.354
439.10	79.968
439.45	80.045
439.81	80.734
440.16	79.357
440.51	79.208
440.86	78.766
441.22	78.778
441.57	80.922
441.92	77.789
442.27	80.404
442.63	78.043
442.98	78.709
443.33	79.221
443.68	78.295
444.03	80.856
444.39	80.629
444.74	78.969
445.09	78.713
445.44	81.033
445.79	80.125
446.15	79.805
446.50	80.724
446.85	79.864
447.20	80.174
447.55	80.858
447.91	80.105
448.26	80.603
448.61	81.615
448.96	81.921
449.31	79.958
449.66	80.011
450.02	80.696
450.37	80.021
450.72	81.055
451.07	80.296
451.42	80.994
451.77	79.878
452.12	81.603
452.47	79.917
452.83	83.502
453.18	81.261
453.53	80.988
453.88	81.060
454.23	81.525
454.58	81.486
454.93	82.221
455.28	83.022
455.63	81.751
455.98	81.285
456.34	81.979
456.69	81.952
457.04	81.856
457.39	81.208
457.74	82.271
458.09	82.208
458.44	81.735
458.79	79.938
459.14	81.122
459.49	82.626
459.84	82.057
460.19	81.954
460.54	82.737
460.89	81.472
461.24	81.839
461.59	81.240
461.94	80.947
462.29	81.691
462.64	81.473
462.99	82.109
463.34	84.685
463.69	81.008
464.04	82.268
464.39	82.399
464.74	81.699
465.09	82.872
465.44	80.955
465.79	81.703
466.14	81.032
466.49	81.000
466.84	83.526
467.19	82.486
467.54	81.434
467.89	81.207
468.24	81.884
468.59	82.108
468.94	81.177
469.29	83.623
469.64	83.217
469.99	83.110
470.34	83.292
470.68	83.527
471.03	83.759
471.38	84.565
471.73	83.420
472.08	83.439
472.43	82.721
472.78	83.438
473.13	83.439
473.48	85.438
473.83	84.156
474.17	82.181
474.52	84.185
474.87	82.503
475.22	83.887
475.57	81.983
475.92	81.633
476.27	82.268
476.61	82.451
476.96	82.586
477.31	81.782
477.66	83.998
478.01	82.562
478.36	82.901
478.70	81.823
479.05	83.793
479.40	83.268
479.75	82.949
480.10	82.378
480.45	82.088
480.79	81.950
481.14	82.399
481.49	82.144
481.84	83.943
482.19	82.796
482.53	83.778
482.88	83.429
483.23	83.904
483.58	82.969
483.92	82.934
484.27	83.108
484.62	81.889
484.97	82.154
485.31	81.169
485.66	80.124
486.01	75.974
486.36	76.642
486.70	77.778
487.05	78.288
487.40	78.500
487.75	81.094
488.09	82.079
488.44	80.672
488.79	82.462
489.13	82.947
489.48	83.417
489.83	82.575
490.17	81.531
490.52	81.773
490.87	83.080
491.22	83.449
491.56	82.509
491.91	83.733
492.26	82.778
492.60	82.947
492.95	82.580
493.30	84.088
493.64	84.494
493.99	83.026
494.34	83.232
494.68	83.255
495.03	83.216
495.37	83.799
495.72	83.900
496.07	82.734
496.41	81.639
496.76	83.778
497.11	82.930
497.45	84.463
497.80	82.763
498.14	82.676
498.49	83.869
498.84	83.455
499.18	84.121
499.53	84.753
499.87	84.527
500.22	82.725
500.56	84.031
500.91	83.524
501.26	84.182
501.60	83.120
501.95	83.239
502.29	83.765
502.64	84.390
502.98	82.010
503.33	82.505
503.67	82.992
504.02	83.056
504.36	84.674
504.71	84.704
505.06	82.901
505.40	84.781
505.75	84.199
506.09	84.254
506.44	83.658
506.78	84.220
507.13	84.601
507.47	84.368
507.82	83.807
508.16	84.799
508.51	83.591
508.85	84.695
509.19	85.126
509.54	85.303
509.88	85.284
510.23	85.381
510.57	86.322
510.92	85.341
511.26	83.790
511.61	84.259
511.95	84.529
512.30	85.229
512.64	84.358
512.98	84.742
513.33	85.333
513.67	84.243
514.02	85.488
514.36	86.547
514.70	86.510
515.05	86.861
515.39	86.142
515.74	87.116
516.08	86.371
516.42	87.650
516.77	87.119
517.11	85.147
517.46	87.699
517.80	87.066
518.14	87.323
518.49	87.852
518.83	86.376
519.17	85.891
519.52	85.377
519.86	86.272
520.20	86.422
520.55	85.816
520.89	86.768
521.23	86.767
521.58	88.701
521.92	86.232
522.26	87.113
522.61	87.789
522.95	88.870
523.29	89.080
523.64	87.836
523.98	88.306
524.32	89.857
524.66	87.479
525.01	86.297
525.35	87.249
525.69	87.471
526.04	86.338
526.38	87.471
526.72	86.967
527.06	87.097
527.41	86.472
527.75	88.955
528.09	88.784
528.43	87.626
528.78	86.936
529.12	87.901
529.46	86.284
529.80	87.414
530.15	88.696
530.49	89.798
530.83	88.607
531.17	88.710
531.51	88.568
531.86	88.702
532.20	88.902
532.54	86.355
532.88	88.606
533.22	86.152
533.57	86.844
533.91	86.588
534.25	87.564
534.59	88.218
534.93	86.587
535.27	86.592
535.62	86.811
535.96	89.250
536.30	87.838
536.64	87.628
536.98	88.807
537.32	88.704
537.66	89.270
538.01	86.647
538.35	87.515
538.69	87.981
539.03	87.615
539.37	85.984
539.71	86.667
540.05	87.530
540.39	87.164
540.73	87.128
541.07	87.554
541.42	86.946
541.76	86.062
542.10	87.214
542.44	86.663
542.78	86.557
543.12	86.174
543.46	85.775
543.80	85.791
544.14	87.911
544.48	86.761
544.82	88.031
545.16	86.762
545.50	87.537
545.84	86.283
546.18	89.136
546.52	88.344
546.86	86.478
547.20	87.277
547.54	87.890
547.88	87.402
548.22	84.678
548.56	86.191
548.90	87.761
549.24	86.991
549.58	87.634
549.92	87.691
550.26	87.702
550.60	86.918
550.94	87.128
551.28	87.789
551.62	89.286
551.96	87.573
552.30	87.827
552.64	86.434
552.98	88.771
553.32	88.553
553.66	88.360
554.00	88.714
554.34	88.546
554.68	86.056
555.02	88.502
555.36	87.508
555.69	87.828
556.03	87.957
556.37	86.984
556.71	89.157
557.05	88.882
557.39	88.520
557.73	87.649
558.07	87.086
558.41	87.575
558.75	89.655
559.08	89.562
559.42	88.889
559.76	87.449
560.10	87.140
560.44	88.127
560.78	87.500
561.12	87.438
561.45	88.747
561.79	86.630
562.13	88.047
562.47	85.450
562.81	87.152
563.15	88.889
563.48	88.999
563.82	87.787
564.16	86.675
564.50	87.723
564.84	87.021
565.17	87.353
565.51	85.270
565.85	87.233
566.19	86.924
566.52	86.951
566.86	87.097
567.20	86.623
567.54	85.289
567.88	86.086
568.21	84.239
568.55	85.228
568.89	84.521
569.23	83.566
569.56	82.728
569.90	82.074
570.24	81.619
570.57	82.104
570.91	80.251
571.25	79.317
571.59	79.015
571.92	79.904
572.26	79.910
572.60	79.716
572.93	79.738
573.27	80.556
573.61	79.487
573.95	79.145
574.28	77.575
574.62	78.467
574.96	77.327
575.29	77.550
575.63	77.547
575.97	78.659
576.30	79.151
576.64	79.194
576.98	78.428
577.31	78.274
577.65	78.518
577.98	76.431
578.32	76.779
578.66	76.611
578.99	77.063
579.33	78.124
579.67	78.196
580.00	77.973
580.34	77.727
580.67	78.575
581.01	78.819
581.35	77.927
581.68	76.539
582.02	76.645
582.35	76.998
582.69	77.455
583.02	77.331
583.36	78.456
583.70	79.823
584.03	78.954
584.37	79.363
584.70	79.487
585.04	78.284
585.37	79.209
585.71	77.476
586.04	78.137
586.38	77.971
586.72	78.591
587.05	78.818
587.39	78.260
587.72	79.282
588.06	78.844
588.39	80.134
588.73	79.339
589.06	80.164
589.40	82.575
589.73	81.587
590.07	81.598
590.40	82.049
590.73	79.816
591.07	82.949
591.40	82.659
591.74	83.347
592.07	83.191
592.41	82.256
592.74	80.795
593.08	80.764
593.41	79.440
593.75	79.511
594.08	80.794
594.41	79.936
594.75	79.874
595.08	81.023
595.42	81.461
595.75	80.852
596.09	80.888
596.42	81.082
596.75	83.250
597.09	84.162
597.42	81.724
597.75	80.439
598.09	82.817
598.42	82.911
598.76	80.741
599.09	81.203
599.42	79.651
599.76	80.092
600.09	80.447
600.42	79.880
600.76	80.086
601.09	80.485
601.42	80.192
601.76	80.517
602.09	80.450
602.42	80.807
602.76	81.697
603.09	81.278
603.42	81.973
603.76	80.761
604.09	82.647
604.42	81.725
604.76	80.860
605.09	82.808
605.42	82.257
605.75	82.462
606.09	82.755
606.42	80.773
606.75	81.372
607.09	80.952
607.42	80.771
607.75	81.282
608.08	81.610
608.42	81.298
608.75	82.546
609.08	81.197
609.41	83.547
609.75	82.366
610.08	83.465
610.41	82.243
610.74	82.773
611.07	83.215
611.41	81.928
611.74	83.880
612.07	84.011
612.40	83.127
612.73	85.232
613.07	84.303
613.40	84.552
613.73	84.304
614.06	84.593
614.39	82.556
614.72	82.630
615.06	83.109
615.39	82.455
615.72	84.550
616.05	82.224
616.38	84.763
616.71	83.647
617.05	84.398
617.38	84.056
617.71	84.665
618.04	84.350
618.37	87.104
618.70	85.464
619.03	87.634
619.36	86.621
619.69	86.739
620.03	87.696
620.36	85.706
620.69	86.737
621.02	88.648
621.35	92.308
621.68	90.166
622.01	87.544
622.34	89.470
622.67	87.904
623.00	88.799
623.33	88.719
623.66	88.975
623.99	88.479
624.32	87.199
624.65	86.744
624.99	89.922
625.32	87.133
625.65	90.290
625.98	87.051
626.31	89.369
626.64	90.696
626.97	89.272
627.30	91.116
627.63	91.448
627.96	89.640
628.29	91.206
628.62	91.604
628.95	93.339
629.28	93.288
629.61	90.572
629.94	90.544
630.26	92.373
630.59	92.314
630.92	90.823
631.25	94.544
631.58	94.350
631.91	93.065
632.24	95.485
632.57	93.548
632.90	96.690
633.23	95.714
633.56	95.714
633.89	96.694
634.22	97.921
634.55	95.720
634.88	96.970
635.20	97.632
635.53	100.339
635.86	96.966
636.19	96.713
636.52	94.726
636.85	93.565
637.18	93.659
637.51	94.194
637.83	94.352
638.16	99.309
638.49	99.531
638.82	95.490
639.15	98.396
639.48	99.769
639.81	96.074
640.13	97.644
640.46	94.303
640.79	96.814
641.12	98.758
641.45	98.620
641.77	102.567
642.10	96.982
642.43	100.266
642.76	98.103
643.09	101.096
643.41	100.840
643.74	98.759
644.07	100.966
644.40	101.273
644.73	103.338
645.05	102.790
645.38	101.007
645.71	102.493
646.04	101.004
646.36	101.022
646.69	103.221
647.02	103.823
647.35	105.038
647.67	106.280
648.00	104.936
648.33	103.303
648.66	101.427
648.98	100.680
649.31	99.594
649.64	98.672
649.96	95.889
650.29	99.305
650.62	98.161
650.94	101.051
651.27	98.204
651.60	98.684
651.92	100.304
652.25	99.855
652.58	96.011
652.90	101.017
653.23	100.704
653.56	102.282
653.88	99.438
654.21	99.859
654.54	99.855
654.86	96.884
655.19	94.354
655.52	82.043
655.84	70.342
656.17	85.257
656.49	100.042
656.82	100.008
657.15	100.000
657.47	100.000
657.80	94.275
658.13	47.926
658.45	65.199
658.78	81.188
659.10	82.084
659.43	84.141
659.75	88.366
660.08	89.860
660.41	93.466
660.73	94.413
661.06	101.028
661.38	102.711
661.71	106.207
662.03	103.704
662.36	106.261
662.68	106.754
663.01	101.947
663.33	106.049
663.66	100.916
663.98	106.923
664.31	106.567
664.63	103.468
664.96	105.808
665.28	100.726
665.61	102.622
665.93	101.786
666.26	101.434
666.58	101.292
666.91	106.729
667.23	105.714
667.56	105.720
667.88	106.800
668.21	103.906
668.53	101.351
668.86	104.322
669.18	113.035
669.50	104.771
669.83	105.800
670.15	106.496
670.48	106.746
670.80	103.442
671.13	100.378
671.45	105.906
671.77	105.838
672.10	97.333
672.42	97.896
672.75	99.078
673.07	95.970
673.39	95.532
673.72	102.349
674.04	100.690
674.37	102.504
674.69	102.469
675.01	104.190
675.34	105.344
675.66	98.876
675.98	102.425
676.31	106.055
676.63	103.042
676.95	103.640
677.28	103.226
677.60	101.181
677.92	103.647
678.25	98.355
678.57	103.025
678.89	98.294
679.22	98.780
679.54	97.607
679.86	99.661
680.18	99.834
680.51	97.799
680.83	96.563
681.15	98.966
681.48	103.109
681.80	100.518
682.12	99.126
682.44	93.990
682.77	99.645
683.09	104.735
683.41	103.101
683.73	98.482
684.06	99.262
684.38	93.739
684.70	101.077
685.02	100.000
685.34	95.840
685.67	96.215
685.99	94.325
686.31	92.297
686.63	95.893
686.96	95.268
687.28	92.997
687.60	99.158
687.92	93.248
688.24	97.997
688.56	93.276
688.89	98.548
689.21	102.544
689.53	102.549
689.85	99.211
690.17	95.741
690.49	102.789
690.82	101.188
691.14	98.785
691.46	98.662
691.78	99.263
692.10	99.266
692.42	97.321
692.74	98.367
693.06	93.333
693.39	99.810
693.71	97.556
694.03	95.353
694.35	97.524
694.67	100.821
694.99	96.809
695.31	100.883
695.63	104.329
695.95	97.101
696.27	100.440
696.59	102.434
696.91	98.649
697.23	99.560
697.56	96.538
697.88	98.106
698.20	98.493
698.52	97.538
698.84	104.990
699.16	97.959
699.48	100.837
699.80	97.447
700.12	99.345
700.44	96.774
700.76	103.800
701.08	102.663
701.40	104.922
701.72	100.995
702.04	111.497
702.36	105.759
702.68	97.555
703.00	101.711
703.32	100.246
703.64	97.311
703.96	100.239
704.28	97.297
704.60	108.354
704.91	100.255
705.23	100.548
705.55	101.671
705.87	110.606
706.19	110.736
706.51	103.614
706.83	107.781
707.15	98.942
707.47	98.598
707.79	97.817
708.11	91.949
708.43	94.839
708.74	96.652
709.06	95.824
709.38	99.531
709.70	101.241
710.02	96.899
710.34	104.255
710.66	99.721
710.98	101.366
711.29	102.198
711.61	102.542
711.93	105.128
712.25	100.811
712.57	103.245
712.89	104.412
713.20	104.438
713.52	101.445
713.84	98.886
714.16	96.579
714.48	98.969
714.80	93.506
715.11	97.638
715.43	99.204
715.75	96.316
716.07	103.867
716.39	101.093
716.70	98.193
717.02	108.197
717.34	108.362
717.66	103.691
717.97	103.767
718.29	106.186
718.61	100.987
718.93	101.618
719.24	99.068
719.56	97.853
719.88	101.201
720.20	105.161
720.51	100.932
720.83	96.563
721.15	98.684
721.46	103.082
721.78	106.000
722.10	100.000
722.42	104.698
722.73	96.452
723.05	104.561
723.37	102.083
723.68	105.376
724.00	103.971
724.32	98.944
724.63	99.301
724.95	102.837
725.27	101.742
725.58	96.820
725.90	102.414
726.22	98.433
726.53	102.597
726.85	99.371
727.16	94.260
727.48	96.024
727.80	99.338
728.11	102.827
728.43	103.030
728.74	98.997
729.06	96.689
729.38	102.273
729.69	100.336
730.01	92.560
730.32	91.515
730.64	99.686
730.96	98.137
731.27	96.927
731.59	97.527
731.90	92.208
732.22	90.625
732.53	90.055
732.85	92.857
733.16	93.842
733.48	91.768
733.80	89.972
734.11	92.308
734.43	89.730
734.74	93.165
735.06	91.206
735.37	96.216
735.69	89.459
736.00	95.480
736.32	88.679
736.63	92.222
736.95	91.667
737.26	97.273
737.58	98.485
737.89	94.706
738.21	94.190
738.52	95.410
738.83	102.048
739.15	100.355
739.46	100.680
739.78	94.172
740.09	93.696
740.41	93.003
740.72	94.333
741.04	94.498
741.35	97.895
741.66	98.431
741.98	104.508
742.29	100.837
742.61	107.456
742.92	96.923
743.23	89.892
743.55	100.388
743.86	104.400
744.18	98.347
744.49	99.578
744.80	102.058
745.12	103.797
745.43	100.000
745.74	102.586
746.06	100.847
746.37	103.797
746.68	99.593
747.00	103.333
747.31	98.283
747.62	96.538
747.94	100.405
748.25	100.803
748.56	103.265
748.88	103.419
749.19	106.034
749.50	102.597
749.82	105.221
750.13	96.085
750.44	91.333
750.75	92.308
751.07	92.308
751.38	98.423
751.69	92.013
752.01	96.117
752.32	97.712
752.63	97.279
752.94	101.730
753.26	96.283
753.57	93.704
753.88	93.258
754.19	88.746
754.51	93.248
754.82	89.711
755.13	96.393
755.44	99.659
755.75	93.421
756.07	88.358
756.38	94.969
756.69	95.783
757.00	81.994
757.31	88.525
757.63	87.468
757.94	82.394
758.25	84.199
758.56	84.967
758.87	87.045
759.18	87.467
759.50	86.402
759.81	89.356
760.12	91.105
760.43	89.844
760.74	86.207
761.05	87.000
761.36	83.614
761.67	88.071
761.99	85.405
762.30	91.463
762.61	91.419
762.92	94.776
763.23	95.131
763.54	90.647
763.85	92.784
764.16	87.879
764.47	95.775
764.78	87.540
765.10	86.217
765.41	86.667
765.72	86.243
766.03	86.441
766.34	85.266
766.65	90.592
766.96	95.618
767.27	101.843
767.58	100.000
767.89	98.558
768.20	98.592
768.51	94.444
768.82	91.968
769.13	93.939
769.44	93.846
769.75	93.863
770.06	92.692
770.37	96.063
770.68	94.043
770.99	87.045
771.30	93.333
771.61	88.213
771.92	86.667
772.23	96.356
772.54	95.833
772.85	102.765
773.16	93.333
773.47	102.646
773.78	97.297
774.09	96.023
774.39	100.500
774.70	96.175
775.01	104.268
775.32	93.529
775.63	101.840
775.94	101.274
776.25	107.742
776.56	105.769
776.87	105.442
777.18	100.690
777.48	100.000
777.79	100.000
778.10	95.588
778.41	97.222
778.72	100.000
779.03	100.000
779.34	92.727
779.65	96.891
779.95	103.333
780.26	94.886
780.57	100.000
780.88	120.290
781.19	96.774
781.50	101.765
781.80	97.849
782.11	90.476
782.42	81.818
782.73	95.808
783.04	88.827
783.34	89.697
783.65	96.732
783.96	98.758
784.27	92.262
784.57	105.298
784.88	106.429
785.19	108.661
785.50	99.213
785.81	100.752
786.11	107.692
786.42	94.245
786.73	95.683
787.04	109.774
787.34	103.279
787.65	105.600
787.96	105.970
788.26	96.503
788.57	98.601
788.88	99.342
789.19	97.386
789.49	103.425
789.80	95.745
790.11	102.362
790.41	92.187
790.72	100.000
791.03	100.971
791.33	94.783
791.64	105.263
791.95	97.321
792.25	100.000
792.56	103.571
792.87	107.292
793.17	94.643
793.48	96.875
793.79	101.205
794.09	92.661
794.40	110.092
794.70	88.435
795.01	92.208
795.32	86.986
795.62	97.183
795.93	96.212
796.23	100.000
796.54	90.179
796.85	106.383
797.15	92.391
797.46	109.589
797.76	108.750
798.07	98.913
798.37	91.753
798.68	114.286
798.99	114.943
799.29	114.607
799.60	97.872
799.90	109.639
800.21	124.615
800.51	111.940
800.82	129.412
801.12	98.630
801.43	107.353
801.73	113.559
802.04	125.758
802.34	135.000
802.65	120.339
802.95	117.910
803.26	128.814
803.56	109.589
803.87	107.143
804.17	113.699
804.48	121.053
804.78	102.778
805.09	132.759
805.39	100.000
805.70	95.775
806.00	97.561
806.30	90.361
806.61	102.740
806.91	102.885
807.22	96.667
807.52	89.655
807.83	119.444
808.13	101.205
808.43	97.753
808.74	103.750
809.04	117.647
809.35	108.000
809.65	108.571
809.95	112.329
810.26	108.772
810.56	141.379
810.86	101.471
811.17	115.789
811.47	101.639
811.77	137.778
812.08	106.780
812.38	118.333
812.69	124.138
812.99	116.981
813.29	128.205
813.59	108.000
813.90	115.789
814.20	118.182
814.50	126.761
814.81	112.821
815.11	114.754
815.41	97.015
815.72	112.069
816.02	119.643
816.32	148.889
816.62	143.182
816.93	140.000
817.23	116.667
817.53	140.426
817.84	147.619
818.14	197.059
818.44	118.367
818.74	153.333
819.04	112.821
819.35	131.429
819.65	146.154
819.95	103.774
820.25	111.111
820.56	92.857
820.86	146.875
821.16	133.333
821.46	130.233
821.76	102.000
822.07	103.571
822.37	95.652
822.67	104.255
822.97	100.000
823.27	112.500
823.57	112.245
823.88	153.333
824.18	135.000
824.48	166.667
824.78	168.000
825.08	121.212
825.38	126.667
825.69	123.404
825.99	166.667
826.29	97.143
826.59	117.949
826.89	97.674
827.19	116.000
827.49	155.882
827.79	122.917
828.09	121.622
828.39	180.000
828.70	104.878
829.00	104.651
829.30	139.286
829.60	129.412
829.90	106.522
830.20	151.429
830.50	144.828
830.80	233.333
831.10	184.615
831.40	155.882
831.70	204.762
832.00	125.806
832.30	141.176
832.60	145.833
832.90	238.462
833.20	173.684
833.50	160.000
833.80	194.737
834.10	176.190
834.40	127.778
834.70	165.625
835.00	108.571
835.30	129.412
835.60	136.667
835.90	168.000
836.20	136.364
836.50	152.000
836.80	121.212
837.10	125.926
837.40	151.852
837.70	168.750
838.00	157.143
838.30	160.870
838.60	151.724
838.90	278.571
839.19	134.783
839.49	250.000
839.79	121.739
840.09	193.750
840.39	180.000
840.69	132.258
840.99	92.857
841.29	186.667
841.59	215.789
841.88	107.692
842.18	123.077
842.48	270.000
842.78	140.000
843.08	123.333
843.38	167.742
843.68	166.667
843.97	138.235
844.27	118.750
844.57	115.789
844.87	230.000
845.17	246.667
845.47	185.714
845.76	133.333
846.06	233.333
846.36	147.059
846.66	100.000
846.96	186.667
847.25	135.294
847.55	182.609
847.85	190.000
848.15	211.765
848.44	300.000
848.74	166.667
849.04	91.667
849.34	225.000
849.63	143.478
849.93	-1250.000
850.23	246.667
850.53	157.692
850.82	236.364
851.12	159.091
851.42	254.545
851.71	261.538
852.01	130.000
852.31	200.000
852.61	126.316
852.90	250.000
853.20	138.889
853.50	288.889
853.79	152.381
854.09	127.273
854.39	216.667
854.68	138.710
854.98	142.308
855.28	233.333
855.57	103.571
855.87	124.000
856.17	150.000
856.46	133.333
856.76	150.000
857.05	104.348
857.35	145.833
857.65	169.231
857.94	166.667
858.24	170.370
858.53	147.826
858.83	211.765
859.13	141.176
859.42	200.000
859.72	264.286
860.01	135.000
860.31	355.556
860.60	320.000
860.90	266.667
861.20	222.222
861.49	238.462
861.79	96.667
862.08	169.231
862.38	106.250
862.67	217.647
862.97	131.250
863.26	300.000
863.56	280.000
863.85	200.000
864.15	166.667
864.44	1166.667
864.74	214.286
865.03	156.250
865.33	210.000
865.62	96.774
865.92	181.818
866.21	165.217
866.51	228.571
866.80	320.000
867.10	150.000
867.39	166.667
867.69	-2500.000
867.98	471.429
868.27	223.529
868.57	1600.000
868.86	160.000
869.16	123.810
869.45	150.000
869.75	327.273
870.04	414.286
870.33	250.000
870.63	142.857
870.92	750.000
871.22	225.000
871.51	236.364
871.80	266.667
872.10	700.000
>>>>>End Processed Spectral Data<<<<<
