SpectraSuite Data File
++++++++++++++++++++++++++++++++++++
Date: Thu May 14 14:57:53 PDT 2015
User: schluterlab
Dark Spectrum Present: Yes
Reference Spectrum Present: Yes
Number of Sampled Component Spectra: 1
Spectrometers: USB2E3373
Integration Time (usec): 3000 (USB2E3373)
Spectra Averaged: 3 (USB2E3373)
Boxcar Smoothing: 0 (USB2E3373)
Correct for Electrical Dark: No (USB2E3373)
Strobe/Lamp Enabled: No (USB2E3373)
Correct for Detector Non-linearity: No (USB2E3373)
Correct for Stray Light: No (USB2E3373)
Number of Pixels in Processed Spectrum: 2048
>>>>>Begin Processed Spectral Data<<<<<
178.53	0.000
178.91	385.714
179.29	-2700.000
179.67	-1600.000
180.04	257.143
180.42	180.000
180.80	420.000
181.18	-2900.000
181.56	-1700.000
181.94	575.000
182.31	-350.000
182.69	566.667
183.07	-950.000
183.45	725.000
183.83	-400.000
184.20	-766.667
184.58	1900.000
184.96	-525.000
185.34	-222.222
185.72	-220.000
186.09	344.444
186.47	1400.000
186.85	620.000
187.23	-366.667
187.61	-2700.000
187.98	140.000
188.36	650.000
188.74	-525.000
189.12	-533.333
189.49	-87.500
189.87	-300.000
190.25	-166.667
190.63	-240.000
191.00	-300.000
191.38	0.000
191.76	-625.000
192.14	-300.000
192.51	1100.000
192.89	-283.333
193.27	0.000
193.65	-242.857
194.02	-2000.000
194.40	-185.714
194.78	271.429
195.15	0.000
195.53	-181.818
195.91	0.000
196.29	-450.000
196.66	-169.231
197.04	-2800.000
197.42	-342.857
197.79	-1100.000
198.17	-300.000
198.55	-242.857
198.92	-155.556
199.30	-187.500
199.68	-118.182
200.05	-78.571
200.43	-1000.000
200.81	500.000
201.18	0.000
201.56	400.000
201.94	0.000
202.31	766.667
202.69	-255.556
203.07	1500.000
203.44	-188.889
203.82	-600.000
204.19	-141.667
204.57	-333.333
204.95	-287.500
205.32	-2400.000
205.70	400.000
206.08	-350.000
206.45	-400.000
206.83	460.000
207.20	-383.333
207.58	-420.000
207.96	-400.000
208.33	-250.000
208.71	191.667
209.08	-216.667
209.46	0.000
209.84	466.667
210.21	550.000
210.59	900.000
210.96	433.333
211.34	-375.000
211.71	-250.000
212.09	-2300.000
212.46	0.000
212.84	1550.000
213.22	-440.000
213.59	-425.000
213.97	-160.000
214.34	-666.667
214.72	550.000
215.09	-725.000
215.47	0.000
215.84	242.857
216.22	1150.000
216.59	-220.000
216.97	-400.000
217.34	-700.000
217.72	-137.500
218.09	-625.000
218.47	-575.000
218.84	0.000
219.22	440.000
219.59	-76.471
219.97	-90.000
220.34	1000.000
220.72	-244.444
221.09	-146.154
221.47	-900.000
221.84	-190.000
222.22	-400.000
222.59	0.000
222.97	-175.000
223.34	-380.000
223.72	-2000.000
224.09	-250.000
224.46	-500.000
224.84	-320.000
225.21	-314.286
225.59	-700.000
225.96	-525.000
226.34	-61.538
226.71	450.000
227.08	-1000.000
227.46	-53.333
227.83	-600.000
228.21	-110.526
228.58	225.000
228.95	1000.000
229.33	-150.000
229.70	-110.000
230.08	-21.053
230.45	380.000
230.82	-433.333
231.20	-100.000
231.57	-183.333
231.95	-227.273
232.32	-145.455
232.69	-70.000
233.07	-375.000
233.44	-105.882
233.81	-160.000
234.19	-44.444
234.56	-72.727
234.93	-44.828
235.31	-63.158
235.68	-122.222
236.05	-150.000
236.43	-26.923
236.80	-24.000
237.17	-40.741
237.55	-36.364
237.92	-280.000
238.29	-32.258
238.67	-22.727
239.04	-8.333
239.41	-21.429
239.79	-19.565
240.16	-3.704
240.53	-13.043
240.91	-7.843
241.28	-4.918
241.65	-2.985
242.02	8.108
242.40	-18.462
242.77	-8.000
243.14	-3.659
243.51	-13.158
243.89	-7.692
244.26	14.851
244.63	1.961
245.00	6.542
245.38	9.649
245.75	-2.655
246.12	11.905
246.49	15.504
246.87	18.571
247.24	8.609
247.61	14.474
247.98	14.765
248.36	14.815
248.73	9.816
249.10	11.475
249.47	17.413
249.84	19.372
250.22	10.363
250.59	18.889
250.96	21.818
251.33	13.265
251.70	20.085
252.08	15.417
252.45	17.213
252.82	19.421
253.19	17.578
253.56	21.293
253.94	12.308
254.31	17.045
254.68	23.427
255.05	19.544
255.42	16.667
255.79	14.239
256.16	18.543
256.54	21.523
256.91	20.984
257.28	18.689
257.65	15.287
258.02	15.929
258.39	17.664
258.76	25.076
259.14	20.402
259.51	19.020
259.88	17.564
260.25	20.000
260.62	21.096
260.99	22.678
261.36	20.375
261.73	18.302
262.10	21.154
262.47	21.180
262.85	20.960
263.22	18.182
263.59	17.368
263.96	23.529
264.33	20.460
264.70	23.457
265.07	22.912
265.44	23.356
265.81	19.444
266.18	21.995
266.55	19.643
266.92	19.818
267.29	24.289
267.66	18.847
268.03	19.651
268.40	22.547
268.77	20.729
269.14	17.841
269.51	19.079
269.88	21.516
270.25	19.517
270.62	21.308
270.99	21.818
271.36	23.366
271.73	24.165
272.10	19.639
272.47	21.443
272.84	22.691
273.21	22.445
273.58	20.363
273.95	20.385
274.32	19.011
274.69	21.857
275.06	19.963
275.43	18.484
275.80	19.753
276.17	22.593
276.54	19.590
276.91	20.036
277.28	20.976
277.65	22.262
278.02	20.956
278.39	22.283
278.76	20.914
279.13	21.986
279.50	21.134
279.87	20.751
280.23	19.014
280.60	22.203
280.97	20.066
281.34	19.185
281.71	22.504
282.08	22.093
282.45	20.786
282.82	22.135
283.19	19.063
283.56	19.180
283.92	21.171
284.29	21.643
284.66	24.466
285.03	18.910
285.40	21.947
285.77	21.517
286.14	23.359
286.51	20.852
286.87	20.695
287.24	22.741
287.61	21.076
287.98	18.429
288.35	20.710
288.72	20.414
289.08	21.962
289.45	18.639
289.82	20.934
290.19	21.264
290.56	20.423
290.93	21.683
291.29	21.625
291.66	20.248
292.03	18.318
292.40	23.265
292.77	21.429
293.13	20.162
293.50	19.580
293.87	20.134
294.24	20.667
294.60	20.733
294.97	18.523
295.34	21.383
295.71	18.916
296.08	20.413
296.44	19.118
296.81	21.681
297.18	18.680
297.55	19.929
297.91	19.217
298.28	19.668
298.65	20.690
299.02	19.953
299.38	20.938
299.75	18.692
300.12	21.181
300.48	20.507
300.85	19.798
301.22	19.016
301.59	20.205
301.95	20.226
302.32	20.556
302.69	20.591
303.05	21.436
303.42	21.286
303.79	19.688
304.15	19.348
304.52	21.036
304.89	20.942
305.25	21.014
305.62	18.809
305.99	21.237
306.35	20.060
306.72	21.923
307.09	20.102
307.45	20.807
307.82	20.787
308.19	19.778
308.55	21.794
308.92	21.908
309.29	20.690
309.65	20.955
310.02	21.386
310.38	20.276
310.75	20.388
311.12	20.901
311.48	20.528
311.85	21.368
312.22	20.968
312.58	21.690
312.95	21.224
313.31	22.042
313.68	21.886
314.05	22.493
314.41	22.495
314.78	21.980
315.14	22.868
315.51	23.453
315.87	23.582
316.24	21.826
316.61	23.801
316.97	22.172
317.34	22.487
317.70	23.930
318.07	23.457
318.43	24.150
318.80	23.662
319.16	23.519
319.53	21.937
319.89	23.663
320.26	25.178
320.62	22.961
320.99	24.377
321.35	24.677
321.72	24.744
322.08	24.617
322.45	24.029
322.81	25.903
323.18	23.186
323.54	24.914
323.91	25.890
324.27	25.215
324.64	25.609
325.00	24.876
325.37	26.290
325.73	27.025
326.10	28.386
326.46	28.176
326.83	28.423
327.19	28.425
327.56	27.352
327.92	29.426
328.29	28.387
328.65	29.062
329.01	29.272
329.38	30.076
329.74	30.565
330.11	31.164
330.47	31.003
330.84	31.094
331.20	31.583
331.56	30.763
331.93	32.134
332.29	31.780
332.66	31.395
333.02	31.910
333.38	31.879
333.75	31.650
334.11	32.861
334.48	32.756
334.84	33.985
335.20	31.906
335.57	33.642
335.93	33.058
336.29	31.281
336.66	33.137
337.02	32.609
337.38	32.653
337.75	32.727
338.11	31.960
338.47	32.837
338.84	32.064
339.20	31.592
339.56	31.960
339.93	32.677
340.29	32.367
340.65	32.036
341.02	32.003
341.38	32.498
341.74	31.154
342.11	32.582
342.47	31.215
342.83	33.011
343.20	33.361
343.56	32.879
343.92	32.426
344.28	31.953
344.65	32.326
345.01	31.903
345.37	32.659
345.73	32.268
346.10	33.541
346.46	32.991
346.82	31.086
347.19	32.391
347.55	32.018
347.91	33.210
348.27	31.942
348.63	32.521
349.00	31.916
349.36	31.896
349.72	32.366
350.08	32.764
350.45	32.548
350.81	32.579
351.17	32.556
351.53	32.449
351.89	32.726
352.26	32.015
352.62	31.791
352.98	33.282
353.34	31.367
353.70	34.052
354.07	31.595
354.43	32.043
354.79	31.713
355.15	32.082
355.51	33.845
355.87	32.685
356.24	33.612
356.60	30.673
356.96	32.765
357.32	33.234
357.68	32.650
358.04	32.111
358.40	32.015
358.77	32.895
359.13	32.349
359.49	31.375
359.85	33.140
360.21	34.433
360.57	32.592
360.93	32.017
361.29	33.895
361.66	33.671
362.02	34.586
362.38	34.013
362.74	33.729
363.10	34.319
363.46	34.141
363.82	33.949
364.18	34.905
364.54	33.679
364.90	33.980
365.26	34.966
365.62	34.333
365.98	34.377
366.35	34.564
366.71	34.830
367.07	35.589
367.43	34.340
367.79	35.036
368.15	35.652
368.51	35.453
368.87	35.271
369.23	34.067
369.59	35.246
369.95	35.700
370.31	36.192
370.67	36.039
371.03	35.180
371.39	35.326
371.75	36.451
372.11	36.179
372.47	35.884
372.83	36.780
373.19	35.557
373.55	36.653
373.91	35.242
374.27	35.382
374.63	36.265
374.99	36.273
375.35	37.857
375.71	37.742
376.07	36.862
376.42	36.776
376.78	38.595
377.14	37.742
377.50	37.634
377.86	38.362
378.22	39.581
378.58	38.407
378.94	39.026
379.30	38.489
379.66	39.153
380.02	40.565
380.38	40.495
380.74	39.155
381.09	39.489
381.45	39.261
381.81	41.276
382.17	40.439
382.53	40.058
382.89	39.898
383.25	41.325
383.61	40.162
383.97	42.226
384.32	41.567
384.68	40.603
385.04	41.700
385.40	43.489
385.76	42.028
386.12	42.071
386.48	42.176
386.83	42.372
387.19	41.773
387.55	43.369
387.91	43.436
388.27	43.014
388.62	42.268
388.98	42.865
389.34	44.078
389.70	43.870
390.06	44.227
390.42	43.072
390.77	44.311
391.13	43.779
391.49	43.720
391.85	43.879
392.20	43.950
392.56	45.659
392.92	44.329
393.28	44.168
393.64	44.525
393.99	45.613
394.35	45.853
394.71	45.629
395.07	45.030
395.42	44.717
395.78	46.313
396.14	46.465
396.50	45.665
396.85	44.365
397.21	46.509
397.57	45.642
397.92	44.387
398.28	46.062
398.64	46.167
399.00	44.503
399.35	46.178
399.71	45.815
400.07	45.929
400.42	46.449
400.78	45.949
401.14	46.215
401.49	46.674
401.85	46.977
402.21	45.655
402.57	45.657
402.92	45.154
403.28	45.023
403.63	46.420
403.99	44.893
404.35	45.139
404.70	45.552
405.06	45.924
405.42	46.604
405.77	45.911
406.13	44.733
406.49	46.509
406.84	46.427
407.20	45.109
407.55	44.821
407.91	45.192
408.27	45.171
408.62	45.608
408.98	46.198
409.34	45.689
409.69	46.724
410.05	46.424
410.40	46.288
410.76	46.719
411.11	46.523
411.47	46.499
411.83	47.678
412.18	47.349
412.54	46.058
412.89	46.508
413.25	46.783
413.60	46.123
413.96	46.154
414.31	46.006
414.67	45.200
415.03	46.277
415.38	46.847
415.74	45.449
416.09	46.638
416.45	45.585
416.80	45.043
417.16	45.849
417.51	46.326
417.87	47.578
418.22	46.886
418.58	46.097
418.93	46.217
419.29	46.917
419.64	45.858
420.00	46.172
420.35	47.726
420.71	47.214
421.06	46.348
421.42	46.961
421.77	47.119
422.12	46.934
422.48	46.697
422.83	48.412
423.19	48.541
423.54	48.341
423.90	46.880
424.25	47.947
424.61	47.015
424.96	48.051
425.31	48.248
425.67	47.450
426.02	47.482
426.38	47.589
426.73	47.321
427.09	48.558
427.44	47.843
427.79	46.656
428.15	48.059
428.50	47.640
428.85	46.843
429.21	49.043
429.56	47.878
429.92	47.912
430.27	48.145
430.62	48.901
430.98	48.893
431.33	48.192
431.68	48.659
432.04	47.435
432.39	48.152
432.74	47.317
433.10	48.783
433.45	47.993
433.80	48.283
434.16	49.174
434.51	48.972
434.86	50.380
435.22	50.266
435.57	48.762
435.92	49.249
436.28	49.545
436.63	49.863
436.98	48.953
437.34	49.718
437.69	48.046
438.04	47.594
438.39	49.512
438.75	49.640
439.10	48.626
439.45	48.966
439.81	48.701
440.16	48.633
440.51	49.498
440.86	48.694
441.22	49.035
441.57	49.581
441.92	50.097
442.27	50.253
442.63	48.634
442.98	50.320
443.33	50.605
443.68	49.405
444.03	49.765
444.39	50.578
444.74	50.230
445.09	48.758
445.44	49.789
445.79	50.144
446.15	49.229
446.50	49.664
446.85	48.881
447.20	49.565
447.55	49.895
447.91	49.529
448.26	49.789
448.61	49.628
448.96	49.303
449.31	48.621
449.66	49.673
450.02	48.945
450.37	48.908
450.72	48.439
451.07	49.317
451.42	50.029
451.77	48.583
452.12	49.210
452.47	48.782
452.83	50.056
453.18	49.445
453.53	48.880
453.88	48.040
454.23	49.209
454.58	49.739
454.93	47.937
455.28	49.970
455.63	50.654
455.98	48.603
456.34	49.411
456.69	48.971
457.04	49.645
457.39	48.670
457.74	50.280
458.09	48.655
458.44	48.922
458.79	49.304
459.14	49.449
459.49	50.368
459.84	50.000
460.19	48.418
460.54	49.233
460.89	49.074
461.24	47.989
461.59	49.087
461.94	48.716
462.29	50.336
462.64	48.220
462.99	47.709
463.34	49.903
463.69	47.538
464.04	49.083
464.39	48.318
464.74	48.689
465.09	48.962
465.44	49.249
465.79	50.502
466.14	49.192
466.49	49.263
466.84	50.138
467.19	49.538
467.54	47.944
467.89	48.736
468.24	47.368
468.59	48.002
468.94	48.193
469.29	47.630
469.64	47.743
469.99	47.865
470.34	46.658
470.68	48.257
471.03	47.151
471.38	46.893
471.73	48.049
472.08	49.175
472.43	47.803
472.78	47.481
473.13	48.167
473.48	48.640
473.83	48.230
474.17	47.362
474.52	49.188
474.87	47.342
475.22	47.662
475.57	48.442
475.92	48.034
476.27	48.403
476.61	47.767
476.96	48.436
477.31	48.614
477.66	48.951
478.01	46.873
478.36	46.909
478.70	48.128
479.05	48.108
479.40	49.112
479.75	47.935
480.10	47.845
480.45	47.539
480.79	47.483
481.14	47.381
481.49	47.388
481.84	48.259
482.19	48.258
482.53	49.191
482.88	47.674
483.23	47.932
483.58	47.860
483.92	47.739
484.27	46.867
484.62	47.071
484.97	47.589
485.31	46.498
485.66	44.856
486.01	47.368
486.36	50.115
486.70	52.746
487.05	52.754
487.40	50.267
487.75	48.244
488.09	47.901
488.44	45.561
488.79	46.138
489.13	46.343
489.48	45.282
489.83	46.761
490.17	46.416
490.52	45.854
490.87	46.362
491.22	46.880
491.56	46.288
491.91	46.271
492.26	45.868
492.60	45.868
492.95	46.424
493.30	47.064
493.64	46.693
493.99	45.307
494.34	45.514
494.68	46.039
495.03	46.872
495.37	46.427
495.72	46.122
496.07	46.713
496.41	45.045
496.76	47.248
497.11	46.837
497.45	46.310
497.80	46.024
498.14	45.805
498.49	46.232
498.84	45.430
499.18	45.884
499.53	45.740
499.87	45.846
500.22	46.705
500.56	45.614
500.91	46.728
501.26	47.409
501.60	45.957
501.95	46.505
502.29	47.389
502.64	46.130
502.98	45.686
503.33	45.529
503.67	46.140
504.02	45.841
504.36	46.470
504.71	45.935
505.06	46.066
505.40	46.115
505.75	45.355
506.09	45.626
506.44	45.682
506.78	47.018
507.13	46.335
507.47	46.187
507.82	45.455
508.16	45.889
508.51	45.945
508.85	46.292
509.19	45.760
509.54	45.437
509.88	46.090
510.23	45.459
510.57	46.641
510.92	46.396
511.26	45.551
511.61	46.016
511.95	45.144
512.30	45.396
512.64	45.177
512.98	45.123
513.33	46.270
513.67	45.895
514.02	45.733
514.36	46.189
514.70	45.938
515.05	46.872
515.39	45.197
515.74	46.288
516.08	45.272
516.42	46.102
516.77	45.058
517.11	45.281
517.46	45.758
517.80	45.216
518.14	45.919
518.49	45.228
518.83	45.184
519.17	44.965
519.52	44.706
519.86	45.459
520.20	46.219
520.55	44.414
520.89	44.989
521.23	45.003
521.58	44.746
521.92	44.703
522.26	44.101
522.61	44.907
522.95	44.175
523.29	45.977
523.64	44.451
523.98	46.207
524.32	45.673
524.66	45.304
525.01	44.168
525.35	44.974
525.69	44.606
526.04	44.432
526.38	44.540
526.72	44.233
527.06	45.279
527.41	43.732
527.75	46.021
528.09	45.041
528.43	45.293
528.78	44.046
529.12	45.298
529.46	43.957
529.80	45.995
530.15	45.855
530.49	45.136
530.83	45.277
531.17	44.624
531.51	44.284
531.86	44.651
532.20	45.000
532.54	43.507
532.88	44.909
533.22	42.899
533.57	45.759
533.91	44.893
534.25	44.997
534.59	45.000
534.93	45.444
535.27	46.085
535.62	45.082
535.96	44.625
536.30	44.066
536.64	46.426
536.98	44.157
537.32	44.753
537.66	44.230
538.01	44.653
538.35	45.006
538.69	45.373
539.03	44.942
539.37	44.641
539.71	45.345
540.05	44.844
540.39	44.804
540.73	44.687
541.07	43.838
541.42	43.473
541.76	43.357
542.10	44.270
542.44	43.910
542.78	44.647
543.12	45.411
543.46	43.223
543.80	43.885
544.14	45.242
544.48	43.853
544.82	44.644
545.16	44.961
545.50	43.739
545.84	44.581
546.18	45.185
546.52	45.541
546.86	43.899
547.20	44.593
547.54	42.509
547.88	43.761
548.22	44.971
548.56	44.412
548.90	44.299
549.24	45.289
549.58	44.543
549.92	43.750
550.26	43.495
550.60	44.161
550.94	43.984
551.28	41.518
551.62	42.992
551.96	44.013
552.30	44.041
552.64	44.368
552.98	44.791
553.32	44.630
553.66	44.244
554.00	43.443
554.34	44.659
554.68	42.673
555.02	42.838
555.36	44.181
555.69	42.601
556.03	43.443
556.37	44.368
556.71	44.325
557.05	44.601
557.39	43.198
557.73	43.065
558.07	43.179
558.41	44.120
558.75	44.084
559.08	43.424
559.42	42.867
559.76	43.758
560.10	42.532
560.44	44.327
560.78	45.438
561.12	44.458
561.45	44.282
561.79	44.322
562.13	44.609
562.47	43.157
562.81	42.975
563.15	43.750
563.48	44.624
563.82	43.954
564.16	43.004
564.50	43.087
564.84	43.363
565.17	44.059
565.51	42.578
565.85	44.477
566.19	43.088
566.52	44.353
566.86	44.595
567.20	43.339
567.54	45.141
567.88	45.362
568.21	45.652
568.55	45.755
568.89	45.756
569.23	45.120
569.56	46.971
569.90	46.044
570.24	46.813
570.57	46.280
570.91	45.836
571.25	46.051
571.59	46.591
571.92	46.135
572.26	46.612
572.60	45.973
572.93	45.227
573.27	45.743
573.61	45.024
573.95	45.764
574.28	46.041
574.62	46.544
574.96	46.339
575.29	45.605
575.63	45.530
575.97	45.413
576.30	45.028
576.64	45.383
576.98	45.649
577.31	46.080
577.65	46.224
577.98	46.103
578.32	46.810
578.66	47.192
578.99	46.283
579.33	45.554
579.67	45.399
580.00	45.314
580.34	45.484
580.67	45.278
581.01	45.651
581.35	45.938
581.68	46.584
582.02	46.547
582.35	47.764
582.69	47.879
583.02	46.645
583.36	46.211
583.70	45.694
584.03	44.804
584.37	44.483
584.70	43.667
585.04	44.897
585.37	45.515
585.71	46.559
586.04	45.905
586.38	46.216
586.72	45.074
587.05	45.920
587.39	45.350
587.72	46.124
588.06	45.721
588.39	45.756
588.73	45.079
589.06	45.655
589.40	45.851
589.73	45.598
590.07	44.695
590.40	45.199
590.73	44.928
591.07	45.942
591.40	44.984
591.74	44.316
592.07	44.580
592.41	44.046
592.74	45.083
593.08	46.338
593.41	46.748
593.75	46.466
594.08	46.592
594.41	46.186
594.75	45.135
595.08	44.886
595.42	45.714
595.75	45.173
596.09	45.984
596.42	45.073
596.75	44.848
597.09	44.404
597.42	43.504
597.75	45.002
598.09	44.722
598.42	44.833
598.76	44.861
599.09	45.034
599.42	44.921
599.76	45.923
600.09	45.746
600.42	45.245
600.76	45.773
601.09	45.038
601.42	44.422
601.76	44.103
602.09	44.889
602.42	44.529
602.76	44.022
603.09	45.154
603.42	45.303
603.76	45.102
604.09	45.671
604.42	44.954
604.76	44.140
605.09	44.555
605.42	44.856
605.75	44.038
606.09	44.830
606.42	44.363
606.75	44.303
607.09	43.971
607.42	44.547
607.75	45.721
608.08	44.712
608.42	44.135
608.75	44.818
609.08	44.058
609.41	43.626
609.75	43.571
610.08	44.415
610.41	45.157
610.74	44.328
611.07	45.337
611.41	44.529
611.74	44.296
612.07	44.974
612.40	44.106
612.73	44.597
613.07	44.450
613.40	45.525
613.73	43.813
614.06	43.867
614.39	44.121
614.72	43.814
615.06	43.455
615.39	43.789
615.72	44.265
616.05	44.633
616.38	44.551
616.71	43.678
617.05	43.504
617.38	43.606
617.71	43.790
618.04	43.767
618.37	44.426
618.70	43.891
619.03	42.234
619.36	42.417
619.69	43.177
620.03	43.440
620.36	42.883
620.69	42.936
621.02	43.307
621.35	43.759
621.68	42.444
622.01	42.562
622.34	42.329
622.67	43.368
623.00	41.700
623.33	43.928
623.66	44.553
623.99	43.055
624.32	42.950
624.65	42.664
624.99	44.083
625.32	44.415
625.65	43.560
625.98	42.441
626.31	43.161
626.64	42.711
626.97	42.086
627.30	41.838
627.63	42.086
627.96	42.492
628.29	42.335
628.62	42.317
628.95	42.770
629.28	42.566
629.61	42.677
629.94	41.674
630.26	41.695
630.59	42.746
630.92	41.558
631.25	42.308
631.58	43.409
631.91	42.081
632.24	42.459
632.57	40.987
632.90	41.525
633.23	40.816
633.56	41.122
633.89	41.529
634.22	41.580
634.55	42.380
634.88	41.342
635.20	41.981
635.53	41.695
635.86	40.087
636.19	42.100
636.52	40.717
636.85	42.084
637.18	39.813
637.51	40.968
637.83	41.417
638.16	41.705
638.49	41.080
638.82	42.165
639.15	41.352
639.48	42.148
639.81	41.686
640.13	40.754
640.46	39.030
640.79	38.480
641.12	40.373
641.45	40.527
641.77	44.031
642.10	40.551
642.43	40.426
642.76	39.160
643.09	40.137
643.41	40.056
643.74	41.103
644.07	41.517
644.40	37.624
644.73	40.348
645.05	39.354
645.38	40.432
645.71	40.176
646.04	40.459
646.36	39.708
646.69	38.497
647.02	39.908
647.35	38.931
647.67	40.258
648.00	39.490
648.33	41.592
648.66	39.800
648.98	42.449
649.31	42.084
649.64	40.770
649.96	40.716
650.29	38.108
650.62	41.301
650.94	38.739
651.27	38.174
651.60	38.158
651.92	39.058
652.25	39.219
652.58	39.065
652.90	40.262
653.23	41.831
653.56	39.800
653.88	41.994
654.21	40.845
654.54	40.607
654.86	41.076
655.19	39.774
655.52	46.369
655.84	52.103
656.17	61.396
656.49	83.813
656.82	89.268
657.15	67.858
657.47	49.911
657.80	35.700
658.13	26.851
658.45	34.269
658.78	39.383
659.10	37.705
659.43	36.326
659.75	34.698
660.08	32.549
660.41	33.581
660.73	34.208
661.06	34.949
661.38	37.799
661.71	35.517
662.03	40.035
662.36	36.673
662.68	40.150
663.01	40.354
663.33	42.344
663.66	39.377
663.98	40.192
664.31	38.837
664.63	39.114
664.96	37.931
665.28	38.113
665.61	39.510
665.93	38.036
666.26	36.918
666.58	38.192
666.91	38.692
667.23	37.524
667.56	38.462
667.88	37.800
668.21	35.938
668.53	35.521
668.86	35.953
669.18	37.882
669.50	36.978
669.83	37.000
670.15	38.189
670.48	39.087
670.80	37.476
671.13	38.185
671.45	37.795
671.77	42.373
672.10	37.833
672.42	40.453
672.75	39.017
673.07	38.358
673.39	41.140
673.72	39.430
674.04	41.379
674.37	39.356
674.69	41.270
675.01	37.714
675.34	39.695
675.66	37.640
675.98	37.313
676.31	38.867
676.63	38.213
676.95	39.655
677.28	38.911
677.60	37.795
677.92	39.347
678.25	39.671
678.57	42.171
678.89	41.297
679.22	39.024
679.54	36.923
679.86	37.119
680.18	40.962
680.51	40.252
680.83	39.280
681.15	38.276
681.48	41.278
681.80	39.551
682.12	40.035
682.44	38.063
682.77	37.411
683.09	36.364
683.41	39.922
683.73	39.848
684.06	39.299
684.38	38.640
684.70	42.011
685.02	40.620
685.34	40.433
685.67	40.852
685.99	39.724
686.31	38.663
686.63	39.968
686.96	38.328
687.28	41.531
687.60	37.374
687.92	37.781
688.24	40.401
688.56	37.241
688.89	39.020
689.21	38.552
689.53	37.451
689.85	39.053
690.17	38.519
690.49	36.454
690.82	40.198
691.14	35.830
691.46	39.962
691.78	41.252
692.10	39.633
692.42	35.893
692.74	38.113
693.06	36.111
693.39	39.658
693.71	38.158
694.03	38.290
694.35	37.524
694.67	34.702
694.99	32.979
695.31	35.541
695.63	38.312
695.95	37.474
696.27	38.681
696.59	38.274
696.91	38.063
697.23	41.099
697.56	38.493
697.88	41.856
698.20	40.678
698.52	39.394
698.84	39.085
699.16	40.204
699.48	39.331
699.80	36.170
700.12	38.865
700.44	36.175
700.76	37.767
701.08	39.952
701.40	37.565
701.72	34.328
702.04	37.433
702.36	35.602
702.68	38.142
703.00	34.719
703.32	39.163
703.64	36.430
703.96	34.368
704.28	36.855
704.60	37.722
704.91	38.010
705.23	39.452
705.55	33.983
705.87	38.485
706.19	36.503
706.51	36.446
706.83	39.769
707.15	39.153
707.47	37.850
707.79	37.555
708.11	35.381
708.43	35.484
708.74	39.063
709.06	38.747
709.38	36.854
709.70	41.191
710.02	34.884
710.34	35.904
710.66	34.637
710.98	37.978
711.29	35.714
711.61	37.571
711.93	38.462
712.25	34.324
712.57	38.938
712.89	37.647
713.20	34.615
713.52	37.572
713.84	34.262
714.16	36.316
714.48	36.598
714.80	39.740
715.11	38.058
715.43	34.748
715.75	38.158
716.07	33.978
716.39	36.066
716.70	33.434
717.02	35.738
717.34	31.010
717.66	34.899
717.97	32.534
718.29	35.395
718.61	34.211
718.93	31.068
719.24	34.472
719.56	38.650
719.88	37.538
720.20	34.516
720.51	33.851
720.83	34.063
721.15	33.882
721.46	34.247
721.78	37.333
722.10	33.010
722.42	31.879
722.73	34.839
723.05	35.439
723.37	38.542
723.68	36.201
724.00	35.740
724.32	36.268
724.63	31.119
724.95	38.652
725.27	33.798
725.58	34.629
725.90	41.379
726.22	35.737
726.53	35.390
726.85	36.792
727.16	33.233
727.48	36.086
727.80	40.066
728.11	35.336
728.43	35.354
728.74	35.452
729.06	37.417
729.38	34.091
729.69	38.255
730.01	37.798
730.32	35.758
730.64	42.453
730.96	34.472
731.27	36.592
731.59	39.011
731.90	37.662
732.22	37.500
732.53	35.359
732.85	38.000
733.16	35.777
733.48	37.500
733.80	36.769
734.11	31.339
734.43	37.838
734.74	42.532
735.06	36.683
735.37	41.351
735.69	37.568
736.00	39.266
736.32	37.466
736.63	38.611
736.95	38.218
737.26	38.788
737.58	35.455
737.89	36.765
738.21	34.557
738.52	36.393
738.83	37.543
739.15	36.879
739.46	38.095
739.78	37.117
740.09	34.670
740.41	38.776
740.72	37.000
741.04	37.864
741.35	36.842
741.66	36.863
741.98	32.787
742.29	31.799
742.61	33.772
742.92	31.538
743.23	35.018
743.55	31.783
743.86	33.200
744.18	30.165
744.49	29.958
744.80	32.922
745.12	33.755
745.43	42.683
745.74	37.500
746.06	40.678
746.37	38.397
746.68	41.057
747.00	34.167
747.31	33.047
747.62	36.538
747.94	36.032
748.25	30.120
748.56	36.327
748.88	36.325
749.19	36.638
749.50	38.961
749.82	38.153
750.13	38.078
750.44	34.333
750.75	39.385
751.07	37.538
751.38	37.855
751.69	35.783
752.01	33.333
752.32	36.275
752.63	37.075
752.94	35.640
753.26	28.996
753.57	32.593
753.88	35.581
754.19	35.370
754.51	36.334
754.82	37.621
755.13	36.393
755.44	34.812
755.75	38.158
756.07	37.612
756.38	39.623
756.69	39.157
757.00	35.180
757.31	35.519
757.63	35.806
757.94	38.263
758.25	38.600
758.56	36.601
758.87	38.864
759.18	34.933
759.50	37.960
759.81	38.655
760.12	40.162
760.43	36.198
760.74	39.409
761.05	36.750
761.36	38.072
761.67	37.310
761.99	33.243
762.30	35.671
762.61	36.304
762.92	31.343
763.23	32.959
763.54	37.770
763.85	35.052
764.16	39.057
764.47	39.085
764.78	39.617
765.10	33.724
765.41	41.795
765.72	34.656
766.03	37.006
766.34	34.796
766.65	32.404
766.96	29.880
767.27	35.945
767.58	31.343
767.89	37.019
768.20	31.455
768.51	35.185
768.82	39.759
769.13	35.227
769.44	33.077
769.75	36.823
770.06	36.923
770.37	36.220
770.68	33.191
770.99	30.364
771.30	43.333
771.61	31.939
771.92	33.333
772.23	34.413
772.54	29.167
772.85	32.719
773.16	32.857
773.47	33.333
773.78	28.649
774.09	28.977
774.39	35.000
774.70	38.798
775.01	26.220
775.32	25.882
775.63	24.540
775.94	23.567
776.25	30.323
776.56	29.487
776.87	31.973
777.18	26.207
777.48	27.273
777.79	20.946
778.10	19.853
778.41	26.389
778.72	31.724
779.03	29.012
779.34	32.727
779.65	32.642
779.95	28.889
780.26	21.591
780.57	29.677
780.88	32.609
781.19	30.968
781.50	32.353
781.80	34.946
782.11	36.508
782.42	22.727
782.73	30.539
783.04	32.402
783.34	27.879
783.65	28.758
783.96	37.267
784.27	21.429
784.57	33.775
784.88	25.000
785.19	22.047
785.50	19.685
785.81	27.068
786.11	23.846
786.42	28.777
786.73	23.022
787.04	23.308
787.34	20.492
787.65	31.200
787.96	25.373
788.26	31.469
788.57	27.273
788.88	24.342
789.19	32.026
789.49	19.178
789.80	20.567
790.11	20.472
790.41	18.750
790.72	21.186
791.03	13.592
791.33	22.609
791.64	21.930
791.95	20.536
792.25	26.667
792.56	17.857
792.87	18.750
793.17	16.071
793.48	16.667
793.79	14.458
794.09	22.936
794.40	31.193
794.70	24.490
795.01	21.429
795.32	20.548
795.62	28.873
795.93	20.455
796.23	22.131
796.54	22.321
796.85	14.894
797.15	7.609
797.46	13.699
797.76	17.500
798.07	19.565
798.37	17.526
798.68	15.584
798.99	10.345
799.29	16.854
799.60	22.340
799.90	7.229
800.21	9.231
800.51	20.896
800.82	5.882
801.12	5.479
801.43	0.000
801.73	0.000
802.04	-1.515
802.34	10.000
802.65	1.695
802.95	17.910
803.26	0.000
803.56	20.548
803.87	18.571
804.17	9.589
804.48	0.000
804.78	1.389
805.09	-8.621
805.39	4.054
805.70	8.451
806.00	23.171
806.30	10.843
806.61	13.699
806.91	13.462
807.22	21.111
807.52	8.046
807.83	22.222
808.13	16.867
808.43	16.854
808.74	11.250
809.04	-7.353
809.35	-2.667
809.65	-7.143
809.95	13.699
810.26	-14.035
810.56	1.724
810.86	5.882
811.17	1.754
811.47	-9.836
811.77	-13.333
812.08	0.000
812.38	0.000
812.69	5.172
812.99	-15.094
813.29	-35.897
813.59	22.000
813.90	21.053
814.20	-1.818
814.50	14.085
814.81	12.821
815.11	9.836
815.41	-4.478
815.72	8.621
816.02	5.357
816.32	4.444
816.62	-4.545
816.93	-13.333
817.23	-5.556
817.53	-2.128
817.84	-4.762
818.14	-26.471
818.44	4.082
818.74	-4.444
819.04	-30.769
819.35	-57.143
819.65	-46.154
819.95	5.660
820.25	6.667
820.56	-35.714
820.86	-25.000
821.16	-35.897
821.46	-20.930
821.76	-18.000
822.07	0.000
822.37	-8.696
822.67	-6.383
822.97	-48.649
823.27	-10.000
823.57	0.000
823.88	-6.667
824.18	2.500
824.48	-50.000
824.78	16.000
825.08	-3.030
825.38	-13.333
825.69	14.894
825.99	5.556
826.29	-42.857
826.59	-25.641
826.89	-37.209
827.19	-12.000
827.49	-8.824
827.79	-4.167
828.09	-24.324
828.39	-26.667
828.70	-17.073
829.00	-4.651
829.30	-46.429
829.60	-17.647
829.90	-13.043
830.20	-37.143
830.50	-62.069
830.80	-100.000
831.10	-50.000
831.40	-17.647
831.70	-19.048
832.00	-9.677
832.30	-135.294
832.60	-62.500
832.90	-146.154
833.20	-57.895
833.50	-90.000
833.80	-63.158
834.10	-85.714
834.40	11.111
834.70	-18.750
835.00	-45.714
835.30	-20.588
835.60	-26.667
835.90	-60.000
836.20	-131.818
836.50	-36.000
836.80	-30.303
837.10	-62.963
837.40	-51.852
837.70	-100.000
838.00	-7.143
838.30	-47.826
838.60	-58.621
838.90	-114.286
839.19	-100.000
839.49	-133.333
839.79	-52.174
840.09	-81.250
840.39	-40.000
840.69	-25.806
840.99	-57.143
841.29	-133.333
841.59	-142.105
841.88	-10.256
842.18	-53.846
842.48	-160.000
842.78	-75.000
843.08	-26.667
843.38	-16.129
843.68	-94.444
843.97	-23.529
844.27	-62.500
844.57	-84.211
844.87	-260.000
845.17	-126.667
845.47	-61.905
845.76	-61.905
846.06	-166.667
846.36	-76.471
846.66	-46.154
846.96	-133.333
847.25	-100.000
847.55	-21.739
847.85	-40.000
848.15	-111.765
848.44	-227.273
848.74	-19.048
849.04	-75.000
849.34	-118.750
849.63	-34.783
849.93	800.000
850.23	-120.000
850.53	-61.538
850.82	-127.273
851.12	-18.182
851.42	-181.818
851.71	-7.692
852.01	-125.000
852.31	-123.077
852.61	-136.842
852.90	-200.000
853.20	-44.444
853.50	-266.667
853.79	-100.000
854.09	-50.000
854.39	-191.667
854.68	-35.484
854.98	-50.000
855.28	-61.111
855.57	-64.286
855.87	-68.000
856.17	-54.545
856.46	7.407
856.76	-94.444
857.05	-108.696
857.35	-50.000
857.65	-92.308
857.94	-66.667
858.24	-51.852
858.53	-26.087
858.83	-52.941
859.13	-70.588
859.42	-64.706
859.72	-121.429
860.01	-90.000
860.31	-155.556
860.60	-210.000
860.90	-133.333
861.20	-133.333
861.49	-138.462
861.79	-26.667
862.08	-153.846
862.38	-31.250
862.67	-94.118
862.97	-87.500
863.26	-355.556
863.56	-240.000
863.85	-154.545
864.15	-66.667
864.44	-733.333
864.74	-142.857
865.03	-112.500
865.33	-130.000
865.62	-67.742
865.92	-36.364
866.21	-56.522
866.51	-107.143
866.80	-700.000
867.10	-183.333
867.39	-233.333
867.69	2400.000
867.98	-242.857
868.27	-47.059
868.57	-3100.000
868.86	-230.000
869.16	-95.238
869.45	-45.833
869.75	-109.091
870.04	-300.000
870.33	-125.000
870.63	-385.714
870.92	-475.000
871.22	-312.500
871.51	-181.818
871.80	-1200.000
872.10	-900.000
>>>>>End Processed Spectral Data<<<<<
