SpectraSuite Data File
++++++++++++++++++++++++++++++++++++
Date: Thu May 14 15:16:38 PDT 2015
User: schluterlab
Dark Spectrum Present: Yes
Reference Spectrum Present: Yes
Number of Sampled Component Spectra: 1
Spectrometers: USB2E3373
Integration Time (usec): 3000 (USB2E3373)
Spectra Averaged: 3 (USB2E3373)
Boxcar Smoothing: 0 (USB2E3373)
Correct for Electrical Dark: No (USB2E3373)
Strobe/Lamp Enabled: No (USB2E3373)
Correct for Detector Non-linearity: No (USB2E3373)
Correct for Stray Light: No (USB2E3373)
Number of Pixels in Processed Spectrum: 2048
>>>>>Begin Processed Spectral Data<<<<<
178.53	0.000
178.91	542.857
179.29	-5100.000
179.67	-4300.000
180.04	385.714
180.42	490.000
180.80	760.000
181.18	-3400.000
181.56	-3000.000
181.94	950.000
182.31	-975.000
182.69	1266.667
183.07	-1950.000
183.45	1125.000
183.83	-733.333
184.20	-1200.000
184.58	3600.000
184.96	-1075.000
185.34	-466.667
185.72	-740.000
186.09	555.556
186.47	2000.000
186.85	1040.000
187.23	-488.889
187.61	-4000.000
187.98	800.000
188.36	1075.000
188.74	-950.000
189.12	-1233.333
189.49	-212.500
189.87	-475.000
190.25	-344.444
190.63	-760.000
191.00	-533.333
191.38	0.000
191.76	-750.000
192.14	-750.000
192.51	1600.000
192.89	-583.333
193.27	0.000
193.65	-557.143
194.02	-5200.000
194.40	-542.857
194.78	485.714
195.15	0.000
195.53	-327.273
195.91	0.000
196.29	-1000.000
196.66	-292.308
197.04	-4800.000
197.42	-557.143
197.79	-2050.000
198.17	-462.500
198.55	-557.143
198.92	-255.556
199.30	-487.500
199.68	-263.636
200.05	-257.143
200.43	-2000.000
200.81	614.286
201.18	0.000
201.56	422.222
201.94	0.000
202.31	1466.667
202.69	-433.333
203.07	4200.000
203.44	-433.333
203.82	-775.000
204.19	-275.000
204.57	-566.667
204.95	-575.000
205.32	-3900.000
205.70	975.000
206.08	-733.333
206.45	-716.667
206.83	1040.000
207.20	-666.667
207.58	-840.000
207.96	-683.333
208.33	-583.333
208.71	316.667
209.08	-583.333
209.46	0.000
209.84	683.333
210.21	2150.000
210.59	2050.000
210.96	1533.333
211.34	-875.000
211.71	-487.500
212.09	-4400.000
212.46	0.000
212.84	2250.000
213.22	-880.000
213.59	-875.000
213.97	-430.000
214.34	-1333.333
214.72	533.333
215.09	-1100.000
215.47	0.000
215.84	471.429
216.22	2300.000
216.59	-900.000
216.97	-860.000
217.34	-900.000
217.72	-437.500
218.09	-1175.000
218.47	-950.000
218.84	0.000
219.22	720.000
219.59	-252.941
219.97	-155.000
220.34	2250.000
220.72	-433.333
221.09	-215.385
221.47	-1500.000
221.84	-300.000
222.22	-571.429
222.59	0.000
222.97	-425.000
223.34	-960.000
223.72	-5100.000
224.09	-925.000
224.46	-1250.000
224.84	-720.000
225.21	-642.857
225.59	-1025.000
225.96	-1125.000
226.34	-107.692
226.71	750.000
227.08	-1850.000
227.46	-226.667
227.83	-900.000
228.21	-147.368
228.58	475.000
228.95	2100.000
229.33	-250.000
229.70	-190.000
230.08	-126.316
230.45	380.000
230.82	-1066.667
231.20	-292.857
231.57	-241.667
231.95	-363.636
232.32	-290.909
232.69	-145.000
233.07	-850.000
233.44	-194.118
233.81	-380.000
234.19	-205.556
234.56	-131.818
234.93	-86.207
235.31	-131.579
235.68	-161.111
236.05	-185.000
236.43	-80.769
236.80	-68.000
237.17	-100.000
237.55	-72.727
237.92	-270.000
238.29	-80.645
238.67	-54.545
239.04	-50.000
239.41	-50.000
239.79	-39.130
240.16	-27.778
240.53	-36.957
240.91	-33.333
241.28	-11.475
241.65	5.970
242.02	9.459
242.40	-10.769
242.77	10.667
243.14	15.854
243.51	-15.789
243.89	-1.282
244.26	16.832
244.63	25.490
245.00	31.776
245.38	14.912
245.75	11.504
246.12	27.778
246.49	24.806
246.87	32.143
247.24	31.126
247.61	25.000
247.98	31.544
248.36	35.185
248.73	26.994
249.10	34.426
249.47	35.821
249.84	37.696
250.22	36.269
250.59	35.000
250.96	39.091
251.33	35.714
251.70	35.470
252.08	37.083
252.45	40.164
252.82	43.388
253.19	41.016
253.56	43.726
253.94	41.538
254.31	41.288
254.68	46.154
255.05	42.345
255.42	39.796
255.79	38.835
256.16	46.358
256.54	44.371
256.91	43.607
257.28	43.934
257.65	45.541
258.02	43.363
258.39	42.165
258.76	48.012
259.14	44.828
259.51	49.280
259.88	46.459
260.25	44.722
260.62	42.192
260.99	45.628
261.36	48.525
261.73	44.297
262.10	46.429
262.47	46.381
262.85	48.232
263.22	47.532
263.59	47.895
263.96	46.547
264.33	45.780
264.70	47.654
265.07	48.687
265.44	49.660
265.81	44.444
266.18	49.660
266.55	48.661
266.92	47.380
267.29	50.985
267.66	47.894
268.03	52.402
268.40	46.973
268.77	47.836
269.14	45.815
269.51	47.807
269.88	49.385
270.25	46.076
270.62	45.570
270.99	49.091
271.36	45.941
271.73	47.544
272.10	47.896
272.47	47.896
272.84	44.980
273.21	48.697
273.58	47.581
273.95	46.923
274.32	46.768
274.69	46.809
275.06	47.253
275.43	43.438
275.80	46.914
276.17	42.963
276.54	48.694
276.91	43.649
277.28	48.101
277.65	45.961
278.02	47.794
278.39	45.652
278.76	46.749
279.13	45.390
279.50	46.392
279.87	44.186
280.23	40.317
280.60	44.746
280.97	47.039
281.34	47.029
281.71	47.039
282.08	43.023
282.45	44.354
282.82	43.328
283.19	47.334
283.56	44.426
283.92	46.547
284.29	45.656
284.66	44.992
285.03	42.788
285.40	43.895
285.77	44.582
286.14	45.649
286.51	44.901
286.87	43.760
287.24	41.566
287.61	44.096
287.98	41.541
288.35	42.012
288.72	42.160
289.08	43.045
289.45	39.645
289.82	39.307
290.19	42.529
290.56	40.423
290.93	39.658
291.29	41.047
291.66	39.394
292.03	37.449
292.40	39.184
292.77	39.488
293.13	36.806
293.50	37.582
293.87	39.463
294.24	38.133
294.60	37.421
294.97	34.094
295.34	35.467
295.71	36.066
296.08	38.372
296.44	35.049
296.81	35.932
297.18	34.745
297.55	33.962
297.91	35.587
298.28	33.886
298.65	35.315
299.02	32.586
299.38	33.867
299.75	33.411
300.12	33.333
300.48	33.065
300.85	34.758
301.22	31.767
301.59	33.904
301.95	31.977
302.32	32.111
302.69	33.625
303.05	33.515
303.42	30.710
303.79	33.438
304.15	32.702
304.52	32.347
304.89	32.042
305.25	31.159
305.62	32.079
305.99	31.134
306.35	32.560
306.72	32.575
307.09	32.284
307.45	30.952
307.82	31.382
308.19	31.685
308.55	32.401
308.92	30.088
309.29	31.226
309.65	31.774
310.02	30.297
310.38	29.724
310.75	31.553
311.12	31.448
311.48	31.085
311.85	29.630
312.22	31.879
312.58	30.047
312.95	29.828
313.31	30.894
313.68	30.311
314.05	31.798
314.41	30.328
314.78	31.426
315.14	32.214
315.51	29.640
315.87	30.603
316.24	30.502
316.61	31.883
316.97	31.674
317.34	30.423
317.70	31.441
318.07	31.481
318.43	30.697
318.80	31.773
319.16	31.931
319.53	30.249
319.89	30.675
320.26	30.338
320.62	30.496
320.99	30.656
321.35	30.684
321.72	31.628
322.08	30.478
322.45	32.340
322.81	31.047
323.18	31.770
323.54	31.724
323.91	31.851
324.27	31.583
324.64	33.165
325.00	32.172
325.37	32.187
325.73	32.066
326.10	33.658
326.46	33.550
326.83	33.227
327.19	32.913
327.56	34.150
327.92	32.573
328.29	32.177
328.65	33.082
329.01	33.926
329.38	34.878
329.74	35.188
330.11	34.332
330.47	33.951
330.84	34.022
331.20	34.667
331.56	34.402
331.93	34.728
332.29	34.492
332.66	33.140
333.02	34.422
333.38	34.983
333.75	33.923
334.11	33.945
334.48	34.406
334.84	34.579
335.20	33.837
335.57	33.811
335.93	33.636
336.29	33.527
336.66	33.053
337.02	32.860
337.38	35.204
337.75	33.471
338.11	34.483
338.47	32.837
338.84	33.926
339.20	31.508
339.56	34.432
339.93	33.087
340.29	31.884
340.65	32.603
341.02	33.360
341.38	34.034
341.74	32.526
342.11	34.352
342.47	31.771
342.83	33.816
343.20	33.115
343.56	32.638
343.92	32.506
344.28	32.500
344.65	32.713
345.01	33.073
345.37	32.115
345.73	32.424
346.10	33.853
346.46	32.832
346.82	32.434
347.19	31.780
347.55	32.170
347.91	32.318
348.27	32.018
348.63	31.683
349.00	31.916
349.36	32.491
349.72	33.780
350.08	31.724
350.45	32.852
350.81	32.278
351.17	31.579
351.53	32.449
351.89	32.878
352.26	31.119
352.62	33.134
352.98	31.145
353.34	31.665
353.70	31.895
354.07	31.967
354.43	31.967
354.79	31.638
355.15	31.494
355.51	32.749
355.87	31.937
356.24	32.852
356.60	31.412
356.96	32.172
357.32	30.632
357.68	31.040
358.04	30.614
358.40	32.015
358.77	31.506
359.13	30.133
359.49	31.004
359.85	30.529
360.21	30.631
360.57	30.869
360.93	31.382
361.29	32.211
361.66	30.992
362.02	32.985
362.38	31.131
362.74	31.774
363.10	31.155
363.46	31.510
363.82	30.611
364.18	31.879
364.54	31.466
364.90	30.769
365.26	32.345
365.62	31.200
365.98	31.314
366.35	31.409
366.71	33.197
367.07	32.409
367.43	31.320
367.79	30.790
368.15	32.174
368.51	31.800
368.87	31.287
369.23	31.467
369.59	32.104
369.95	31.846
370.31	31.533
370.67	31.568
371.03	31.579
371.39	32.371
371.75	31.431
372.11	31.911
372.47	32.092
372.83	31.872
373.19	31.554
373.55	31.572
373.91	31.084
374.27	32.277
374.63	32.003
374.99	31.830
375.35	31.688
375.71	31.548
376.07	31.698
376.42	32.305
376.78	33.126
377.14	32.252
377.50	32.385
377.86	33.005
378.22	33.234
378.58	32.342
378.94	32.042
379.30	31.576
379.66	32.745
380.02	33.237
380.38	34.389
380.74	32.451
381.09	31.707
381.45	32.784
381.81	34.075
382.17	33.610
382.53	32.573
382.89	33.070
383.25	33.118
383.61	33.507
383.97	33.333
384.32	33.493
384.68	31.787
385.04	33.603
385.40	34.001
385.76	34.291
386.12	33.273
386.48	34.882
386.83	34.267
387.19	33.662
387.55	33.627
387.91	34.189
388.27	34.411
388.62	33.906
388.98	35.420
389.34	34.885
389.70	34.980
390.06	34.340
390.42	34.699
390.77	34.497
391.13	34.272
391.49	33.937
391.85	33.818
392.20	34.460
392.56	34.554
392.92	35.005
393.28	34.384
393.64	34.525
393.99	34.457
394.35	35.222
394.71	35.389
395.07	35.030
395.42	34.723
395.78	37.355
396.14	35.116
396.50	34.739
396.85	34.049
397.21	33.964
397.57	34.629
397.92	35.911
398.28	34.112
398.64	35.584
399.00	34.555
399.35	35.550
399.71	36.087
400.07	35.823
400.42	34.983
400.78	34.549
401.14	35.287
401.49	35.020
401.85	35.116
402.21	35.458
402.57	37.148
402.92	35.461
403.28	35.187
403.63	33.234
403.99	35.214
404.35	34.224
404.70	34.391
405.06	35.272
405.42	34.660
405.77	35.442
406.13	34.684
406.49	34.797
406.84	35.457
407.20	34.656
407.55	35.918
407.91	34.381
408.27	34.335
408.62	35.893
408.98	35.461
409.34	35.015
409.69	34.981
410.05	34.525
410.40	35.905
410.76	33.707
411.11	35.593
411.47	35.504
411.83	34.803
412.18	35.602
412.54	34.381
412.89	35.215
413.25	34.763
413.60	35.899
413.96	35.082
414.31	34.958
414.67	34.824
415.03	35.077
415.38	35.435
415.74	33.965
416.09	34.855
416.45	34.377
416.80	34.211
417.16	35.441
417.51	35.554
417.87	35.071
418.22	35.269
418.58	34.449
418.93	34.808
419.29	34.772
419.64	35.234
420.00	33.650
420.35	34.307
420.71	34.635
421.06	34.848
421.42	35.206
421.77	34.410
422.12	35.095
422.48	35.484
422.83	36.309
423.19	34.589
423.54	36.062
423.90	35.837
424.25	36.960
424.61	34.386
424.96	34.596
425.31	34.289
425.67	35.910
426.02	35.805
426.38	34.845
426.73	34.989
427.09	36.390
427.44	34.790
427.79	34.439
428.15	34.874
428.50	34.944
428.85	34.214
429.21	34.787
429.56	34.699
429.92	35.233
430.27	35.133
430.62	35.760
430.98	35.612
431.33	34.506
431.68	35.153
432.04	35.145
432.39	34.762
432.74	35.103
433.10	35.587
433.45	34.337
433.80	35.944
434.16	35.795
434.51	35.303
434.86	36.645
435.22	35.441
435.57	35.731
435.92	35.671
436.28	35.779
436.63	35.937
436.98	35.802
437.34	35.908
437.69	34.948
438.04	35.167
438.39	35.669
438.75	35.086
439.10	36.786
439.45	34.321
439.81	35.198
440.16	34.960
440.51	36.120
440.86	34.408
441.22	34.834
441.57	35.587
441.92	35.500
442.27	36.667
442.63	35.817
442.98	36.660
443.33	36.981
443.68	35.877
444.03	36.548
444.39	34.951
444.74	36.345
445.09	36.036
445.44	35.722
445.79	36.590
446.15	35.612
446.50	35.814
446.85	36.138
447.20	36.170
447.55	35.146
447.91	35.183
448.26	35.782
448.61	36.079
448.96	36.910
449.31	36.320
449.66	35.240
450.02	35.865
450.37	36.601
450.72	34.876
451.07	35.706
451.42	36.164
451.77	35.742
452.12	35.440
452.47	35.235
452.83	36.543
453.18	34.910
453.53	34.922
453.88	35.616
454.23	35.198
454.58	36.448
454.93	35.255
455.28	36.183
455.63	35.532
455.98	35.698
456.34	34.923
456.69	35.156
457.04	35.697
457.39	36.253
457.74	36.409
458.09	35.530
458.44	36.207
458.79	35.224
459.14	36.287
459.49	35.371
459.84	36.569
460.19	34.981
460.54	36.513
460.89	36.421
461.24	34.540
461.59	35.750
461.94	34.569
462.29	35.162
462.64	35.788
462.99	35.217
463.34	35.691
463.69	33.998
464.04	35.520
464.39	35.146
464.74	34.721
465.09	34.890
465.44	34.871
465.79	36.647
466.14	35.383
466.49	36.105
466.84	36.639
467.19	35.954
467.54	34.548
467.89	35.115
468.24	34.903
468.59	33.758
468.94	34.907
469.29	35.153
469.64	34.329
469.99	34.863
470.34	35.149
470.68	35.202
471.03	35.691
471.38	34.140
471.73	33.745
472.08	34.518
472.43	35.099
472.78	35.202
473.13	34.956
473.48	34.622
473.83	35.229
474.17	33.880
474.52	34.997
474.87	34.994
475.22	34.930
475.57	34.787
475.92	35.590
476.27	35.250
476.61	35.047
476.96	34.411
477.31	35.644
477.66	34.942
478.01	34.469
478.36	35.444
478.70	35.862
479.05	35.327
479.40	35.390
479.75	35.255
480.10	34.865
480.45	35.460
480.79	35.057
481.14	35.248
481.49	35.075
481.84	35.770
482.19	35.871
482.53	35.505
482.88	36.730
483.23	35.482
483.58	34.148
483.92	34.796
484.27	35.351
484.62	35.149
484.97	35.692
485.31	35.093
485.66	33.135
486.01	35.143
486.36	37.502
486.70	40.222
487.05	41.343
487.40	39.006
487.75	38.041
488.09	37.194
488.44	35.327
488.79	35.211
489.13	34.902
489.48	33.903
489.83	34.085
490.17	33.900
490.52	34.524
490.87	34.560
491.22	34.922
491.56	35.367
491.91	34.191
492.26	34.271
492.60	34.587
492.95	34.445
493.30	34.827
493.64	34.823
493.99	34.342
494.34	34.582
494.68	34.433
495.03	34.714
495.37	35.198
495.72	34.603
496.07	35.057
496.41	34.363
496.76	35.405
497.11	35.244
497.45	35.606
497.80	35.140
498.14	34.694
498.49	34.789
498.84	34.004
499.18	33.558
499.53	34.978
499.87	35.297
500.22	34.194
500.56	34.638
500.91	35.606
501.26	34.500
501.60	34.158
501.95	34.998
502.29	34.182
502.64	34.718
502.98	35.246
503.33	34.730
503.67	34.453
504.02	34.545
504.36	35.612
504.71	35.048
505.06	34.197
505.40	34.369
505.75	34.699
506.09	35.221
506.44	34.587
506.78	34.633
507.13	34.670
507.47	34.581
507.82	34.564
508.16	34.608
508.51	34.083
508.85	35.286
509.19	34.533
509.54	35.207
509.88	34.386
510.23	35.746
510.57	34.848
510.92	34.446
511.26	33.766
511.61	33.559
511.95	34.700
512.30	34.170
512.64	34.583
512.98	33.317
513.33	33.468
513.67	34.523
514.02	35.360
514.36	34.066
514.70	34.479
515.05	33.942
515.39	35.013
515.74	33.616
516.08	32.964
516.42	35.583
516.77	34.227
517.11	33.832
517.46	34.836
517.80	34.153
518.14	34.984
518.49	33.839
518.83	34.007
519.17	33.980
519.52	34.067
519.86	34.055
520.20	33.972
520.55	33.133
520.89	34.065
521.23	34.003
521.58	34.068
521.92	32.635
522.26	32.360
522.61	34.201
522.95	33.910
523.29	33.391
523.64	32.904
523.98	34.740
524.32	35.530
524.66	33.865
525.01	32.956
525.35	33.084
525.69	32.831
526.04	33.180
526.38	34.310
526.72	33.968
527.06	34.545
527.41	34.402
527.75	34.382
528.09	34.179
528.43	33.511
528.78	33.642
529.12	32.741
529.46	33.952
529.80	34.153
530.15	34.145
530.49	32.266
530.83	34.002
531.17	33.751
531.51	33.333
531.86	34.135
532.20	34.512
532.54	33.094
532.88	34.182
533.22	33.294
533.57	34.160
533.91	33.838
534.25	34.539
534.59	34.253
534.93	34.578
535.27	35.042
535.62	35.247
535.96	34.573
536.30	34.665
536.64	34.114
536.98	35.055
537.32	34.198
537.66	33.500
538.01	33.233
538.35	34.409
538.69	34.195
539.03	34.457
539.37	33.392
539.71	34.775
540.05	33.753
540.39	33.496
540.73	34.123
541.07	34.151
541.42	32.959
541.76	34.104
542.10	33.172
542.44	33.313
542.78	33.151
543.12	34.625
543.46	34.127
543.80	33.213
544.14	33.752
544.48	34.752
544.82	34.710
545.16	33.631
545.50	33.673
545.84	33.742
546.18	34.753
546.52	33.949
546.86	34.277
547.20	33.142
547.54	33.645
547.88	32.791
548.22	33.918
548.56	33.587
548.90	34.627
549.24	33.799
549.58	33.438
549.92	33.418
550.26	32.492
550.60	33.440
550.94	33.312
551.28	33.399
551.62	33.356
551.96	33.010
552.30	34.353
552.64	33.603
552.98	35.122
553.32	33.891
553.66	34.341
554.00	34.048
554.34	33.655
554.68	33.183
555.02	33.574
555.36	34.320
555.69	31.326
556.03	33.796
556.37	34.355
556.71	33.925
557.05	34.121
557.39	33.643
557.73	33.620
558.07	32.848
558.41	32.492
558.75	32.928
559.08	33.681
559.42	32.579
559.76	33.243
560.10	32.954
560.44	32.916
560.78	34.688
561.12	33.867
561.45	34.063
561.79	33.516
562.13	33.826
562.47	33.231
562.81	32.975
563.15	33.838
563.48	34.431
563.82	33.313
564.16	32.950
564.50	34.505
564.84	33.156
565.17	34.412
565.51	34.407
565.85	34.917
566.19	33.929
566.52	34.231
566.86	34.409
567.20	33.551
567.54	34.201
567.88	35.219
568.21	35.870
568.55	35.875
568.89	36.087
569.23	36.037
569.56	36.147
569.90	36.957
570.24	37.538
570.57	37.428
570.91	36.314
571.25	37.113
571.59	37.239
571.92	37.287
572.26	37.877
572.60	37.510
572.93	37.100
573.27	36.949
573.61	36.739
573.95	36.465
574.28	37.211
574.62	37.881
574.96	37.208
575.29	37.321
575.63	37.376
575.97	37.293
576.30	36.714
576.64	37.127
576.98	37.722
577.31	37.210
577.65	38.031
577.98	37.764
578.32	37.636
578.66	38.014
578.99	37.518
579.33	37.483
579.67	37.081
580.00	36.997
580.34	37.435
580.67	36.320
581.01	37.365
581.35	37.386
581.68	37.090
582.02	37.932
582.35	39.296
582.69	39.223
583.02	38.778
583.36	38.221
583.70	37.469
584.03	36.597
584.37	36.633
584.70	36.112
585.04	35.620
585.37	36.920
585.71	37.217
586.04	36.724
586.38	37.094
586.72	36.601
587.05	36.940
587.39	37.173
587.72	37.129
588.06	36.799
588.39	37.018
588.73	36.561
589.06	36.541
589.40	36.263
589.73	36.054
590.07	36.141
590.40	36.173
590.73	35.313
591.07	35.741
591.40	34.759
591.74	35.533
592.07	35.688
592.41	35.331
592.74	35.747
593.08	35.892
593.41	36.250
593.75	36.839
594.08	37.019
594.41	36.795
594.75	35.603
595.08	35.464
595.42	35.909
595.75	36.390
596.09	36.123
596.42	35.794
596.75	34.581
597.09	34.667
597.42	34.565
597.75	34.771
598.09	34.643
598.42	34.861
598.76	35.002
599.09	35.244
599.42	35.233
599.76	35.556
600.09	35.869
600.42	35.402
600.76	36.427
601.09	35.247
601.42	34.672
601.76	34.655
602.09	35.096
602.42	34.497
602.76	34.502
603.09	34.141
603.42	35.585
603.76	34.989
604.09	35.344
604.42	34.679
604.76	34.094
605.09	34.065
605.42	35.407
605.75	33.923
606.09	34.864
606.42	34.294
606.75	33.846
607.09	33.986
607.42	34.489
607.75	34.506
608.08	34.373
608.42	33.333
608.75	33.831
609.08	33.489
609.41	34.274
609.75	32.857
610.08	34.081
610.41	33.772
610.74	33.739
611.07	34.281
611.41	34.305
611.74	34.134
612.07	32.959
612.40	32.842
612.73	33.643
613.07	32.861
613.40	34.023
613.73	33.317
614.06	33.710
614.39	33.042
614.72	32.363
615.06	32.964
615.39	32.383
615.72	33.128
616.05	33.074
616.38	34.006
616.71	33.281
617.05	32.428
617.38	32.584
617.71	32.991
618.04	32.488
618.37	33.169
618.70	32.410
619.03	32.258
619.36	31.813
619.69	31.326
620.03	31.576
620.36	30.859
620.69	32.572
621.02	31.102
621.35	31.713
621.68	32.321
622.01	30.320
622.34	30.335
622.67	31.340
623.00	30.297
623.33	31.918
623.66	31.582
623.99	30.086
624.32	31.514
624.65	30.759
624.99	31.599
625.32	32.071
625.65	30.344
625.98	30.169
626.31	30.829
626.64	31.136
626.97	29.407
627.30	29.537
627.63	29.707
627.96	30.556
628.29	28.560
628.62	28.799
628.95	29.886
629.28	29.057
629.61	29.714
629.94	28.201
630.26	28.475
630.59	29.706
630.92	27.792
631.25	29.338
631.58	28.625
631.91	28.022
632.24	28.722
632.57	27.609
632.90	27.984
633.23	26.939
633.56	26.020
633.89	25.517
634.22	28.690
634.55	26.931
634.88	26.623
635.20	29.602
635.53	27.232
635.86	27.844
636.19	27.466
636.52	27.848
636.85	28.498
637.18	27.339
637.51	26.882
637.83	26.910
638.16	26.498
638.49	26.878
638.82	25.705
639.15	24.284
639.48	26.097
639.81	25.520
640.13	27.562
640.46	24.121
640.79	23.529
641.12	27.578
641.45	24.090
641.77	26.059
642.10	24.672
642.43	23.138
642.76	25.745
643.09	23.425
643.41	23.669
643.74	24.000
644.07	24.138
644.40	21.782
644.73	24.964
645.05	22.614
645.38	24.317
645.71	23.460
646.04	23.816
646.36	22.482
646.69	23.160
647.02	26.453
647.35	21.527
647.67	24.960
648.00	24.841
648.33	24.324
648.66	23.680
648.98	25.034
649.31	26.522
649.64	25.764
649.96	25.199
650.29	22.531
650.62	22.065
650.94	22.673
651.27	21.407
651.60	22.222
651.92	22.492
652.25	24.023
652.58	22.558
652.90	22.093
653.23	25.634
653.56	22.397
653.88	26.826
654.21	24.225
654.54	24.422
654.86	23.796
655.19	24.969
655.52	31.524
655.84	36.937
656.17	42.955
656.49	60.470
656.82	65.521
657.15	51.706
657.47	39.361
657.80	28.940
658.13	22.000
658.45	27.740
658.78	32.526
659.10	29.836
659.43	27.618
659.75	25.172
660.08	22.969
660.41	21.754
660.73	20.068
661.06	19.090
661.38	20.734
661.71	20.345
662.03	22.046
662.36	22.182
662.68	21.013
663.01	20.708
663.33	22.684
663.66	22.344
663.98	20.000
664.31	20.826
664.63	19.461
664.96	19.601
665.28	20.871
665.61	22.552
665.93	20.000
666.26	21.685
666.58	17.159
666.91	20.561
667.23	18.667
667.56	18.540
667.88	21.600
668.21	21.484
668.53	19.305
668.86	18.664
669.18	19.145
669.50	19.881
669.83	17.600
670.15	18.898
670.48	21.627
670.80	18.929
671.13	20.794
671.45	18.307
671.77	22.222
672.10	21.000
672.42	21.521
672.75	21.198
673.07	22.836
673.39	20.801
673.72	23.154
674.04	23.966
674.37	19.678
674.69	20.459
675.01	21.524
675.34	18.130
675.66	19.850
675.98	22.948
676.31	19.727
676.63	20.152
676.95	20.498
677.28	19.556
677.60	16.929
677.92	18.042
678.25	22.486
678.57	19.573
678.89	23.549
679.22	17.247
679.54	22.222
679.86	21.017
680.18	19.900
680.51	22.013
680.83	21.768
681.15	21.724
681.48	20.553
681.80	20.898
682.12	21.853
682.44	19.699
682.77	20.567
683.09	20.455
683.41	22.093
683.73	19.545
684.06	20.295
684.38	22.004
684.70	22.083
685.02	20.998
685.34	20.799
685.67	20.662
685.99	22.239
686.31	20.349
686.63	20.379
686.96	20.505
687.28	21.173
687.60	20.370
687.92	20.096
688.24	22.871
688.56	19.310
688.89	18.149
689.21	21.331
689.53	18.824
689.85	18.343
690.17	20.741
690.49	19.721
690.82	16.634
691.14	19.231
691.46	19.694
691.78	21.731
692.10	21.101
692.42	18.571
692.74	18.149
693.06	19.074
693.39	21.632
693.71	21.241
694.03	18.959
694.35	20.190
694.67	17.454
694.99	16.383
695.31	15.673
695.63	16.883
695.95	17.805
696.27	18.022
696.59	18.142
696.91	17.568
697.23	18.462
697.56	18.330
697.88	19.318
698.20	20.339
698.52	21.212
698.84	19.958
699.16	18.776
699.48	19.456
699.80	14.043
700.12	18.559
700.44	17.281
700.76	16.152
701.08	15.012
701.40	16.580
701.72	14.677
702.04	16.310
702.36	14.398
702.68	17.115
703.00	15.648
703.32	17.980
703.64	16.381
703.96	17.422
704.28	16.216
704.60	15.443
704.91	16.327
705.23	12.877
705.55	14.206
705.87	14.242
706.19	15.337
706.51	10.241
706.83	13.256
707.15	14.550
707.47	16.822
707.79	18.996
708.11	15.678
708.43	18.925
708.74	17.187
709.06	17.401
709.38	18.075
709.70	18.362
710.02	14.212
710.34	14.628
710.66	11.732
710.98	15.301
711.29	12.088
711.61	12.994
711.93	15.670
712.25	15.135
712.57	17.699
712.89	13.824
713.20	11.538
713.52	14.162
713.84	13.092
714.16	12.632
714.48	11.856
714.80	15.844
715.11	15.748
715.43	15.119
715.75	13.421
716.07	17.680
716.39	16.667
716.70	15.361
717.02	14.426
717.34	8.014
717.66	13.087
717.97	11.301
718.29	9.278
718.61	7.895
718.93	11.650
719.24	13.043
719.56	16.871
719.88	10.811
720.20	13.226
720.51	8.696
720.83	10.312
721.15	8.224
721.46	10.616
721.78	14.000
722.10	10.032
722.42	11.074
722.73	9.677
723.05	12.632
723.37	11.806
723.68	11.828
724.00	12.996
724.32	15.141
724.63	10.490
724.95	11.702
725.27	9.756
725.58	10.601
725.90	18.276
726.22	13.166
726.53	16.558
726.85	16.981
727.16	16.616
727.48	13.150
727.80	17.881
728.11	9.541
728.43	13.805
728.74	10.702
729.06	9.603
729.38	13.961
729.69	12.081
730.01	11.905
730.32	10.303
730.64	14.780
730.96	17.081
731.27	13.408
731.59	15.110
731.90	15.584
732.22	12.500
732.53	12.983
732.85	14.000
733.16	15.836
733.48	14.329
733.80	13.649
734.11	15.954
734.43	19.459
734.74	23.797
735.06	16.834
735.37	19.459
735.69	17.297
736.00	16.949
736.32	14.016
736.63	15.000
736.95	16.379
737.26	14.545
737.58	14.545
737.89	15.294
738.21	13.150
738.52	12.459
738.83	12.628
739.15	14.894
739.46	15.646
739.78	15.031
740.09	15.186
740.41	19.825
740.72	11.333
741.04	10.680
741.35	9.825
741.66	10.196
741.98	7.787
742.29	11.297
742.61	13.158
742.92	8.462
743.23	12.996
743.55	8.140
743.86	10.000
744.18	3.306
744.49	4.219
744.80	11.111
745.12	13.924
745.43	12.195
745.74	6.466
746.06	10.593
746.37	8.439
746.68	11.789
747.00	9.167
747.31	7.725
747.62	13.846
747.94	10.931
748.25	7.631
748.56	11.020
748.88	8.974
749.19	9.052
749.50	6.494
749.82	13.253
750.13	16.014
750.44	13.667
750.75	11.692
751.07	12.923
751.38	14.196
751.69	10.863
752.01	11.650
752.32	12.745
752.63	9.864
752.94	8.651
753.26	7.063
753.57	10.370
753.88	12.734
754.19	13.826
754.51	12.219
754.82	19.936
755.13	16.066
755.44	14.334
755.75	13.816
756.07	15.522
756.38	12.264
756.69	17.470
757.00	14.404
757.31	13.115
757.63	15.345
757.94	16.901
758.25	20.090
758.56	17.865
758.87	18.409
759.18	17.067
759.50	16.431
759.81	16.246
760.12	18.329
760.43	14.844
760.74	17.734
761.05	14.750
761.36	18.072
761.67	16.497
761.99	17.297
762.30	10.061
762.61	10.561
762.92	10.448
763.23	9.738
763.54	13.669
763.85	10.997
764.16	10.101
764.47	14.437
764.78	15.974
765.10	17.009
765.41	18.718
765.72	14.286
766.03	16.102
766.34	15.987
766.65	9.756
766.96	11.155
767.27	6.912
767.58	4.478
767.89	8.173
768.20	1.878
768.51	5.556
768.82	11.647
769.13	6.439
769.44	7.692
769.75	9.747
770.06	10.769
770.37	15.354
770.68	7.660
770.99	11.336
771.30	18.889
771.61	9.506
771.92	14.444
772.23	12.955
772.54	11.111
772.85	17.051
773.16	7.619
773.47	4.233
773.78	-0.541
774.09	5.682
774.39	15.000
774.70	8.743
775.01	-7.317
775.32	0.588
775.63	2.454
775.94	-8.917
776.25	1.935
776.56	7.692
776.87	4.762
777.18	-4.828
777.48	-3.497
777.79	-6.757
778.10	-7.353
778.41	10.417
778.72	3.448
779.03	0.000
779.34	-1.818
779.65	5.181
779.95	7.222
780.26	4.545
780.57	1.290
780.88	2.174
781.19	1.290
781.50	3.529
781.80	10.753
782.11	5.820
782.42	2.525
782.73	4.192
783.04	6.145
783.34	-1.818
783.65	7.843
783.96	-6.832
784.27	1.786
784.57	2.649
784.88	2.857
785.19	-2.362
785.50	-3.150
785.81	-1.504
786.11	-3.846
786.42	-8.633
786.73	-3.597
787.04	0.752
787.34	-10.656
787.65	-8.800
787.96	-2.239
788.26	6.294
788.57	-1.399
788.88	4.605
789.19	7.190
789.49	0.685
789.80	-2.837
790.11	-8.661
790.41	0.781
790.72	-6.780
791.03	-22.330
791.33	-7.826
791.64	-7.895
791.95	-17.857
792.25	-17.143
792.56	-9.821
792.87	-14.583
793.17	-11.607
793.48	-10.417
793.79	-32.530
794.09	-9.174
794.40	-17.431
794.70	4.082
795.01	-5.195
795.32	-0.685
795.62	-2.113
795.93	-9.091
796.23	0.000
796.54	-11.607
796.85	-23.404
797.15	-21.739
797.46	-24.658
797.76	-36.250
798.07	-13.043
798.37	-27.835
798.68	-31.169
798.99	-26.437
799.29	-22.472
799.60	-10.638
799.90	-26.506
800.21	-30.769
800.51	-35.821
800.82	-41.176
801.12	-41.096
801.43	-42.647
801.73	-52.542
802.04	-39.394
802.34	-51.667
802.65	-47.458
802.95	-37.313
803.26	-49.153
803.56	-32.877
803.87	-32.857
804.17	-23.288
804.48	-54.386
804.78	-26.389
805.09	-55.172
805.39	-18.919
805.70	-49.296
806.00	-35.366
806.30	-30.120
806.61	-27.397
806.91	-14.423
807.22	-16.667
807.52	-17.241
807.83	-15.278
808.13	-9.639
808.43	-12.360
808.74	-23.750
809.04	-50.000
809.35	-32.000
809.65	-15.714
809.95	-20.548
810.26	-45.614
810.56	-50.000
810.86	-25.000
811.17	-52.632
811.47	-40.984
811.77	-82.222
812.08	-35.593
812.38	-43.333
812.69	-46.552
812.99	-69.811
813.29	-102.564
813.59	-52.000
813.90	-28.070
814.20	-47.273
814.50	-29.577
814.81	-32.051
815.11	-42.623
815.41	-29.851
815.72	-27.586
816.02	-39.286
816.32	-51.111
816.62	-52.273
816.93	-86.667
817.23	-40.741
817.53	-57.447
817.84	-50.000
818.14	-82.353
818.44	-55.102
818.74	-51.111
819.04	-94.872
819.35	-102.857
819.65	-115.385
819.95	-62.264
820.25	-75.556
820.56	-92.857
820.86	-112.500
821.16	-76.923
821.46	-76.744
821.76	-70.000
822.07	-33.929
822.37	-60.870
822.67	-46.809
822.97	-86.486
823.27	-87.500
823.57	-38.776
823.88	-44.444
824.18	-75.000
824.48	-106.667
824.78	-148.000
825.08	-121.212
825.38	-44.444
825.69	-55.319
825.99	-80.556
826.29	-120.000
826.59	-69.231
826.89	-72.093
827.19	-72.000
827.49	-114.706
827.79	-64.583
828.09	-108.108
828.39	-113.333
828.70	-90.244
829.00	-74.419
829.30	-135.714
829.60	-82.353
829.90	-63.043
830.20	-102.857
830.50	-131.034
830.80	-222.222
831.10	-123.077
831.40	-94.118
831.70	-147.619
832.00	-93.548
832.30	-341.176
832.60	-179.167
832.90	-292.308
833.20	-194.737
833.50	-150.000
833.80	-189.474
834.10	-238.095
834.40	-77.778
834.70	-75.000
835.00	-111.429
835.30	-94.118
835.60	-123.333
835.90	-112.000
836.20	-200.000
836.50	-108.000
836.80	-118.182
837.10	-111.111
837.40	-129.630
837.70	-256.250
838.00	-135.714
838.30	-191.304
838.60	-120.690
838.90	-278.571
839.19	-213.043
839.49	-408.333
839.79	-160.870
840.09	-237.500
840.39	-180.000
840.69	-119.355
840.99	-153.571
841.29	-246.667
841.59	-163.158
841.88	-66.667
842.18	-153.846
842.48	-470.000
842.78	-155.000
843.08	-103.333
843.38	-74.194
843.68	-233.333
843.97	-67.647
844.27	-193.750
844.57	-215.789
844.87	-400.000
845.17	-286.667
845.47	-142.857
845.76	-157.143
846.06	-477.778
846.36	-264.706
846.66	-165.385
846.96	-286.667
847.25	-264.706
847.55	-126.087
847.85	-175.000
848.15	-200.000
848.44	-381.818
848.74	-142.857
849.04	-150.000
849.34	-306.250
849.63	-156.522
849.93	1950.000
850.23	-240.000
850.53	-111.538
850.82	-418.182
851.12	-127.273
851.42	-318.182
851.71	-253.846
852.01	-235.000
852.31	-300.000
852.61	-226.316
852.90	-250.000
853.20	-183.333
853.50	-466.667
853.79	-190.476
854.09	-190.909
854.39	-400.000
854.68	-119.355
854.98	-157.692
855.28	-194.444
855.57	-153.571
855.87	-112.000
856.17	-109.091
856.46	-81.481
856.76	-194.444
857.05	-160.870
857.35	-125.000
857.65	-223.077
857.94	-147.619
858.24	-92.593
858.53	-130.435
858.83	-141.176
859.13	-194.118
859.42	-164.706
859.72	-192.857
860.01	-220.000
860.31	-400.000
860.60	-370.000
860.90	-240.000
861.20	-194.444
861.49	-284.615
861.79	-103.333
862.08	-323.077
862.38	-84.375
862.67	-252.941
862.97	-212.500
863.26	-411.111
863.56	-300.000
863.85	-381.818
864.15	-216.667
864.44	-1100.000
864.74	-221.429
865.03	-193.750
865.33	-450.000
865.62	-122.581
865.92	-122.727
866.21	-160.870
866.51	-264.286
866.80	-800.000
867.10	-266.667
867.39	-341.667
867.69	4700.000
867.98	-671.429
868.27	-200.000
868.57	-4400.000
868.86	-400.000
869.16	-190.476
869.45	-145.833
869.75	-236.364
870.04	-400.000
870.33	-325.000
870.63	-700.000
870.92	-1025.000
871.22	-587.500
871.51	-381.818
871.80	-1666.667
872.10	-2450.000
>>>>>End Processed Spectral Data<<<<<
