SpectraSuite Data File
++++++++++++++++++++++++++++++++++++
Date: Thu May 14 14:29:50 PDT 2015
User: schluterlab
Dark Spectrum Present: Yes
Reference Spectrum Present: Yes
Number of Sampled Component Spectra: 1
Spectrometers: USB2E3373
Integration Time (usec): 3000 (USB2E3373)
Spectra Averaged: 3 (USB2E3373)
Boxcar Smoothing: 0 (USB2E3373)
Correct for Electrical Dark: No (USB2E3373)
Strobe/Lamp Enabled: No (USB2E3373)
Correct for Detector Non-linearity: No (USB2E3373)
Correct for Stray Light: No (USB2E3373)
Number of Pixels in Processed Spectrum: 2048
>>>>>Begin Processed Spectral Data<<<<<
178.53	0.000
178.91	-57.143
179.29	0.000
179.67	1100.000
180.04	-0.000
180.42	-140.000
180.80	-160.000
181.18	1200.000
181.56	2500.000
181.94	-325.000
182.31	300.000
182.69	-500.000
183.07	1000.000
183.45	-150.000
183.83	216.667
184.20	433.333
184.58	-1000.000
184.96	650.000
185.34	188.889
185.72	460.000
186.09	-88.889
186.47	-350.000
186.85	-100.000
187.23	88.889
187.61	400.000
187.98	-360.000
188.36	-375.000
188.74	275.000
189.12	300.000
189.49	137.500
189.87	75.000
190.25	277.778
190.63	220.000
191.00	144.444
191.38	0.000
191.76	50.000
192.14	366.667
192.51	-850.000
192.89	300.000
193.27	0.000
193.65	171.429
194.02	1900.000
194.40	242.857
194.78	-100.000
195.15	0.000
195.53	163.636
195.91	0.000
196.29	575.000
196.66	130.769
197.04	600.000
197.42	214.286
197.79	650.000
198.17	162.500
198.55	171.429
198.92	188.889
199.30	87.500
199.68	136.364
200.05	178.571
200.43	300.000
200.81	-28.571
201.18	0.000
201.56	-77.778
201.94	0.000
202.31	-0.000
202.69	133.333
203.07	-2200.000
203.44	244.444
203.82	425.000
204.19	108.333
204.57	200.000
204.95	175.000
205.32	2100.000
205.70	-400.000
206.08	216.667
206.45	333.333
206.83	-80.000
207.20	283.333
207.58	80.000
207.96	233.333
208.33	300.000
208.71	-91.667
209.08	416.667
209.46	0.000
209.84	-100.000
210.21	-550.000
210.59	-350.000
210.96	-66.667
211.34	650.000
211.71	275.000
212.09	1100.000
212.46	0.000
212.84	-150.000
213.22	160.000
213.59	250.000
213.97	170.000
214.34	533.333
214.72	-233.333
215.09	425.000
215.47	0.000
215.84	-128.571
216.22	-450.000
216.59	360.000
216.97	280.000
217.34	350.000
217.72	200.000
218.09	275.000
218.47	325.000
218.84	0.000
219.22	-160.000
219.59	135.294
219.97	115.000
220.34	-600.000
220.72	66.667
221.09	161.538
221.47	266.667
221.84	160.000
222.22	85.714
222.59	0.000
222.97	125.000
223.34	140.000
223.72	600.000
224.09	275.000
224.46	200.000
224.84	340.000
225.21	57.143
225.59	300.000
225.96	400.000
226.34	103.846
226.71	-16.667
227.08	800.000
227.46	60.000
227.83	325.000
228.21	89.474
228.58	-150.000
228.95	-250.000
229.33	133.333
229.70	140.000
230.08	157.895
230.45	-110.000
230.82	366.667
231.20	135.714
231.57	91.667
231.95	181.818
232.32	154.545
232.69	80.000
233.07	400.000
233.44	70.588
233.81	170.000
234.19	144.444
234.56	131.818
234.93	75.862
235.31	152.632
235.68	100.000
236.05	0.000
236.43	65.385
236.80	100.000
237.17	96.296
237.55	57.576
237.92	100.000
238.29	61.290
238.67	20.455
239.04	52.778
239.41	57.143
239.79	54.348
240.16	38.889
240.53	36.957
240.91	45.098
241.28	47.541
241.65	38.806
242.02	44.595
242.40	38.462
242.77	40.000
243.14	25.610
243.51	26.316
243.89	30.769
244.26	38.614
244.63	32.353
245.00	27.103
245.38	32.456
245.75	14.159
246.12	23.016
246.49	23.256
246.87	27.143
247.24	31.126
247.61	30.921
247.98	24.161
248.36	24.691
248.73	27.607
249.10	18.033
249.47	26.866
249.84	26.178
250.22	25.907
250.59	18.333
250.96	22.727
251.33	23.980
251.70	20.513
252.08	23.750
252.45	25.820
252.82	23.967
253.19	21.875
253.56	22.814
253.94	22.692
254.31	20.833
254.68	20.979
255.05	23.779
255.42	17.687
255.79	18.770
256.16	20.199
256.54	19.205
256.91	22.295
257.28	20.000
257.65	18.153
258.02	17.994
258.39	20.513
258.76	25.688
259.14	22.414
259.51	22.478
259.88	20.397
260.25	18.333
260.62	21.918
260.99	23.497
261.36	24.397
261.73	19.894
262.10	21.154
262.47	21.984
262.85	25.000
263.22	21.299
263.59	16.842
263.96	21.483
264.33	18.159
264.70	21.975
265.07	21.718
265.44	22.676
265.81	22.222
266.18	19.274
266.55	20.759
266.92	19.818
267.29	21.007
267.66	20.621
268.03	20.087
268.40	19.415
268.77	17.312
269.14	19.604
269.51	19.518
269.88	19.877
270.25	18.913
270.62	20.886
270.99	21.414
271.36	20.198
271.73	18.468
272.10	18.437
272.47	19.840
272.84	19.478
273.21	19.439
273.58	17.742
273.95	15.962
274.32	17.871
274.69	19.536
275.06	17.033
275.43	17.930
275.80	18.871
276.17	18.148
276.54	18.843
276.91	16.995
277.28	20.072
277.65	16.338
278.02	18.015
278.39	17.029
278.76	17.223
279.13	17.021
279.50	18.213
279.87	17.710
280.23	16.549
280.60	17.458
280.97	18.421
281.34	17.827
281.71	18.443
282.08	17.276
282.45	16.694
282.82	17.739
283.19	15.832
283.56	16.230
283.92	18.018
284.29	18.799
284.66	18.227
285.03	15.224
285.40	18.547
285.77	17.183
286.14	18.779
286.51	16.286
286.87	17.378
287.24	17.470
287.61	16.143
287.98	15.861
288.35	16.716
288.72	17.751
289.08	17.570
289.45	14.941
289.82	16.867
290.19	15.230
290.56	16.620
290.93	17.118
291.29	15.427
291.66	15.289
292.03	13.704
292.40	18.231
292.77	15.499
293.13	16.103
293.50	14.060
293.87	13.020
294.24	16.267
294.60	17.193
294.97	13.154
295.34	14.341
295.71	13.619
296.08	13.824
296.44	14.461
296.81	14.738
297.18	13.699
297.55	14.976
297.91	15.065
298.28	14.100
298.65	14.150
299.02	13.341
299.38	15.332
299.75	13.668
300.12	14.236
300.48	13.018
300.85	13.386
301.22	13.982
301.59	13.356
301.95	14.237
302.32	14.333
302.69	13.034
303.05	13.602
303.42	13.304
303.79	13.438
304.15	13.880
304.52	13.742
304.89	13.298
305.25	13.872
305.62	14.420
305.99	14.433
306.35	13.306
306.72	13.650
307.09	12.893
307.45	14.079
307.82	13.925
308.19	13.824
308.55	14.561
308.92	13.632
309.29	12.931
309.65	15.010
310.02	14.950
310.38	14.567
310.75	13.592
311.12	14.669
311.48	13.587
311.85	15.100
312.22	14.231
312.58	14.930
312.95	15.010
313.31	15.086
313.68	15.659
314.05	15.808
314.41	16.485
314.78	15.077
315.14	15.699
315.51	16.343
315.87	16.652
316.24	16.347
316.61	16.696
316.97	16.018
317.34	16.402
317.70	17.642
318.07	17.372
318.43	17.177
318.80	17.475
319.16	17.082
319.53	15.596
319.89	17.266
320.26	16.904
320.62	18.174
320.99	18.467
321.35	17.560
321.72	19.256
322.08	17.854
322.45	17.706
322.81	18.682
323.18	17.522
323.54	17.500
323.91	19.662
324.27	19.105
324.64	19.479
325.00	19.486
325.37	20.311
325.73	19.835
326.10	20.681
326.46	20.684
326.83	20.897
327.19	20.630
327.56	20.474
327.92	19.512
328.29	20.323
328.65	19.849
329.01	19.374
329.38	21.483
329.74	21.661
330.11	22.603
330.47	21.230
330.84	20.241
331.20	21.250
331.56	20.711
331.93	21.255
332.29	22.881
332.66	21.595
333.02	21.357
333.38	20.973
333.75	22.896
334.11	22.352
334.48	21.287
334.84	22.855
335.20	20.655
335.57	22.428
335.93	22.231
336.29	21.880
336.66	22.204
337.02	22.659
337.38	23.129
337.75	20.992
338.11	23.213
338.47	21.423
338.84	22.166
339.20	21.398
339.56	22.076
339.93	22.003
340.29	22.061
340.65	22.628
341.02	22.187
341.38	22.312
341.74	22.276
342.11	22.285
342.47	20.413
342.83	24.477
343.20	22.404
343.56	21.171
343.92	22.338
344.28	22.656
344.65	22.171
345.01	22.933
345.37	23.173
345.73	20.966
346.10	22.231
346.46	22.547
346.82	22.397
347.19	22.918
347.55	21.700
347.91	21.917
348.27	22.686
348.63	22.163
349.00	21.551
349.36	22.082
349.72	21.280
350.08	21.842
350.45	21.369
350.81	22.247
351.17	21.278
351.53	22.290
351.89	22.703
352.26	22.910
352.62	21.866
352.98	23.053
353.34	20.612
353.70	22.111
354.07	22.727
354.43	22.551
354.79	21.092
355.15	22.149
355.51	22.661
355.87	21.391
356.24	23.422
356.60	21.656
356.96	23.870
357.32	22.156
357.68	21.449
358.04	22.380
358.40	21.940
358.77	21.418
359.13	21.418
359.49	20.967
359.85	21.682
360.21	22.597
360.57	22.039
360.93	21.439
361.29	22.175
361.66	21.941
362.02	23.173
362.38	22.347
362.74	22.696
363.10	23.177
363.46	22.438
363.82	22.656
364.18	24.068
364.54	22.545
364.90	22.742
365.26	21.310
365.62	22.867
365.98	22.668
366.35	22.685
366.71	23.401
367.07	23.004
367.43	23.047
367.79	23.026
368.15	23.679
368.51	22.869
368.87	23.187
369.23	23.067
369.59	22.404
369.95	22.380
370.31	23.160
370.67	22.902
371.03	23.684
371.39	23.103
371.75	23.865
372.11	23.713
372.47	23.426
372.83	23.757
373.19	24.616
373.55	23.374
373.91	22.972
374.27	23.415
374.63	23.275
374.99	23.674
375.35	24.545
375.71	23.161
376.07	24.338
376.42	23.615
376.78	24.798
377.14	24.080
377.50	24.984
377.86	25.000
378.22	25.150
378.58	24.792
378.94	23.944
379.30	24.780
379.66	25.044
380.02	25.505
380.38	25.518
380.74	25.352
381.09	25.552
381.45	24.773
381.81	26.054
382.17	25.238
382.53	25.380
382.89	25.226
383.25	26.495
383.61	25.000
383.97	25.618
384.32	26.316
384.68	25.348
385.04	26.431
385.40	26.400
385.76	27.022
386.12	25.972
386.48	26.647
386.83	27.235
387.19	26.941
387.55	26.526
387.91	27.169
388.27	27.483
388.62	27.491
388.98	26.170
389.34	27.342
389.70	27.600
390.06	26.939
390.42	27.410
390.77	27.393
391.13	27.817
391.49	28.563
391.85	28.061
392.20	28.114
392.56	28.943
392.92	28.190
393.28	27.750
393.64	27.095
393.99	28.472
394.35	28.271
394.71	28.802
395.07	27.425
395.42	27.870
395.78	30.286
396.14	28.996
396.50	27.553
396.85	27.907
397.21	29.053
397.57	28.975
397.92	29.267
398.28	27.702
398.64	28.490
399.00	26.649
399.35	28.220
399.71	29.239
400.07	29.534
400.42	28.580
400.78	28.762
401.14	30.279
401.49	29.449
401.85	29.070
402.21	30.185
402.57	30.106
402.92	29.196
403.28	28.923
403.63	29.535
403.99	28.563
404.35	28.994
404.70	29.348
405.06	29.130
405.42	29.274
405.77	29.280
406.13	29.822
406.49	28.660
406.84	29.363
407.20	29.458
407.55	30.527
407.91	29.793
408.27	29.918
408.62	30.599
408.98	30.122
409.34	29.032
409.69	30.902
410.05	30.657
410.40	30.046
410.76	31.408
411.11	30.333
411.47	30.037
411.83	30.805
412.18	30.904
412.54	31.120
412.89	30.442
413.25	30.813
413.60	30.040
413.96	30.769
414.31	30.595
414.67	31.127
415.03	30.646
415.38	31.715
415.74	30.727
416.09	32.141
416.45	30.307
416.80	30.294
417.16	32.056
417.51	30.262
417.87	31.024
418.22	31.557
418.58	30.173
418.93	31.141
419.29	31.134
419.64	30.612
420.00	31.632
420.35	31.443
420.71	31.763
421.06	30.937
421.42	32.167
421.77	30.964
422.12	31.501
422.48	31.029
422.83	31.490
423.19	31.830
423.54	32.467
423.90	31.695
424.25	31.787
424.61	32.262
424.96	32.180
425.31	32.113
425.67	31.938
426.02	32.319
426.38	31.745
426.73	31.808
427.09	33.276
427.44	32.004
427.79	32.504
428.15	33.390
428.50	32.584
428.85	32.664
429.21	33.245
429.56	32.774
429.92	33.219
430.27	33.108
430.62	32.145
430.98	32.514
431.33	33.040
431.68	32.040
432.04	33.570
432.39	33.423
432.74	33.333
433.10	33.856
433.45	32.441
433.80	34.388
434.16	32.076
434.51	34.532
434.86	33.659
435.22	33.953
435.57	34.965
435.92	35.170
436.28	34.869
436.63	35.172
436.98	33.763
437.34	34.273
437.69	34.012
438.04	34.162
438.39	34.922
438.75	34.090
439.10	35.042
439.45	34.768
439.81	34.124
440.16	34.048
440.51	34.560
440.86	34.797
441.22	35.745
441.57	35.639
441.92	34.724
442.27	34.899
442.63	33.979
442.98	35.592
443.33	34.561
443.68	34.936
444.03	36.453
444.39	35.090
444.74	35.375
445.09	34.871
445.44	36.512
445.79	35.201
446.15	35.560
446.50	35.452
446.85	35.506
447.20	35.638
447.55	34.937
447.91	35.340
448.26	35.571
448.61	35.494
448.96	36.427
449.31	35.684
449.66	36.057
450.02	35.970
450.37	36.388
450.72	35.630
451.07	36.959
451.42	35.760
451.77	35.019
452.12	37.585
452.47	37.077
452.83	36.092
453.18	35.377
453.53	35.956
453.88	36.444
454.23	36.271
454.58	37.377
454.93	36.044
455.28	36.183
455.63	36.839
455.98	36.983
456.34	37.633
456.69	36.626
457.04	37.116
457.39	36.973
457.74	37.136
458.09	36.738
458.44	36.530
458.79	36.307
459.14	36.550
459.49	36.389
459.84	36.988
460.19	37.035
460.54	37.479
460.89	36.792
461.24	36.839
461.59	36.801
461.94	36.167
462.29	38.242
462.64	37.477
462.99	37.602
463.34	37.962
463.69	37.046
464.04	38.355
464.39	37.444
464.74	37.286
465.09	36.851
465.44	36.534
465.79	36.859
466.14	36.634
466.49	36.632
466.84	38.072
467.19	37.399
467.54	37.074
467.89	37.126
468.24	38.283
468.59	38.159
468.94	37.529
469.29	37.073
469.64	38.144
469.99	38.113
470.34	38.181
470.68	38.414
471.03	38.572
471.38	37.802
471.73	38.296
472.08	38.008
472.43	37.688
472.78	37.846
473.13	38.622
473.48	38.006
473.83	38.073
474.17	38.042
474.52	39.206
474.87	37.763
475.22	38.141
475.57	37.487
475.92	38.278
476.27	37.220
476.61	38.214
476.96	38.686
477.31	38.465
477.66	38.562
478.01	38.383
478.36	37.188
478.70	38.473
479.05	39.059
479.40	38.944
479.75	38.184
480.10	38.939
480.45	38.149
480.79	38.639
481.14	38.006
481.49	39.255
481.84	38.512
482.19	38.366
482.53	38.391
482.88	39.256
483.23	38.684
483.58	38.079
483.92	38.076
484.27	38.357
484.62	37.583
484.97	38.453
485.31	37.733
485.66	37.159
486.01	35.531
486.36	35.849
486.70	35.806
487.05	36.371
487.40	36.615
487.75	36.972
488.09	37.729
488.44	37.207
488.79	38.111
489.13	38.414
489.48	38.447
489.83	38.270
490.17	38.113
490.52	38.300
490.87	38.621
491.22	39.125
491.56	38.951
491.91	39.032
492.26	39.031
492.60	39.353
492.95	38.877
493.30	39.399
493.64	38.852
493.99	39.561
494.34	38.589
494.68	38.887
495.03	39.427
495.37	38.837
495.72	38.730
496.07	38.913
496.41	39.082
496.76	40.075
497.11	38.981
497.45	38.843
497.80	39.005
498.14	39.592
498.49	39.476
498.84	39.488
499.18	40.216
499.53	38.789
499.87	39.341
500.22	38.157
500.56	38.866
500.91	39.725
501.26	39.545
501.60	38.621
501.95	39.557
502.29	39.315
502.64	40.140
502.98	39.474
503.33	38.661
503.67	38.857
504.02	38.616
504.36	39.187
504.71	39.320
505.06	39.472
505.40	39.625
505.75	39.390
506.09	40.055
506.44	40.297
506.78	40.505
507.13	39.880
507.47	40.313
507.82	40.862
508.16	40.057
508.51	39.475
508.85	39.773
509.19	39.839
509.54	40.394
509.88	40.165
510.23	41.622
510.57	40.744
510.92	40.203
511.26	40.308
511.61	39.739
511.95	40.068
512.30	40.522
512.64	40.730
512.98	40.170
513.33	41.431
513.67	40.796
514.02	41.594
514.36	40.205
514.70	40.938
515.05	41.137
515.39	41.680
515.74	41.782
516.08	40.676
516.42	41.811
516.77	42.534
517.11	41.980
517.46	41.304
517.80	41.529
518.14	42.165
518.49	42.245
518.83	41.299
519.17	41.195
519.52	41.143
519.86	41.816
520.20	42.013
520.55	42.607
520.89	42.568
521.23	41.764
521.58	41.751
521.92	42.436
522.26	42.211
522.61	42.477
522.95	42.099
523.29	43.161
523.64	41.312
523.98	42.099
524.32	43.496
524.66	41.719
525.01	40.940
525.35	41.930
525.69	42.053
526.04	41.160
526.38	41.954
526.72	42.042
527.06	42.639
527.41	42.449
527.75	42.933
528.09	42.326
528.43	43.043
528.78	41.734
529.12	42.661
529.46	40.304
529.80	41.476
530.15	42.783
530.49	43.060
530.83	42.680
531.17	43.250
531.51	42.780
531.86	42.488
532.20	43.354
532.54	42.130
532.88	42.848
533.22	41.839
533.57	41.662
533.91	41.134
534.25	42.171
534.59	41.897
534.93	41.200
535.27	42.366
535.62	42.126
535.96	41.836
536.30	41.011
536.64	42.402
536.98	43.050
537.32	41.420
537.66	42.483
538.01	40.544
538.35	41.900
538.69	41.406
539.03	42.060
539.37	42.226
539.71	41.742
540.05	42.446
540.39	40.892
540.73	40.801
541.07	41.631
541.42	41.583
541.76	41.459
542.10	43.245
542.44	41.961
542.78	40.998
543.12	40.882
543.46	41.270
543.80	41.127
544.14	41.352
544.48	43.026
544.82	42.789
545.16	41.801
545.50	41.702
545.84	40.355
546.18	42.654
546.52	41.975
546.86	41.321
547.20	41.476
547.54	40.449
547.88	40.325
548.22	41.462
548.56	42.247
548.90	41.134
549.24	41.763
549.58	41.514
549.92	41.837
550.26	42.913
550.60	40.459
550.94	42.109
551.28	42.376
551.62	41.712
551.96	40.065
552.30	42.065
552.64	41.755
552.98	41.547
553.32	42.958
553.66	42.572
554.00	42.560
554.34	41.506
554.68	40.090
555.02	41.656
555.36	42.209
555.69	41.640
556.03	40.921
556.37	41.364
556.71	40.900
557.05	41.661
557.39	40.677
557.73	42.206
558.07	42.384
558.41	42.525
558.75	41.920
559.08	41.475
559.42	41.701
559.76	41.723
560.10	40.322
560.44	43.140
560.78	42.000
561.12	42.180
561.45	41.484
561.79	41.026
562.13	41.220
562.47	40.012
562.81	42.468
563.15	41.225
563.48	42.262
563.82	41.173
564.16	41.187
564.50	41.478
564.84	40.767
565.17	41.353
565.51	40.219
565.85	41.271
566.19	40.150
566.52	40.784
566.86	40.464
567.20	40.131
567.54	40.520
567.88	40.469
568.21	39.970
568.55	39.808
568.89	38.901
569.23	39.079
569.56	38.101
569.90	38.418
570.24	37.707
570.57	38.198
570.91	36.987
571.25	36.882
571.59	36.905
571.92	36.620
572.26	36.845
572.60	36.828
572.93	36.849
573.27	36.920
573.61	36.713
573.95	36.489
574.28	36.300
574.62	35.903
574.96	35.708
575.29	35.426
575.63	35.643
575.97	35.665
576.30	35.381
576.64	35.839
576.98	35.718
577.31	35.545
577.65	36.504
577.98	35.410
578.32	35.264
578.66	35.243
578.99	35.388
579.33	35.594
579.67	36.197
580.00	35.559
580.34	35.820
580.67	35.305
581.01	35.612
581.35	36.041
581.68	34.960
582.02	35.293
582.35	35.235
582.69	34.964
583.02	34.984
583.36	35.716
583.70	35.878
584.03	35.805
584.37	35.843
584.70	36.039
585.04	35.968
585.37	35.440
585.71	35.318
586.04	35.667
586.38	35.283
586.72	35.447
587.05	35.457
587.39	36.325
587.72	35.455
588.06	35.662
588.39	36.346
588.73	36.032
589.06	36.230
589.40	36.816
589.73	36.793
590.07	37.102
590.40	36.782
590.73	37.116
591.07	37.453
591.40	36.742
591.74	37.361
592.07	37.799
592.41	37.500
592.74	36.102
593.08	36.688
593.41	37.095
593.75	36.897
594.08	36.353
594.41	35.994
594.75	36.068
595.08	36.743
595.42	36.753
595.75	36.422
596.09	37.309
596.42	36.367
596.75	37.939
597.09	37.818
597.42	37.068
597.75	37.397
598.09	37.817
598.42	36.832
598.76	36.683
599.09	36.953
599.42	35.903
599.76	34.995
600.09	36.837
600.42	36.136
600.76	36.129
601.09	36.077
601.42	36.389
601.76	36.690
602.09	36.026
602.42	37.186
602.76	36.827
603.09	37.518
603.42	37.139
603.76	36.082
604.09	37.828
604.42	36.477
604.76	35.883
605.09	37.615
605.42	36.204
605.75	36.654
606.09	36.693
606.42	36.009
606.75	36.394
607.09	36.367
607.42	37.225
607.75	37.085
608.08	36.504
608.42	36.397
608.75	37.604
609.08	37.309
609.41	36.789
609.75	37.188
610.08	37.599
610.41	36.534
610.74	36.891
611.07	37.389
611.41	36.861
611.74	38.245
612.07	37.681
612.40	37.357
612.73	37.848
613.07	37.017
613.40	37.247
613.73	37.843
614.06	37.782
614.39	37.804
614.72	38.622
615.06	37.632
615.39	37.748
615.72	37.251
616.05	37.008
616.38	38.295
616.71	38.088
617.05	37.540
617.38	39.112
617.71	38.337
618.04	37.669
618.37	39.180
618.70	39.310
619.03	38.292
619.36	38.656
619.69	39.526
620.03	39.109
620.36	39.080
620.69	38.927
621.02	39.698
621.35	41.147
621.68	39.769
622.01	40.427
622.34	39.540
622.67	41.168
623.00	38.462
623.33	39.151
623.66	39.818
623.99	38.841
624.32	39.831
624.65	38.353
624.99	40.572
625.32	39.582
625.65	39.042
625.98	38.102
626.31	39.546
626.64	40.366
626.97	39.535
627.30	39.332
627.63	40.810
627.96	40.315
628.29	39.767
628.62	40.722
628.95	41.543
629.28	41.206
629.61	40.741
629.94	41.088
630.26	40.847
630.59	41.364
630.92	41.212
631.25	43.023
631.58	42.467
631.91	42.081
632.24	43.324
632.57	42.220
632.90	42.728
633.23	43.878
633.56	43.163
633.89	42.045
634.22	42.412
634.55	43.319
634.88	43.831
635.20	44.133
635.53	44.181
635.86	42.795
636.19	42.736
636.52	42.511
636.85	42.492
637.18	42.516
637.51	42.258
637.83	43.300
638.16	44.355
638.49	43.427
638.82	43.292
639.15	42.841
639.48	45.266
639.81	41.917
640.13	45.112
640.46	42.303
640.79	45.466
641.12	43.975
641.45	44.793
641.77	49.037
642.10	44.488
642.43	45.213
642.76	43.631
643.09	44.658
643.41	45.098
643.74	45.241
644.07	47.310
644.40	44.837
644.73	46.009
645.05	45.081
645.38	45.612
645.71	46.188
646.04	45.768
646.36	44.088
646.69	46.933
647.02	47.248
647.35	45.496
647.67	47.987
648.00	45.382
648.33	46.697
648.66	45.221
648.98	44.490
649.31	42.355
649.64	43.559
649.96	42.175
650.29	43.811
650.62	44.413
650.94	43.093
651.27	42.964
651.60	44.298
651.92	46.505
652.25	45.007
652.58	43.191
652.90	44.331
653.23	45.070
653.56	43.509
653.88	44.663
654.21	42.676
654.54	44.075
654.86	43.484
655.19	41.531
655.52	35.595
655.84	30.020
656.17	37.637
656.49	53.756
656.82	60.473
657.15	47.199
657.47	34.840
657.80	26.336
658.13	20.355
658.45	27.481
658.78	33.698
659.10	33.536
659.43	34.740
659.75	36.157
660.08	37.087
660.41	38.958
660.73	40.137
661.06	44.493
661.38	45.614
661.71	44.828
662.03	42.681
662.36	47.227
662.68	47.467
663.01	44.956
663.33	50.851
663.66	46.886
663.98	46.923
664.31	48.405
664.63	43.353
664.96	46.098
665.28	43.920
665.61	45.629
665.93	44.286
666.26	45.161
666.58	44.280
666.91	48.785
667.23	47.810
667.56	47.732
667.88	47.200
668.21	45.313
668.53	42.664
668.86	48.134
669.18	48.065
669.50	44.930
669.83	46.200
670.15	47.244
670.48	47.421
670.80	46.463
671.13	44.234
671.45	44.882
671.77	46.328
672.10	43.333
672.42	43.042
672.75	43.472
673.07	42.687
673.39	44.376
673.72	43.792
674.04	45.345
674.37	46.869
674.69	44.974
675.01	44.381
675.34	46.565
675.66	44.382
675.98	45.709
676.31	44.727
676.63	44.487
676.95	45.785
677.28	45.161
677.60	44.094
677.92	43.954
678.25	45.155
678.57	45.730
678.89	44.369
679.22	43.031
679.54	43.761
679.86	41.864
680.18	43.947
680.51	40.409
680.83	44.354
681.15	44.138
681.48	46.287
681.80	44.214
682.12	45.629
682.44	43.239
682.77	41.844
683.09	43.939
683.41	46.705
683.73	44.592
684.06	43.173
684.38	42.039
684.70	43.986
685.02	43.201
685.34	41.431
685.67	40.063
685.99	42.178
686.31	39.680
686.63	40.284
686.96	40.852
687.28	41.857
687.60	41.582
687.92	39.228
688.24	41.569
688.56	41.379
688.89	46.461
689.21	44.814
689.53	42.745
689.85	43.590
690.17	42.593
690.49	43.426
690.82	46.733
691.14	42.915
691.46	44.359
691.78	44.751
692.10	41.468
692.42	42.500
692.74	43.194
693.06	38.519
693.39	44.023
693.71	40.789
694.03	42.193
694.35	41.714
694.67	43.532
694.99	42.553
695.31	43.488
695.63	45.671
695.95	44.306
696.27	46.154
696.59	46.460
696.91	45.045
697.23	43.956
697.56	41.344
697.88	41.477
698.20	44.633
698.52	45.076
698.84	44.075
699.16	44.286
699.48	40.167
699.80	41.702
700.12	44.978
700.44	43.548
700.76	44.418
701.08	44.552
701.40	49.482
701.72	45.025
702.04	45.989
702.36	47.382
702.68	40.342
703.00	44.254
703.32	46.798
703.64	44.254
703.96	44.630
704.28	42.260
704.60	45.063
704.91	45.663
705.23	46.027
705.55	45.682
705.87	46.364
706.19	47.853
706.51	43.373
706.83	46.110
707.15	42.593
707.47	44.393
707.79	41.485
708.11	39.619
708.43	41.290
708.74	41.295
709.06	42.923
709.38	44.601
709.70	46.650
710.02	46.512
710.34	44.415
710.66	43.855
710.98	43.443
711.29	46.703
711.61	50.282
711.93	49.288
712.25	43.784
712.57	46.608
712.89	47.647
713.20	43.195
713.52	48.555
713.84	45.404
714.16	46.842
714.48	43.557
714.80	44.675
715.11	45.144
715.43	43.236
715.75	42.105
716.07	44.199
716.39	45.628
716.70	44.880
717.02	49.508
717.34	45.993
717.66	48.993
717.97	41.438
718.29	44.330
718.61	42.105
718.93	49.515
719.24	46.584
719.56	42.638
719.88	43.243
720.20	44.839
720.51	44.720
720.83	45.938
721.15	43.421
721.46	44.178
721.78	47.667
722.10	39.482
722.42	45.302
722.73	42.581
723.05	45.263
723.37	43.403
723.68	49.821
724.00	50.903
724.32	42.606
724.63	47.203
724.95	42.908
725.27	47.038
725.58	43.816
725.90	44.828
726.22	46.395
726.53	47.403
726.85	44.025
727.16	44.713
727.48	44.343
727.80	44.371
728.11	45.583
728.43	48.822
728.74	41.137
729.06	43.046
729.38	43.182
729.69	44.631
730.01	41.964
730.32	41.818
730.64	41.824
730.96	46.273
731.27	41.061
731.59	44.505
731.90	41.299
732.22	42.187
732.53	42.541
732.85	41.714
733.16	43.109
733.48	42.073
733.80	44.011
734.11	42.165
734.43	41.351
734.74	42.532
735.06	41.960
735.37	41.622
735.69	44.054
736.00	44.350
736.32	36.927
736.63	42.778
736.95	43.103
737.26	39.394
737.58	42.727
737.89	45.294
738.21	43.119
738.52	42.623
738.83	42.321
739.15	47.518
739.46	44.898
739.78	43.252
740.09	41.261
740.41	45.190
740.72	44.000
741.04	43.366
741.35	40.351
741.66	45.490
741.98	49.180
742.29	47.280
742.61	50.000
742.92	46.154
743.23	46.209
743.55	46.512
743.86	47.200
744.18	46.281
744.49	48.523
744.80	50.617
745.12	45.570
745.43	44.715
745.74	50.431
746.06	43.644
746.37	46.414
746.68	52.439
747.00	46.250
747.31	46.781
747.62	45.000
747.94	46.154
748.25	43.373
748.56	44.082
748.88	41.880
749.19	50.000
749.50	45.455
749.82	47.791
750.13	46.263
750.44	47.000
750.75	43.385
751.07	40.615
751.38	45.110
751.69	41.214
752.01	44.013
752.32	43.791
752.63	44.218
752.94	40.830
753.26	43.866
753.57	40.370
753.88	42.697
754.19	46.302
754.51	39.228
754.82	42.765
755.13	42.623
755.44	41.638
755.75	42.434
756.07	46.269
756.38	41.509
756.69	41.265
757.00	36.011
757.31	38.798
757.63	37.852
757.94	36.620
758.25	37.923
758.56	38.562
758.87	38.864
759.18	40.533
759.50	42.210
759.81	38.655
760.12	39.084
760.43	41.927
760.74	40.640
761.05	40.500
761.36	37.590
761.67	40.863
761.99	40.000
762.30	42.073
762.61	36.964
762.92	39.552
763.23	45.693
763.54	47.842
763.85	39.519
764.16	42.761
764.47	47.535
764.78	43.770
765.10	39.296
765.41	41.026
765.72	34.392
766.03	41.243
766.34	36.991
766.65	41.463
766.96	45.418
767.27	47.465
767.58	44.279
767.89	48.558
768.20	43.662
768.51	44.907
768.82	44.177
769.13	41.288
769.44	39.615
769.75	39.350
770.06	42.308
770.37	44.094
770.68	40.426
770.99	35.628
771.30	44.074
771.61	40.304
771.92	38.148
772.23	43.320
772.54	42.130
772.85	51.152
773.16	44.286
773.47	49.735
773.78	43.243
774.09	53.409
774.39	47.500
774.70	53.005
775.01	39.634
775.32	46.471
775.63	49.693
775.94	43.312
776.25	49.032
776.56	53.205
776.87	46.259
777.18	58.621
777.48	46.154
777.79	47.297
778.10	45.588
778.41	54.861
778.72	48.276
779.03	51.235
779.34	44.242
779.65	47.150
779.95	42.778
780.26	47.727
780.57	50.323
780.88	55.072
781.19	50.323
781.50	50.588
781.80	40.323
782.11	44.974
782.42	40.909
782.73	51.497
783.04	45.810
783.34	44.848
783.65	41.830
783.96	49.689
784.27	45.833
784.57	44.371
784.88	46.429
785.19	47.244
785.50	51.969
785.81	49.624
786.11	52.308
786.42	51.079
786.73	50.360
787.04	45.113
787.34	52.459
787.65	52.800
787.96	48.507
788.26	48.252
788.57	49.650
788.88	46.053
789.19	41.176
789.49	50.685
789.80	43.972
790.11	45.669
790.41	48.438
790.72	43.220
791.03	41.748
791.33	42.609
791.64	57.018
791.95	38.393
792.25	51.429
792.56	48.214
792.87	48.958
793.17	62.500
793.48	35.417
793.79	44.578
794.09	47.706
794.40	54.128
794.70	48.299
795.01	41.558
795.32	29.452
795.62	52.817
795.93	42.424
796.23	45.082
796.54	52.679
796.85	43.617
797.15	46.739
797.46	50.685
797.76	57.500
798.07	59.783
798.37	43.299
798.68	53.247
798.99	59.770
799.29	51.685
799.60	43.617
799.90	53.012
800.21	66.154
800.51	44.776
800.82	50.000
801.12	46.575
801.43	55.882
801.73	59.322
802.04	56.061
802.34	50.000
802.65	59.322
802.95	65.672
803.26	49.153
803.56	54.795
803.87	55.714
804.17	60.274
804.48	45.614
804.78	45.833
805.09	68.966
805.39	58.108
805.70	47.887
806.00	59.756
806.30	59.036
806.61	61.644
806.91	52.885
807.22	54.444
807.52	41.379
807.83	61.111
808.13	51.807
808.43	40.449
808.74	47.500
809.04	45.588
809.35	44.000
809.65	55.714
809.95	57.534
810.26	42.105
810.56	56.897
810.86	60.294
811.17	63.158
811.47	60.656
811.77	55.556
812.08	59.322
812.38	73.333
812.69	75.862
812.99	45.283
813.29	71.795
813.59	76.000
813.90	59.649
814.20	54.545
814.50	61.972
814.81	48.718
815.11	62.295
815.41	49.254
815.72	65.517
816.02	53.571
816.32	66.667
816.62	88.636
816.93	60.000
817.23	61.111
817.53	65.957
817.84	50.000
818.14	73.529
818.44	57.143
818.74	91.111
819.04	66.667
819.35	65.714
819.65	61.538
819.95	60.377
820.25	57.778
820.56	57.143
820.86	56.250
821.16	94.872
821.46	76.744
821.76	40.000
822.07	50.000
822.37	67.391
822.67	59.574
822.97	40.541
823.27	55.000
823.57	53.061
823.88	75.556
824.18	67.500
824.48	86.667
824.78	112.000
825.08	93.939
825.38	75.556
825.69	72.340
825.99	86.111
826.29	40.000
826.59	69.231
826.89	37.209
827.19	58.000
827.49	82.353
827.79	79.167
828.09	64.865
828.39	53.333
828.70	65.854
829.00	74.419
829.30	71.429
829.60	88.235
829.90	54.348
830.20	77.143
830.50	82.759
830.80	111.111
831.10	53.846
831.40	64.706
831.70	133.333
832.00	122.581
832.30	76.471
832.60	83.333
832.90	107.692
833.20	105.263
833.50	120.000
833.80	110.526
834.10	42.857
834.40	105.556
834.70	112.500
835.00	71.429
835.30	100.000
835.60	80.000
835.90	88.000
836.20	22.727
836.50	112.000
836.80	75.758
837.10	92.593
837.40	114.815
837.70	93.750
838.00	67.857
838.30	43.478
838.60	75.862
838.90	135.714
839.19	65.217
839.49	141.667
839.79	134.783
840.09	118.750
840.39	80.000
840.69	67.742
840.99	42.857
841.29	120.000
841.59	121.053
841.88	92.308
842.18	53.846
842.48	150.000
842.78	105.000
843.08	86.667
843.38	83.871
843.68	33.333
843.97	79.412
844.27	156.250
844.57	84.211
844.87	160.000
845.17	80.000
845.47	133.333
845.76	76.190
846.06	155.556
846.36	111.765
846.66	80.769
846.96	120.000
847.25	164.706
847.55	113.043
847.85	70.000
848.15	158.824
848.44	145.455
848.74	114.286
849.04	87.500
849.34	93.750
849.63	108.696
849.93	-650.000
850.23	133.333
850.53	96.154
850.82	209.091
851.12	104.545
851.42	127.273
851.71	153.846
852.01	75.000
852.31	153.846
852.61	84.211
852.90	216.667
853.20	100.000
853.50	166.667
853.79	71.429
854.09	81.818
854.39	100.000
854.68	77.419
854.98	57.692
855.28	122.222
855.57	64.286
855.87	84.000
856.17	113.636
856.46	85.185
856.76	100.000
857.05	126.087
857.35	87.500
857.65	138.462
857.94	133.333
858.24	51.852
858.53	117.391
858.83	123.529
859.13	105.882
859.42	141.176
859.72	142.857
860.01	20.000
860.31	188.889
860.60	180.000
860.90	120.000
861.20	116.667
861.49	107.692
861.79	106.667
862.08	84.615
862.38	84.375
862.67	158.824
862.97	137.500
863.26	177.778
863.56	230.000
863.85	190.909
864.15	116.667
864.44	366.667
864.74	128.571
865.03	125.000
865.33	130.000
865.62	64.516
865.92	150.000
866.21	113.043
866.51	157.143
866.80	220.000
867.10	141.667
867.39	175.000
867.69	100.000
867.98	257.143
868.27	105.882
868.57	800.000
868.86	30.000
869.16	66.667
869.45	91.667
869.75	190.909
870.04	314.286
870.33	108.333
870.63	85.714
870.92	350.000
871.22	125.000
871.51	163.636
871.80	133.333
872.10	650.000
>>>>>End Processed Spectral Data<<<<<
