SpectraSuite Data File
++++++++++++++++++++++++++++++++++++
Date: Thu May 14 14:57:13 PDT 2015
User: schluterlab
Dark Spectrum Present: Yes
Reference Spectrum Present: Yes
Number of Sampled Component Spectra: 1
Spectrometers: USB2E3373
Integration Time (usec): 3000 (USB2E3373)
Spectra Averaged: 3 (USB2E3373)
Boxcar Smoothing: 0 (USB2E3373)
Correct for Electrical Dark: No (USB2E3373)
Strobe/Lamp Enabled: No (USB2E3373)
Correct for Detector Non-linearity: No (USB2E3373)
Correct for Stray Light: No (USB2E3373)
Number of Pixels in Processed Spectrum: 2048
>>>>>Begin Processed Spectral Data<<<<<
178.53	0.000
178.91	242.857
179.29	-2500.000
179.67	-2900.000
180.04	278.571
180.42	210.000
180.80	340.000
181.18	-2100.000
181.56	-1700.000
181.94	625.000
182.31	-500.000
182.69	966.667
183.07	-1000.000
183.45	850.000
183.83	-300.000
184.20	-466.667
184.58	1800.000
184.96	-525.000
185.34	-222.222
185.72	-160.000
186.09	288.889
186.47	1400.000
186.85	500.000
187.23	-233.333
187.61	-2800.000
187.98	220.000
188.36	600.000
188.74	-675.000
189.12	-566.667
189.49	-93.750
189.87	-312.500
190.25	-188.889
190.63	-420.000
191.00	-166.667
191.38	0.000
191.76	-475.000
192.14	-283.333
192.51	700.000
192.89	-150.000
193.27	0.000
193.65	-171.429
194.02	-2100.000
194.40	-157.143
194.78	300.000
195.15	0.000
195.53	-127.273
195.91	0.000
196.29	-300.000
196.66	-130.769
197.04	-3300.000
197.42	-300.000
197.79	-850.000
198.17	-287.500
198.55	-357.143
198.92	-188.889
199.30	-162.500
199.68	-36.364
200.05	-114.286
200.43	-1350.000
200.81	314.286
201.18	0.000
201.56	366.667
201.94	0.000
202.31	766.667
202.69	-433.333
203.07	1800.000
203.44	-111.111
203.82	-575.000
204.19	-150.000
204.57	-333.333
204.95	-287.500
205.32	-2900.000
205.70	475.000
206.08	-183.333
206.45	-50.000
206.83	680.000
207.20	-116.667
207.58	-260.000
207.96	-416.667
208.33	-250.000
208.71	216.667
209.08	-283.333
209.46	0.000
209.84	400.000
210.21	950.000
210.59	950.000
210.96	866.667
211.34	-350.000
211.71	-275.000
212.09	-1600.000
212.46	0.000
212.84	1250.000
213.22	-400.000
213.59	-300.000
213.97	-130.000
214.34	-666.667
214.72	250.000
215.09	-550.000
215.47	0.000
215.84	200.000
216.22	1100.000
216.59	-440.000
216.97	-340.000
217.34	-475.000
217.72	-237.500
218.09	-550.000
218.47	-600.000
218.84	0.000
219.22	340.000
219.59	-58.824
219.97	-60.000
220.34	1150.000
220.72	-233.333
221.09	-123.077
221.47	-566.667
221.84	-210.000
222.22	-271.429
222.59	0.000
222.97	-200.000
223.34	-540.000
223.72	-2100.000
224.09	-450.000
224.46	-725.000
224.84	-340.000
225.21	-357.143
225.59	-825.000
225.96	-425.000
226.34	-34.615
226.71	466.667
227.08	-550.000
227.46	-113.333
227.83	-450.000
228.21	-31.579
228.58	212.500
228.95	1350.000
229.33	-141.667
229.70	-140.000
230.08	-21.053
230.45	220.000
230.82	-733.333
231.20	-50.000
231.57	-183.333
231.95	-200.000
232.32	-200.000
232.69	-70.000
233.07	-325.000
233.44	-58.824
233.81	-240.000
234.19	0.000
234.56	-68.182
234.93	-24.138
235.31	-78.947
235.68	-116.667
236.05	-95.000
236.43	-15.385
236.80	-12.000
237.17	-33.333
237.55	-36.364
237.92	-310.000
238.29	-38.710
238.67	-11.364
239.04	-36.111
239.41	-35.714
239.79	-19.565
240.16	-22.222
240.53	-26.087
240.91	-37.255
241.28	-13.115
241.65	-16.418
242.02	-4.054
242.40	-15.385
242.77	-10.667
243.14	-23.171
243.51	-18.421
243.89	-25.641
244.26	-1.980
244.63	-5.882
245.00	-3.738
245.38	-8.772
245.75	-10.619
246.12	-2.381
246.49	-13.178
246.87	4.286
247.24	3.311
247.61	2.632
247.98	2.685
248.36	-0.617
248.73	-1.840
249.10	0.000
249.47	6.965
249.84	9.424
250.22	5.699
250.59	0.556
250.96	6.818
251.33	-2.041
251.70	6.410
252.08	0.417
252.45	5.328
252.82	2.479
253.19	2.344
253.56	6.844
253.94	5.385
254.31	4.167
254.68	10.490
255.05	7.492
255.42	7.823
255.79	6.472
256.16	6.954
256.54	2.649
256.91	8.197
257.28	6.885
257.65	6.051
258.02	4.425
258.39	8.262
258.76	8.563
259.14	8.621
259.51	6.628
259.88	5.099
260.25	8.611
260.62	9.315
260.99	11.475
261.36	10.456
261.73	9.019
262.10	8.242
262.47	6.702
262.85	7.828
263.22	6.494
263.59	9.737
263.96	8.184
264.33	4.092
264.70	10.617
265.07	10.979
265.44	11.565
265.81	9.028
266.18	11.111
266.55	8.036
266.92	8.656
267.29	9.847
267.66	8.869
268.03	8.079
268.40	8.977
268.77	6.834
269.14	9.251
269.51	8.333
269.88	10.246
270.25	9.256
270.62	10.338
270.99	12.929
271.36	10.891
271.73	10.020
272.10	11.222
272.47	10.822
272.84	9.237
273.21	8.617
273.58	8.871
273.95	11.154
274.32	8.365
274.69	7.737
275.06	11.905
275.43	8.133
275.80	12.522
276.17	7.778
276.54	8.209
276.91	10.197
277.28	9.946
277.65	10.413
278.02	10.846
278.39	9.058
278.76	8.612
279.13	9.574
279.50	9.450
279.87	9.660
280.23	7.218
280.60	10.169
280.97	10.033
281.34	9.338
281.71	9.645
282.08	10.299
282.45	7.365
282.82	9.733
283.19	9.370
283.56	8.525
283.92	11.862
284.29	10.585
284.66	10.673
285.03	8.333
285.40	10.201
285.77	8.204
286.14	11.145
286.51	9.132
286.87	8.215
287.24	9.187
287.61	8.969
287.98	9.215
288.35	10.059
288.72	10.651
289.08	9.663
289.45	6.805
289.82	8.735
290.19	9.770
290.56	9.577
290.93	11.270
291.29	8.678
291.66	8.815
292.03	8.005
292.40	8.980
292.77	7.278
293.13	7.848
293.50	8.016
293.87	8.591
294.24	8.000
294.60	8.723
294.97	8.054
295.34	9.603
295.71	6.936
296.08	7.881
296.44	8.578
296.81	8.404
297.18	7.098
297.55	7.901
297.91	7.473
298.28	7.938
298.65	8.086
299.02	8.264
299.38	9.153
299.75	6.192
300.12	6.713
300.48	8.180
300.85	7.424
301.22	7.159
301.59	6.050
301.95	7.006
302.32	8.889
302.69	8.215
303.05	8.052
303.42	7.650
303.79	7.604
304.15	7.571
304.52	6.765
304.89	7.539
305.25	7.246
305.62	6.061
305.99	8.144
306.35	6.855
306.72	8.687
307.09	8.122
307.45	6.108
307.82	7.064
308.19	6.357
308.55	7.522
308.92	6.816
309.29	6.992
309.65	6.823
310.02	7.525
310.38	7.087
310.75	7.184
311.12	7.478
311.48	6.061
311.85	6.553
312.22	7.590
312.58	7.793
312.95	6.597
313.31	7.678
313.68	7.326
314.05	8.130
314.41	7.195
314.78	7.357
315.14	7.350
315.51	7.941
315.87	7.471
316.24	7.763
316.61	8.082
316.97	6.516
317.34	6.878
317.70	7.948
318.07	7.584
318.43	8.503
318.80	9.197
319.16	6.609
319.53	6.769
319.89	6.924
320.26	7.651
320.62	8.067
320.99	7.479
321.35	7.486
321.72	8.279
322.08	7.033
322.45	7.407
322.81	7.310
323.18	7.522
323.54	7.155
323.91	7.384
324.27	7.487
324.64	8.396
325.00	7.463
325.37	7.289
325.73	7.355
326.10	8.516
326.46	7.166
326.83	8.327
327.19	8.268
327.56	7.589
327.92	7.160
328.29	7.177
328.65	6.784
329.01	7.614
329.38	7.329
329.74	6.935
330.11	6.849
330.47	7.666
330.84	7.924
331.20	8.083
331.56	7.539
331.93	8.870
332.29	8.051
332.66	7.641
333.02	7.454
333.38	7.299
333.75	7.407
334.11	8.507
334.48	7.343
334.84	7.647
335.20	6.549
335.57	8.432
335.93	8.678
336.29	7.155
336.66	7.738
337.02	7.358
337.38	8.673
337.75	6.694
338.11	7.569
338.47	8.106
338.84	7.445
339.20	6.403
339.56	7.908
339.93	7.635
340.29	7.568
340.65	7.299
341.02	8.699
341.38	7.922
341.74	7.667
342.11	8.367
342.47	6.275
342.83	7.568
343.20	7.032
343.56	7.538
343.92	7.446
344.28	7.891
344.65	7.752
345.01	7.566
345.37	7.932
345.73	6.859
346.10	8.580
346.46	7.199
346.82	7.865
347.19	8.709
347.55	7.587
347.91	8.470
348.27	7.511
348.63	8.149
349.00	6.115
349.36	8.030
349.72	7.292
350.08	7.281
350.45	7.452
350.81	7.391
351.17	6.316
351.53	6.444
351.89	7.973
352.26	6.567
352.62	6.940
352.98	7.023
353.34	7.543
353.70	7.088
354.07	7.004
354.43	6.226
354.79	7.255
355.15	7.506
355.51	8.480
355.87	6.582
356.24	7.681
356.60	6.652
356.96	7.191
357.32	7.658
357.68	6.589
358.04	6.362
358.40	6.866
358.77	7.602
359.13	6.721
359.49	6.245
359.85	7.179
360.21	7.030
360.57	6.317
360.93	6.629
361.29	6.596
361.66	6.589
362.02	6.889
362.38	6.606
362.74	6.285
363.10	6.946
363.46	6.371
363.82	6.747
364.18	6.826
364.54	6.570
364.90	8.227
365.26	6.138
365.62	7.600
365.98	6.603
366.35	6.846
366.71	7.279
367.07	6.834
367.43	7.157
367.79	7.631
368.15	7.157
368.51	7.307
368.87	7.511
369.23	7.467
369.59	6.421
369.95	6.761
370.31	7.562
370.67	6.878
371.03	7.064
371.39	6.985
371.75	6.327
372.11	7.927
372.47	7.380
372.83	7.723
373.19	7.272
373.55	6.911
373.91	6.680
374.27	7.374
374.63	6.563
374.99	6.233
375.35	7.403
375.71	7.226
376.07	6.714
376.42	6.423
376.78	8.080
377.14	6.987
377.50	7.021
377.86	7.266
378.22	7.904
378.58	7.432
378.94	6.984
379.30	6.444
379.66	7.172
380.02	6.924
380.38	7.373
380.74	7.493
381.09	6.794
381.45	7.443
381.81	7.436
382.17	6.651
382.53	6.608
382.89	7.619
383.25	7.210
383.61	6.308
383.97	6.832
384.32	6.579
384.68	6.555
385.04	6.825
385.40	7.425
385.76	7.268
386.12	6.822
386.48	7.765
386.83	7.807
387.19	6.721
387.55	6.397
387.91	7.363
388.27	7.794
388.62	6.243
388.98	7.671
389.34	6.953
389.70	7.205
390.06	7.223
390.42	7.048
390.77	7.345
391.13	7.101
391.49	6.643
391.85	6.485
392.20	7.295
392.56	7.620
392.92	7.252
393.28	6.633
393.64	7.542
393.99	7.844
394.35	7.769
394.71	7.605
395.07	6.527
395.42	6.796
395.78	7.434
396.14	6.833
396.50	6.235
396.85	6.977
397.21	6.805
397.57	7.303
397.92	7.560
398.28	6.898
398.64	6.236
399.00	6.492
399.35	7.382
399.71	6.250
400.07	7.019
400.42	6.403
400.78	6.655
401.14	6.830
401.49	6.424
401.85	6.802
402.21	6.199
402.57	7.218
402.92	6.028
403.28	6.499
403.63	6.086
403.99	6.354
404.35	7.391
404.70	6.912
405.06	6.957
405.42	7.201
405.77	6.979
406.13	7.077
406.49	6.532
406.84	7.258
407.20	6.875
407.55	6.541
407.91	6.474
408.27	6.890
408.62	6.864
408.98	7.255
409.34	5.865
409.69	7.169
410.05	7.327
410.40	7.193
410.76	6.618
411.11	7.130
411.47	6.880
411.83	6.584
412.18	7.229
412.54	6.817
412.89	6.927
413.25	7.393
413.60	5.974
413.96	6.760
414.31	6.742
414.67	7.096
415.03	6.708
415.38	5.675
415.74	6.170
416.09	6.663
416.45	6.700
416.80	6.548
417.16	6.130
417.51	6.663
417.87	6.560
418.22	7.784
418.58	6.320
418.93	7.451
419.29	6.473
419.64	6.363
420.00	6.291
420.35	7.131
420.71	6.088
421.06	7.073
421.42	6.995
421.77	7.054
422.12	7.082
422.48	6.708
422.83	7.393
423.19	7.003
423.54	7.024
423.90	7.454
424.25	7.840
424.61	6.085
424.96	7.084
425.31	7.219
425.67	6.495
426.02	6.807
426.38	6.889
426.73	6.808
427.09	8.420
427.44	6.554
427.79	7.242
428.15	6.164
428.50	6.910
428.85	7.463
429.21	7.500
429.56	7.108
429.92	7.224
430.27	6.988
430.62	7.230
430.98	6.788
431.33	7.429
431.68	6.849
432.04	7.212
432.39	7.177
432.74	6.507
433.10	7.085
433.45	6.577
433.80	6.599
434.16	7.283
434.51	6.732
434.86	6.678
435.22	7.120
435.57	7.075
435.92	7.290
436.28	7.679
436.63	7.264
436.98	7.676
437.34	7.215
437.69	6.824
438.04	6.822
438.39	7.237
438.75	6.973
439.10	8.245
439.45	7.378
439.81	7.232
440.16	6.971
440.51	7.525
440.86	7.504
441.22	7.449
441.57	6.918
441.92	7.468
442.27	6.869
442.63	7.203
442.98	7.204
443.33	7.259
443.68	7.532
444.03	7.949
444.39	7.906
444.74	7.402
445.09	7.907
445.44	7.429
445.79	7.471
446.15	7.605
446.50	7.080
446.85	7.928
447.20	7.398
447.55	7.322
447.91	7.173
448.26	7.558
448.61	7.120
448.96	8.315
449.31	7.582
449.66	6.645
450.02	7.911
450.37	8.471
450.72	7.320
451.07	7.232
451.42	8.434
451.77	6.559
452.12	7.111
452.47	7.308
452.83	7.376
453.18	7.064
453.53	7.754
453.88	7.565
454.23	7.571
454.58	7.893
454.93	7.403
455.28	7.104
455.63	6.993
455.98	7.933
456.34	7.244
456.69	7.407
457.04	7.388
457.39	8.149
457.74	8.333
458.09	6.809
458.44	8.351
458.79	7.220
459.14	7.866
459.49	7.244
459.84	7.608
460.19	6.219
460.54	7.893
460.89	7.517
461.24	7.759
461.59	8.135
461.94	7.188
462.29	7.447
462.64	7.966
462.99	6.717
463.34	7.073
463.69	7.562
464.04	8.282
464.39	7.904
464.74	7.127
465.09	8.478
465.44	6.706
465.79	8.355
466.14	7.556
466.49	8.421
466.84	7.493
467.19	7.977
467.54	6.639
467.89	7.529
468.24	7.978
468.59	7.122
468.94	7.168
469.29	7.319
469.64	7.247
469.99	6.565
470.34	6.683
470.68	8.066
471.03	7.728
471.38	7.717
471.73	7.152
472.08	7.043
472.43	7.526
472.78	7.368
473.13	7.965
473.48	8.036
473.83	7.777
474.17	7.913
474.52	7.517
474.87	8.306
475.22	7.662
475.57	8.255
475.92	8.064
476.27	8.094
476.61	8.411
476.96	7.716
477.31	7.475
477.66	8.447
478.01	7.677
478.36	8.275
478.70	7.931
479.05	8.384
479.40	7.799
479.75	8.886
480.10	7.769
480.45	8.387
480.79	7.937
481.14	8.410
481.49	7.633
481.84	8.877
482.19	7.570
482.53	8.483
482.88	7.975
483.23	8.270
483.58	7.642
483.92	7.713
484.27	8.129
484.62	7.921
484.97	8.398
485.31	8.131
485.66	7.507
486.01	7.867
486.36	8.036
486.70	8.574
487.05	8.617
487.40	8.776
487.75	8.550
488.09	7.777
488.44	7.861
488.79	8.229
489.13	8.472
489.48	7.922
489.83	7.606
490.17	8.060
490.52	7.718
490.87	7.699
491.22	8.579
491.56	8.532
491.91	8.635
492.26	8.698
492.60	8.483
492.95	7.942
493.30	8.023
493.64	8.147
493.99	8.465
494.34	7.840
494.68	7.837
495.03	8.194
495.37	7.945
495.72	8.118
496.07	8.326
496.41	7.851
496.76	8.674
497.11	7.558
497.45	8.330
497.80	8.041
498.14	8.299
498.49	8.548
498.84	8.638
499.18	7.872
499.53	8.072
499.87	8.615
500.22	7.524
500.56	8.097
500.91	8.513
501.26	8.273
501.60	7.821
501.95	8.424
502.29	8.030
502.64	8.789
502.98	8.067
503.33	8.078
503.67	7.501
504.02	8.056
504.36	8.356
504.71	7.901
505.06	8.004
505.40	8.364
505.75	8.834
506.09	8.794
506.44	8.542
506.78	8.532
507.13	8.529
507.47	8.622
507.82	8.759
508.16	8.270
508.51	8.017
508.85	8.550
509.19	8.290
509.54	8.646
509.88	8.742
510.23	8.354
510.57	8.845
510.92	8.757
511.26	8.658
511.61	8.112
511.95	8.150
512.30	8.912
512.64	8.496
512.98	8.604
513.33	9.022
513.67	8.159
514.02	9.198
514.36	8.849
514.70	8.438
515.05	8.551
515.39	8.819
515.74	9.120
516.08	8.980
516.42	9.367
516.77	8.465
517.11	8.355
517.46	9.332
517.80	9.139
518.14	8.977
518.49	8.568
518.83	8.036
519.17	8.293
519.52	8.700
519.86	8.817
520.20	9.265
520.55	8.708
520.89	8.502
521.23	8.766
521.58	8.757
521.92	8.839
522.26	8.477
522.61	8.449
522.95	8.131
523.29	8.851
523.64	8.520
523.98	9.013
524.32	9.914
524.66	8.936
525.01	9.117
525.35	8.731
525.69	8.759
526.04	8.209
526.38	8.333
526.72	9.516
527.06	9.091
527.41	9.155
527.75	8.551
528.09	8.560
528.43	8.467
528.78	7.919
529.12	9.174
529.46	7.982
529.80	8.295
530.15	8.696
530.49	8.304
530.83	9.032
531.17	8.722
531.51	8.484
531.86	8.954
532.20	8.902
532.54	8.199
532.88	8.485
533.22	8.603
533.57	8.656
533.91	9.147
534.25	9.214
534.59	7.989
534.93	7.923
535.27	8.169
535.62	9.494
535.96	9.181
536.30	8.696
536.64	9.309
536.98	8.549
537.32	8.642
537.66	8.734
538.01	7.674
538.35	7.978
538.69	7.692
539.03	8.522
539.37	8.009
539.71	8.348
540.05	8.993
540.39	8.007
540.73	9.168
541.07	8.338
541.42	8.506
541.76	7.948
542.10	8.203
542.44	8.100
542.78	7.908
543.12	8.105
543.46	8.791
543.80	7.974
544.14	8.318
544.48	8.865
544.82	8.677
545.16	8.766
545.50	8.268
545.84	9.675
546.18	9.506
546.52	7.707
546.86	8.491
547.20	8.842
547.54	8.989
547.88	7.474
548.22	7.778
548.56	7.899
548.90	8.418
549.24	8.875
549.58	8.833
549.92	8.546
550.26	9.126
550.60	8.041
550.94	8.409
551.28	8.449
551.62	8.491
551.96	8.544
552.30	9.050
552.64	9.210
552.98	8.484
553.32	8.296
553.66	7.974
554.00	9.142
554.34	8.816
554.68	8.457
555.02	8.870
555.36	8.941
555.69	7.751
556.03	8.386
556.37	8.698
556.71	8.307
557.05	8.498
557.39	8.361
557.73	8.785
558.07	8.742
558.41	8.505
558.75	8.316
559.08	8.907
559.42	7.888
559.76	9.362
560.10	8.439
560.44	7.652
560.78	9.688
561.12	8.744
561.45	9.732
561.79	9.402
562.13	8.749
562.47	8.446
562.81	8.861
563.15	8.838
563.48	8.452
563.82	8.222
564.16	8.419
564.50	8.045
564.84	8.024
565.17	8.471
565.51	8.573
565.85	8.076
566.19	7.949
566.52	9.011
566.86	9.111
567.20	7.450
567.54	8.603
567.88	9.021
568.21	8.053
568.55	8.249
568.89	8.625
569.23	8.534
569.56	8.363
569.90	8.517
570.24	8.027
570.57	8.210
570.91	8.053
571.25	8.620
571.59	7.932
571.92	8.129
572.26	8.258
572.60	8.108
572.93	8.266
573.27	8.233
573.61	7.888
573.95	8.303
574.28	8.409
574.62	8.004
574.96	7.918
575.29	8.262
575.63	8.016
575.97	8.168
576.30	7.772
576.64	7.874
576.98	8.041
577.31	8.081
577.65	8.089
577.98	8.057
578.32	7.961
578.66	8.010
578.99	7.946
579.33	7.803
579.67	7.752
580.00	8.002
580.34	8.159
580.67	7.480
581.01	8.222
581.35	7.812
581.68	8.110
582.02	8.192
582.35	8.205
582.69	8.125
583.02	8.185
583.36	8.113
583.70	7.998
584.03	7.847
584.37	8.146
584.70	7.946
585.04	8.021
585.37	7.998
585.71	8.069
586.04	8.168
586.38	8.171
586.72	7.746
587.05	7.879
587.39	8.227
587.72	8.182
588.06	8.462
588.39	8.116
588.73	7.910
589.06	8.409
589.40	7.744
589.73	8.098
590.07	7.991
590.40	8.283
590.73	8.271
591.07	8.079
591.40	8.359
591.74	7.830
592.07	8.486
592.41	7.965
592.74	8.165
593.08	8.503
593.41	8.778
593.75	8.420
594.08	8.391
594.41	8.782
594.75	8.236
595.08	8.176
595.42	8.052
595.75	8.654
596.09	8.268
596.42	8.133
596.75	8.259
597.09	8.485
597.42	8.423
597.75	8.075
598.09	8.730
598.42	8.444
598.76	7.757
599.09	8.224
599.42	8.046
599.76	8.320
600.09	8.675
600.42	8.842
600.76	8.421
601.09	8.098
601.42	8.685
601.76	8.207
602.09	8.292
602.42	8.215
602.76	8.007
603.09	8.260
603.42	8.382
603.76	7.681
604.09	8.588
604.42	9.064
604.76	8.409
605.09	8.696
605.42	8.134
605.75	8.154
606.09	8.361
606.42	8.172
606.75	7.759
607.09	8.180
607.42	8.593
607.75	8.245
608.08	8.445
608.42	8.263
608.75	8.292
609.08	7.555
609.41	8.513
609.75	8.616
610.08	8.663
610.41	8.326
610.74	7.857
611.07	8.304
611.41	8.117
611.74	8.453
612.07	8.181
612.40	7.224
612.73	8.557
613.07	7.775
613.40	8.999
613.73	7.800
614.06	8.783
614.39	7.872
614.72	8.588
615.06	8.470
615.39	8.410
615.72	8.768
616.05	8.694
616.38	8.426
616.71	8.621
617.05	7.721
617.38	9.149
617.71	8.261
618.04	8.365
618.37	8.470
618.70	8.484
619.03	8.363
619.36	8.261
619.69	8.072
620.03	7.972
620.36	8.773
620.69	7.403
621.02	8.727
621.35	7.475
621.68	9.689
622.01	9.039
622.34	7.462
622.67	8.110
623.00	8.300
623.33	8.825
623.66	8.755
623.99	7.505
624.32	8.837
624.65	8.237
624.99	8.518
625.32	8.818
625.65	7.889
625.98	7.254
626.31	9.213
626.64	7.985
626.97	7.277
627.30	8.125
627.63	8.027
627.96	9.309
628.29	8.327
628.62	6.885
628.95	7.011
629.28	7.816
629.61	8.249
629.94	7.699
630.26	8.220
630.59	7.254
630.92	8.918
631.25	9.392
631.58	7.910
631.91	6.748
632.24	7.397
632.57	7.780
632.90	7.623
633.23	7.857
633.56	7.857
633.89	8.264
634.22	7.588
634.55	8.664
634.88	7.900
635.20	8.827
635.53	8.362
635.86	8.126
636.19	8.908
636.52	8.966
636.85	8.172
637.18	8.836
637.51	7.957
637.83	8.527
638.16	8.295
638.49	8.568
638.82	7.554
639.15	7.216
639.48	8.545
639.81	8.199
640.13	9.305
640.46	7.030
640.79	6.005
641.12	7.578
641.45	7.779
641.77	8.986
642.10	6.693
642.43	9.441
642.76	7.453
643.09	7.945
643.41	6.723
643.74	8.138
644.07	7.586
644.40	7.779
644.73	8.418
645.05	7.342
645.38	7.626
645.71	7.625
646.04	8.608
646.36	7.445
646.69	7.209
647.02	7.798
647.35	8.397
647.67	7.568
648.00	6.688
648.33	8.408
648.66	6.419
648.98	7.211
649.31	8.119
649.64	7.171
649.96	8.488
650.29	5.981
650.62	7.638
650.94	5.856
651.27	7.036
651.60	8.480
651.92	8.055
652.25	6.802
652.58	7.428
652.90	6.541
653.23	7.746
653.56	8.274
653.88	9.691
654.21	8.451
654.54	7.948
654.86	7.649
655.19	7.152
655.52	9.098
655.84	8.889
656.17	10.467
656.49	14.566
656.82	15.789
657.15	11.679
657.47	8.532
657.80	6.090
658.13	4.877
658.45	6.107
658.78	7.150
659.10	6.534
659.43	6.134
659.75	6.121
660.08	5.938
660.41	6.038
660.73	4.447
661.06	3.965
661.38	6.380
661.71	7.241
662.03	6.349
662.36	7.513
662.68	5.816
663.01	7.080
663.33	9.641
663.66	7.692
663.98	6.154
664.31	6.942
664.63	5.780
664.96	8.711
665.28	5.808
665.61	7.867
665.93	6.429
666.26	6.093
666.58	6.642
666.91	7.664
667.23	8.000
667.56	8.876
667.88	6.200
668.21	5.078
668.53	4.633
668.86	7.466
669.18	2.648
669.50	6.759
669.83	5.800
670.15	6.693
670.48	7.738
670.80	5.354
671.13	6.994
671.45	6.496
671.77	6.968
672.10	6.333
672.42	7.282
672.75	7.220
673.07	8.060
673.39	4.622
673.72	6.544
674.04	8.103
674.37	5.903
674.69	8.113
675.01	6.476
675.34	3.817
675.66	5.618
675.98	7.090
676.31	7.813
676.63	8.175
676.95	6.897
677.28	6.855
677.60	5.512
677.92	6.910
678.25	7.313
678.57	7.651
678.89	7.338
679.22	5.749
679.54	6.667
679.86	5.424
680.18	6.302
680.51	7.704
680.83	6.710
681.15	5.862
681.48	7.945
681.80	7.599
682.12	5.769
682.44	5.008
682.77	4.965
683.09	6.439
683.41	6.395
683.73	7.780
684.06	5.535
684.38	6.798
684.70	7.002
685.02	7.573
685.34	6.323
685.67	5.678
685.99	7.055
686.31	6.686
686.63	6.951
686.96	7.098
687.28	8.306
687.60	5.556
687.92	5.788
688.24	7.513
688.56	6.379
688.89	6.897
689.21	6.262
689.53	2.941
689.85	4.339
690.17	6.296
690.49	5.777
690.82	5.545
691.14	3.644
691.46	5.927
691.78	9.024
692.10	6.422
692.42	5.000
692.74	6.534
693.06	5.370
693.39	6.831
693.71	6.955
694.03	7.993
694.35	5.524
694.67	5.544
694.99	5.532
695.31	6.402
695.63	6.710
695.95	3.520
696.27	5.495
696.59	6.416
696.91	6.306
697.23	5.495
697.56	4.684
697.88	7.197
698.20	6.591
698.52	7.955
698.84	6.445
699.16	6.735
699.48	4.812
699.80	4.894
700.12	3.930
700.44	4.608
700.76	7.126
701.08	6.295
701.40	6.736
701.72	5.721
702.04	6.417
702.36	5.759
702.68	8.068
703.00	3.667
703.32	4.926
703.64	5.868
703.96	6.444
704.28	4.914
704.60	5.570
704.91	6.888
705.23	6.849
705.55	6.128
705.87	6.061
706.19	7.055
706.51	1.807
706.83	2.594
707.15	4.497
707.47	6.075
707.79	5.459
708.11	2.754
708.43	5.806
708.74	4.464
709.06	4.408
709.38	8.216
709.70	7.940
710.02	4.910
710.34	6.383
710.66	2.235
710.98	5.464
711.29	3.297
711.61	3.390
711.93	4.558
712.25	4.324
712.57	8.555
712.89	7.059
713.20	4.734
713.52	6.647
713.84	5.292
714.16	6.842
714.48	4.124
714.80	7.013
715.11	3.675
715.43	5.836
715.75	3.684
716.07	2.486
716.39	4.918
716.70	4.518
717.02	5.246
717.34	0.697
717.66	0.336
717.97	-1.712
718.29	3.780
718.61	3.289
718.93	6.149
719.24	4.658
719.56	6.135
719.88	4.204
720.20	2.581
720.51	5.590
720.83	3.750
721.15	4.605
721.46	0.000
721.78	2.333
722.10	1.942
722.42	3.020
722.73	1.935
723.05	3.158
723.37	4.167
723.68	1.792
724.00	5.054
724.32	0.000
724.63	4.545
724.95	4.255
725.27	6.620
725.58	2.120
725.90	4.483
726.22	7.210
726.53	8.442
726.85	9.119
727.16	7.553
727.48	4.893
727.80	1.656
728.11	1.060
728.43	4.377
728.74	-0.334
729.06	0.662
729.38	2.273
729.69	4.362
730.01	4.464
730.32	3.636
730.64	4.088
730.96	4.658
731.27	8.380
731.59	4.121
731.90	1.299
732.22	4.427
732.53	0.829
732.85	4.286
733.16	3.812
733.48	0.610
733.80	3.343
734.11	6.838
734.43	3.243
734.74	9.620
735.06	5.528
735.37	3.243
735.69	4.865
736.00	2.542
736.32	5.660
736.63	4.444
736.95	2.011
737.26	3.939
737.58	2.424
737.89	7.059
738.21	2.141
738.52	1.967
738.83	8.191
739.15	2.837
739.46	2.381
739.78	3.681
740.09	3.438
740.41	4.956
740.72	2.667
741.04	3.236
741.35	2.456
741.66	0.000
741.98	3.689
742.29	2.510
742.61	3.947
742.92	4.615
743.23	7.942
743.55	6.977
743.86	5.600
744.18	-2.479
744.49	0.422
744.80	4.527
745.12	0.000
745.43	2.846
745.74	-2.586
746.06	8.898
746.37	0.844
746.68	3.252
747.00	2.500
747.31	-0.858
747.62	4.231
747.94	2.429
748.25	2.811
748.56	-3.673
748.88	-0.855
749.19	7.759
749.50	1.732
749.82	5.221
750.13	7.829
750.44	2.333
750.75	4.308
751.07	4.308
751.38	-0.315
751.69	2.556
752.01	0.647
752.32	6.209
752.63	4.762
752.94	2.422
753.26	3.346
753.57	-1.852
753.88	2.247
754.19	3.859
754.51	3.859
754.82	6.109
755.13	6.885
755.44	5.461
755.75	1.316
756.07	6.269
756.38	2.516
756.69	5.120
757.00	1.662
757.31	5.191
757.63	2.813
757.94	5.164
758.25	6.998
758.56	5.011
758.87	6.818
759.18	6.133
759.50	4.816
759.81	2.521
760.12	7.547
760.43	3.125
760.74	6.404
761.05	3.500
761.36	1.928
761.67	5.076
761.99	4.865
762.30	2.134
762.61	1.650
762.92	1.119
763.23	2.996
763.54	3.957
763.85	4.467
764.16	4.377
764.47	3.169
764.78	4.792
765.10	5.279
765.41	8.462
765.72	-0.265
766.03	3.955
766.34	1.254
766.65	2.787
766.96	0.000
767.27	1.843
767.58	-4.975
767.89	5.769
768.20	6.103
768.51	4.630
768.82	5.221
769.13	2.273
769.44	-1.923
769.75	5.054
770.06	4.615
770.37	5.118
770.68	1.702
770.99	-0.810
771.30	7.407
771.61	3.422
771.92	3.704
772.23	4.049
772.54	-3.704
772.85	5.530
773.16	2.857
773.47	-3.175
773.78	-4.324
774.09	3.409
774.39	5.500
774.70	0.546
775.01	-6.707
775.32	-5.294
775.63	-1.227
775.94	-10.191
776.25	-3.871
776.56	1.923
776.87	4.082
777.18	-1.379
777.48	2.797
777.79	-0.676
778.10	-5.147
778.41	-2.083
778.72	-2.759
779.03	6.173
779.34	-0.606
779.65	-2.591
779.95	1.667
780.26	-1.705
780.57	-7.097
780.88	3.623
781.19	1.290
781.50	5.882
781.80	-2.688
782.11	2.116
782.42	-1.515
782.73	-3.593
783.04	1.117
783.34	-7.273
783.65	-10.458
783.96	-5.590
784.27	-1.786
784.57	-0.662
784.88	-5.000
785.19	-4.724
785.50	-4.724
785.81	-3.759
786.11	-3.077
786.42	-4.317
786.73	-6.475
787.04	1.504
787.34	-5.738
787.65	-4.000
787.96	-0.746
788.26	-2.797
788.57	2.098
788.88	-5.263
789.19	4.575
789.49	4.110
789.80	0.000
790.11	-0.787
790.41	-5.469
790.72	-8.475
791.03	-17.476
791.33	-7.826
791.64	-9.649
791.95	-11.607
792.25	-13.333
792.56	-3.571
792.87	-16.667
793.17	-1.786
793.48	-14.583
793.79	-18.072
794.09	-9.174
794.40	-4.587
794.70	4.082
795.01	1.299
795.32	-7.534
795.62	-3.521
795.93	-14.394
796.23	-9.016
796.54	-13.393
796.85	-15.957
797.15	-20.652
797.46	-4.110
797.76	-12.500
798.07	-11.957
798.37	-18.557
798.68	-22.078
798.99	-9.195
799.29	-7.865
799.60	-7.447
799.90	-2.410
800.21	-23.077
800.51	-19.403
800.82	-16.176
801.12	-31.507
801.43	-29.412
801.73	-28.814
802.04	-18.182
802.34	-26.667
802.65	-25.424
802.95	-14.925
803.26	-25.424
803.56	-9.589
803.87	-8.571
804.17	-15.068
804.48	-29.825
804.78	-9.722
805.09	-31.034
805.39	-12.162
805.70	-29.577
806.00	-8.537
806.30	-13.253
806.61	-17.808
806.91	-3.846
807.22	-6.667
807.52	-17.241
807.83	-9.722
808.13	0.000
808.43	-19.101
808.74	-13.750
809.04	-27.941
809.35	-25.333
809.65	-20.000
809.95	-13.699
810.26	-31.579
810.56	-25.862
810.86	-5.882
811.17	-29.825
811.47	-40.984
811.77	-55.556
812.08	-50.847
812.38	-13.333
812.69	-25.862
812.99	-33.962
813.29	-48.718
813.59	-26.000
813.90	-17.544
814.20	-25.455
814.50	-8.451
814.81	-16.667
815.11	-21.311
815.41	-19.403
815.72	-12.069
816.02	-16.071
816.32	-24.444
816.62	-40.909
816.93	-37.778
817.23	-9.259
817.53	-31.915
817.84	-28.571
818.14	-14.706
818.44	-32.653
818.74	-37.778
819.04	-76.923
819.35	-100.000
819.65	-103.846
819.95	-13.208
820.25	-20.000
820.56	-54.762
820.86	-68.750
821.16	-51.282
821.46	-55.814
821.76	-34.000
822.07	-23.214
822.37	-43.478
822.67	-36.170
822.97	-67.568
823.27	-35.000
823.57	-4.082
823.88	-17.778
824.18	-7.500
824.48	-76.667
824.78	-80.000
825.08	-48.485
825.38	-17.778
825.69	-23.404
825.99	-19.444
826.29	-42.857
826.59	-35.897
826.89	-41.860
827.19	-8.000
827.49	-35.294
827.79	-16.667
828.09	-35.135
828.39	-46.667
828.70	-53.659
829.00	-9.302
829.30	-64.286
829.60	-11.765
829.90	-28.261
830.20	-68.571
830.50	-68.966
830.80	-66.667
831.10	-80.769
831.40	-41.176
831.70	-47.619
832.00	-6.452
832.30	-194.118
832.60	-79.167
832.90	-230.769
833.20	-163.158
833.50	-120.000
833.80	-131.579
834.10	-157.143
834.40	-33.333
834.70	-40.625
835.00	-51.429
835.30	-23.529
835.60	-83.333
835.90	-76.000
836.20	-113.636
836.50	-92.000
836.80	-78.788
837.10	-51.852
837.40	-48.148
837.70	-168.750
838.00	-39.286
838.30	-78.261
838.60	-58.621
838.90	-150.000
839.19	-104.348
839.49	-200.000
839.79	-95.652
840.09	-187.500
840.39	-135.000
840.69	-70.968
840.99	-82.143
841.29	-146.667
841.59	-73.684
841.88	-17.949
842.18	-76.923
842.48	-270.000
842.78	-110.000
843.08	-66.667
843.38	-19.355
843.68	-116.667
843.97	-17.647
844.27	-118.750
844.57	-131.579
844.87	-190.000
845.17	-126.667
845.47	-38.095
845.76	-61.905
846.06	-211.111
846.36	-135.294
846.66	-73.077
846.96	-93.333
847.25	-100.000
847.55	-47.826
847.85	-85.000
848.15	-117.647
848.44	-154.545
848.74	-85.714
849.04	-100.000
849.34	-137.500
849.63	-21.739
849.93	1500.000
850.23	-120.000
850.53	-57.692
850.82	-145.455
851.12	-13.636
851.42	-200.000
851.71	-184.615
852.01	-105.000
852.31	-169.231
852.61	-94.737
852.90	-41.667
853.20	-55.556
853.50	-400.000
853.79	-133.333
854.09	-81.818
854.39	-291.667
854.68	-48.387
854.98	-80.769
855.28	-100.000
855.57	-64.286
855.87	-68.000
856.17	-127.273
856.46	-66.667
856.76	-111.111
857.05	-100.000
857.35	-108.333
857.65	-192.308
857.94	-85.714
858.24	-29.630
858.53	-47.826
858.83	-94.118
859.13	-88.235
859.42	-76.471
859.72	-114.286
860.01	-110.000
860.31	-244.444
860.60	-160.000
860.90	-126.667
861.20	-61.111
861.49	-100.000
861.79	-56.667
862.08	-153.846
862.38	-15.625
862.67	-52.941
862.97	-131.250
863.26	-311.111
863.56	-180.000
863.85	-218.182
864.15	-72.222
864.44	-733.333
864.74	-135.714
865.03	-100.000
865.33	-230.000
865.62	-48.387
865.92	-63.636
866.21	-69.565
866.51	-92.857
866.80	-440.000
867.10	-150.000
867.39	-233.333
867.69	3600.000
867.98	-214.286
868.27	-82.353
868.57	-3700.000
868.86	-340.000
869.16	-123.810
869.45	-83.333
869.75	-127.273
870.04	-300.000
870.33	-83.333
870.63	-442.857
870.92	-150.000
871.22	-250.000
871.51	-209.091
871.80	-1100.000
872.10	-1450.000
>>>>>End Processed Spectral Data<<<<<
