SpectraSuite Data File
++++++++++++++++++++++++++++++++++++
Date: Thu May 14 14:57:19 PDT 2015
User: schluterlab
Dark Spectrum Present: Yes
Reference Spectrum Present: Yes
Number of Sampled Component Spectra: 1
Spectrometers: USB2E3373
Integration Time (usec): 3000 (USB2E3373)
Spectra Averaged: 3 (USB2E3373)
Boxcar Smoothing: 0 (USB2E3373)
Correct for Electrical Dark: No (USB2E3373)
Strobe/Lamp Enabled: No (USB2E3373)
Correct for Detector Non-linearity: No (USB2E3373)
Correct for Stray Light: No (USB2E3373)
Number of Pixels in Processed Spectrum: 2048
>>>>>Begin Processed Spectral Data<<<<<
178.53	0.000
178.91	214.286
179.29	-2700.000
179.67	-2800.000
180.04	278.571
180.42	200.000
180.80	540.000
181.18	-1800.000
181.56	-400.000
181.94	500.000
182.31	-350.000
182.69	866.667
183.07	-600.000
183.45	650.000
183.83	-283.333
184.20	-566.667
184.58	1900.000
184.96	-575.000
185.34	-244.444
185.72	-160.000
186.09	366.667
186.47	1050.000
186.85	680.000
187.23	-311.111
187.61	-2300.000
187.98	360.000
188.36	375.000
188.74	-500.000
189.12	-300.000
189.49	-62.500
189.87	-262.500
190.25	-155.556
190.63	-360.000
191.00	-255.556
191.38	0.000
191.76	-475.000
192.14	-166.667
192.51	1600.000
192.89	-283.333
193.27	0.000
193.65	-114.286
194.02	-2200.000
194.40	-200.000
194.78	342.857
195.15	0.000
195.53	-172.727
195.91	0.000
196.29	-300.000
196.66	-153.846
197.04	-2000.000
197.42	-214.286
197.79	-800.000
198.17	-375.000
198.55	-314.286
198.92	-88.889
199.30	-337.500
199.68	-154.545
200.05	-85.714
200.43	-1100.000
200.81	371.429
201.18	0.000
201.56	266.667
201.94	0.000
202.31	533.333
202.69	-255.556
203.07	1900.000
203.44	-233.333
203.82	-875.000
204.19	-141.667
204.57	-333.333
204.95	-237.500
205.32	-1600.000
205.70	450.000
206.08	-350.000
206.45	-250.000
206.83	520.000
207.20	-150.000
207.58	-500.000
207.96	-466.667
208.33	-200.000
208.71	233.333
209.08	-200.000
209.46	0.000
209.84	550.000
210.21	1000.000
210.59	1150.000
210.96	766.667
211.34	-575.000
211.71	-237.500
212.09	-2000.000
212.46	0.000
212.84	1450.000
213.22	-480.000
213.59	-650.000
213.97	-150.000
214.34	-600.000
214.72	466.667
215.09	-575.000
215.47	0.000
215.84	228.571
216.22	950.000
216.59	-420.000
216.97	-360.000
217.34	-575.000
217.72	-187.500
218.09	-575.000
218.47	-675.000
218.84	0.000
219.22	580.000
219.59	-117.647
219.97	-60.000
220.34	1300.000
220.72	-288.889
221.09	-92.308
221.47	-633.333
221.84	-210.000
222.22	-342.857
222.59	0.000
222.97	-150.000
223.34	-520.000
223.72	-2500.000
224.09	-575.000
224.46	-475.000
224.84	-360.000
225.21	-342.857
225.59	-475.000
225.96	-600.000
226.34	-57.692
226.71	400.000
227.08	-1150.000
227.46	-86.667
227.83	-600.000
228.21	-36.842
228.58	150.000
228.95	1300.000
229.33	-91.667
229.70	-230.000
230.08	-21.053
230.45	230.000
230.82	-333.333
231.20	-121.429
231.57	-133.333
231.95	-200.000
232.32	-190.909
232.69	-35.000
233.07	-375.000
233.44	-141.176
233.81	-210.000
234.19	-72.222
234.56	-18.182
234.93	-44.828
235.31	-115.789
235.68	-100.000
236.05	-115.000
236.43	-3.846
236.80	-32.000
237.17	-37.037
237.55	-27.273
237.92	-180.000
238.29	-77.419
238.67	-36.364
239.04	-30.556
239.41	-52.381
239.79	-23.913
240.16	-22.222
240.53	-13.043
240.91	-50.980
241.28	-18.033
241.65	-7.463
242.02	5.405
242.40	-16.923
242.77	-6.667
243.14	-29.268
243.51	-19.737
243.89	-23.077
244.26	-0.990
244.63	-3.922
245.00	4.673
245.38	-0.877
245.75	-15.044
246.12	-4.762
246.49	-1.550
246.87	-1.429
247.24	0.662
247.61	1.316
247.98	2.013
248.36	2.469
248.73	-4.294
249.10	0.000
249.47	7.463
249.84	9.948
250.22	2.591
250.59	1.667
250.96	10.000
251.33	3.061
251.70	11.538
252.08	8.333
252.45	6.967
252.82	3.306
253.19	3.125
253.56	6.464
253.94	2.692
254.31	5.682
254.68	7.343
255.05	6.515
255.42	6.463
255.79	2.589
256.16	5.960
256.54	6.291
256.91	7.541
257.28	5.574
257.65	5.414
258.02	4.130
258.39	7.692
258.76	11.009
259.14	9.770
259.51	9.510
259.88	6.799
260.25	8.056
260.62	9.041
260.99	10.383
261.36	10.456
261.73	8.488
262.10	9.341
262.47	8.579
262.85	13.384
263.22	9.610
263.59	6.316
263.96	8.696
264.33	9.463
264.70	11.358
265.07	11.217
265.44	12.018
265.81	9.954
266.18	8.617
266.55	9.375
266.92	9.112
267.29	11.597
267.66	9.091
268.03	9.170
268.40	8.768
268.77	9.112
269.14	5.286
269.51	8.991
269.88	10.861
270.25	8.853
270.62	12.025
270.99	11.313
271.36	12.079
271.73	10.216
272.10	11.824
272.47	9.218
272.84	10.442
273.21	9.820
273.58	10.282
273.95	7.692
274.32	7.034
274.69	8.124
275.06	10.989
275.43	8.318
275.80	10.229
276.17	6.852
276.54	9.701
276.91	9.660
277.28	11.031
277.65	11.131
278.02	8.640
278.39	7.790
278.76	10.896
279.13	9.043
279.50	10.309
279.87	10.733
280.23	5.106
280.60	11.695
280.97	9.539
281.34	10.187
281.71	9.983
282.08	10.299
282.45	9.002
282.82	9.576
283.19	9.855
283.56	9.672
283.92	11.862
284.29	11.848
284.66	10.673
285.03	8.013
285.40	9.737
285.77	10.836
286.14	10.534
286.51	10.198
286.87	9.479
287.24	9.187
287.61	8.819
287.98	7.704
288.35	10.947
288.72	9.024
289.08	8.931
289.45	9.024
289.82	9.036
290.19	8.764
290.56	10.141
290.93	10.414
291.29	8.127
291.66	9.366
292.03	7.056
292.40	10.204
292.77	9.164
293.13	8.119
293.50	8.804
293.87	8.054
294.24	9.467
294.60	7.965
294.97	6.980
295.34	9.219
295.71	6.179
296.08	9.044
296.44	9.069
296.81	6.943
297.18	6.974
297.55	7.311
297.91	8.066
298.28	6.280
298.65	7.372
299.02	6.730
299.38	9.153
299.75	7.477
300.12	7.292
300.48	7.258
300.85	7.987
301.22	6.152
301.59	7.306
301.95	8.475
302.32	7.556
302.69	8.434
303.05	8.052
303.42	6.652
303.79	7.917
304.15	7.886
304.52	8.140
304.89	7.958
305.25	7.764
305.62	7.106
305.99	8.247
306.35	7.560
306.72	7.549
307.09	6.701
307.45	6.832
307.82	6.761
308.19	8.577
308.55	8.293
308.92	7.400
309.29	7.471
309.65	7.115
310.02	7.129
310.38	6.988
310.75	8.641
311.12	6.999
311.48	7.429
311.85	7.692
312.22	7.116
312.58	7.042
312.95	6.883
313.31	7.498
313.68	8.150
314.05	8.401
314.41	8.288
314.78	6.358
315.14	7.623
315.51	7.941
315.87	7.111
316.24	7.306
316.61	7.105
316.97	7.059
317.34	6.790
317.70	8.472
318.07	7.496
318.43	8.759
318.80	8.194
319.16	7.639
319.53	6.769
319.89	6.836
320.26	8.452
320.62	7.535
320.99	7.018
321.35	7.671
321.72	8.372
322.08	7.033
322.45	7.678
322.81	7.310
323.18	7.699
323.54	6.466
323.91	7.206
324.27	7.143
324.64	8.312
325.00	6.716
325.37	8.272
325.73	8.595
326.10	7.867
326.46	7.736
326.83	8.647
327.19	7.874
327.56	8.221
327.92	7.789
328.29	8.145
328.65	7.538
329.01	8.291
329.38	6.740
329.74	7.791
330.11	8.048
330.47	7.161
330.84	7.063
331.20	7.333
331.56	7.626
331.93	8.452
332.29	7.712
332.66	7.973
333.02	7.035
333.38	6.628
333.75	7.492
334.11	7.840
334.48	7.591
334.84	7.732
335.20	6.549
335.57	7.757
335.93	7.769
336.29	6.905
336.66	7.065
337.02	6.438
337.38	8.248
337.75	6.860
338.11	7.822
338.47	7.940
338.84	8.037
339.20	6.571
339.56	7.249
339.93	7.307
340.29	7.971
340.65	8.435
341.02	8.699
341.38	8.084
341.74	7.103
342.11	6.999
342.47	6.593
342.83	7.971
343.20	7.359
343.56	8.180
343.92	7.926
344.28	7.578
344.65	7.519
345.01	7.644
345.37	8.165
345.73	6.859
346.10	8.970
346.46	7.120
346.82	7.715
347.19	8.021
347.55	7.132
347.91	7.578
348.27	7.587
348.63	7.997
349.00	7.159
349.36	7.807
349.72	7.366
350.08	8.767
350.45	6.920
350.81	7.315
351.17	6.992
351.53	7.657
351.89	8.125
352.26	7.985
352.62	7.090
352.98	7.176
353.34	7.468
353.70	6.703
354.07	7.452
354.43	6.986
354.79	6.582
355.15	7.432
355.51	7.529
355.87	7.105
356.24	7.224
356.60	7.465
356.96	6.449
357.32	7.435
357.68	6.808
358.04	6.811
358.40	6.493
358.77	7.602
359.13	6.130
359.49	6.022
359.85	6.962
360.21	7.102
360.57	7.179
360.93	7.264
361.29	7.368
361.66	6.734
362.02	7.516
362.38	7.590
362.74	6.215
363.10	7.565
363.46	6.925
363.82	7.741
364.18	7.671
364.54	7.884
364.90	7.759
365.26	6.276
365.62	8.733
365.98	7.012
366.35	7.248
366.71	7.619
367.07	6.631
367.43	8.011
367.79	7.565
368.15	7.893
368.51	7.375
368.87	6.858
369.23	6.867
369.59	6.762
369.95	7.099
370.31	7.427
370.67	6.534
371.03	7.341
371.39	6.850
371.75	6.671
372.11	7.249
372.47	7.312
372.83	7.723
373.19	7.272
373.55	6.843
373.91	6.271
374.27	8.085
374.63	7.848
374.99	7.560
375.35	7.987
375.71	7.355
376.07	7.618
376.42	7.368
376.78	7.707
377.14	6.987
377.50	6.768
377.86	8.436
378.22	7.186
378.58	7.075
378.94	7.864
379.30	6.678
379.66	7.231
380.02	7.040
380.38	7.200
380.74	6.592
381.09	7.201
381.45	7.443
381.81	7.436
382.17	7.245
382.53	7.076
382.89	7.901
383.25	6.917
383.61	6.481
383.97	7.538
384.32	7.057
384.68	6.381
385.04	7.634
385.40	8.014
385.76	7.679
386.12	7.241
386.48	7.706
386.83	7.986
387.19	7.995
387.55	6.984
387.91	7.078
388.27	7.102
388.62	7.560
388.98	6.937
389.34	7.484
389.70	7.670
390.06	8.171
390.42	7.410
390.77	8.128
391.13	6.749
391.49	7.729
391.85	7.576
392.20	7.533
392.56	8.683
392.92	7.852
393.28	7.131
393.64	6.927
393.99	8.193
394.35	7.418
394.71	7.784
395.07	6.886
395.42	7.367
395.78	8.044
396.14	7.784
396.50	7.007
396.85	7.394
397.21	6.923
397.57	7.244
397.92	7.961
398.28	7.170
398.64	6.808
399.00	7.330
399.35	7.435
399.71	7.228
400.07	8.085
400.42	7.742
400.78	6.481
401.14	7.513
401.49	7.106
401.85	7.035
402.21	7.184
402.57	8.275
402.92	7.151
403.28	6.792
403.63	6.444
403.99	6.710
404.35	6.936
404.70	6.969
405.06	7.880
405.42	7.377
405.77	7.252
406.13	7.131
406.49	7.038
406.84	7.645
407.20	7.267
407.55	6.481
407.91	7.354
408.27	6.655
408.62	7.795
408.98	6.849
409.34	6.334
409.69	6.799
410.05	8.089
410.40	7.019
410.76	6.898
411.11	7.832
411.47	7.924
411.83	7.819
412.18	7.530
412.54	7.172
412.89	7.800
413.25	7.449
413.60	6.835
413.96	7.284
414.31	7.705
414.67	7.275
415.03	7.631
415.38	7.566
415.74	7.330
416.09	6.909
416.45	6.763
416.80	7.160
417.16	6.833
417.51	8.157
417.87	7.296
418.22	6.946
418.58	6.691
418.93	8.033
419.29	7.213
419.64	7.023
420.00	6.528
420.35	7.019
420.71	6.491
421.06	7.131
421.42	6.479
421.77	7.270
422.12	7.717
422.48	7.578
422.83	7.010
423.19	7.480
423.54	7.356
423.90	6.902
424.25	7.307
424.61	7.463
424.96	7.139
425.31	7.325
425.67	6.280
426.02	6.918
426.38	6.946
426.73	7.868
427.09	8.535
427.44	7.264
427.79	6.965
428.15	7.078
428.50	7.472
428.85	6.774
429.21	7.713
429.56	7.157
429.92	7.224
430.27	7.181
430.62	7.523
430.98	7.427
431.33	7.380
431.68	7.280
432.04	7.567
432.39	7.766
432.74	7.192
433.10	7.842
433.45	6.968
433.80	7.672
434.16	6.973
434.51	7.246
434.86	7.166
435.22	7.439
435.57	6.899
435.92	7.234
436.28	7.224
436.63	7.155
436.98	6.871
437.34	6.990
437.69	6.054
438.04	8.091
438.39	7.697
438.75	7.194
439.10	6.818
439.45	7.714
439.81	7.401
440.16	7.131
440.51	7.748
440.86	7.449
441.22	7.181
441.57	7.180
441.92	6.693
442.27	7.879
442.63	7.750
442.98	7.311
443.33	7.259
443.68	8.028
444.03	7.714
444.39	7.628
444.74	7.504
445.09	7.603
445.44	7.323
445.79	7.615
446.15	7.657
446.50	7.545
446.85	8.220
447.20	7.350
447.55	8.054
447.91	7.277
448.26	6.818
448.61	7.651
448.96	8.101
449.31	7.635
449.66	7.244
450.02	7.542
450.37	8.418
450.72	7.427
451.07	6.948
451.42	7.510
451.77	7.282
452.12	7.788
452.47	7.071
452.83	7.827
453.18	7.005
453.53	7.180
453.88	7.620
454.23	7.288
454.58	8.009
454.93	7.221
455.28	7.405
455.63	7.618
455.98	8.268
456.34	7.067
456.69	6.937
457.04	7.861
457.39	7.594
457.74	8.054
458.09	7.688
458.44	7.866
458.79	7.220
459.14	7.499
459.49	7.131
459.84	7.817
460.19	7.718
460.54	8.120
460.89	7.623
461.24	7.011
461.59	8.467
461.94	6.902
462.29	7.727
462.64	7.423
462.99	6.905
463.34	7.917
463.69	7.679
464.04	8.505
464.39	7.623
464.74	7.583
465.09	8.535
465.44	7.833
465.79	8.355
466.14	7.400
466.49	7.579
466.84	7.658
467.19	7.861
467.54	6.757
467.89	7.701
468.24	7.978
468.59	7.412
468.94	6.643
469.29	6.959
469.64	7.438
469.99	6.756
470.34	7.054
470.68	6.699
471.03	7.597
471.38	7.260
471.73	6.957
472.08	7.170
472.43	7.646
472.78	8.249
473.13	7.459
473.48	8.459
473.83	7.719
474.17	8.324
474.52	7.035
474.87	8.306
475.22	7.662
475.57	7.736
475.92	8.213
476.27	7.508
476.61	8.152
476.96	7.247
477.31	8.267
477.66	8.342
478.01	7.778
478.36	8.175
478.70	8.128
479.05	8.691
479.40	7.996
479.75	8.213
480.10	7.721
480.45	7.748
480.79	8.073
481.14	7.675
481.49	7.905
481.84	8.703
482.19	7.957
482.53	8.133
482.88	8.152
483.23	8.048
483.58	7.598
483.92	7.225
484.27	8.256
484.62	7.797
484.97	8.437
485.31	7.779
485.66	7.507
486.01	7.479
486.36	7.975
486.70	8.478
487.05	8.281
487.40	8.475
487.75	8.422
488.09	8.002
488.44	7.707
488.79	8.094
489.13	7.893
489.48	7.573
489.83	7.807
490.17	7.776
490.52	8.128
490.87	7.868
491.22	7.886
491.56	8.191
491.91	8.286
492.26	8.222
492.60	8.002
492.95	7.767
493.30	8.023
493.64	8.147
493.99	8.465
494.34	8.667
494.68	7.752
495.03	8.062
495.37	8.167
495.72	8.526
496.07	8.107
496.41	7.851
496.76	8.632
497.11	8.577
497.45	8.243
497.80	8.618
498.14	7.982
498.49	8.042
498.84	8.090
499.18	8.007
499.53	8.251
499.87	8.879
500.22	7.213
500.56	7.917
500.91	8.284
501.26	8.500
501.60	7.645
501.95	7.946
502.29	8.205
502.64	8.439
502.98	8.240
503.33	7.819
503.67	7.981
504.02	7.706
504.36	8.088
504.71	7.901
505.06	8.231
505.40	7.907
505.75	8.197
506.09	8.057
506.44	8.542
506.78	7.752
507.13	8.529
507.47	8.906
507.82	8.049
508.16	8.270
508.51	8.251
508.85	7.700
509.19	8.337
509.54	8.549
509.88	8.645
510.23	8.402
510.57	8.265
510.92	8.708
511.26	8.418
511.61	8.160
511.95	8.150
512.30	8.075
512.64	8.146
512.98	8.454
513.33	9.022
513.67	7.496
514.02	7.869
514.36	8.798
514.70	8.438
515.05	7.977
515.39	8.556
515.74	8.643
516.08	8.663
516.42	8.530
516.77	8.465
517.11	7.788
517.46	8.165
517.80	9.781
518.14	8.596
518.49	8.731
518.83	7.823
519.17	7.808
519.52	8.229
519.86	8.553
520.20	8.892
520.55	8.434
520.89	7.658
521.23	8.431
521.58	8.531
521.92	8.555
522.26	8.247
522.61	7.697
522.95	8.997
523.29	8.621
523.64	8.913
523.98	8.842
524.32	8.997
524.66	8.423
525.01	8.154
525.35	8.041
525.69	8.005
526.04	8.496
526.38	8.736
526.72	8.420
527.06	8.680
527.41	8.805
527.75	8.135
528.09	8.914
528.43	8.407
528.78	8.613
529.12	8.200
529.46	8.375
529.80	7.895
530.15	8.812
530.49	6.940
530.83	8.796
531.17	8.124
531.51	8.544
531.86	8.233
532.20	8.537
532.54	8.079
532.88	8.061
533.22	8.603
533.57	8.367
533.91	8.754
534.25	8.762
534.59	8.391
534.93	8.489
535.27	8.282
535.62	8.414
535.96	8.309
536.30	8.226
536.64	8.949
536.98	8.672
537.32	8.210
537.66	8.172
538.01	8.459
538.35	8.587
538.69	7.873
539.03	8.338
539.37	8.775
539.71	8.529
540.05	9.053
540.39	7.457
540.73	7.590
541.07	8.338
541.42	8.033
541.76	8.066
542.10	8.384
542.44	7.795
542.78	8.090
543.12	8.045
543.46	8.059
543.80	7.914
544.14	7.780
544.48	8.215
544.82	8.318
545.16	8.050
545.50	8.628
545.84	8.083
546.18	8.827
546.52	7.707
546.86	8.491
547.20	7.443
547.54	8.365
547.88	8.800
548.22	8.421
548.56	7.724
548.90	8.060
549.24	8.693
549.58	8.265
549.92	7.972
550.26	8.155
550.60	8.360
550.94	8.473
551.28	7.789
551.62	7.547
551.96	8.414
552.30	8.859
552.64	9.894
552.98	7.673
553.32	8.103
553.66	8.039
554.00	8.890
554.34	7.722
554.68	8.005
555.02	8.344
555.36	8.416
555.69	8.456
556.03	7.692
556.37	8.135
556.71	8.434
557.05	8.498
557.39	7.830
557.73	7.530
558.07	7.483
558.41	8.306
558.75	8.857
559.08	8.420
559.42	7.339
559.76	8.887
560.10	7.770
560.44	8.311
560.78	8.875
561.12	7.943
561.45	8.333
561.79	9.646
562.13	8.749
562.47	7.891
562.81	7.532
563.15	8.270
563.48	8.328
563.82	8.646
564.16	7.450
564.50	7.867
564.84	8.083
565.17	8.588
565.51	7.710
565.85	8.314
566.19	8.122
566.52	8.426
566.86	8.206
567.20	8.320
567.54	7.700
567.88	8.461
568.21	8.004
568.55	8.393
568.89	8.171
569.23	8.450
569.56	8.089
569.90	8.838
570.24	8.364
570.57	7.793
570.91	7.838
571.25	8.013
571.59	8.405
571.92	8.076
572.26	7.967
572.60	8.054
572.93	8.377
573.27	7.895
573.61	7.941
573.95	8.279
574.28	7.965
574.62	7.799
574.96	7.631
575.29	7.865
575.63	7.877
575.97	8.096
576.30	8.265
576.64	7.850
576.98	7.813
577.31	8.016
577.65	7.924
577.98	7.963
578.32	7.722
578.66	7.614
578.99	7.844
579.33	7.781
579.67	7.956
580.00	7.800
580.34	8.072
580.67	7.833
581.01	7.984
581.35	7.793
581.68	8.199
582.02	8.143
582.35	8.484
582.69	8.159
583.02	8.428
583.36	7.907
583.70	7.862
584.03	7.847
584.37	8.097
584.70	7.824
585.04	7.510
585.37	7.689
585.71	8.026
586.04	7.992
586.38	8.101
586.72	7.546
587.05	7.726
587.39	7.679
587.72	8.062
588.06	8.293
588.39	8.066
588.73	7.910
589.06	8.042
589.40	7.837
589.73	8.162
590.07	8.389
590.40	7.945
590.73	8.236
591.07	8.042
591.40	7.854
591.74	8.029
592.07	8.323
592.41	8.281
592.74	8.200
593.08	8.344
593.41	8.166
593.75	8.190
594.08	8.331
594.41	8.269
594.75	7.904
595.08	8.109
595.42	8.052
595.75	8.266
596.09	7.862
596.42	8.062
596.75	7.989
597.09	9.051
597.42	8.145
597.75	7.958
598.09	8.254
598.42	8.243
598.76	8.139
599.09	7.725
599.42	8.247
599.76	8.287
600.09	8.542
600.42	8.408
600.76	8.223
601.09	8.131
601.42	8.102
601.76	7.897
602.09	7.934
602.42	7.452
602.76	8.487
603.09	8.003
603.42	8.562
603.76	7.681
604.09	8.339
604.42	7.780
604.76	8.409
605.09	8.217
605.42	8.293
605.75	8.423
606.09	7.988
606.42	7.917
606.75	7.346
607.09	7.412
607.42	8.131
607.75	8.128
608.08	7.498
608.42	7.900
608.75	7.794
609.08	7.937
609.41	7.675
609.75	7.768
610.08	8.795
610.41	8.539
610.74	7.815
611.07	7.815
611.41	8.565
611.74	7.945
612.07	7.854
612.40	7.319
612.73	7.971
613.07	7.971
613.40	8.422
613.73	8.185
614.06	8.145
614.39	7.969
614.72	7.569
615.06	7.459
615.39	7.637
615.72	8.057
616.05	7.965
616.38	7.770
616.71	8.568
617.05	7.295
617.38	8.186
617.71	8.099
618.04	7.771
618.37	7.814
618.70	7.975
619.03	7.527
619.36	8.261
619.69	8.392
620.03	7.345
620.36	8.650
620.69	7.650
621.02	8.005
621.35	7.692
621.68	8.098
622.01	7.117
622.34	7.392
622.67	8.454
623.00	6.545
623.33	7.631
623.66	8.236
623.99	7.176
624.32	8.772
624.65	7.079
624.99	7.347
625.32	8.948
625.65	8.766
625.98	6.847
626.31	7.371
626.64	8.864
626.97	7.952
627.30	7.365
627.63	7.352
627.96	8.483
628.29	8.638
628.62	6.885
628.95	7.713
629.28	6.882
629.61	7.912
629.94	6.527
630.26	6.525
630.59	6.649
630.92	7.619
631.25	8.945
631.58	7.250
631.91	7.966
632.24	6.724
632.57	8.254
632.90	6.720
633.23	7.347
633.56	7.041
633.89	5.992
634.22	8.108
634.55	7.098
634.88	7.035
635.20	8.504
635.53	7.458
635.86	7.476
636.19	9.544
636.52	9.072
636.85	7.048
637.18	7.796
637.51	6.452
637.83	8.306
638.16	8.525
638.49	6.338
638.82	6.877
639.15	5.727
639.48	8.545
639.81	7.737
640.13	8.363
640.46	6.788
640.79	5.882
641.12	9.317
641.45	7.403
641.77	7.574
642.10	7.874
642.43	8.511
642.76	6.233
643.09	5.890
643.41	7.143
643.74	6.897
644.07	7.862
644.40	5.799
644.73	5.515
645.05	6.461
645.38	6.763
645.71	8.944
646.04	8.465
646.36	5.255
646.69	5.982
647.02	7.951
647.35	8.397
647.67	8.052
648.00	7.484
648.33	8.258
648.66	7.989
648.98	6.803
649.31	5.954
649.64	7.039
649.96	7.427
650.29	5.841
650.62	5.799
650.94	4.805
651.27	6.287
651.60	6.140
651.92	6.839
652.25	8.104
652.58	6.740
652.90	6.250
653.23	8.169
653.56	6.705
653.88	9.270
654.21	6.901
654.54	6.647
654.86	7.365
655.19	5.521
655.52	7.901
655.84	8.577
656.17	10.069
656.49	13.972
656.82	15.254
657.15	11.373
657.47	8.591
657.80	6.302
658.13	4.817
658.45	6.216
658.78	7.404
659.10	6.932
659.43	6.882
659.75	6.283
660.08	6.387
660.41	5.542
660.73	6.157
661.06	5.727
661.38	6.220
661.71	5.172
662.03	5.115
662.36	8.408
662.68	6.004
663.01	7.257
663.33	6.805
663.66	8.425
663.98	6.731
664.31	4.878
664.63	4.239
664.96	5.808
665.28	4.537
665.61	7.343
665.93	6.786
666.26	8.961
666.58	4.982
666.91	7.664
667.23	5.524
667.56	5.720
667.88	7.200
668.21	5.859
668.53	4.826
668.86	4.912
669.18	6.925
669.50	6.759
669.83	4.600
670.15	6.890
670.48	7.341
670.80	5.163
671.13	7.561
671.45	7.677
671.77	7.533
672.10	5.833
672.42	4.045
672.75	6.605
673.07	7.761
673.39	5.085
673.72	8.389
674.04	7.414
674.37	3.936
674.69	7.760
675.01	3.238
675.34	4.580
675.66	3.558
675.98	7.276
676.31	5.859
676.63	8.935
676.95	6.897
677.28	4.032
677.60	7.087
677.92	6.526
678.25	8.044
678.57	4.982
678.89	6.997
679.22	4.704
679.54	6.325
679.86	3.729
680.18	3.317
680.51	6.918
680.83	6.547
681.15	5.517
681.48	5.354
681.80	6.390
682.12	6.643
682.44	5.342
682.77	6.028
683.09	4.735
683.41	7.171
683.73	7.021
684.06	5.720
684.38	4.293
684.70	6.104
685.02	6.024
685.34	4.659
685.67	3.943
685.99	4.755
686.31	5.378
686.63	4.107
686.96	5.205
687.28	6.026
687.60	3.872
687.92	5.305
688.24	7.179
688.56	3.966
688.89	5.989
689.21	6.262
689.53	4.314
689.85	6.114
690.17	6.296
690.49	5.378
690.82	6.139
691.14	3.441
691.46	4.207
691.78	7.182
692.10	4.587
692.42	5.000
692.74	5.445
693.06	2.963
693.39	7.211
693.71	6.767
694.03	2.788
694.35	5.524
694.67	7.392
694.99	6.596
695.31	5.960
695.63	3.896
695.95	5.383
696.27	3.516
696.59	6.637
696.91	6.081
697.23	5.275
697.56	2.037
697.88	3.788
698.20	4.520
698.52	7.576
698.84	4.366
699.16	6.939
699.48	3.347
699.80	3.830
700.12	7.205
700.44	2.995
700.76	4.751
701.08	7.506
701.40	3.627
701.72	4.478
702.04	2.674
702.36	1.832
702.68	5.379
703.00	3.423
703.32	2.709
703.64	3.912
703.96	4.535
704.28	3.931
704.60	8.354
704.91	4.082
705.23	2.740
705.55	3.621
705.87	3.333
706.19	4.908
706.51	1.506
706.83	1.441
707.15	2.116
707.47	4.439
707.79	5.677
708.11	2.754
708.43	3.656
708.74	1.563
709.06	0.696
709.38	6.573
709.70	6.948
710.02	5.168
710.34	4.787
710.66	1.676
710.98	1.913
711.29	2.747
711.61	3.107
711.93	2.849
712.25	6.486
712.57	8.260
712.89	7.059
713.20	0.888
713.52	4.335
713.84	2.507
714.16	4.474
714.48	4.639
714.80	5.455
715.11	5.774
715.43	4.244
715.75	2.632
716.07	2.486
716.39	6.831
716.70	-0.602
717.02	1.967
717.34	0.000
717.66	3.356
717.97	0.342
718.29	-0.344
718.61	3.618
718.93	0.647
719.24	3.106
719.56	0.920
719.88	2.402
720.20	2.903
720.51	3.727
720.83	3.438
721.15	1.645
721.46	-0.685
721.78	2.000
722.10	3.883
722.42	3.020
722.73	-0.323
723.05	4.912
723.37	6.250
723.68	3.584
724.00	1.444
724.32	-2.113
724.63	3.147
724.95	5.319
725.27	3.833
725.58	0.353
725.90	5.862
726.22	1.567
726.53	6.169
726.85	6.604
727.16	4.532
727.48	6.116
727.80	3.642
728.11	0.353
728.43	4.040
728.74	5.017
729.06	0.331
729.38	2.273
729.69	1.007
730.01	3.571
730.32	4.848
730.64	5.346
730.96	0.311
731.27	6.983
731.59	3.022
731.90	0.260
732.22	3.385
732.53	1.934
732.85	2.857
733.16	2.053
733.48	-2.744
733.80	3.064
734.11	3.989
734.43	4.324
734.74	2.025
735.06	2.513
735.37	3.784
735.69	4.865
736.00	3.390
736.32	2.695
736.63	4.722
736.95	0.287
737.26	1.212
737.58	3.636
737.89	5.294
738.21	1.835
738.52	0.000
738.83	2.389
739.15	1.418
739.46	2.041
739.78	3.681
740.09	3.438
740.41	4.665
740.72	1.667
741.04	4.531
741.35	3.860
741.66	0.784
741.98	2.869
742.29	-0.418
742.61	-3.509
742.92	-0.385
743.23	1.805
743.55	0.000
743.86	1.200
744.18	-4.132
744.49	1.266
744.80	5.350
745.12	1.688
745.43	2.033
745.74	0.431
746.06	0.424
746.37	4.219
746.68	4.065
747.00	0.417
747.31	0.429
747.62	0.769
747.94	2.429
748.25	-0.402
748.56	-6.122
748.88	-1.282
749.19	0.862
749.50	-3.463
749.82	4.016
750.13	5.338
750.44	0.000
750.75	4.923
751.07	5.231
751.38	2.208
751.69	2.556
752.01	-0.647
752.32	4.248
752.63	0.340
752.94	4.844
753.26	-1.115
753.57	0.000
753.88	0.375
754.19	4.502
754.51	1.608
754.82	3.537
755.13	6.557
755.44	0.683
755.75	1.316
756.07	5.075
756.38	4.088
756.69	2.711
757.00	1.108
757.31	3.552
757.63	2.302
757.94	3.052
758.25	6.546
758.56	3.050
758.87	3.409
759.18	2.667
759.50	4.249
759.81	2.241
760.12	4.852
760.43	1.562
760.74	3.941
761.05	1.750
761.36	3.855
761.67	4.315
761.99	2.162
762.30	2.134
762.61	3.630
762.92	2.239
763.23	2.247
763.54	2.878
763.85	2.405
764.16	5.724
764.47	2.817
764.78	1.917
765.10	4.106
765.41	7.179
765.72	1.323
766.03	1.412
766.34	0.627
766.65	0.000
766.96	0.398
767.27	0.000
767.58	-2.985
767.89	-0.481
768.20	0.939
768.51	-1.389
768.82	1.205
769.13	0.758
769.44	-3.462
769.75	5.415
770.06	5.385
770.37	5.906
770.68	-0.426
770.99	-4.049
771.30	3.704
771.61	-1.141
771.92	-1.481
772.23	4.049
772.54	0.000
772.85	7.834
773.16	5.238
773.47	-4.233
773.78	-4.865
774.09	-5.114
774.39	6.500
774.70	1.639
775.01	-7.317
775.32	-7.647
775.63	0.000
775.94	-7.006
776.25	-1.935
776.56	-1.282
776.87	-1.361
777.18	-4.138
777.48	-4.895
777.79	-9.459
778.10	-8.088
778.41	3.472
778.72	-0.690
779.03	0.617
779.34	-3.636
779.65	3.627
779.95	-1.667
780.26	-5.114
780.57	-3.871
780.88	6.522
781.19	-1.935
781.50	-1.765
781.80	5.376
782.11	4.233
782.42	-6.061
782.73	-8.383
783.04	-0.559
783.34	-6.061
783.65	-8.497
783.96	-5.590
784.27	-1.190
784.57	0.000
784.88	-0.714
785.19	-7.087
785.50	-4.724
785.81	-6.767
786.11	-1.538
786.42	-10.072
786.73	-1.439
787.04	-4.511
787.34	-10.656
787.65	-8.000
787.96	-1.493
788.26	2.797
788.57	3.497
788.88	-3.289
789.19	-4.575
789.49	-6.849
789.80	-10.638
790.11	-3.937
790.41	-4.687
790.72	-11.017
791.03	-19.417
791.33	-6.087
791.64	1.754
791.95	-13.393
792.25	1.905
792.56	-10.714
792.87	-25.000
793.17	-4.464
793.48	-19.792
793.79	-24.096
794.09	-9.174
794.40	-9.174
794.70	-7.483
795.01	-4.545
795.32	-4.795
795.62	-0.704
795.93	-6.061
796.23	-8.197
796.54	-8.036
796.85	-17.021
797.15	-17.391
797.46	-20.548
797.76	-13.750
798.07	-5.435
798.37	-26.804
798.68	-16.883
798.99	-4.598
799.29	-4.494
799.60	-12.766
799.90	-12.048
800.21	-30.769
800.51	-23.881
800.82	-23.529
801.12	-39.726
801.43	-41.176
801.73	-22.034
802.04	-6.061
802.34	-33.333
802.65	-35.593
802.95	-23.881
803.26	-15.254
803.56	-17.808
803.87	-15.714
804.17	-20.548
804.48	-43.860
804.78	-18.056
805.09	-55.172
805.39	-1.351
805.70	-30.986
806.00	-14.634
806.30	-12.048
806.61	-27.397
806.91	-3.846
807.22	-14.444
807.52	-22.989
807.83	-12.500
808.13	-6.024
808.43	-10.112
808.74	-18.750
809.04	-29.412
809.35	-28.000
809.65	-24.286
809.95	-19.178
810.26	-35.088
810.56	-39.655
810.86	-4.412
811.17	-35.088
811.47	-34.426
811.77	-53.333
812.08	-25.424
812.38	-15.000
812.69	-20.690
812.99	-33.962
813.29	-69.231
813.59	-38.000
813.90	-19.298
814.20	-36.364
814.50	1.408
814.81	-10.256
815.11	-18.033
815.41	-19.403
815.72	-10.345
816.02	-16.071
816.32	-11.111
816.62	-31.818
816.93	-28.889
817.23	-27.778
817.53	-57.447
817.84	-30.952
818.14	-35.294
818.44	-36.735
818.74	-22.222
819.04	-64.103
819.35	-65.714
819.65	-111.538
819.95	-13.208
820.25	-35.556
820.56	-47.619
820.86	-53.125
821.16	-30.769
821.46	-48.837
821.76	-36.000
822.07	-19.643
822.37	-32.609
822.67	-25.532
822.97	-81.081
823.27	-52.500
823.57	-18.367
823.88	-20.000
824.18	-37.500
824.48	-63.333
824.78	-72.000
825.08	-39.394
825.38	-11.111
825.69	-36.170
825.99	-22.222
826.29	-77.143
826.59	-43.590
826.89	-37.209
827.19	-28.000
827.49	-35.294
827.79	-18.750
828.09	-48.649
828.39	-40.000
828.70	-36.585
829.00	-51.163
829.30	-89.286
829.60	-58.824
829.90	-21.739
830.20	-57.143
830.50	-58.621
830.80	-72.222
831.10	-73.077
831.40	-55.882
831.70	-66.667
832.00	-38.710
832.30	-135.294
832.60	-95.833
832.90	-192.308
833.20	-84.211
833.50	-65.000
833.80	-105.263
834.10	-157.143
834.40	-44.444
834.70	-18.750
835.00	-65.714
835.30	-20.588
835.60	-76.667
835.90	-44.000
836.20	-127.273
836.50	-40.000
836.80	-72.727
837.10	-51.852
837.40	-7.407
837.70	-150.000
838.00	-64.286
838.30	-60.870
838.60	-48.276
838.90	-107.143
839.19	-117.391
839.49	-175.000
839.79	-69.565
840.09	-175.000
840.39	-110.000
840.69	-77.419
840.99	-107.143
841.29	-113.333
841.59	-68.421
841.88	-35.897
842.18	-50.000
842.48	-360.000
842.78	-75.000
843.08	-50.000
843.38	-19.355
843.68	-122.222
843.97	-20.588
844.27	-87.500
844.57	-126.316
844.87	-260.000
845.17	-100.000
845.47	-33.333
845.76	-95.238
846.06	-244.444
846.36	-88.235
846.66	-53.846
846.96	-180.000
847.25	-135.294
847.55	-34.783
847.85	-75.000
848.15	-58.824
848.44	-181.818
848.74	-52.381
849.04	-66.667
849.34	-112.500
849.63	-60.870
849.93	1200.000
850.23	-160.000
850.53	-61.538
850.82	-172.727
851.12	-68.182
851.42	-145.455
851.71	-153.846
852.01	-125.000
852.31	-161.538
852.61	-94.737
852.90	-108.333
853.20	-100.000
853.50	-277.778
853.79	-128.571
854.09	-113.636
854.39	-216.667
854.68	-70.968
854.98	-96.154
855.28	-105.556
855.57	-57.143
855.87	-92.000
856.17	-109.091
856.46	-62.963
856.76	-88.889
857.05	-95.652
857.35	-87.500
857.65	-169.231
857.94	-52.381
858.24	-44.444
858.53	-86.957
858.83	-82.353
859.13	-129.412
859.42	-76.471
859.72	-121.429
860.01	-40.000
860.31	-222.222
860.60	-240.000
860.90	-146.667
861.20	-50.000
861.49	-138.462
861.79	-63.333
862.08	-169.231
862.38	-40.625
862.67	-123.529
862.97	-112.500
863.26	-300.000
863.56	-100.000
863.85	-163.636
864.15	-61.111
864.44	-966.667
864.74	-178.571
865.03	-156.250
865.33	-220.000
865.62	-80.645
865.92	-50.000
866.21	-34.783
866.51	-114.286
866.80	-440.000
867.10	-175.000
867.39	-183.333
867.69	1900.000
867.98	-300.000
868.27	-88.235
868.57	-2800.000
868.86	-300.000
869.16	-80.952
869.45	-87.500
869.75	-172.727
870.04	-400.000
870.33	-191.667
870.63	-400.000
870.92	-475.000
871.22	-475.000
871.51	-218.182
871.80	-933.333
872.10	-1150.000
>>>>>End Processed Spectral Data<<<<<
