SpectraSuite Data File
++++++++++++++++++++++++++++++++++++
Date: Thu May 14 14:42:23 PDT 2015
User: schluterlab
Dark Spectrum Present: Yes
Reference Spectrum Present: Yes
Number of Sampled Component Spectra: 1
Spectrometers: USB2E3373
Integration Time (usec): 3000 (USB2E3373)
Spectra Averaged: 3 (USB2E3373)
Boxcar Smoothing: 0 (USB2E3373)
Correct for Electrical Dark: No (USB2E3373)
Strobe/Lamp Enabled: No (USB2E3373)
Correct for Detector Non-linearity: No (USB2E3373)
Correct for Stray Light: No (USB2E3373)
Number of Pixels in Processed Spectrum: 2048
>>>>>Begin Processed Spectral Data<<<<<
178.53	0.000
178.91	-142.857
179.29	-300.000
179.67	300.000
180.04	85.714
180.42	40.000
180.80	40.000
181.18	500.000
181.56	600.000
181.94	25.000
182.31	275.000
182.69	-0.000
183.07	50.000
183.45	250.000
183.83	116.667
184.20	-33.333
184.58	-1100.000
184.96	-200.000
185.34	44.444
185.72	240.000
186.09	66.667
186.47	250.000
186.85	40.000
187.23	11.111
187.61	-700.000
187.98	80.000
188.36	-0.000
188.74	-25.000
189.12	266.667
189.49	43.750
189.87	37.500
190.25	111.111
190.63	-20.000
191.00	11.111
191.38	0.000
191.76	75.000
192.14	116.667
192.51	-200.000
192.89	150.000
193.27	0.000
193.65	-42.857
194.02	-200.000
194.40	57.143
194.78	-57.143
195.15	0.000
195.53	-18.182
195.91	0.000
196.29	150.000
196.66	38.462
197.04	-100.000
197.42	42.857
197.79	-50.000
198.17	-50.000
198.55	71.429
198.92	144.444
199.30	0.000
199.68	63.636
200.05	57.143
200.43	150.000
200.81	100.000
201.18	0.000
201.56	77.778
201.94	0.000
202.31	-66.667
202.69	33.333
203.07	-1100.000
203.44	144.444
203.82	100.000
204.19	58.333
204.57	-16.667
204.95	37.500
205.32	100.000
205.70	-50.000
206.08	216.667
206.45	150.000
206.83	220.000
207.20	116.667
207.58	-60.000
207.96	116.667
208.33	166.667
208.71	-25.000
209.08	400.000
209.46	0.000
209.84	150.000
210.21	100.000
210.59	200.000
210.96	-133.333
211.34	300.000
211.71	12.500
212.09	-100.000
212.46	0.000
212.84	-0.000
213.22	-40.000
213.59	-200.000
213.97	100.000
214.34	300.000
214.72	-116.667
215.09	325.000
215.47	0.000
215.84	-57.143
216.22	250.000
216.59	160.000
216.97	60.000
217.34	50.000
217.72	87.500
218.09	-325.000
218.47	275.000
218.84	0.000
219.22	-140.000
219.59	5.882
219.97	25.000
220.34	250.000
220.72	33.333
221.09	76.923
221.47	-166.667
221.84	40.000
222.22	42.857
222.59	0.000
222.97	100.000
223.34	-20.000
223.72	600.000
224.09	275.000
224.46	-50.000
224.84	100.000
225.21	85.714
225.59	25.000
225.96	-175.000
226.34	19.231
226.71	33.333
227.08	350.000
227.46	113.333
227.83	0.000
228.21	10.526
228.58	-50.000
228.95	50.000
229.33	58.333
229.70	40.000
230.08	78.947
230.45	10.000
230.82	266.667
231.20	57.143
231.57	108.333
231.95	45.455
232.32	90.909
232.69	35.000
233.07	-50.000
233.44	47.059
233.81	40.000
234.19	105.556
234.56	36.364
234.93	27.586
235.31	89.474
235.68	16.667
236.05	-25.000
236.43	53.846
236.80	96.000
237.17	66.667
237.55	39.394
237.92	-10.000
238.29	3.226
238.67	29.545
239.04	22.222
239.41	2.381
239.79	21.739
240.16	12.963
240.53	17.391
240.91	13.725
241.28	9.836
241.65	31.343
242.02	37.838
242.40	21.538
242.77	28.000
243.14	19.512
243.51	6.579
243.89	5.128
244.26	29.703
244.63	14.706
245.00	10.280
245.38	6.140
245.75	-2.655
246.12	23.016
246.49	9.302
246.87	17.143
247.24	15.894
247.61	14.474
247.98	12.752
248.36	9.259
248.73	10.429
249.10	6.557
249.47	17.413
249.84	16.754
250.22	10.881
250.59	13.889
250.96	17.727
251.33	9.694
251.70	13.675
252.08	8.750
252.45	10.246
252.82	7.851
253.19	9.766
253.56	13.688
253.94	8.077
254.31	12.879
254.68	14.336
255.05	14.007
255.42	11.565
255.79	11.650
256.16	13.245
256.54	8.940
256.91	9.508
257.28	12.459
257.65	8.280
258.02	7.080
258.39	9.687
258.76	12.232
259.14	12.931
259.51	11.527
259.88	9.915
260.25	13.333
260.62	11.781
260.99	16.393
261.36	11.528
261.73	10.345
262.10	12.363
262.47	9.115
262.85	13.131
263.22	10.390
263.59	6.842
263.96	12.788
264.33	11.509
264.70	8.395
265.07	12.888
265.44	13.152
265.81	12.037
266.18	9.977
266.55	12.277
266.92	9.795
267.29	14.442
267.66	10.643
268.03	10.262
268.40	10.438
268.77	9.339
269.14	8.811
269.51	10.746
269.88	13.525
270.25	11.871
270.62	12.236
270.99	13.131
271.36	11.683
271.73	13.360
272.10	13.026
272.47	9.419
272.84	12.450
273.21	11.222
273.58	11.089
273.95	11.731
274.32	8.555
274.69	8.704
275.06	11.722
275.43	10.536
275.80	11.111
276.17	7.963
276.54	10.448
276.91	9.660
277.28	12.839
277.65	10.592
278.02	9.375
278.39	9.058
278.76	8.612
279.13	9.752
279.50	10.653
279.87	11.270
280.23	9.331
280.60	12.542
280.97	10.362
281.34	9.508
281.71	10.998
282.08	10.631
282.45	8.838
282.82	10.832
283.19	8.562
283.56	9.180
283.92	10.811
284.29	12.638
284.66	10.837
285.03	8.814
285.40	11.592
285.77	10.062
286.14	9.466
286.51	8.371
286.87	9.637
287.24	10.392
287.61	10.314
287.98	7.855
288.35	10.651
288.72	10.947
289.08	10.249
289.45	9.763
289.82	9.337
290.19	9.339
290.56	10.563
290.93	10.414
291.29	9.780
291.66	8.815
292.03	9.091
292.40	9.796
292.77	9.164
293.13	8.660
293.50	9.198
293.87	8.725
294.24	9.333
294.60	9.987
294.97	8.322
295.34	9.731
295.71	9.079
296.08	7.752
296.44	10.172
296.81	9.379
297.18	8.344
297.55	8.019
297.91	8.541
298.28	6.754
298.65	9.631
299.02	9.091
299.38	10.526
299.75	8.411
300.12	7.639
300.48	8.295
300.85	10.461
301.22	9.843
301.59	6.963
301.95	8.023
302.32	9.333
302.69	8.434
303.05	7.617
303.42	8.315
303.79	7.292
304.15	7.886
304.52	6.554
304.89	7.644
305.25	8.489
305.62	7.941
305.99	8.454
306.35	7.359
306.72	8.997
307.09	7.310
307.45	8.282
307.82	8.174
308.19	7.770
308.55	9.161
308.92	7.692
309.29	8.716
309.65	7.602
310.02	8.218
310.38	8.661
310.75	9.029
311.12	8.725
311.48	7.820
311.85	8.642
312.22	7.590
312.58	9.108
312.95	8.413
313.31	9.485
313.68	8.700
314.05	9.485
314.41	8.743
314.78	9.173
315.14	10.345
315.51	9.880
315.87	11.611
316.24	10.868
316.61	10.213
316.97	10.679
317.34	10.406
317.70	11.266
318.07	10.141
318.43	10.714
318.80	11.204
319.16	10.901
319.53	10.711
319.89	10.692
320.26	12.456
320.62	10.816
320.99	11.911
321.35	12.200
321.72	11.814
322.08	11.632
322.45	11.292
322.81	12.996
323.18	11.681
323.54	12.759
323.91	12.633
324.27	12.306
324.64	13.602
325.00	12.604
325.37	14.087
325.73	13.636
326.10	14.193
326.46	15.391
326.83	14.812
327.19	14.803
327.56	15.257
327.92	14.555
328.29	14.274
328.65	15.913
329.01	16.328
329.38	15.754
329.74	16.952
330.11	16.952
330.47	15.838
330.84	16.279
331.20	16.250
331.56	17.158
331.93	17.573
332.29	17.797
332.66	17.940
333.02	17.085
333.38	17.450
333.75	16.330
334.11	18.265
334.48	18.812
334.84	17.842
335.20	17.045
335.57	18.634
335.93	17.521
336.29	18.053
336.66	18.587
337.02	17.642
337.38	19.303
337.75	17.934
338.11	18.755
338.47	18.445
338.84	18.613
339.20	17.944
339.56	17.298
339.93	18.391
340.29	17.472
340.65	17.518
341.02	18.595
341.38	18.755
341.74	18.079
342.11	18.182
342.47	17.712
342.83	17.391
343.20	18.234
343.56	17.803
343.92	17.534
344.28	17.109
344.65	18.527
345.01	17.551
345.37	17.496
345.73	17.459
346.10	18.253
346.46	17.563
346.82	17.903
347.19	18.258
347.55	17.982
347.91	17.459
348.27	17.906
348.63	18.431
349.00	17.673
349.36	17.398
349.72	17.336
350.08	17.385
350.45	18.251
350.81	16.365
351.17	17.444
351.53	17.513
351.89	18.147
352.26	18.134
352.62	17.761
352.98	17.557
353.34	17.252
353.70	17.643
354.07	17.139
354.43	17.008
354.79	16.904
355.15	18.028
355.51	17.325
355.87	16.679
356.24	17.643
356.60	16.630
356.96	18.755
357.32	16.877
357.68	16.545
358.04	17.440
358.40	18.209
358.77	17.105
359.13	16.839
359.49	16.803
359.85	16.751
360.21	17.432
360.57	17.014
360.93	17.842
361.29	16.912
361.66	17.451
362.02	17.258
362.38	17.850
362.74	17.179
363.10	17.263
363.46	16.967
363.82	17.188
364.18	16.890
364.54	17.842
364.90	17.258
365.26	17.241
365.62	17.733
365.98	17.631
366.35	17.114
366.71	17.551
367.07	16.982
367.43	17.006
367.79	17.518
368.15	17.057
368.51	16.847
368.87	17.636
369.23	16.800
369.59	17.623
369.95	17.512
370.31	17.016
370.67	17.675
371.03	17.590
371.39	16.387
371.75	17.331
372.11	17.412
372.47	17.874
372.83	18.390
373.19	17.412
373.55	17.209
373.91	17.246
374.27	17.529
374.63	17.118
374.99	17.772
375.35	17.143
375.71	17.032
376.07	17.818
376.42	17.506
376.78	17.713
377.14	17.654
377.50	17.268
377.86	17.857
378.22	17.485
378.58	17.360
378.94	17.723
379.30	17.282
379.66	17.108
380.02	17.773
380.38	17.684
380.74	17.408
381.09	17.073
381.45	17.102
381.81	17.974
382.17	17.280
382.53	16.901
382.89	17.043
383.25	17.175
383.61	16.435
383.97	17.256
384.32	17.344
384.68	17.169
385.04	17.235
385.40	17.443
385.76	17.761
386.12	17.534
386.48	17.412
386.83	17.700
387.19	16.454
387.55	16.960
387.91	16.667
388.27	17.436
388.62	16.724
388.98	16.864
389.34	16.735
389.70	17.722
390.06	16.815
390.42	17.048
390.77	17.760
391.13	17.019
391.49	16.848
391.85	16.242
392.20	16.785
392.56	17.188
392.92	16.903
393.28	17.523
393.64	16.201
393.99	17.083
394.35	17.348
394.71	17.246
395.07	17.066
395.42	16.676
395.78	17.489
396.14	16.756
396.50	16.746
396.85	16.398
397.21	15.858
397.57	17.079
397.92	16.667
398.28	16.404
398.64	16.819
399.00	15.759
399.35	16.545
399.71	15.380
400.07	16.732
400.42	15.832
400.78	16.840
401.14	15.879
401.49	16.714
401.85	16.163
402.21	16.396
402.57	16.843
402.92	16.430
403.28	16.101
403.63	15.990
403.99	15.618
404.35	15.975
404.70	16.431
405.06	16.196
405.42	16.335
405.77	16.957
406.13	15.451
406.49	15.822
406.84	15.679
407.20	16.546
407.55	15.445
407.91	15.399
408.27	15.489
408.62	16.638
408.98	15.728
409.34	14.487
409.69	15.822
410.05	15.475
410.40	15.893
410.76	15.592
411.11	16.189
411.47	15.725
411.83	16.402
412.18	16.265
412.54	15.768
412.89	16.240
413.25	15.745
413.60	15.164
413.96	15.909
414.31	15.694
414.67	16.219
415.03	15.754
415.38	15.889
415.74	16.616
416.09	15.731
416.45	15.466
416.80	15.055
417.16	15.645
417.51	15.691
417.87	15.267
418.22	15.569
418.58	16.109
418.93	16.647
419.29	15.105
419.64	15.366
420.00	15.846
420.35	16.844
420.71	15.164
421.06	15.354
421.42	15.654
421.77	15.994
422.12	15.275
422.48	15.412
422.83	15.882
423.19	15.066
423.54	15.542
423.90	15.627
424.25	15.573
424.61	15.442
424.96	15.596
425.31	16.667
425.67	15.727
426.02	16.104
426.38	15.786
426.73	16.127
427.09	16.724
427.44	16.057
427.79	16.363
428.15	15.468
428.50	15.225
428.85	15.729
429.21	16.915
429.56	15.647
429.92	16.364
430.27	16.096
430.62	16.854
430.98	16.035
431.33	15.689
431.68	16.236
432.04	16.303
432.39	16.872
432.74	15.696
433.10	16.441
433.45	16.667
433.80	17.114
434.16	16.994
434.51	16.547
434.86	16.504
435.22	16.578
435.57	17.040
435.92	17.084
436.28	16.212
436.63	17.531
436.98	16.371
437.34	17.306
437.69	16.401
438.04	16.393
438.39	17.059
438.75	16.657
439.10	17.283
439.45	17.049
439.81	17.514
440.16	16.622
440.51	17.670
440.86	17.287
441.22	16.827
441.57	17.715
441.92	17.556
442.27	17.323
442.63	17.188
442.98	16.756
443.33	17.833
443.68	18.087
444.03	17.921
444.39	17.152
444.74	18.326
445.09	16.776
445.44	18.177
445.79	17.433
446.15	17.318
446.50	17.261
446.85	17.753
447.20	17.456
447.55	17.730
447.91	18.168
448.26	17.759
448.61	17.960
448.96	18.670
449.31	17.922
449.66	17.211
450.02	17.669
450.37	18.647
450.72	18.353
451.07	18.280
451.42	17.678
451.77	17.399
452.12	18.115
452.47	18.122
452.83	19.426
453.18	17.805
453.53	17.978
453.88	18.112
454.23	18.475
454.58	18.166
454.93	18.507
455.28	18.302
455.63	18.647
455.98	17.765
456.34	18.905
456.69	18.166
457.04	19.031
457.39	18.570
457.74	19.631
458.09	18.122
458.44	18.912
458.79	18.566
459.14	18.458
459.49	19.298
459.84	17.996
460.19	17.712
460.54	18.910
460.89	18.687
461.24	17.759
461.59	19.590
461.94	18.140
462.29	19.037
462.64	18.165
462.99	19.083
463.34	19.857
463.69	18.757
464.04	19.122
464.39	19.002
464.74	18.472
465.09	17.820
465.44	18.938
465.79	18.614
466.14	18.603
466.49	17.947
466.84	18.512
467.19	19.191
467.54	16.980
467.89	19.540
468.24	18.726
468.59	18.645
468.94	18.706
469.29	18.896
469.64	19.453
469.99	18.674
470.34	19.678
470.68	19.344
471.03	20.236
471.38	18.836
471.73	18.270
472.08	19.099
472.43	19.446
472.78	18.955
473.13	18.394
473.48	18.973
473.83	19.675
474.17	19.637
474.52	20.024
474.87	19.878
475.22	19.493
475.57	19.730
475.92	19.363
476.27	19.702
476.61	19.107
476.96	18.717
477.31	19.455
477.66	20.409
478.01	19.827
478.36	19.242
478.70	18.966
479.05	19.888
479.40	19.250
479.75	19.933
480.10	19.801
480.45	19.143
480.79	19.048
481.14	19.301
481.49	19.491
481.84	19.843
482.19	19.656
482.53	19.720
482.88	19.628
483.23	19.742
483.58	19.432
483.92	18.440
484.27	19.475
484.62	19.348
484.97	19.285
485.31	18.796
485.66	17.850
486.01	17.673
486.36	17.817
486.70	18.899
487.05	18.899
487.40	19.642
487.75	19.542
488.09	19.442
488.44	19.328
488.79	19.798
489.13	19.623
489.48	19.184
489.83	19.195
490.17	19.279
490.52	19.048
490.87	20.178
491.22	20.104
491.56	19.070
491.91	20.017
492.26	20.251
492.60	20.376
492.95	19.307
493.30	19.767
493.64	19.886
493.99	20.263
494.34	20.209
494.68	19.657
495.03	20.132
495.37	19.840
495.72	20.363
496.07	20.202
496.41	19.863
496.76	20.183
497.11	19.703
497.45	20.501
497.80	20.702
498.14	20.408
498.49	20.267
498.84	20.841
499.18	20.243
499.53	19.910
499.87	20.132
500.22	19.635
500.56	20.018
500.91	21.144
501.26	20.727
501.60	19.708
501.95	20.799
502.29	20.491
502.64	20.114
502.98	19.758
503.33	19.309
503.67	20.017
504.02	20.447
504.36	21.224
504.71	21.038
505.06	21.010
505.40	20.978
505.75	20.993
506.09	21.133
506.44	20.845
506.78	21.422
507.13	21.024
507.47	21.270
507.82	21.496
508.16	21.319
508.51	20.956
508.85	21.115
509.19	21.317
509.54	22.142
509.88	21.612
510.23	21.127
510.57	22.040
510.92	22.109
511.26	20.683
511.61	20.956
511.95	21.718
512.30	22.994
512.64	21.439
512.98	22.311
513.33	22.278
513.67	22.081
514.02	22.841
514.36	22.558
514.70	22.396
515.05	23.045
515.39	22.520
515.74	23.171
516.08	22.504
516.42	24.071
516.77	23.186
517.11	22.434
517.46	23.436
517.80	23.731
518.14	22.905
518.49	23.698
518.83	23.789
519.17	23.479
519.52	23.742
519.86	24.182
520.20	23.429
520.55	23.111
520.89	23.874
521.23	24.288
521.58	24.294
521.92	24.363
522.26	24.284
522.61	24.074
522.95	23.760
523.29	24.540
523.64	24.215
523.98	25.784
524.32	26.304
524.66	25.726
525.01	24.292
525.35	24.641
525.69	24.420
526.04	24.742
526.38	25.287
526.72	25.606
527.06	25.865
527.41	25.015
527.75	26.485
528.09	25.915
528.43	25.755
528.78	25.434
529.12	25.459
529.46	25.576
529.80	25.572
530.15	25.913
530.49	25.979
530.83	26.564
531.17	26.225
531.51	25.933
531.86	26.322
532.20	26.585
532.54	26.032
532.88	26.606
533.22	25.869
533.57	26.890
533.91	27.104
534.25	26.399
534.59	26.724
534.93	25.976
535.27	26.366
535.62	27.004
535.96	26.612
536.30	27.145
536.64	27.387
536.98	27.060
537.32	26.975
537.66	27.449
538.01	25.861
538.35	25.822
538.69	26.262
539.03	27.100
539.37	26.914
539.71	27.207
540.05	27.758
540.39	27.139
540.73	25.987
541.07	26.487
541.42	26.875
541.76	26.631
542.10	27.262
542.44	26.736
542.78	28.163
543.12	26.579
543.46	26.984
543.80	27.038
544.14	27.169
544.48	27.423
544.82	27.768
545.16	27.132
545.50	26.123
545.84	26.883
546.18	28.827
546.52	26.943
546.86	28.050
547.20	27.226
547.54	27.341
547.88	27.185
548.22	27.485
548.56	28.204
548.90	28.299
549.24	28.875
549.58	28.013
549.92	27.806
550.26	27.702
550.60	27.505
550.94	27.943
551.28	28.053
551.62	28.100
551.96	27.508
552.30	29.318
552.64	27.629
552.98	27.760
553.32	29.453
553.66	28.424
554.00	27.743
554.34	29.472
554.68	27.437
555.02	28.778
555.36	29.652
555.69	27.803
556.03	28.373
556.37	29.224
556.71	29.296
557.05	29.201
557.39	28.733
557.73	28.600
558.07	29.139
558.41	30.100
558.75	28.668
559.08	30.411
559.42	29.150
559.76	30.529
560.10	29.739
560.44	29.090
560.78	29.750
561.12	29.680
561.45	29.805
561.79	28.510
562.13	30.746
562.47	29.100
562.81	28.987
563.15	28.409
563.48	29.521
563.82	29.021
564.16	29.316
564.50	30.513
564.84	29.204
565.17	29.529
565.51	28.826
565.85	28.979
566.19	29.378
566.52	28.789
566.86	29.089
567.20	28.548
567.54	28.253
567.88	28.593
568.21	28.113
568.55	28.633
568.89	28.870
569.23	28.517
569.56	28.214
569.90	27.798
570.24	28.297
570.57	27.421
570.91	27.067
571.25	27.452
571.59	27.442
571.92	27.532
572.26	27.184
572.60	27.382
572.93	27.303
573.27	27.142
573.61	27.422
573.95	26.924
574.28	26.466
574.62	27.058
574.96	26.577
575.29	26.680
575.63	26.865
575.97	27.186
576.30	27.042
576.64	27.153
576.98	27.221
577.31	27.201
577.65	27.074
577.98	26.807
578.32	26.549
578.66	26.894
578.99	27.237
579.33	27.390
579.67	27.040
580.00	27.175
580.34	27.531
580.67	27.361
581.01	27.347
581.35	27.489
581.68	26.992
582.02	27.117
582.35	27.639
582.69	27.882
583.02	27.995
583.36	28.240
583.70	27.721
584.03	27.814
584.37	28.215
584.70	27.800
585.04	27.691
585.37	27.464
585.71	27.508
586.04	28.049
586.38	28.459
586.72	28.353
587.05	28.396
587.39	28.821
587.72	28.469
588.06	28.917
588.39	29.002
588.73	29.524
589.06	29.599
589.40	30.025
589.73	28.985
590.07	29.576
590.40	30.020
590.73	30.117
591.07	29.859
591.40	30.482
591.74	30.127
592.07	30.775
592.41	30.323
592.74	29.748
593.08	30.064
593.41	29.950
593.75	29.741
594.08	30.142
594.41	30.032
594.75	30.488
595.08	30.485
595.42	30.357
595.75	30.804
596.09	30.566
596.42	31.028
596.75	31.030
597.09	30.828
597.42	30.791
597.75	31.007
598.09	31.151
598.42	31.645
598.76	30.608
599.09	30.153
599.42	30.640
599.76	29.812
600.09	30.497
600.42	30.664
600.76	30.878
601.09	31.132
601.42	30.484
601.76	31.276
602.09	31.380
602.42	30.389
602.76	30.775
603.09	30.910
603.42	30.925
603.76	30.867
604.09	31.547
604.42	31.450
604.76	31.279
605.09	31.711
605.42	32.257
605.75	30.769
606.09	31.094
606.42	30.865
606.75	30.772
607.09	31.720
607.42	31.869
607.75	32.005
608.08	31.610
608.42	31.036
608.75	32.007
609.08	32.258
609.41	31.363
609.75	31.607
610.08	32.146
610.41	32.370
610.74	32.395
611.07	32.682
611.41	32.287
611.74	33.072
612.07	33.146
612.40	32.224
612.73	33.056
613.07	32.812
613.40	32.676
613.73	32.306
614.06	33.710
614.39	31.973
614.72	31.878
615.06	32.146
615.39	32.189
615.72	32.512
616.05	33.171
616.38	33.956
616.71	33.647
617.05	32.322
617.38	33.654
617.71	33.693
618.04	33.028
618.37	33.770
618.70	33.993
619.03	33.333
619.36	35.203
619.69	33.953
620.03	34.526
620.36	34.417
620.69	33.498
621.02	34.908
621.35	36.212
621.68	35.213
622.01	35.445
622.34	33.961
622.67	34.914
623.00	33.401
623.33	35.236
623.66	34.241
623.99	34.891
624.32	35.283
624.65	34.492
624.99	34.655
625.32	35.336
625.65	35.873
625.98	34.305
626.31	35.932
626.64	35.751
626.97	35.784
627.30	34.700
627.63	34.659
627.96	37.162
628.29	35.486
628.62	36.692
628.95	36.810
629.28	36.024
629.61	36.111
629.94	36.485
630.26	35.763
630.59	36.097
630.92	36.710
631.25	38.193
631.58	39.077
631.91	37.488
632.24	38.136
632.57	38.899
632.90	38.114
633.23	39.184
633.56	38.980
633.89	37.707
634.22	39.189
634.55	37.891
634.88	37.229
635.20	38.967
635.53	38.531
635.86	38.028
636.19	39.024
636.52	37.236
636.85	37.487
637.18	37.526
637.51	38.280
637.83	39.646
638.16	40.668
638.49	40.023
638.82	38.670
639.15	36.655
639.48	39.607
639.81	39.145
640.13	38.987
640.46	36.727
640.79	39.828
641.12	40.621
641.45	37.892
641.77	42.619
642.10	38.320
642.43	42.287
642.76	40.921
643.09	39.452
643.41	42.157
643.74	39.586
644.07	40.828
644.40	40.453
644.73	39.913
645.05	39.941
645.38	43.022
645.71	40.909
646.04	42.324
646.36	39.562
646.69	41.258
647.02	41.437
647.35	40.305
647.67	41.707
648.00	41.083
648.33	42.342
648.66	40.371
648.98	40.000
649.31	39.919
649.64	40.505
649.96	39.655
650.29	39.499
650.62	37.624
650.94	39.039
651.27	37.425
651.60	39.766
651.92	40.881
652.25	39.508
652.58	40.578
652.90	39.244
653.23	40.141
653.56	41.512
653.88	40.590
654.21	41.549
654.54	40.751
654.86	40.227
655.19	36.763
655.52	34.717
655.84	30.266
656.17	36.152
656.49	50.734
656.82	56.494
657.15	44.653
657.47	33.763
657.80	25.098
658.13	19.591
658.45	25.886
658.78	31.647
659.10	31.077
659.43	31.478
659.75	31.334
660.08	32.325
660.41	33.830
660.73	36.488
661.06	39.794
661.38	37.799
661.71	41.207
662.03	43.915
662.36	44.007
662.68	39.775
663.01	43.186
663.33	46.503
663.66	43.040
663.98	44.038
664.31	44.090
664.63	41.426
664.96	42.287
665.28	42.105
665.61	43.182
665.93	42.321
666.26	43.907
666.58	41.882
666.91	43.551
667.23	40.762
667.56	43.393
667.88	44.000
668.21	38.672
668.53	42.085
668.86	42.633
669.18	44.603
669.50	45.924
669.83	40.600
670.15	44.291
670.48	42.857
670.80	38.432
671.13	43.289
671.45	40.945
671.77	43.126
672.10	41.667
672.42	38.997
672.75	37.942
673.07	39.851
673.39	35.131
673.72	42.953
674.04	42.759
674.37	40.787
674.69	41.446
675.01	40.952
675.34	41.412
675.66	40.824
675.98	42.724
676.31	41.797
676.63	42.205
676.95	42.146
677.28	42.742
677.60	42.717
677.92	42.226
678.25	42.230
678.57	40.569
678.89	40.956
679.22	38.502
679.54	38.462
679.86	37.797
680.18	38.806
680.51	38.050
680.83	41.408
681.15	40.517
681.48	41.451
681.80	40.069
682.12	39.860
682.44	39.065
682.77	39.539
683.09	41.856
683.41	40.310
683.73	39.469
684.06	38.930
684.38	38.462
684.70	40.036
685.02	38.554
685.34	37.937
685.67	39.274
685.99	37.730
686.31	36.628
686.63	37.599
686.96	36.435
687.28	38.274
687.60	38.215
687.92	39.711
688.24	38.397
688.56	37.931
688.89	40.109
689.21	40.900
689.53	39.412
689.85	42.209
690.17	37.778
690.49	42.430
690.82	39.208
691.14	38.664
691.46	38.241
691.78	42.910
692.10	40.183
692.42	38.393
692.74	37.387
693.06	37.407
693.39	41.556
693.71	41.165
694.03	39.777
694.35	38.476
694.67	40.452
694.99	37.872
695.31	40.618
695.63	43.290
695.95	38.302
696.27	41.978
696.59	41.150
696.91	41.216
697.23	40.220
697.56	41.141
697.88	38.636
698.20	38.041
698.52	39.015
698.84	41.372
699.16	41.020
699.48	41.004
699.80	38.936
700.12	41.048
700.44	40.092
700.76	42.755
701.08	38.983
701.40	44.041
701.72	42.537
702.04	43.583
702.36	40.052
702.68	39.609
703.00	40.831
703.32	38.916
703.64	41.565
703.96	40.811
704.28	40.049
704.60	41.519
704.91	41.837
705.23	41.918
705.55	40.947
705.87	42.424
706.19	46.933
706.51	42.771
706.83	41.210
707.15	38.889
707.47	40.654
707.79	37.336
708.11	36.017
708.43	36.774
708.74	37.277
709.06	40.139
709.38	43.662
709.70	38.710
710.02	39.018
710.34	38.298
710.66	40.223
710.98	39.891
711.29	37.912
711.61	42.090
711.93	42.735
712.25	38.378
712.57	44.838
712.89	44.706
713.20	37.278
713.52	40.173
713.84	42.061
714.16	40.789
714.48	39.433
714.80	41.558
715.11	39.895
715.43	38.196
715.75	38.158
716.07	40.608
716.39	40.437
716.70	38.253
717.02	43.934
717.34	43.206
717.66	39.597
717.97	39.041
718.29	45.361
718.61	40.461
718.93	39.159
719.24	40.683
719.56	37.117
719.88	38.739
720.20	41.935
720.51	38.509
720.83	39.688
721.15	40.132
721.46	39.041
721.78	43.000
722.10	39.482
722.42	39.262
722.73	38.065
723.05	41.754
723.37	41.667
723.68	45.161
724.00	43.321
724.32	35.563
724.63	41.259
724.95	43.972
725.27	41.463
725.58	38.163
725.90	40.690
726.22	36.677
726.53	38.636
726.85	37.421
727.16	38.369
727.48	41.896
727.80	38.079
728.11	37.102
728.43	40.404
728.74	37.458
729.06	39.404
729.38	40.909
729.69	36.913
730.01	38.690
730.32	34.242
730.64	39.308
730.96	38.509
731.27	40.782
731.59	39.286
731.90	35.584
732.22	34.375
732.53	37.569
732.85	37.143
733.16	36.070
733.48	36.280
733.80	35.655
734.11	36.467
734.43	37.838
734.74	34.937
735.06	35.678
735.37	36.757
735.69	37.297
736.00	36.158
736.32	39.084
736.63	34.722
736.95	35.345
737.26	37.273
737.58	36.364
737.89	40.294
738.21	35.168
738.52	34.426
738.83	37.543
739.15	36.170
739.46	41.156
739.78	37.117
740.09	36.390
740.41	39.650
740.72	37.667
741.04	40.129
741.35	39.649
741.66	36.863
741.98	40.574
742.29	42.678
742.61	42.544
742.92	39.231
743.23	39.350
743.55	37.984
743.86	42.400
744.18	36.364
744.49	37.553
744.80	44.033
745.12	37.131
745.43	41.057
745.74	39.655
746.06	36.864
746.37	42.194
746.68	44.715
747.00	41.250
747.31	39.914
747.62	43.846
747.94	37.652
748.25	38.956
748.56	35.918
748.88	33.761
749.19	44.397
749.50	37.662
749.82	40.161
750.13	39.146
750.44	35.000
750.75	36.615
751.07	39.385
751.38	35.331
751.69	37.061
752.01	35.922
752.32	40.523
752.63	36.735
752.94	38.062
753.26	33.457
753.57	37.778
753.88	39.700
754.19	39.871
754.51	36.977
754.82	37.299
755.13	40.328
755.44	38.908
755.75	40.789
756.07	35.821
756.38	37.107
756.69	38.554
757.00	31.302
757.31	36.612
757.63	32.737
757.94	34.038
758.25	34.312
758.56	31.155
758.87	34.091
759.18	33.867
759.50	32.861
759.81	33.613
760.12	32.075
760.43	34.896
760.74	36.946
761.05	36.250
761.36	32.289
761.67	27.411
761.99	32.973
762.30	35.976
762.61	35.974
762.92	37.687
763.23	37.828
763.54	34.532
763.85	33.677
764.16	36.364
764.47	35.563
764.78	37.380
765.10	31.085
765.41	31.795
765.72	33.333
766.03	33.616
766.34	30.094
766.65	34.495
766.96	34.263
767.27	43.318
767.58	39.801
767.89	40.865
768.20	39.906
768.51	36.574
768.82	38.956
769.13	36.742
769.44	29.615
769.75	36.101
770.06	33.462
770.37	38.976
770.68	32.766
770.99	32.389
771.30	37.778
771.61	38.403
771.92	33.704
772.23	41.700
772.54	37.500
772.85	39.631
773.16	35.714
773.47	33.862
773.78	38.378
774.09	39.205
774.39	40.500
774.70	36.612
775.01	37.805
775.32	32.941
775.63	38.037
775.94	35.032
776.25	43.226
776.56	42.308
776.87	40.816
777.18	40.690
777.48	41.259
777.79	39.865
778.10	34.559
778.41	43.750
778.72	36.552
779.03	40.123
779.34	36.364
779.65	36.788
779.95	36.667
780.26	38.068
780.57	34.194
780.88	43.478
781.19	41.290
781.50	42.353
781.80	35.484
782.11	38.095
782.42	31.313
782.73	37.725
783.04	32.961
783.34	35.152
783.65	32.680
783.96	34.161
784.27	38.095
784.57	33.775
784.88	32.857
785.19	37.008
785.50	35.433
785.81	43.609
786.11	45.385
786.42	31.655
786.73	30.935
787.04	44.361
787.34	38.525
787.65	36.800
787.96	40.299
788.26	50.350
788.57	39.860
788.88	34.868
789.19	36.601
789.49	32.192
789.80	36.879
790.11	35.433
790.41	39.063
790.72	34.746
791.03	28.155
791.33	42.609
791.64	48.246
791.95	33.036
792.25	41.905
792.56	40.179
792.87	37.500
793.17	36.607
793.48	22.917
793.79	33.735
794.09	35.780
794.40	33.028
794.70	37.415
795.01	26.623
795.32	30.137
795.62	36.620
795.93	37.879
796.23	40.164
796.54	29.464
796.85	39.362
797.15	44.565
797.46	41.096
797.76	45.000
798.07	39.130
798.37	32.990
798.68	36.364
798.99	48.276
799.29	41.573
799.60	29.787
799.90	43.373
800.21	41.538
800.51	31.343
800.82	25.000
801.12	17.808
801.43	17.647
801.73	33.898
802.04	57.576
802.34	31.667
802.65	40.678
802.95	41.791
803.26	44.068
803.56	27.397
803.87	42.857
804.17	45.205
804.48	38.596
804.78	41.667
805.09	34.483
805.39	31.081
805.70	29.577
806.00	30.488
806.30	43.373
806.61	27.397
806.91	37.500
807.22	38.889
807.52	29.885
807.83	47.222
808.13	43.373
808.43	44.944
808.74	51.250
809.04	27.941
809.35	38.667
809.65	52.857
809.95	42.466
810.26	33.333
810.56	62.069
810.86	55.882
811.17	36.842
811.47	31.148
811.77	42.222
812.08	45.763
812.38	31.667
812.69	55.172
812.99	22.642
813.29	12.821
813.59	34.000
813.90	47.368
814.20	49.091
814.50	40.845
814.81	42.308
815.11	54.098
815.41	34.328
815.72	50.000
816.02	35.714
816.32	57.778
816.62	68.182
816.93	46.667
817.23	31.481
817.53	36.170
817.84	59.524
818.14	67.647
818.44	18.367
818.74	46.667
819.04	30.769
819.35	40.000
819.65	42.308
819.95	49.057
820.25	37.778
820.56	40.476
820.86	37.500
821.16	48.718
821.46	62.791
821.76	42.000
822.07	37.500
822.37	41.304
822.67	36.170
822.97	43.243
823.27	27.500
823.57	46.939
823.88	55.556
824.18	70.000
824.48	60.000
824.78	36.000
825.08	51.515
825.38	66.667
825.69	61.702
825.99	44.444
826.29	8.571
826.59	35.897
826.89	20.930
827.19	34.000
827.49	70.588
827.79	52.083
828.09	45.946
828.39	36.667
828.70	43.902
829.00	23.256
829.30	17.857
829.60	61.765
829.90	23.913
830.20	34.286
830.50	37.931
830.80	88.889
831.10	80.769
831.40	50.000
831.70	61.905
832.00	87.097
832.30	-5.882
832.60	37.500
832.90	15.385
833.20	52.632
833.50	60.000
833.80	84.211
834.10	66.667
834.40	36.111
834.70	50.000
835.00	8.571
835.30	8.824
835.60	26.667
835.90	68.000
836.20	18.182
836.50	28.000
836.80	15.152
837.10	48.148
837.40	74.074
837.70	12.500
838.00	42.857
838.30	43.478
838.60	62.069
838.90	57.143
839.19	26.087
839.49	-8.333
839.79	91.304
840.09	37.500
840.39	25.000
840.69	67.742
840.99	50.000
841.29	66.667
841.59	68.421
841.88	58.974
842.18	73.077
842.48	30.000
842.78	45.000
843.08	16.667
843.38	74.194
843.68	0.000
843.97	79.412
844.27	43.750
844.57	26.316
844.87	70.000
845.17	-6.667
845.47	104.762
845.76	23.810
846.06	22.222
846.36	47.059
846.66	34.615
846.96	66.667
847.25	23.529
847.55	60.870
847.85	40.000
848.15	82.353
848.44	109.091
848.74	66.667
849.04	45.833
849.34	-31.250
849.63	95.652
849.93	50.000
850.23	60.000
850.53	61.538
850.82	27.273
851.12	95.455
851.42	54.545
851.71	61.538
852.01	55.000
852.31	69.231
852.61	73.684
852.90	150.000
853.20	33.333
853.50	33.333
853.79	33.333
854.09	-9.091
854.39	-16.667
854.68	45.161
854.98	50.000
855.28	16.667
855.57	10.714
855.87	32.000
856.17	59.091
856.46	48.148
856.76	55.556
857.05	39.130
857.35	75.000
857.65	-46.154
857.94	23.810
858.24	59.259
858.53	78.261
858.83	64.706
859.13	17.647
859.42	88.235
859.72	85.714
860.01	55.000
860.31	11.111
860.60	120.000
860.90	66.667
861.20	55.556
861.49	100.000
861.79	10.000
862.08	-23.077
862.38	56.250
862.67	70.588
862.97	50.000
863.26	55.556
863.56	40.000
863.85	72.727
864.15	105.556
864.44	466.667
864.74	21.429
865.03	50.000
865.33	-20.000
865.62	41.935
865.92	59.091
866.21	52.174
866.51	50.000
866.80	180.000
867.10	25.000
867.39	25.000
867.69	200.000
867.98	200.000
868.27	82.353
868.57	1300.000
868.86	0.000
869.16	28.571
869.45	70.833
869.75	109.091
870.04	57.143
870.33	91.667
870.63	-14.286
870.92	125.000
871.22	25.000
871.51	54.545
871.80	-500.000
872.10	50.000
>>>>>End Processed Spectral Data<<<<<
