SpectraSuite Data File
++++++++++++++++++++++++++++++++++++
Date: Thu May 14 14:40:00 PDT 2015
User: schluterlab
Dark Spectrum Present: Yes
Reference Spectrum Present: Yes
Number of Sampled Component Spectra: 1
Spectrometers: USB2E3373
Integration Time (usec): 3000 (USB2E3373)
Spectra Averaged: 3 (USB2E3373)
Boxcar Smoothing: 0 (USB2E3373)
Correct for Electrical Dark: No (USB2E3373)
Strobe/Lamp Enabled: No (USB2E3373)
Correct for Detector Non-linearity: No (USB2E3373)
Correct for Stray Light: No (USB2E3373)
Number of Pixels in Processed Spectrum: 2048
>>>>>Begin Processed Spectral Data<<<<<
178.53	0.000
178.91	-57.143
179.29	-200.000
179.67	900.000
180.04	21.429
180.42	-190.000
180.80	-120.000
181.18	1400.000
181.56	1600.000
181.94	-350.000
182.31	300.000
182.69	-366.667
183.07	450.000
183.45	-25.000
183.83	233.333
184.20	633.333
184.58	-1400.000
184.96	325.000
185.34	122.222
185.72	240.000
186.09	11.111
186.47	-450.000
186.85	-60.000
187.23	166.667
187.61	1100.000
187.98	-280.000
188.36	-25.000
188.74	250.000
189.12	233.333
189.49	143.750
189.87	137.500
190.25	155.556
190.63	180.000
191.00	133.333
191.38	0.000
191.76	25.000
192.14	183.333
192.51	-100.000
192.89	316.667
193.27	0.000
193.65	300.000
194.02	800.000
194.40	171.429
194.78	-157.143
195.15	0.000
195.53	181.818
195.91	0.000
196.29	175.000
196.66	107.692
197.04	0.000
197.42	100.000
197.79	500.000
198.17	137.500
198.55	200.000
198.92	177.778
199.30	87.500
199.68	154.545
200.05	100.000
200.43	300.000
200.81	-57.143
201.18	0.000
201.56	11.111
201.94	0.000
202.31	-100.000
202.69	122.222
203.07	-1400.000
203.44	77.778
203.82	100.000
204.19	150.000
204.57	66.667
204.95	62.500
205.32	600.000
205.70	-175.000
206.08	250.000
206.45	150.000
206.83	-40.000
207.20	183.333
207.58	-220.000
207.96	166.667
208.33	266.667
208.71	-50.000
209.08	233.333
209.46	0.000
209.84	-166.667
210.21	-50.000
210.59	-750.000
210.96	-233.333
211.34	350.000
211.71	162.500
212.09	900.000
212.46	0.000
212.84	-350.000
213.22	280.000
213.59	225.000
213.97	110.000
214.34	366.667
214.72	-33.333
215.09	300.000
215.47	0.000
215.84	-185.714
216.22	-350.000
216.59	220.000
216.97	180.000
217.34	325.000
217.72	237.500
218.09	200.000
218.47	50.000
218.84	0.000
219.22	-360.000
219.59	117.647
219.97	40.000
220.34	-50.000
220.72	88.889
221.09	123.077
221.47	400.000
221.84	80.000
222.22	171.429
222.59	0.000
222.97	162.500
223.34	140.000
223.72	800.000
224.09	100.000
224.46	400.000
224.84	300.000
225.21	214.286
225.59	300.000
225.96	150.000
226.34	42.308
226.71	-0.000
227.08	550.000
227.46	80.000
227.83	175.000
228.21	73.684
228.58	-200.000
228.95	-400.000
229.33	75.000
229.70	180.000
230.08	126.316
230.45	-60.000
230.82	433.333
231.20	164.286
231.57	125.000
231.95	100.000
232.32	45.455
232.69	95.000
233.07	175.000
233.44	70.588
233.81	90.000
234.19	133.333
234.56	77.273
234.93	100.000
235.31	78.947
235.68	61.111
236.05	50.000
236.43	107.692
236.80	96.000
237.17	59.259
237.55	72.727
237.92	120.000
238.29	35.484
238.67	47.727
239.04	75.000
239.41	47.619
239.79	43.478
240.16	44.444
240.53	52.174
240.91	37.255
241.28	63.934
241.65	50.746
242.02	52.703
242.40	35.385
242.77	50.667
243.14	36.585
243.51	46.053
243.89	37.179
244.26	44.554
244.63	54.902
245.00	46.729
245.38	35.965
245.75	28.319
246.12	41.270
246.49	27.907
246.87	43.571
247.24	38.411
247.61	35.526
247.98	39.597
248.36	38.889
248.73	36.196
249.10	37.705
249.47	39.801
249.84	38.743
250.22	35.233
250.59	35.556
250.96	39.091
251.33	30.102
251.70	36.752
252.08	35.000
252.45	33.197
252.82	35.537
253.19	30.469
253.56	32.700
253.94	29.615
254.31	34.848
254.68	33.916
255.05	34.202
255.42	32.653
255.79	31.392
256.16	31.126
256.54	32.781
256.91	33.443
257.28	34.754
257.65	29.936
258.02	30.383
258.39	31.339
258.76	34.557
259.14	34.195
259.51	31.700
259.88	32.011
260.25	32.778
260.62	35.616
260.99	35.792
261.36	33.244
261.73	29.178
262.10	32.692
262.47	32.708
262.85	35.859
263.22	34.545
263.59	30.263
263.96	31.202
264.33	32.225
264.70	33.827
265.07	33.413
265.44	34.921
265.81	30.556
266.18	29.932
266.55	31.027
266.92	33.030
267.29	33.260
267.66	33.038
268.03	31.878
268.40	31.524
268.77	32.802
269.14	29.736
269.51	30.702
269.88	33.607
270.25	30.181
270.62	33.966
270.99	33.939
271.36	30.495
271.73	33.006
272.10	33.267
272.47	32.866
272.84	30.723
273.21	31.463
273.58	32.258
273.95	30.962
274.32	30.038
274.69	32.302
275.06	31.136
275.43	27.911
275.80	30.159
276.17	29.815
276.54	27.985
276.91	30.769
277.28	31.646
277.65	31.598
278.02	27.941
278.39	30.797
278.76	30.756
279.13	30.496
279.50	30.241
279.87	31.664
280.23	27.289
280.60	28.814
280.97	31.086
281.34	30.390
281.71	31.472
282.08	32.060
282.45	30.442
282.82	30.141
283.19	27.787
283.56	28.525
283.92	28.679
284.29	29.700
284.66	28.900
285.03	26.282
285.40	29.521
285.77	28.483
286.14	28.550
286.51	29.528
286.87	30.964
287.24	29.970
287.61	26.009
287.98	27.946
288.35	28.698
288.72	27.071
289.08	28.404
289.45	26.775
289.82	27.108
290.19	26.149
290.56	27.606
290.93	26.676
291.29	26.997
291.66	26.171
292.03	24.695
292.40	27.211
292.77	24.798
293.13	26.387
293.50	24.442
293.87	23.624
294.24	25.867
294.60	25.917
294.97	23.893
295.34	25.224
295.71	23.960
296.08	24.289
296.44	24.265
296.81	23.630
297.18	23.039
297.55	23.113
297.91	21.827
298.28	23.697
298.65	22.711
299.02	24.085
299.38	22.769
299.75	22.897
300.12	21.528
300.48	22.811
300.85	21.147
301.22	22.036
301.59	22.945
301.95	23.390
302.32	22.556
302.69	22.125
303.05	22.524
303.42	21.397
303.79	23.229
304.15	21.767
304.52	22.622
304.89	21.047
305.25	21.946
305.62	21.212
305.99	22.268
306.35	21.774
306.72	22.854
307.09	21.218
307.45	21.118
307.82	20.585
308.19	22.099
308.55	21.986
308.92	20.740
309.29	21.839
309.65	21.930
310.02	20.792
310.38	20.866
310.75	20.680
311.12	22.435
311.48	22.385
311.85	20.418
312.22	21.822
312.58	21.408
312.95	20.841
313.31	21.680
313.68	22.436
314.05	23.306
314.41	22.769
314.78	21.163
315.14	22.505
315.51	22.438
315.87	22.772
316.24	23.196
316.61	21.758
316.97	21.991
317.34	21.605
317.70	22.795
318.07	23.192
318.43	23.214
318.80	23.746
319.16	23.090
319.53	22.365
319.89	21.648
320.26	23.932
320.62	24.379
320.99	23.176
321.35	23.937
321.72	25.116
322.08	23.895
322.45	25.023
322.81	26.715
323.18	24.159
323.54	25.345
323.91	25.178
324.27	25.215
324.64	26.532
325.00	26.036
325.37	26.126
325.73	26.116
326.10	26.277
326.46	27.524
326.83	27.382
327.19	26.850
327.56	27.036
327.92	25.885
328.29	27.016
328.65	26.717
329.01	28.765
329.38	29.823
329.74	28.767
330.11	28.767
330.47	27.717
330.84	27.476
331.20	30.333
331.56	28.076
331.93	29.540
332.29	28.220
332.66	27.741
333.02	29.062
333.38	29.027
333.75	27.946
334.11	29.358
334.48	29.373
334.84	29.652
335.20	28.212
335.57	28.499
335.93	28.843
336.29	27.870
336.66	28.091
337.02	30.268
337.38	29.762
337.75	27.851
338.11	29.352
338.47	29.198
338.84	27.919
339.20	28.812
339.56	28.418
339.93	29.310
340.29	27.939
340.65	27.737
341.02	27.933
341.38	28.052
341.74	28.652
342.11	29.686
342.47	27.085
342.83	29.710
343.20	28.536
343.56	27.506
343.92	28.663
344.28	27.969
344.65	29.380
345.01	29.173
345.37	29.238
345.73	28.137
346.10	27.145
346.46	28.085
346.82	28.464
347.19	28.571
347.55	28.452
347.91	27.712
348.27	27.693
348.63	28.865
349.00	26.771
349.36	27.361
349.72	28.720
350.08	28.232
350.45	27.985
350.81	28.431
351.17	28.346
351.53	28.734
351.89	28.929
352.26	27.537
352.62	28.955
352.98	28.473
353.34	27.931
353.70	27.273
354.07	27.720
354.43	26.348
354.79	26.552
355.15	28.109
355.51	27.851
355.87	27.599
356.24	28.061
356.60	26.164
356.96	28.317
357.32	26.691
357.68	26.867
358.04	27.769
358.40	27.463
358.77	28.070
359.13	26.809
359.49	27.881
359.85	26.759
360.21	27.977
360.57	27.351
360.93	27.856
361.29	27.930
361.66	26.575
362.02	28.810
362.38	27.477
362.74	27.374
363.10	28.336
363.46	26.662
363.82	26.989
364.18	28.712
364.54	28.216
364.90	27.559
365.26	27.724
365.62	28.667
365.98	26.481
366.35	28.255
366.71	28.435
367.07	27.943
367.43	27.118
367.79	27.472
368.15	28.562
368.51	28.011
368.87	27.890
369.23	28.067
369.59	28.005
369.95	28.600
370.31	28.697
370.67	27.304
371.03	28.047
371.39	27.938
371.75	28.680
372.11	27.981
372.47	28.097
372.83	27.160
373.19	27.018
373.55	26.762
373.91	27.676
374.27	27.684
374.63	28.214
374.99	27.056
375.35	27.857
375.71	27.226
376.07	27.760
376.42	27.897
376.78	27.843
377.14	28.322
377.50	28.336
377.86	29.310
378.22	27.725
378.58	27.586
378.94	27.171
379.30	28.061
379.66	28.983
380.02	28.044
380.38	29.090
380.74	28.620
381.09	28.746
381.45	29.148
381.81	28.630
382.17	28.088
382.53	28.246
382.89	27.765
383.25	28.019
383.61	28.530
383.97	27.856
384.32	29.127
384.68	28.190
385.04	28.745
385.40	28.992
385.76	28.839
386.12	28.247
386.48	29.118
386.83	29.440
387.19	29.085
387.55	28.873
387.91	29.452
388.27	29.273
388.62	28.580
388.98	28.257
389.34	28.049
389.70	28.995
390.06	28.538
390.42	27.892
390.77	29.259
391.13	28.697
391.49	29.227
391.85	29.091
392.20	28.826
392.56	28.706
392.92	28.462
393.28	29.243
393.64	28.492
393.99	29.576
394.35	29.556
394.71	28.862
395.07	28.383
395.42	28.784
395.78	29.677
396.14	29.531
396.50	29.276
396.85	28.682
397.21	29.112
397.57	28.975
397.92	29.381
398.28	28.083
398.64	28.719
399.00	28.115
399.35	28.639
399.71	28.696
400.07	29.253
400.42	28.463
400.78	28.472
401.14	28.913
401.49	28.653
401.85	28.953
402.21	29.085
402.57	29.871
402.92	28.664
403.28	29.098
403.63	27.566
403.99	28.266
404.35	27.743
404.70	29.008
405.06	28.152
405.42	28.689
405.77	28.680
406.13	28.795
406.49	29.167
406.84	28.809
407.20	28.172
407.55	27.862
407.91	28.033
408.27	27.974
408.62	28.214
408.98	28.787
409.34	27.449
409.69	27.318
410.05	28.664
410.40	28.248
410.76	28.435
411.11	28.989
411.47	28.256
411.83	27.748
412.18	28.133
412.54	28.038
412.89	28.172
413.25	27.765
413.60	27.972
413.96	28.438
414.31	27.479
414.67	28.801
415.03	29.046
415.38	28.058
415.74	27.001
416.09	29.118
416.45	27.677
416.80	28.641
417.16	28.097
417.51	28.331
417.87	28.081
418.22	27.904
418.58	27.571
418.93	28.289
419.29	28.607
419.64	27.911
420.00	27.715
420.35	28.186
420.71	28.317
421.06	27.832
421.42	28.899
421.77	27.625
422.12	27.484
422.48	27.701
422.83	28.697
423.19	28.276
423.54	28.263
423.90	28.106
424.25	28.960
424.61	27.268
424.96	26.908
425.31	28.822
425.67	27.697
426.02	27.670
426.38	28.530
426.73	27.511
427.09	29.181
427.44	28.291
427.79	27.916
428.15	28.139
428.50	28.427
428.85	27.956
429.21	29.628
429.56	28.381
429.92	27.125
430.27	27.855
430.62	28.090
430.98	28.087
431.33	27.224
431.68	26.724
432.04	27.628
432.39	28.870
432.74	28.938
433.10	27.745
433.45	28.149
433.80	27.790
434.16	27.686
434.51	28.623
434.86	27.524
435.22	28.959
435.57	28.833
435.92	28.937
436.28	27.986
436.63	29.383
436.98	28.234
437.34	28.579
437.69	28.453
438.04	27.922
438.39	28.489
438.75	28.556
439.10	29.387
439.45	28.172
439.81	27.966
440.16	27.560
440.51	28.930
440.86	28.516
441.22	28.189
441.57	28.721
441.92	28.225
442.27	28.535
442.63	27.819
442.98	29.082
443.33	28.196
443.68	29.138
444.03	29.210
444.39	29.311
444.74	29.352
445.09	28.687
445.44	29.557
445.79	29.119
446.15	29.137
446.50	28.372
446.85	28.453
447.20	29.352
447.55	28.923
447.91	28.848
448.26	28.911
448.61	28.959
448.96	29.614
449.31	29.003
449.66	29.085
450.02	28.797
450.37	29.568
450.72	29.225
451.07	28.872
451.42	29.174
451.77	29.016
452.12	29.345
452.47	28.699
452.83	29.955
453.18	28.780
453.53	28.489
453.88	29.155
454.23	29.605
454.58	29.774
454.93	29.733
455.28	29.019
455.63	30.244
455.98	28.212
456.34	28.740
456.69	29.806
457.04	29.374
457.39	29.379
457.74	30.593
458.09	30.258
458.44	29.310
458.79	29.087
459.14	29.628
459.49	29.825
459.84	29.538
460.19	28.928
460.54	29.699
460.89	29.645
461.24	28.851
461.59	29.773
461.94	28.979
462.29	30.011
462.64	29.813
462.99	29.818
463.34	30.500
463.69	29.132
464.04	29.405
464.39	29.260
464.74	28.848
465.09	29.931
465.44	29.345
465.79	29.138
466.14	29.286
466.49	28.947
466.84	30.193
467.19	29.827
467.54	28.496
467.89	29.713
468.24	28.975
468.59	29.299
468.94	28.613
469.29	29.094
469.64	29.434
469.99	29.191
470.34	29.455
470.68	30.280
471.03	29.404
471.38	30.150
471.73	29.779
472.08	29.315
472.43	28.657
472.78	29.660
473.13	30.025
473.48	29.607
473.83	29.774
474.17	28.781
474.52	29.645
474.87	28.461
475.22	29.690
475.57	29.076
475.92	29.418
476.27	29.553
476.61	29.128
476.96	28.989
477.31	28.812
477.66	29.696
478.01	28.978
478.36	29.711
478.70	29.704
479.05	29.755
479.40	29.615
479.75	29.299
480.10	29.133
480.45	28.624
480.79	28.798
481.14	27.895
481.49	29.714
481.84	29.634
482.19	29.204
482.53	29.515
482.88	28.799
483.23	29.213
483.58	29.913
483.92	29.388
484.27	29.213
484.62	28.960
484.97	29.199
485.31	28.370
485.66	27.761
486.01	27.535
486.36	27.950
486.70	29.223
487.05	29.596
487.40	29.603
487.75	29.669
488.09	29.896
488.44	29.408
488.79	29.983
489.13	29.689
489.48	28.738
489.83	29.256
490.17	28.514
490.52	28.612
490.87	28.849
491.22	29.073
491.56	28.669
491.91	29.350
492.26	28.646
492.60	29.558
492.95	28.609
493.30	27.790
493.64	28.252
493.99	28.377
494.34	28.310
494.68	28.223
495.03	28.943
495.37	28.495
495.72	28.571
496.07	29.053
496.41	28.743
496.76	28.691
497.11	28.493
497.45	28.658
497.80	28.476
498.14	28.844
498.49	28.814
498.84	28.931
499.18	28.340
499.53	29.193
499.87	29.187
500.22	27.916
500.56	28.385
500.91	28.787
501.26	29.500
501.60	28.502
501.95	28.658
502.29	28.170
502.64	29.034
502.98	29.163
503.33	29.028
503.67	28.652
504.02	27.715
504.36	28.954
504.71	28.801
505.06	28.558
505.40	28.473
505.75	27.823
506.09	29.834
506.44	29.155
506.78	28.945
507.13	28.815
507.47	28.991
507.82	28.835
508.16	27.772
508.51	28.317
508.85	28.484
509.19	28.280
509.54	28.674
509.88	28.460
510.23	28.509
510.57	29.145
510.92	29.028
511.26	28.620
511.61	27.282
511.95	28.404
512.30	28.607
512.64	28.636
512.98	28.664
513.33	28.226
513.67	28.812
514.02	28.309
514.36	28.184
514.70	28.750
515.05	28.728
515.39	28.241
515.74	28.844
516.08	28.737
516.42	28.990
516.77	28.496
517.11	27.643
517.46	28.738
517.80	29.075
518.14	28.781
518.49	27.874
518.83	28.260
519.17	27.679
519.52	27.673
519.86	28.036
520.20	28.594
520.55	28.368
520.89	28.491
521.23	28.699
521.58	28.701
521.92	28.385
522.26	27.778
522.61	29.514
522.95	27.855
523.29	28.966
523.64	28.139
523.98	28.523
524.32	29.742
524.66	28.628
525.01	27.973
525.35	28.604
525.69	28.654
526.04	27.669
526.38	29.023
526.72	28.431
527.06	29.091
527.41	28.455
527.75	29.097
528.09	28.512
528.43	28.419
528.78	27.630
529.12	28.383
529.46	28.218
529.80	28.375
530.15	27.884
530.49	28.233
530.83	28.040
531.17	28.315
531.51	28.460
531.86	28.005
532.20	28.232
532.54	27.828
532.88	28.303
533.22	28.521
533.57	29.083
533.91	27.834
534.25	28.321
534.59	27.816
534.93	28.240
535.27	27.662
535.62	28.823
535.96	28.181
536.30	28.613
536.64	27.688
536.98	28.536
537.32	28.889
537.66	27.885
538.01	27.674
538.35	27.710
538.69	27.284
539.03	28.142
539.37	28.504
539.71	28.649
540.05	29.077
540.39	28.912
540.73	27.808
541.07	28.449
541.42	28.588
541.76	28.233
542.10	29.011
542.44	27.588
542.78	28.528
543.12	27.652
543.46	27.900
543.80	27.038
544.14	28.845
544.48	28.783
544.82	28.187
545.16	28.265
545.50	27.142
545.84	27.740
546.18	28.148
546.52	27.580
546.86	28.553
547.20	27.990
547.54	27.715
547.88	27.185
548.22	27.485
548.56	27.560
548.90	27.582
549.24	28.267
549.58	27.634
549.92	27.997
550.26	28.285
550.60	27.632
550.94	28.784
551.28	27.195
551.62	28.437
551.96	27.508
552.30	27.725
552.64	27.318
552.98	27.823
553.32	27.910
553.66	27.846
554.00	27.869
554.34	27.735
554.68	27.372
555.02	28.449
555.36	28.600
555.69	26.906
556.03	27.301
556.37	27.660
556.71	27.838
557.05	28.243
557.39	27.936
557.73	27.015
558.07	27.682
558.41	27.973
558.75	27.181
559.08	28.323
559.42	27.229
559.76	27.883
560.10	27.194
560.44	28.166
560.78	28.000
561.12	27.709
561.45	27.737
561.79	27.656
562.13	28.035
562.47	26.880
562.81	27.089
563.15	27.715
563.48	28.030
563.82	27.811
564.16	26.953
564.50	27.414
564.84	27.021
565.17	26.706
565.51	26.870
565.85	28.147
566.19	27.247
566.52	27.794
566.86	27.504
567.20	26.699
567.54	27.350
567.88	27.778
568.21	27.866
568.55	26.475
568.89	27.281
569.23	27.292
569.56	27.354
569.90	27.477
570.24	26.678
570.57	26.363
570.91	26.363
571.25	26.613
571.59	26.969
571.92	26.519
572.26	27.263
572.60	27.245
572.93	27.053
573.27	26.918
573.61	26.945
573.95	26.511
574.28	26.536
574.62	27.035
574.96	26.224
575.29	26.526
575.63	26.935
575.97	27.257
576.30	26.943
576.64	26.819
576.98	26.879
577.31	26.719
577.65	27.445
577.98	26.393
578.32	26.273
578.66	26.536
578.99	26.602
579.33	27.145
579.67	26.995
580.00	27.399
580.34	26.789
580.67	26.920
581.01	26.742
581.35	26.554
581.68	26.779
582.02	25.928
582.35	26.603
582.69	27.027
583.02	26.687
583.36	27.295
583.70	27.494
584.03	26.734
584.37	27.401
584.70	26.528
585.04	26.482
585.37	26.823
585.71	26.127
586.04	26.706
586.38	26.996
586.72	26.172
587.05	26.708
587.39	27.001
587.72	26.555
588.06	26.886
588.39	27.433
588.73	26.508
589.06	27.003
589.40	27.105
589.73	26.703
590.07	27.288
590.40	27.248
590.73	27.218
591.07	27.103
591.40	27.138
591.74	26.510
592.07	27.162
592.41	26.577
592.74	26.269
593.08	26.847
593.41	26.568
593.75	26.379
594.08	26.356
594.41	26.955
594.75	27.034
595.08	26.851
595.42	27.208
595.75	26.897
596.09	27.652
596.42	27.051
596.75	26.553
597.09	27.475
597.42	26.301
597.75	26.303
598.09	26.825
598.42	26.900
598.76	26.060
599.09	25.917
599.42	25.779
599.76	26.015
600.09	26.627
600.42	25.959
600.76	25.958
601.09	26.651
601.42	26.536
601.76	26.724
602.09	26.483
602.42	26.136
602.76	26.642
603.09	26.101
603.42	26.770
603.76	25.934
604.09	27.111
604.42	26.349
604.76	25.989
605.09	26.486
605.42	26.635
605.75	26.000
606.09	26.017
606.42	25.830
606.75	26.124
607.09	26.152
607.42	26.821
607.75	26.729
608.08	26.283
608.42	25.917
608.75	26.866
609.08	25.679
609.41	26.511
609.75	26.696
610.08	26.649
610.41	26.211
610.74	25.924
611.07	26.421
611.41	27.085
611.74	26.328
612.07	26.227
612.40	25.856
612.73	26.993
613.07	25.917
613.40	25.890
613.73	25.855
614.06	26.595
614.39	26.190
614.72	25.182
615.06	25.650
615.39	25.810
615.72	26.682
616.05	26.421
616.38	26.690
616.71	26.280
617.05	25.825
617.38	26.752
617.71	26.566
618.04	26.498
618.37	26.940
618.70	26.301
619.03	26.404
619.36	26.572
619.69	26.457
620.03	26.240
620.36	25.215
620.69	25.848
621.02	26.706
621.35	27.866
621.68	27.549
622.01	27.117
622.34	25.732
622.67	26.460
623.00	24.426
623.33	26.875
623.66	25.875
623.99	26.136
624.32	26.771
624.65	25.804
624.99	26.203
625.32	25.604
625.65	26.972
625.98	26.983
626.31	25.230
626.64	26.447
626.97	26.182
627.30	26.120
627.63	26.107
627.96	27.177
628.29	26.070
628.62	26.448
628.95	26.906
629.28	26.168
629.61	25.758
629.94	25.607
630.26	25.169
630.59	25.907
630.92	25.455
631.25	26.476
631.58	26.648
631.91	26.054
632.24	28.050
632.57	24.953
632.90	25.777
633.23	25.612
633.56	25.714
633.89	25.310
634.22	26.507
634.55	26.096
634.88	25.974
635.20	27.234
635.53	27.345
635.86	26.544
636.19	27.147
636.52	25.738
636.85	25.741
637.18	25.260
637.51	25.161
637.83	28.128
638.16	27.189
638.49	24.883
638.82	26.719
639.15	25.888
639.48	26.674
639.81	26.328
640.13	28.151
640.46	24.848
640.79	26.225
641.12	26.460
641.45	25.220
641.77	28.370
642.10	24.278
642.43	26.729
642.76	25.610
643.09	28.219
643.41	28.011
643.74	25.103
644.07	27.862
644.40	26.450
644.73	27.286
645.05	26.872
645.38	29.496
645.71	25.367
646.04	27.547
646.36	26.131
646.69	26.534
647.02	27.217
647.35	27.176
647.67	27.053
648.00	26.752
648.33	27.628
648.66	26.819
648.98	24.218
649.31	26.387
649.64	27.888
649.96	26.127
650.29	25.591
650.62	25.743
650.94	28.078
651.27	26.497
651.60	26.901
651.92	26.900
652.25	25.904
652.58	26.410
652.90	26.599
653.23	26.197
653.56	25.820
653.88	28.230
654.21	26.056
654.54	27.312
654.86	25.779
655.19	25.596
655.52	25.858
655.84	22.051
656.17	27.220
656.49	38.681
656.82	43.870
657.15	35.427
657.47	27.385
657.80	20.441
658.13	16.284
658.45	21.769
658.78	26.861
659.10	26.487
659.43	26.571
659.75	26.388
660.08	25.322
660.41	25.476
660.73	24.629
661.06	25.991
661.38	26.635
661.71	26.207
662.03	27.513
662.36	29.696
662.68	28.330
663.01	27.611
663.33	27.410
663.66	29.304
663.98	27.115
664.31	26.079
664.63	24.085
664.96	27.042
665.28	24.319
665.61	28.671
665.93	23.571
666.26	27.061
666.58	26.015
666.91	28.411
667.23	28.190
667.56	27.613
667.88	28.400
668.21	26.758
668.53	26.062
668.86	25.540
669.18	26.069
669.50	25.845
669.83	25.000
670.15	25.591
670.48	27.579
670.80	22.753
671.13	24.953
671.45	25.984
671.77	27.495
672.10	24.333
672.42	24.110
672.75	24.117
673.07	24.328
673.39	24.807
673.72	23.658
674.04	28.448
674.37	26.834
674.69	26.984
675.01	26.667
675.34	26.145
675.66	24.719
675.98	26.679
676.31	26.953
676.63	28.137
676.95	26.437
677.28	26.815
677.60	22.441
677.92	25.720
678.25	25.229
678.57	28.470
678.89	25.597
679.22	24.564
679.54	25.641
679.86	23.390
680.18	23.715
680.51	25.786
680.83	25.205
681.15	25.345
681.48	27.116
681.80	25.734
682.12	26.573
682.44	25.376
682.77	23.759
683.09	27.083
683.41	26.744
683.73	22.391
684.06	27.491
684.38	25.939
684.70	25.673
685.02	27.539
685.34	23.960
685.67	22.555
685.99	24.233
686.31	24.564
686.63	24.487
686.96	24.921
687.28	26.059
687.60	22.896
687.92	23.151
688.24	25.543
688.56	24.310
688.89	27.405
689.21	26.027
689.53	24.706
689.85	23.471
690.17	25.185
690.49	25.896
690.82	26.139
691.14	23.482
691.46	26.195
691.78	27.072
692.10	22.202
692.42	21.607
692.74	25.771
693.06	24.259
693.39	25.047
693.71	24.624
694.03	24.349
694.35	25.714
694.67	26.899
694.99	24.681
695.31	24.062
695.63	25.974
695.95	23.602
696.27	24.835
696.59	26.327
696.91	25.000
697.23	25.934
697.56	22.811
697.88	22.727
698.20	25.424
698.52	25.947
698.84	25.572
699.16	25.510
699.48	24.895
699.80	22.979
700.12	26.419
700.44	27.419
700.76	27.078
701.08	25.908
701.40	27.202
701.72	25.124
702.04	24.064
702.36	25.654
702.68	26.895
703.00	23.472
703.32	26.601
703.64	24.939
703.96	25.776
704.28	24.816
704.60	26.329
704.91	28.827
705.23	28.767
705.55	22.006
705.87	26.970
706.19	24.540
706.51	23.193
706.83	24.496
707.15	25.397
707.47	22.897
707.79	24.672
708.11	20.763
708.43	24.301
708.74	22.321
709.06	24.594
709.38	23.474
709.70	28.784
710.02	23.773
710.34	30.053
710.66	26.536
710.98	26.230
711.29	25.000
711.61	22.881
711.93	27.920
712.25	27.027
712.57	31.268
712.89	26.471
713.20	24.852
713.52	25.434
713.84	23.120
714.16	24.211
714.48	21.907
714.80	26.234
715.11	25.459
715.43	23.873
715.75	23.947
716.07	24.309
716.39	29.508
716.70	20.783
717.02	24.262
717.34	22.300
717.66	25.503
717.97	21.918
718.29	25.086
718.61	23.026
718.93	25.890
719.24	24.534
719.56	26.687
719.88	24.625
720.20	27.097
720.51	23.913
720.83	24.688
721.15	26.645
721.46	24.658
721.78	23.333
722.10	24.919
722.42	25.168
722.73	26.452
723.05	30.877
723.37	26.042
723.68	25.090
724.00	22.383
724.32	23.592
724.63	22.727
724.95	27.660
725.27	29.965
725.58	25.088
725.90	28.276
726.22	23.824
726.53	24.675
726.85	27.358
727.16	24.773
727.48	28.135
727.80	29.139
728.11	20.848
728.43	26.599
728.74	23.411
729.06	25.497
729.38	21.429
729.69	26.510
730.01	24.405
730.32	25.152
730.64	22.013
730.96	23.602
731.27	25.698
731.59	23.901
731.90	21.039
732.22	23.437
732.53	18.508
732.85	25.714
733.16	24.633
733.48	23.171
733.80	23.677
734.11	24.217
734.43	25.676
734.74	26.329
735.06	22.613
735.37	27.838
735.69	24.595
736.00	26.554
736.32	21.024
736.63	23.611
736.95	23.276
737.26	24.848
737.58	22.727
737.89	25.000
738.21	25.688
738.52	23.607
738.83	22.526
739.15	25.887
739.46	24.490
739.78	23.313
740.09	25.501
740.41	27.114
740.72	25.000
741.04	27.508
741.35	30.175
741.66	26.667
741.98	29.508
742.29	25.105
742.61	27.193
742.92	22.692
743.23	27.798
743.55	26.357
743.86	32.000
744.18	20.661
744.49	25.316
744.80	31.687
745.12	31.646
745.43	28.049
745.74	24.138
746.06	26.271
746.37	25.738
746.68	30.894
747.00	27.083
747.31	22.318
747.62	25.385
747.94	25.911
748.25	24.498
748.56	24.490
748.88	21.368
749.19	22.414
749.50	20.779
749.82	27.711
750.13	28.470
750.44	23.667
750.75	28.923
751.07	23.385
751.38	25.868
751.69	23.642
752.01	23.301
752.32	25.817
752.63	25.510
752.94	23.875
753.26	19.703
753.57	24.444
753.88	23.596
754.19	27.331
754.51	19.614
754.82	27.010
755.13	26.557
755.44	29.352
755.75	24.342
756.07	25.970
756.38	23.270
756.69	24.398
757.00	19.945
757.31	21.585
757.63	20.460
757.94	23.709
758.25	20.542
758.56	21.569
758.87	21.818
759.18	22.400
759.50	24.363
759.81	22.129
760.12	24.259
760.43	25.521
760.74	22.660
761.05	23.250
761.36	24.337
761.67	22.843
761.99	21.622
762.30	23.780
762.61	24.752
762.92	25.373
763.23	27.341
763.54	24.820
763.85	21.649
764.16	25.589
764.47	22.183
764.78	23.962
765.10	21.701
765.41	23.077
765.72	22.751
766.03	24.294
766.34	20.690
766.65	18.118
766.96	23.904
767.27	23.963
767.58	29.851
767.89	24.038
768.20	27.700
768.51	27.778
768.82	26.908
769.13	23.106
769.44	23.077
769.75	28.159
770.06	26.538
770.37	28.740
770.68	19.149
770.99	19.433
771.30	25.185
771.61	28.137
771.92	20.370
772.23	28.745
772.54	25.000
772.85	28.571
773.16	26.667
773.47	21.164
773.78	25.405
774.09	31.250
774.39	25.500
774.70	29.508
775.01	23.780
775.32	17.059
775.63	26.994
775.94	21.656
776.25	29.032
776.56	33.974
776.87	25.170
777.18	32.414
777.48	30.769
777.79	27.027
778.10	25.735
778.41	27.778
778.72	31.034
779.03	24.691
779.34	31.515
779.65	28.497
779.95	26.111
780.26	26.705
780.57	27.097
780.88	31.159
781.19	25.806
781.50	31.765
781.80	24.731
782.11	28.571
782.42	20.202
782.73	19.760
783.04	30.726
783.34	24.848
783.65	20.261
783.96	28.571
784.27	26.786
784.57	32.450
784.88	30.714
785.19	27.559
785.50	26.772
785.81	32.331
786.11	22.308
786.42	19.424
786.73	25.180
787.04	36.090
787.34	31.148
787.65	23.200
787.96	31.343
788.26	30.070
788.57	27.273
788.88	30.921
789.19	32.680
789.49	33.562
789.80	29.078
790.11	29.921
790.41	28.906
790.72	27.119
791.03	24.272
791.33	31.304
791.64	28.947
791.95	33.036
792.25	24.762
792.56	28.571
792.87	18.750
793.17	27.679
793.48	32.292
793.79	24.096
794.09	21.101
794.40	34.862
794.70	27.211
795.01	23.377
795.32	21.233
795.62	18.310
795.93	27.273
796.23	35.246
796.54	19.643
796.85	26.596
797.15	29.348
797.46	26.027
797.76	35.000
798.07	34.783
798.37	29.897
798.68	28.571
798.99	21.839
799.29	38.202
799.60	26.596
799.90	44.578
800.21	35.385
800.51	25.373
800.82	32.353
801.12	31.507
801.43	26.471
801.73	33.898
802.04	42.424
802.34	23.333
802.65	33.898
802.95	26.866
803.26	49.153
803.56	39.726
803.87	14.286
804.17	31.507
804.48	22.807
804.78	13.889
805.09	32.759
805.39	28.378
805.70	26.761
806.00	32.927
806.30	24.096
806.61	31.507
806.91	27.885
807.22	28.889
807.52	27.586
807.83	37.500
808.13	49.398
808.43	33.708
808.74	33.750
809.04	8.824
809.35	29.333
809.65	42.857
809.95	27.397
810.26	17.544
810.56	44.828
810.86	32.353
811.17	38.596
811.47	16.393
811.77	20.000
812.08	44.068
812.38	43.333
812.69	60.345
812.99	16.981
813.29	12.821
813.59	44.000
813.90	50.877
814.20	29.091
814.50	50.704
814.81	33.333
815.11	42.623
815.41	28.358
815.72	53.448
816.02	67.857
816.32	80.000
816.62	59.091
816.93	73.333
817.23	55.556
817.53	38.298
817.84	50.000
818.14	55.882
818.44	53.061
818.74	57.778
819.04	30.769
819.35	42.857
819.65	53.846
819.95	41.509
820.25	57.778
820.56	50.000
820.86	28.125
821.16	43.590
821.46	41.860
821.76	20.000
822.07	42.857
822.37	41.304
822.67	44.681
822.97	10.811
823.27	25.000
823.57	63.265
823.88	28.889
824.18	60.000
824.48	73.333
824.78	76.000
825.08	51.515
825.38	42.222
825.69	65.957
825.99	47.222
826.29	25.714
826.59	33.333
826.89	37.209
827.19	50.000
827.49	55.882
827.79	41.667
828.09	10.811
828.39	13.333
828.70	41.463
829.00	46.512
829.30	75.000
829.60	61.765
829.90	45.652
830.20	45.714
830.50	44.828
830.80	0.000
831.10	19.231
831.40	44.118
831.70	71.429
832.00	58.065
832.30	-17.647
832.60	62.500
832.90	30.769
833.20	94.737
833.50	50.000
833.80	26.316
834.10	-9.524
834.40	69.444
834.70	46.875
835.00	8.571
835.30	79.412
835.60	30.000
835.90	60.000
836.20	-9.091
836.50	56.000
836.80	24.242
837.10	40.741
837.40	74.074
837.70	31.250
838.00	53.571
838.30	56.522
838.60	62.069
838.90	-7.143
839.19	4.348
839.49	-25.000
839.79	56.522
840.09	31.250
840.39	45.000
840.69	48.387
840.99	50.000
841.29	86.667
841.59	78.947
841.88	58.974
842.18	73.077
842.48	30.000
842.78	110.000
843.08	43.333
843.38	58.065
843.68	16.667
843.97	67.647
844.27	81.250
844.57	31.579
844.87	80.000
845.17	60.000
845.47	71.429
845.76	47.619
846.06	88.889
846.36	52.941
846.66	57.692
846.96	66.667
847.25	100.000
847.55	100.000
847.85	50.000
848.15	23.529
848.44	127.273
848.74	38.095
849.04	45.833
849.34	43.750
849.63	69.565
849.93	-700.000
850.23	146.667
850.53	42.308
850.82	118.182
851.12	86.364
851.42	200.000
851.71	84.615
852.01	30.000
852.31	130.769
852.61	73.684
852.90	100.000
853.20	77.778
853.50	55.556
853.79	23.810
854.09	45.455
854.39	25.000
854.68	12.903
854.98	34.615
855.28	100.000
855.57	46.429
855.87	56.000
856.17	36.364
856.46	74.074
856.76	111.111
857.05	43.478
857.35	25.000
857.65	46.154
857.94	52.381
858.24	66.667
858.53	95.652
858.83	82.353
859.13	100.000
859.42	100.000
859.72	142.857
860.01	60.000
860.31	122.222
860.60	140.000
860.90	140.000
861.20	50.000
861.49	130.769
861.79	73.333
862.08	107.692
862.38	65.625
862.67	111.765
862.97	81.250
863.26	100.000
863.56	210.000
863.85	100.000
864.15	105.556
864.44	533.333
864.74	107.143
865.03	93.750
865.33	30.000
865.62	54.839
865.92	127.273
866.21	69.565
866.51	121.429
866.80	160.000
867.10	66.667
867.39	33.333
867.69	-1100.000
867.98	28.571
868.27	129.412
868.57	-200.000
868.86	40.000
869.16	57.143
869.45	100.000
869.75	127.273
870.04	100.000
870.33	41.667
870.63	114.286
870.92	50.000
871.22	12.500
871.51	72.727
871.80	166.667
872.10	300.000
>>>>>End Processed Spectral Data<<<<<
