SpectraSuite Data File
++++++++++++++++++++++++++++++++++++
Date: Thu May 14 14:52:08 PDT 2015
User: schluterlab
Dark Spectrum Present: Yes
Reference Spectrum Present: Yes
Number of Sampled Component Spectra: 1
Spectrometers: USB2E3373
Integration Time (usec): 3000 (USB2E3373)
Spectra Averaged: 3 (USB2E3373)
Boxcar Smoothing: 0 (USB2E3373)
Correct for Electrical Dark: No (USB2E3373)
Strobe/Lamp Enabled: No (USB2E3373)
Correct for Detector Non-linearity: No (USB2E3373)
Correct for Stray Light: No (USB2E3373)
Number of Pixels in Processed Spectrum: 2048
>>>>>Begin Processed Spectral Data<<<<<
178.53	0.000
178.91	242.857
179.29	-1500.000
179.67	-1500.000
180.04	164.286
180.42	80.000
180.80	180.000
181.18	-1400.000
181.56	-500.000
181.94	350.000
182.31	-200.000
182.69	366.667
183.07	-700.000
183.45	200.000
183.83	-50.000
184.20	-166.667
184.58	900.000
184.96	-325.000
185.34	-11.111
185.72	-120.000
186.09	122.222
186.47	600.000
186.85	360.000
187.23	-144.444
187.61	-1300.000
187.98	160.000
188.36	300.000
188.74	-375.000
189.12	-33.333
189.49	6.250
189.87	-100.000
190.25	-33.333
190.63	-160.000
191.00	-177.778
191.38	0.000
191.76	-275.000
192.14	-216.667
192.51	450.000
192.89	-33.333
193.27	0.000
193.65	-200.000
194.02	-1600.000
194.40	-71.429
194.78	128.571
195.15	0.000
195.53	-72.727
195.91	0.000
196.29	-50.000
196.66	-46.154
197.04	-800.000
197.42	-142.857
197.79	-550.000
198.17	-50.000
198.55	-114.286
198.92	-44.444
199.30	-200.000
199.68	-18.182
200.05	-64.286
200.43	-400.000
200.81	185.714
201.18	0.000
201.56	200.000
201.94	0.000
202.31	366.667
202.69	-200.000
203.07	700.000
203.44	-133.333
203.82	-325.000
204.19	-50.000
204.57	-283.333
204.95	-237.500
205.32	-1200.000
205.70	175.000
206.08	-166.667
206.45	-183.333
206.83	340.000
207.20	-33.333
207.58	-260.000
207.96	-183.333
208.33	-83.333
208.71	83.333
209.08	-133.333
209.46	0.000
209.84	150.000
210.21	50.000
210.59	400.000
210.96	566.667
211.34	-150.000
211.71	-75.000
212.09	-900.000
212.46	0.000
212.84	450.000
213.22	-260.000
213.59	-275.000
213.97	50.000
214.34	-333.333
214.72	216.667
215.09	-225.000
215.47	0.000
215.84	242.857
216.22	650.000
216.59	-100.000
216.97	-240.000
217.34	-25.000
217.72	-62.500
218.09	-325.000
218.47	-300.000
218.84	0.000
219.22	260.000
219.59	-17.647
219.97	-30.000
220.34	900.000
220.72	-177.778
221.09	38.462
221.47	-233.333
221.84	-30.000
222.22	-242.857
222.59	0.000
222.97	-12.500
223.34	-220.000
223.72	-1200.000
224.09	-275.000
224.46	-450.000
224.84	-240.000
225.21	-100.000
225.59	-175.000
225.96	-400.000
226.34	-19.231
226.71	283.333
227.08	-550.000
227.46	-100.000
227.83	-225.000
228.21	5.263
228.58	225.000
228.95	800.000
229.33	-33.333
229.70	-90.000
230.08	31.579
230.45	120.000
230.82	-66.667
231.20	-50.000
231.57	-50.000
231.95	-90.909
232.32	-36.364
232.69	15.000
233.07	-50.000
233.44	11.765
233.81	-130.000
234.19	-50.000
234.56	-59.091
234.93	37.931
235.31	10.526
235.68	-33.333
236.05	-65.000
236.43	23.077
236.80	20.000
237.17	-66.667
237.55	-9.091
237.92	-130.000
238.29	-16.129
238.67	-9.091
239.04	-22.222
239.41	-16.667
239.79	-2.174
240.16	-9.259
240.53	-28.261
240.91	-37.255
241.28	-21.311
241.65	1.493
242.02	5.405
242.40	-20.000
242.77	-8.000
243.14	-7.317
243.51	-17.105
243.89	-10.256
244.26	0.000
244.63	4.902
245.00	-8.411
245.38	0.877
245.75	-11.504
246.12	0.000
246.49	0.000
246.87	-3.571
247.24	5.298
247.61	7.237
247.98	-1.342
248.36	0.000
248.73	-1.840
249.10	2.186
249.47	5.970
249.84	5.759
250.22	1.036
250.59	1.111
250.96	6.818
251.33	-2.551
251.70	0.427
252.08	2.500
252.45	-1.230
252.82	0.000
253.19	0.000
253.56	0.760
253.94	0.385
254.31	2.652
254.68	3.846
255.05	4.235
255.42	-1.361
255.79	0.647
256.16	0.662
256.54	3.642
256.91	0.984
257.28	0.000
257.65	-1.274
258.02	-0.885
258.39	2.564
258.76	3.670
259.14	1.437
259.51	2.882
259.88	3.683
260.25	4.444
260.62	6.027
260.99	3.279
261.36	4.558
261.73	1.326
262.10	0.275
262.47	3.485
262.85	4.293
263.22	1.039
263.59	-1.316
263.96	6.394
264.33	2.302
264.70	2.963
265.07	4.057
265.44	4.308
265.81	1.389
266.18	4.535
266.55	2.455
266.92	2.278
267.29	5.033
267.66	2.661
268.03	2.620
268.40	3.967
268.77	1.595
269.14	-0.220
269.51	2.412
269.88	6.557
270.25	5.231
270.62	4.219
270.99	3.232
271.36	2.970
271.73	4.322
272.10	5.411
272.47	2.605
272.84	2.811
273.21	3.206
273.58	2.419
273.95	2.500
274.32	2.471
274.69	1.741
275.06	2.381
275.43	0.924
275.80	4.056
276.17	0.741
276.54	3.731
276.91	1.610
277.28	2.712
277.65	4.668
278.02	3.309
278.39	2.174
278.76	2.636
279.13	3.546
279.50	3.952
279.87	3.936
280.23	1.585
280.60	3.559
280.97	3.947
281.34	1.698
281.71	5.753
282.08	3.821
282.45	1.964
282.82	3.140
283.19	1.616
283.56	2.459
283.92	5.856
284.29	3.318
284.66	2.956
285.03	0.801
285.40	3.864
285.77	2.167
286.14	5.344
286.51	3.653
286.87	3.476
287.24	4.066
287.61	2.541
287.98	4.079
288.35	4.586
288.72	3.107
289.08	3.807
289.45	2.515
289.82	3.012
290.19	3.879
290.56	2.676
290.93	3.424
291.29	2.755
291.66	3.857
292.03	1.764
292.40	3.946
292.77	2.022
293.13	3.924
293.50	2.234
293.87	3.758
294.24	4.133
294.60	4.046
294.97	1.745
295.34	4.225
295.71	2.774
296.08	4.005
296.44	3.309
296.81	4.385
297.18	2.491
297.55	3.184
297.91	3.440
298.28	2.725
298.65	4.162
299.02	3.070
299.38	4.805
299.75	3.621
300.12	3.819
300.48	4.147
300.85	5.174
301.22	4.922
301.59	2.968
301.95	4.068
302.32	5.111
302.69	3.286
303.05	4.244
303.42	4.545
303.79	4.062
304.15	5.468
304.52	4.545
304.89	4.503
305.25	4.555
305.62	4.075
305.99	5.464
306.35	4.032
306.72	4.033
307.09	4.569
307.45	5.694
307.82	4.945
308.19	5.853
308.55	7.329
308.92	6.037
309.29	4.981
309.65	5.556
310.02	4.851
310.38	5.610
310.75	5.922
311.12	6.424
311.48	5.572
311.85	6.838
312.22	6.736
312.58	7.042
312.95	6.883
313.31	7.588
313.68	7.143
314.05	8.401
314.41	8.197
314.78	8.174
315.14	8.802
315.51	8.772
315.87	9.451
316.24	10.046
316.61	9.591
316.97	10.317
317.34	8.554
317.70	10.393
318.07	9.877
318.43	9.269
318.80	11.455
319.16	10.386
319.53	8.826
319.89	10.868
320.26	11.566
320.62	11.525
320.99	10.711
321.35	11.091
321.72	12.744
322.08	10.730
322.45	12.285
322.81	12.906
323.18	11.681
323.54	12.069
323.91	13.434
324.27	12.478
324.64	14.610
325.00	14.262
325.37	14.251
325.73	15.124
326.10	15.410
326.46	14.577
326.83	15.452
327.19	16.220
327.56	16.047
327.92	15.185
328.29	16.371
328.65	16.164
329.01	17.259
329.38	17.523
329.74	18.750
330.11	18.322
330.47	17.944
330.84	17.571
331.20	19.500
331.56	17.071
331.93	20.335
332.29	20.000
332.66	20.183
333.02	19.682
333.38	19.547
333.75	19.192
334.11	20.017
334.48	19.884
334.84	19.966
335.20	19.228
335.57	20.405
335.93	21.157
336.29	19.800
336.66	19.428
337.02	20.819
337.38	22.449
337.75	20.331
338.11	21.531
338.47	20.596
338.84	20.981
339.20	19.377
339.56	20.511
339.93	20.197
340.29	20.934
340.65	21.411
341.02	21.947
341.38	22.070
341.74	20.420
342.11	20.837
342.47	20.413
342.83	21.498
343.20	21.504
343.56	20.529
343.92	21.617
344.28	21.406
344.65	22.481
345.01	21.763
345.37	22.240
345.73	20.811
346.10	22.309
346.46	22.073
346.82	21.723
347.19	22.307
347.55	22.610
347.91	21.545
348.27	22.610
348.63	21.858
349.00	22.670
349.36	22.305
349.72	22.470
350.08	22.660
350.45	23.042
350.81	22.247
351.17	22.481
351.53	22.593
351.89	22.399
352.26	22.313
352.62	21.791
352.98	22.519
353.34	22.704
353.70	23.498
354.07	23.025
354.43	22.020
354.79	23.336
355.15	23.032
355.51	23.465
355.87	23.560
356.24	22.966
356.60	22.690
356.96	22.165
357.32	23.643
357.68	23.206
358.04	22.754
358.40	23.657
358.77	23.392
359.13	23.929
359.49	22.751
359.85	24.656
360.21	23.314
360.57	24.049
360.93	23.061
361.29	24.561
361.66	23.968
362.02	24.983
362.38	24.245
362.74	24.721
363.10	24.209
363.46	24.723
363.82	24.645
364.18	24.279
364.54	24.412
364.90	25.017
365.26	24.759
365.62	25.333
365.98	25.596
366.35	25.772
366.71	24.830
367.07	25.778
367.43	25.936
367.79	25.680
368.15	25.619
368.51	26.252
368.87	26.061
369.23	26.800
369.59	26.913
369.95	26.978
370.31	27.144
370.67	26.685
371.03	26.524
371.39	26.394
371.75	27.029
372.11	26.897
372.47	27.150
372.83	27.683
373.19	28.819
373.55	26.965
373.91	27.130
374.27	27.167
374.63	27.808
374.99	28.515
375.35	28.442
375.71	28.774
376.07	28.728
376.42	28.967
376.78	28.962
377.14	30.131
377.50	29.222
377.86	30.357
378.22	30.299
378.58	30.380
378.94	30.692
379.30	29.643
379.66	30.570
380.02	32.025
380.38	31.682
380.74	31.042
381.09	31.475
381.45	31.591
381.81	32.611
382.17	32.482
382.53	32.047
382.89	31.490
383.25	34.349
383.61	33.275
383.97	32.980
384.32	34.031
384.68	32.425
385.04	32.967
385.40	34.001
385.76	34.174
386.12	33.273
386.48	34.353
386.83	36.234
387.19	34.705
387.55	34.918
387.91	35.274
388.27	35.046
388.62	35.796
388.98	34.687
389.34	36.889
389.70	36.026
390.06	35.406
390.42	36.084
390.77	37.086
391.13	35.974
391.49	37.983
391.85	36.485
392.20	36.655
392.56	36.976
392.92	37.186
393.28	38.143
393.64	37.877
393.99	38.292
394.35	38.551
394.71	38.084
395.07	38.084
395.42	37.921
395.78	39.854
396.14	38.740
396.50	38.777
396.85	38.223
397.21	39.053
397.57	39.340
397.92	39.920
398.28	38.023
398.64	38.158
399.00	38.639
399.35	38.743
399.71	40.272
400.07	40.595
400.42	39.988
400.78	39.410
401.14	39.556
401.49	39.227
401.85	40.291
402.21	40.382
402.57	40.904
402.92	40.839
403.28	39.520
403.63	40.036
403.99	40.974
404.35	39.397
404.70	39.433
405.06	39.946
405.42	39.813
405.77	41.058
406.13	40.086
406.49	40.484
406.84	40.886
407.20	40.358
407.55	39.007
407.91	39.346
408.27	39.223
408.62	40.489
408.98	40.511
409.34	40.235
409.69	40.420
410.05	40.152
410.40	40.081
410.76	40.550
411.11	40.736
411.47	41.278
411.83	41.387
412.18	42.651
412.54	40.664
412.89	41.327
413.25	41.479
413.60	41.585
413.96	41.725
414.31	39.773
414.67	40.250
415.03	40.923
415.38	41.677
415.74	41.417
416.09	42.011
416.45	40.200
416.80	40.330
417.16	41.124
417.51	41.283
417.87	40.282
418.22	42.036
418.58	41.574
418.93	41.909
419.29	42.232
419.64	41.717
420.00	42.136
420.35	42.223
420.71	41.356
421.06	42.036
421.42	41.858
421.77	40.819
422.12	41.332
422.48	42.806
422.83	43.483
423.19	42.281
423.54	43.418
423.90	42.794
424.25	42.933
424.61	42.939
424.96	42.065
425.31	42.675
425.67	42.351
426.02	43.498
426.38	42.882
426.73	42.188
427.09	42.618
427.44	42.436
427.79	43.449
428.15	43.151
428.50	43.034
428.85	42.308
429.21	44.521
429.56	43.781
429.92	41.769
430.27	43.036
430.62	45.286
430.98	43.974
431.33	43.206
431.68	43.343
432.04	43.829
432.39	43.814
432.74	44.406
433.10	44.024
433.45	42.754
433.80	43.187
434.16	44.215
434.51	45.015
434.86	45.603
435.22	45.271
435.57	46.639
435.92	45.019
436.28	44.198
436.63	45.330
436.98	44.767
437.34	45.434
437.69	43.808
438.04	44.527
438.39	43.825
438.75	44.660
439.10	44.133
439.45	45.668
439.81	44.859
440.16	45.255
440.51	45.652
440.86	45.192
441.22	46.034
441.57	45.073
441.92	45.393
442.27	46.010
442.63	45.107
442.98	46.105
443.33	45.502
443.68	46.878
444.03	45.720
444.39	46.001
444.74	45.942
445.09	45.666
445.44	45.943
445.79	46.264
446.15	46.249
446.50	45.375
446.85	45.623
447.20	46.760
447.55	46.705
447.91	45.969
448.26	46.406
448.61	46.706
448.96	47.747
449.31	46.076
449.66	44.771
450.02	46.624
450.37	45.551
450.72	46.017
451.07	45.900
451.42	46.332
451.77	45.525
452.12	46.727
452.47	44.860
452.83	47.748
453.18	46.060
453.53	45.663
453.88	45.776
454.23	45.763
454.58	46.895
454.93	45.874
455.28	46.899
455.63	45.082
455.98	47.821
456.34	46.408
456.69	45.385
457.04	47.577
457.39	46.840
457.74	46.924
458.09	46.568
458.44	46.659
458.79	46.313
459.14	46.251
459.49	46.633
459.84	46.695
460.19	44.919
460.54	46.848
460.89	47.485
461.24	45.517
461.59	46.873
461.94	45.408
462.29	46.697
462.64	46.107
462.99	46.767
463.34	47.242
463.69	44.959
464.04	46.581
464.39	46.413
464.74	45.610
465.09	46.424
465.44	46.567
465.79	46.536
466.14	46.326
466.49	46.158
466.84	47.438
467.19	47.225
467.54	45.123
467.89	45.460
468.24	46.260
468.59	44.412
468.94	45.921
469.29	47.151
469.64	46.535
469.99	46.272
470.34	46.597
470.68	47.027
471.03	46.824
471.38	46.174
471.73	46.489
472.08	47.906
472.43	46.538
472.78	46.788
473.13	46.018
473.48	47.069
473.83	46.895
474.17	45.487
474.52	48.527
474.87	46.235
475.22	47.662
475.57	47.300
475.92	46.292
476.27	46.699
476.61	46.210
476.96	46.611
477.31	47.030
477.66	47.534
478.01	46.823
478.36	46.361
478.70	46.355
479.05	47.495
479.40	46.890
479.75	47.310
480.10	46.518
480.45	46.536
480.79	47.347
481.14	46.783
481.49	46.433
481.84	47.737
482.19	47.570
482.53	47.223
482.88	47.009
483.23	47.265
483.58	46.245
483.92	46.321
484.27	46.655
484.62	46.122
484.97	46.423
485.31	45.371
485.66	44.910
486.01	45.208
486.36	46.625
486.70	48.732
487.05	48.851
487.40	47.156
487.75	46.692
488.09	45.788
488.44	44.852
488.79	44.418
489.13	45.402
489.48	45.748
489.83	46.197
490.17	45.849
490.52	43.842
490.87	45.981
491.22	46.187
491.56	45.606
491.91	46.097
492.26	46.949
492.60	46.174
492.95	46.556
493.30	45.764
493.64	46.080
493.99	45.658
494.34	46.080
494.68	45.953
495.03	46.740
495.37	46.383
495.72	45.805
496.07	45.662
496.41	44.659
496.76	46.539
497.11	46.539
497.45	45.447
497.80	45.580
498.14	45.760
498.49	45.634
498.84	45.887
499.18	46.019
499.53	46.368
499.87	46.681
500.22	46.928
500.56	46.739
500.91	48.101
501.26	46.773
501.60	45.913
501.95	46.114
502.29	46.117
502.64	47.311
502.98	45.945
503.33	45.788
503.67	45.704
504.02	45.578
504.36	47.051
504.71	46.210
505.06	45.703
505.40	46.115
505.75	46.175
506.09	45.902
506.44	46.611
506.78	46.239
507.13	46.750
507.47	46.660
507.82	46.780
508.16	45.268
508.51	46.038
508.85	46.575
509.19	46.471
509.54	47.983
509.88	46.819
510.23	47.062
510.57	46.351
510.92	46.928
511.26	45.984
511.61	45.437
511.95	46.169
512.30	46.233
512.64	46.427
512.98	46.123
513.33	47.177
513.67	46.915
514.02	46.806
514.36	46.752
514.70	46.354
515.05	46.924
515.39	46.562
515.74	47.508
516.08	46.646
516.42	46.939
516.77	46.793
517.11	46.725
517.46	47.932
517.80	47.087
518.14	46.192
518.49	45.879
518.83	46.301
519.17	46.850
519.52	47.222
519.86	47.518
520.20	47.231
520.55	46.714
520.89	47.185
521.23	46.287
521.58	46.554
521.92	46.969
522.26	47.022
522.61	47.164
522.95	47.636
523.29	46.667
523.64	46.244
523.98	47.461
524.32	48.080
524.66	48.264
525.01	47.112
525.35	45.549
525.69	46.230
526.04	44.834
526.38	48.103
526.72	46.713
527.06	47.683
527.41	47.347
527.75	46.734
528.09	47.934
528.43	46.240
528.78	46.069
529.12	47.248
529.46	45.925
529.80	46.510
530.15	46.493
530.49	47.034
530.83	46.694
531.17	46.655
531.51	45.668
531.86	47.716
532.20	46.280
532.54	46.918
532.88	46.970
533.22	45.963
533.57	46.163
533.91	46.240
534.25	47.654
534.59	46.897
534.93	46.350
535.27	45.972
535.62	47.300
535.96	47.531
536.30	47.062
536.64	46.907
536.98	47.294
537.32	46.358
537.66	46.351
538.01	46.647
538.35	45.859
538.69	46.334
539.03	47.701
539.37	46.113
539.71	47.327
540.05	47.002
540.39	46.516
540.73	46.205
541.07	46.229
541.42	46.426
541.76	44.781
542.10	45.959
542.44	46.041
542.78	45.255
543.12	46.007
543.46	46.093
543.80	45.024
544.14	46.020
544.48	46.217
544.82	45.841
545.16	46.631
545.50	46.435
545.84	45.867
546.18	46.358
546.52	45.796
546.86	44.969
547.20	46.310
547.54	46.255
547.88	45.208
548.22	45.556
548.56	45.816
548.90	46.149
549.24	45.410
549.58	46.498
549.92	45.344
550.26	46.408
550.60	45.692
550.94	47.154
551.28	45.875
551.62	46.900
551.96	44.466
552.30	45.762
552.64	45.426
552.98	46.912
553.32	47.781
553.66	45.531
554.00	46.658
554.34	45.817
554.68	46.740
555.02	46.715
555.36	47.535
555.69	45.484
556.03	46.658
556.37	47.309
556.71	46.290
557.05	46.390
557.39	46.583
557.73	46.697
558.07	45.166
558.41	46.179
558.75	47.059
559.08	47.042
559.42	45.679
559.76	45.997
560.10	46.685
560.44	46.768
560.78	46.000
561.12	46.121
561.45	46.411
561.79	46.520
562.13	46.334
562.47	44.513
562.81	47.785
563.15	47.222
563.48	45.805
563.82	46.372
564.16	45.669
564.50	46.663
564.84	46.018
565.17	46.412
565.51	46.260
565.85	46.912
566.19	47.062
566.52	44.997
566.86	46.633
567.20	46.058
567.54	46.840
567.88	46.891
568.21	46.887
568.55	47.290
568.89	46.800
569.23	46.219
569.56	47.128
569.90	46.115
570.24	47.049
570.57	46.472
570.91	46.877
571.25	46.023
571.59	46.312
571.92	45.922
572.26	46.321
572.60	46.028
572.93	44.809
573.27	45.743
573.61	45.447
573.95	45.569
574.28	45.830
574.62	46.044
574.96	45.324
575.29	45.186
575.63	45.530
575.97	45.677
576.30	45.102
576.64	45.240
576.98	45.695
577.31	45.488
577.65	45.832
577.98	46.009
578.32	45.670
578.66	46.061
578.99	45.505
579.33	45.220
579.67	44.991
580.00	45.201
580.34	44.066
580.67	45.278
581.01	45.219
581.35	45.081
581.68	45.608
582.02	45.765
582.35	47.271
582.69	46.442
583.02	46.515
583.36	45.800
583.70	45.558
584.03	44.732
584.37	44.236
584.70	45.355
585.04	44.850
585.37	45.736
585.71	45.523
586.04	45.487
586.38	45.613
586.72	45.500
587.05	45.920
587.39	45.824
587.72	45.813
588.06	46.228
588.39	45.556
588.73	45.000
589.06	45.457
589.40	46.281
589.73	45.694
590.07	45.656
590.40	45.335
590.73	45.741
591.07	46.054
591.40	45.529
591.74	45.072
592.07	46.001
592.41	44.834
592.74	46.113
593.08	45.764
593.41	46.573
593.75	45.948
594.08	47.258
594.41	46.635
594.75	45.267
595.08	45.390
595.42	45.584
595.75	45.689
596.09	46.154
596.42	45.109
596.75	45.041
597.09	45.859
597.42	45.491
597.75	45.198
598.09	44.762
598.42	45.275
598.76	45.548
599.09	45.390
599.42	45.860
599.76	46.088
600.09	45.913
600.42	46.346
600.76	45.707
601.09	45.636
601.42	45.726
601.76	45.552
602.09	45.282
602.42	44.602
602.76	45.277
603.09	45.301
603.42	46.676
603.76	45.102
604.09	46.806
604.42	45.541
604.76	45.434
605.09	45.233
605.42	45.175
605.75	45.577
606.09	45.838
606.42	45.348
606.75	44.828
607.09	45.353
607.42	44.933
607.75	46.034
608.08	45.264
608.42	45.103
608.75	46.517
609.08	44.652
609.41	45.567
609.75	46.116
610.08	45.558
610.41	45.497
610.74	45.630
611.07	44.982
611.41	45.516
611.74	45.774
612.07	46.190
612.40	45.722
612.73	45.868
613.07	45.672
613.40	46.824
613.73	45.209
614.06	45.976
614.39	45.675
614.72	45.512
615.06	45.140
615.39	44.804
615.72	45.829
616.05	44.779
616.38	45.661
616.71	45.873
617.05	45.580
617.38	45.853
617.71	45.518
618.04	45.656
618.37	46.503
618.70	47.285
619.03	45.102
619.36	45.499
619.69	45.099
620.03	44.633
620.36	44.969
620.69	46.144
621.02	45.997
621.35	47.025
621.68	46.855
622.01	45.694
622.34	46.304
622.67	45.567
623.00	44.534
623.33	46.384
623.66	46.498
623.99	45.622
624.32	46.264
624.65	44.981
624.99	46.489
625.32	47.355
625.65	45.988
625.98	45.492
626.31	45.358
626.64	45.641
626.97	45.986
627.30	45.103
627.63	46.212
627.96	47.222
628.29	46.070
628.62	44.752
628.95	46.188
629.28	46.049
629.61	44.865
629.94	45.105
630.26	45.508
630.59	45.250
630.92	44.675
631.25	47.227
631.58	47.646
631.91	46.392
632.24	46.494
632.57	46.395
632.90	45.336
633.23	46.224
633.56	45.306
633.89	45.455
634.22	47.089
634.55	45.929
634.88	45.887
635.20	46.932
635.53	47.006
635.86	45.937
636.19	46.978
636.52	45.570
636.85	45.148
637.18	45.218
637.51	45.591
637.83	45.404
638.16	48.041
638.49	45.540
638.82	45.209
639.15	44.444
639.48	47.229
639.81	45.266
640.13	46.879
640.46	42.909
640.79	43.627
641.12	45.963
641.45	45.044
641.77	49.037
642.10	44.488
642.43	47.340
642.76	44.580
643.09	43.425
643.41	45.658
643.74	44.828
644.07	45.655
644.40	45.262
644.73	42.961
645.05	45.815
645.38	47.338
645.71	45.308
646.04	46.198
646.36	42.044
646.69	46.626
647.02	46.177
647.35	47.023
647.67	46.216
648.00	47.134
648.33	45.345
648.66	46.648
648.98	43.946
649.31	47.497
649.64	47.145
649.96	49.072
650.29	43.950
650.62	44.979
650.94	42.643
651.27	44.162
651.60	43.713
651.92	43.921
652.25	46.744
652.58	43.191
652.90	44.622
653.23	48.451
653.56	45.364
653.88	47.612
654.21	44.366
654.54	43.353
654.86	46.176
655.19	44.040
655.52	46.369
655.84	48.340
656.17	57.197
656.49	79.272
656.82	84.500
657.15	65.244
657.47	47.757
657.80	34.801
658.13	26.512
658.45	33.847
658.78	39.969
659.10	38.103
659.43	37.403
659.75	36.482
660.08	35.406
660.41	37.883
660.73	37.400
661.06	40.529
661.38	42.584
661.71	43.621
662.03	45.326
662.36	43.828
662.68	44.090
663.01	45.841
663.33	47.259
663.66	45.604
663.98	46.538
664.31	45.403
664.63	42.967
664.96	46.279
665.28	42.831
665.61	43.007
665.93	46.250
666.26	46.953
666.58	43.542
666.91	44.486
667.23	44.000
667.56	46.154
667.88	46.800
668.21	39.453
668.53	40.734
668.86	45.580
669.18	45.418
669.50	44.334
669.83	44.400
670.15	44.488
670.48	47.817
670.80	41.874
671.13	43.667
671.45	45.276
671.77	46.516
672.10	43.833
672.42	45.307
672.75	42.704
673.07	43.433
673.39	42.219
673.72	45.470
674.04	44.483
674.37	48.658
674.69	43.210
675.01	43.238
675.34	42.176
675.66	41.573
675.98	43.284
676.31	42.188
676.63	46.388
676.95	43.487
677.28	44.556
677.60	42.323
677.92	42.610
678.25	45.155
678.57	45.552
678.89	44.710
679.22	44.425
679.54	44.103
679.86	41.695
680.18	43.615
680.51	42.767
680.83	45.499
681.15	45.000
681.48	44.041
681.80	44.560
682.12	42.832
682.44	43.239
682.77	43.262
683.09	42.045
683.41	43.605
683.73	42.694
684.06	44.096
684.38	39.177
684.70	44.883
685.02	46.127
685.34	42.928
685.67	43.218
685.99	44.018
686.31	42.297
686.63	42.654
686.96	43.375
687.28	42.182
687.60	43.098
687.92	42.926
688.24	41.736
688.56	41.207
688.89	43.194
689.21	45.988
689.53	41.569
689.85	41.617
690.17	40.926
690.49	45.219
690.82	40.990
691.14	41.296
691.46	43.786
691.78	45.672
692.10	43.119
692.42	41.964
692.74	43.013
693.06	40.556
693.39	43.454
693.71	40.977
694.03	42.379
694.35	43.048
694.67	41.889
694.99	40.000
695.31	43.488
695.63	44.372
695.95	43.685
696.27	43.297
696.59	44.469
696.91	43.919
697.23	44.396
697.56	42.159
697.88	41.856
698.20	42.938
698.52	43.561
698.84	41.372
699.16	46.327
699.48	41.632
699.80	42.766
700.12	40.175
700.44	41.014
700.76	42.518
701.08	42.131
701.40	46.891
701.72	40.299
702.04	41.711
702.36	40.052
702.68	46.210
703.00	40.342
703.32	41.379
703.64	44.254
703.96	44.869
704.28	42.752
704.60	47.848
704.91	43.878
705.23	43.836
705.55	40.669
705.87	46.364
706.19	43.865
706.51	40.060
706.83	44.957
707.15	42.593
707.47	43.692
707.79	41.266
708.11	38.347
708.43	40.860
708.74	39.286
709.06	42.923
709.38	41.080
709.70	41.687
710.02	43.411
710.34	42.553
710.66	39.385
710.98	43.989
711.29	39.286
711.61	41.808
711.93	41.880
712.25	44.324
712.57	42.773
712.89	41.765
713.20	37.278
713.52	41.618
713.84	40.669
714.16	41.316
714.48	39.948
714.80	41.299
715.11	42.257
715.43	41.379
715.75	41.053
716.07	43.923
716.39	40.437
716.70	39.759
717.02	40.000
717.34	38.676
717.66	40.604
717.97	36.644
718.29	40.893
718.61	40.461
718.93	40.129
719.24	41.925
719.56	38.037
719.88	38.438
720.20	44.839
720.51	37.267
720.83	41.875
721.15	40.132
721.46	40.068
721.78	43.333
722.10	38.835
722.42	38.255
722.73	43.548
723.05	44.211
723.37	40.278
723.68	43.011
724.00	42.238
724.32	38.028
724.63	40.210
724.95	41.489
725.27	39.721
725.58	34.982
725.90	45.862
726.22	42.006
726.53	42.208
726.85	39.937
727.16	39.275
727.48	39.755
727.80	45.364
728.11	39.223
728.43	41.751
728.74	40.803
729.06	38.742
729.38	38.636
729.69	38.926
730.01	43.452
730.32	38.788
730.64	39.937
730.96	41.304
731.27	45.251
731.59	40.659
731.90	38.961
732.22	42.187
732.53	37.569
732.85	38.857
733.16	40.762
733.48	39.024
733.80	39.276
734.11	37.892
734.43	41.622
734.74	41.519
735.06	38.693
735.37	41.622
735.69	39.730
736.00	41.525
736.32	36.388
736.63	38.333
736.95	36.494
737.26	37.879
737.58	41.515
737.89	40.588
738.21	39.144
738.52	37.377
738.83	41.638
739.15	42.199
739.46	39.456
739.78	40.798
740.09	39.828
740.41	40.233
740.72	38.667
741.04	39.159
741.35	41.754
741.66	38.039
741.98	38.934
742.29	40.167
742.61	42.544
742.92	38.077
743.23	39.350
743.55	36.434
743.86	44.400
744.18	35.537
744.49	35.865
744.80	39.506
745.12	40.506
745.43	37.398
745.74	39.655
746.06	35.593
746.37	42.616
746.68	38.618
747.00	40.417
747.31	41.631
747.62	40.000
747.94	38.866
748.25	38.554
748.56	39.184
748.88	31.624
749.19	40.086
749.50	39.394
749.82	42.972
750.13	40.569
750.44	42.000
750.75	40.923
751.07	45.231
751.38	39.432
751.69	39.297
752.01	38.835
752.32	38.889
752.63	37.755
752.94	39.792
753.26	39.033
753.57	38.519
753.88	34.831
754.19	37.621
754.51	40.193
754.82	38.264
755.13	40.656
755.44	36.519
755.75	45.395
756.07	36.716
756.38	40.252
756.69	40.964
757.00	34.349
757.31	36.339
757.63	34.015
757.94	38.028
758.25	38.600
758.56	40.305
758.87	36.364
759.18	38.933
759.50	39.377
759.81	40.056
760.12	41.779
760.43	40.625
760.74	38.177
761.05	37.250
761.36	36.867
761.67	37.817
761.99	35.405
762.30	36.280
762.61	35.974
762.92	35.821
763.23	36.704
763.54	39.928
763.85	38.144
764.16	39.731
764.47	40.141
764.78	38.658
765.10	40.469
765.41	41.026
765.72	34.392
766.03	37.571
766.34	34.483
766.65	40.418
766.96	39.442
767.27	35.945
767.58	38.308
767.89	46.154
768.20	36.150
768.51	40.278
768.82	38.153
769.13	39.394
769.44	36.923
769.75	34.657
770.06	40.769
770.37	40.157
770.68	34.468
770.99	35.628
771.30	40.000
771.61	37.262
771.92	34.444
772.23	38.057
772.54	35.185
772.85	40.092
773.16	40.000
773.47	39.683
773.78	32.973
774.09	40.909
774.39	32.500
774.70	38.798
775.01	32.927
775.32	31.765
775.63	34.356
775.94	25.478
776.25	36.774
776.56	41.026
776.87	40.136
777.18	33.793
777.48	34.965
777.79	32.432
778.10	27.206
778.41	36.111
778.72	34.483
779.03	28.395
779.34	33.939
779.65	30.570
779.95	36.667
780.26	32.955
780.57	30.968
780.88	38.406
781.19	36.129
781.50	39.412
781.80	36.559
782.11	26.984
782.42	28.788
782.73	31.138
783.04	32.402
783.34	30.303
783.65	25.490
783.96	36.025
784.27	30.357
784.57	37.086
784.88	38.571
785.19	34.646
785.50	30.709
785.81	36.842
786.11	37.692
786.42	28.777
786.73	30.935
787.04	35.338
787.34	30.328
787.65	29.600
787.96	32.836
788.26	29.371
788.57	40.559
788.88	31.579
789.19	32.680
789.49	31.507
789.80	34.043
790.11	31.496
790.41	29.688
790.72	29.661
791.03	20.388
791.33	34.783
791.64	28.070
791.95	17.857
792.25	34.286
792.56	27.679
792.87	34.375
793.17	32.143
793.48	30.208
793.79	24.096
794.09	28.440
794.40	33.945
794.70	29.932
795.01	27.922
795.32	32.877
795.62	35.211
795.93	34.848
796.23	36.066
796.54	23.214
796.85	19.149
797.15	22.826
797.46	38.356
797.76	25.000
798.07	45.652
798.37	19.588
798.68	33.766
798.99	28.736
799.29	21.348
799.60	27.660
799.90	22.892
800.21	16.923
800.51	19.403
800.82	5.882
801.12	19.178
801.43	8.824
801.73	10.169
802.04	24.242
802.34	25.000
802.65	35.593
802.95	28.358
803.26	32.203
803.56	17.808
803.87	15.714
804.17	28.767
804.48	12.281
804.78	36.111
805.09	27.586
805.39	35.135
805.70	15.493
806.00	26.829
806.30	19.277
806.61	24.658
806.91	25.962
807.22	23.333
807.52	10.345
807.83	29.167
808.13	28.916
808.43	24.719
808.74	28.750
809.04	13.235
809.35	12.000
809.65	24.286
809.95	23.288
810.26	10.526
810.56	17.241
810.86	27.941
811.17	8.772
811.47	13.115
811.77	17.778
812.08	15.254
812.38	21.667
812.69	27.586
812.99	16.981
813.29	10.256
813.59	40.000
813.90	17.544
814.20	21.818
814.50	23.944
814.81	21.795
815.11	34.426
815.41	28.358
815.72	31.034
816.02	19.643
816.32	48.889
816.62	15.909
816.93	4.444
817.23	33.333
817.53	25.532
817.84	33.333
818.14	20.588
818.44	18.367
818.74	15.556
819.04	5.128
819.35	-14.286
819.65	-23.077
819.95	20.755
820.25	22.222
820.56	-4.762
820.86	28.125
821.16	30.769
821.46	4.651
821.76	8.000
822.07	10.714
822.37	30.435
822.67	8.511
822.97	-21.622
823.27	20.000
823.57	36.735
823.88	11.111
824.18	35.000
824.48	-6.667
824.78	12.000
825.08	-3.030
825.38	51.111
825.69	21.277
825.99	27.778
826.29	-28.571
826.59	-10.256
826.89	2.326
827.19	16.000
827.49	11.765
827.79	29.167
828.09	-2.703
828.39	-23.333
828.70	2.439
829.00	18.605
829.30	0.000
829.60	5.882
829.90	2.174
830.20	-8.571
830.50	-20.690
830.80	-38.889
831.10	-3.846
831.40	14.706
831.70	-23.810
832.00	3.226
832.30	-105.882
832.60	-12.500
832.90	-69.231
833.20	-36.842
833.50	-50.000
833.80	-36.842
834.10	-80.952
834.40	19.444
834.70	9.375
835.00	-14.286
835.30	8.824
835.60	13.333
835.90	32.000
836.20	-31.818
836.50	20.000
836.80	-21.212
837.10	-29.630
837.40	37.037
837.70	-93.750
838.00	25.000
838.30	-13.043
838.60	3.448
838.90	-28.571
839.19	-39.130
839.49	-108.333
839.79	-47.826
840.09	0.000
840.39	-15.000
840.69	22.581
840.99	-14.286
841.29	13.333
841.59	15.789
841.88	30.769
842.18	3.846
842.48	-40.000
842.78	10.000
843.08	-6.667
843.38	-19.355
843.68	-44.444
843.97	11.765
844.27	0.000
844.57	-10.526
844.87	0.000
845.17	-20.000
845.47	28.571
845.76	0.000
846.06	-177.778
846.36	-23.529
846.66	-11.538
846.96	-40.000
847.25	-29.412
847.55	4.348
847.85	-10.000
848.15	5.882
848.44	-145.455
848.74	-14.286
849.04	-16.667
849.34	-25.000
849.63	-17.391
849.93	700.000
850.23	-66.667
850.53	15.385
850.82	-54.545
851.12	40.909
851.42	-63.636
851.71	46.154
852.01	-45.000
852.31	7.692
852.61	-42.105
852.90	-8.333
853.20	-33.333
853.50	-33.333
853.79	-61.905
854.09	-31.818
854.39	-100.000
854.68	12.903
854.98	-34.615
855.28	-27.778
855.57	-3.571
855.87	-12.000
856.17	-4.545
856.46	33.333
856.76	16.667
857.05	-47.826
857.35	-4.167
857.65	-76.923
857.94	-4.762
858.24	0.000
858.53	-4.348
858.83	5.882
859.13	-29.412
859.42	29.412
859.72	42.857
860.01	-70.000
860.31	-88.889
860.60	-60.000
860.90	-26.667
861.20	-38.889
861.49	-76.923
861.79	-10.000
862.08	-53.846
862.38	3.125
862.67	17.647
862.97	-12.500
863.26	-22.222
863.56	0.000
863.85	-9.091
864.15	-33.333
864.44	-300.000
864.74	0.000
865.03	-68.750
865.33	-120.000
865.62	-22.581
865.92	18.182
866.21	21.739
866.51	-21.429
866.80	-200.000
867.10	-100.000
867.39	-41.667
867.69	1000.000
867.98	-57.143
868.27	-23.529
868.57	-2400.000
868.86	-120.000
869.16	-33.333
869.45	33.333
869.75	-90.909
870.04	-271.429
870.33	-25.000
870.63	-200.000
870.92	-150.000
871.22	-237.500
871.51	-209.091
871.80	-733.333
872.10	-250.000
>>>>>End Processed Spectral Data<<<<<
