SpectraSuite Data File
++++++++++++++++++++++++++++++++++++
Date: Thu May 14 14:32:51 PDT 2015
User: schluterlab
Dark Spectrum Present: Yes
Reference Spectrum Present: Yes
Number of Sampled Component Spectra: 1
Spectrometers: USB2E3373
Integration Time (usec): 3000 (USB2E3373)
Spectra Averaged: 3 (USB2E3373)
Boxcar Smoothing: 0 (USB2E3373)
Correct for Electrical Dark: No (USB2E3373)
Strobe/Lamp Enabled: No (USB2E3373)
Correct for Detector Non-linearity: No (USB2E3373)
Correct for Stray Light: No (USB2E3373)
Number of Pixels in Processed Spectrum: 2048
>>>>>Begin Processed Spectral Data<<<<<
178.53	0.000
178.91	-200.000
179.29	800.000
179.67	1100.000
180.04	35.714
180.42	-200.000
180.80	-500.000
181.18	1200.000
181.56	1100.000
181.94	-525.000
182.31	325.000
182.69	-166.667
183.07	800.000
183.45	-425.000
183.83	366.667
184.20	500.000
184.58	-1800.000
184.96	350.000
185.34	133.333
185.72	400.000
186.09	-55.556
186.47	-750.000
186.85	-240.000
187.23	200.000
187.61	1000.000
187.98	-380.000
188.36	-600.000
188.74	600.000
189.12	833.333
189.49	143.750
189.87	150.000
190.25	233.333
190.63	400.000
191.00	100.000
191.38	0.000
191.76	400.000
192.14	316.667
192.51	-750.000
192.89	283.333
193.27	0.000
193.65	300.000
194.02	300.000
194.40	328.571
194.78	-328.571
195.15	0.000
195.53	136.364
195.91	0.000
196.29	525.000
196.66	176.923
197.04	0.000
197.42	200.000
197.79	950.000
198.17	175.000
198.55	214.286
198.92	266.667
199.30	187.500
199.68	227.273
200.05	200.000
200.43	250.000
200.81	14.286
201.18	0.000
201.56	-44.444
201.94	0.000
202.31	-333.333
202.69	200.000
203.07	-2400.000
203.44	211.111
203.82	450.000
204.19	216.667
204.57	266.667
204.95	187.500
205.32	1200.000
205.70	-325.000
206.08	400.000
206.45	383.333
206.83	-140.000
207.20	300.000
207.58	140.000
207.96	250.000
208.33	466.667
208.71	-150.000
209.08	516.667
209.46	0.000
209.84	-216.667
210.21	-550.000
210.59	-750.000
210.96	-400.000
211.34	600.000
211.71	200.000
212.09	1200.000
212.46	0.000
212.84	-400.000
213.22	240.000
213.59	450.000
213.97	340.000
214.34	600.000
214.72	-283.333
215.09	675.000
215.47	0.000
215.84	-300.000
216.22	-600.000
216.59	440.000
216.97	420.000
217.34	425.000
217.72	250.000
218.09	475.000
218.47	650.000
218.84	0.000
219.22	-500.000
219.59	158.824
219.97	90.000
220.34	-550.000
220.72	155.556
221.09	153.846
221.47	266.667
221.84	180.000
222.22	257.143
222.59	0.000
222.97	262.500
223.34	240.000
223.72	1400.000
224.09	375.000
224.46	525.000
224.84	480.000
225.21	157.143
225.59	225.000
225.96	325.000
226.34	115.385
226.71	-166.667
227.08	600.000
227.46	173.333
227.83	425.000
228.21	147.368
228.58	-275.000
228.95	-400.000
229.33	125.000
229.70	190.000
230.08	184.211
230.45	-110.000
230.82	633.333
231.20	135.714
231.57	191.667
231.95	172.727
232.32	218.182
232.69	120.000
233.07	650.000
233.44	111.765
233.81	210.000
234.19	122.222
234.56	100.000
234.93	96.552
235.31	78.947
235.68	100.000
236.05	80.000
236.43	115.385
236.80	152.000
237.17	81.481
237.55	75.758
237.92	150.000
238.29	103.226
238.67	47.727
239.04	100.000
239.41	64.286
239.79	36.957
240.16	42.593
240.53	32.609
240.91	31.373
241.28	42.623
241.65	47.761
242.02	52.703
242.40	23.077
242.77	34.667
243.14	28.049
243.51	34.211
243.89	33.333
244.26	29.703
244.63	45.098
245.00	36.449
245.38	25.439
245.75	17.699
246.12	34.127
246.49	31.783
246.87	25.714
247.24	25.828
247.61	28.289
247.98	22.819
248.36	23.457
248.73	21.472
249.10	20.765
249.47	27.861
249.84	28.272
250.22	23.316
250.59	19.444
250.96	24.545
251.33	20.918
251.70	20.085
252.08	17.500
252.45	21.721
252.82	19.835
253.19	16.406
253.56	21.293
253.94	17.308
254.31	18.939
254.68	19.930
255.05	20.521
255.42	14.966
255.79	14.239
256.16	15.232
256.54	15.894
256.91	17.377
257.28	16.066
257.65	15.605
258.02	14.454
258.39	17.949
258.76	21.101
259.14	17.241
259.51	18.156
259.88	16.431
260.25	14.444
260.62	18.082
260.99	18.306
261.36	20.912
261.73	17.507
262.10	16.484
262.47	17.694
262.85	20.960
263.22	13.506
263.59	11.579
263.96	17.903
264.33	14.322
264.70	16.296
265.07	17.184
265.44	17.914
265.81	18.056
266.18	18.141
266.55	15.625
266.92	11.617
267.29	19.256
267.66	15.743
268.03	15.502
268.40	17.119
268.77	13.895
269.14	12.996
269.51	16.667
269.88	18.443
270.25	14.889
270.62	14.979
270.99	16.970
271.36	15.446
271.73	16.110
272.10	17.034
272.47	15.631
272.84	12.450
273.21	13.627
273.58	15.323
273.95	15.192
274.32	15.779
274.69	16.054
275.06	15.201
275.43	14.418
275.80	15.873
276.17	14.815
276.54	14.366
276.91	14.132
277.28	15.190
277.65	14.722
278.02	18.015
278.39	14.855
278.76	14.763
279.13	15.248
279.50	14.777
279.87	14.490
280.23	13.908
280.60	14.576
280.97	14.309
281.34	13.922
281.71	12.690
282.08	14.950
282.45	13.421
282.82	12.873
283.19	11.632
283.56	14.754
283.92	16.216
284.29	16.114
284.66	16.420
285.03	12.019
285.40	13.756
285.77	13.003
286.14	14.504
286.51	14.764
286.87	14.692
287.24	14.458
287.61	13.752
287.98	12.991
288.35	13.462
288.72	14.645
289.08	15.373
289.45	11.834
289.82	12.048
290.19	14.368
290.56	12.113
290.93	13.837
291.29	13.912
291.66	13.499
292.03	10.855
292.40	14.014
292.77	12.129
293.13	13.396
293.50	11.432
293.87	11.141
294.24	14.800
294.60	13.148
294.97	11.141
295.34	12.548
295.71	11.475
296.08	12.532
296.44	11.887
296.81	13.155
297.18	12.204
297.55	10.024
297.91	11.507
298.28	11.611
298.65	12.485
299.02	11.216
299.38	11.785
299.75	11.682
300.12	10.764
300.48	11.636
300.85	11.811
301.22	12.081
301.59	11.986
301.95	11.073
302.32	11.333
302.69	11.720
303.05	11.752
303.42	11.973
303.79	11.250
304.15	11.672
304.52	11.311
304.89	11.623
305.25	11.801
305.62	10.345
305.99	11.753
306.35	11.290
306.72	11.375
307.09	11.574
307.45	12.836
307.82	11.806
308.19	12.513
308.55	12.729
308.92	11.977
309.29	11.782
309.65	11.598
310.02	11.386
310.38	12.106
310.75	12.427
311.12	12.943
311.48	12.512
311.85	12.536
312.22	13.283
312.58	13.897
312.95	13.193
313.31	14.273
313.68	12.637
314.05	15.447
314.41	14.936
314.78	14.078
315.14	15.245
315.51	14.866
315.87	16.562
316.24	15.708
316.61	16.785
316.97	16.018
317.34	15.785
317.70	17.293
318.07	16.490
318.43	18.367
318.80	18.896
319.16	18.627
319.53	16.710
319.89	18.931
320.26	20.107
320.62	19.238
320.99	19.021
321.35	20.980
321.72	21.395
322.08	19.838
322.45	21.500
322.81	22.383
323.18	22.655
323.54	22.155
323.91	23.132
324.27	23.580
324.64	24.853
325.00	24.461
325.37	25.635
325.73	26.777
326.10	27.494
326.46	27.524
326.83	28.663
327.19	29.685
327.56	30.040
327.92	30.606
328.29	30.968
328.65	30.318
329.01	32.234
329.38	31.676
329.74	33.048
330.11	34.332
330.47	34.288
330.84	34.022
331.20	35.833
331.56	36.742
331.93	36.653
332.29	36.525
332.66	36.794
333.02	36.013
333.38	38.003
333.75	37.795
334.11	39.450
334.48	38.614
334.84	38.912
335.20	37.531
335.57	39.039
335.93	38.347
336.29	38.103
336.66	39.613
337.02	38.043
337.38	38.776
337.75	38.182
338.11	41.548
338.47	40.943
338.84	39.594
339.20	38.163
339.56	39.044
339.93	40.887
340.29	39.936
340.65	38.929
341.02	40.942
341.38	40.420
341.74	40.113
342.11	40.869
342.47	40.508
342.83	39.775
343.20	40.965
343.56	40.818
343.92	40.432
344.28	41.094
344.65	41.395
345.01	41.264
345.37	40.435
345.73	39.906
346.10	41.576
346.46	41.851
346.82	40.599
347.19	40.260
347.55	41.426
347.91	40.193
348.27	40.592
348.63	41.736
349.00	39.672
349.36	39.331
349.72	41.964
350.08	41.159
350.45	41.141
350.81	40.271
351.17	40.902
351.53	42.608
351.89	41.002
352.26	41.194
352.62	40.896
352.98	41.450
353.34	40.030
353.70	42.142
354.07	42.548
354.43	42.445
354.79	42.184
355.15	42.311
355.51	42.763
355.87	42.259
356.24	43.042
356.60	41.759
356.96	43.440
357.32	42.305
357.68	42.679
358.04	42.141
358.40	43.060
358.77	43.348
359.13	42.688
359.49	43.197
359.85	43.727
360.21	42.468
360.57	42.283
360.93	43.653
361.29	43.649
361.66	43.230
362.02	44.120
362.38	43.359
362.74	44.274
363.10	44.223
363.46	44.806
363.82	44.957
364.18	44.053
364.54	44.260
364.90	45.886
365.26	44.897
365.62	44.000
365.98	44.860
366.35	44.765
366.71	46.054
367.07	45.467
367.43	44.714
367.79	46.782
368.15	46.087
368.51	46.482
368.87	46.702
369.23	45.400
369.59	46.790
369.95	46.653
370.31	47.468
370.67	45.873
371.03	46.330
371.39	45.668
371.75	47.730
372.11	47.154
372.47	47.258
372.83	49.280
373.19	46.965
373.55	47.629
373.91	47.716
374.27	47.671
374.63	49.120
374.99	47.878
375.35	49.286
375.71	49.677
376.07	48.354
376.42	49.622
376.78	49.596
377.14	48.347
377.50	50.221
377.86	50.800
378.22	50.180
378.58	50.713
378.94	50.528
379.30	50.439
379.66	50.088
380.02	51.471
380.38	52.247
380.74	52.169
381.09	51.626
381.45	52.159
381.81	53.923
382.17	52.553
382.53	52.047
382.89	51.749
383.25	54.338
383.61	53.877
383.97	53.592
384.32	54.725
384.68	52.436
385.04	54.251
385.40	55.922
385.76	56.331
386.12	54.279
386.48	54.824
386.83	56.555
387.19	55.041
387.55	56.397
387.91	55.023
388.27	55.543
388.62	55.384
388.98	54.822
389.34	55.569
389.70	57.234
390.06	56.246
390.42	56.627
390.77	58.338
391.13	57.453
391.49	58.696
391.85	58.545
392.20	58.244
392.56	58.181
392.92	57.634
393.28	58.098
393.64	56.816
393.99	58.338
394.35	59.638
394.71	58.862
395.07	59.042
395.42	58.995
395.78	59.902
396.14	59.239
396.50	58.076
396.85	59.630
397.21	58.994
397.57	59.894
397.92	60.309
398.28	59.316
398.64	59.211
399.00	58.168
399.35	58.010
399.71	59.293
400.07	61.651
400.42	59.430
400.78	60.764
401.14	59.875
401.49	61.057
401.85	61.744
402.21	62.283
402.57	61.796
402.92	62.175
403.28	60.773
403.63	60.979
403.99	60.689
404.35	59.750
404.70	62.266
405.06	61.304
405.42	61.124
405.77	61.996
406.13	61.967
406.49	61.374
406.84	60.554
407.20	61.431
407.55	61.902
407.91	62.225
408.27	61.072
408.62	63.118
408.98	62.043
409.34	62.346
409.69	63.226
410.05	63.013
410.40	63.573
410.76	61.638
411.11	63.121
411.47	62.899
411.83	64.491
412.18	63.434
412.54	62.537
412.89	62.922
413.25	62.415
413.60	63.240
413.96	64.161
414.31	61.416
414.67	63.924
415.03	62.708
415.38	66.520
415.74	62.798
416.09	64.220
416.45	62.805
416.80	63.647
417.16	62.835
417.51	63.761
417.87	63.213
418.22	64.551
418.58	63.879
418.93	62.689
419.29	65.413
419.64	64.286
420.00	64.570
420.35	63.784
420.71	63.240
421.06	63.887
421.42	64.679
421.77	62.951
422.12	63.584
422.48	63.646
422.83	64.951
423.19	63.714
423.54	65.487
423.90	64.108
424.25	65.867
424.61	65.557
424.96	65.733
425.31	64.437
425.67	63.875
426.02	65.744
426.38	64.237
426.73	65.011
427.09	66.032
427.44	64.336
427.79	66.059
428.15	65.011
428.50	65.169
428.85	64.409
429.21	66.489
429.56	65.499
429.92	65.651
430.27	66.169
430.62	66.194
430.98	65.175
431.33	64.858
431.68	64.272
432.04	65.719
432.39	66.899
432.74	66.667
433.10	66.847
433.45	66.109
433.80	66.953
434.16	66.167
434.51	66.341
434.86	67.264
435.22	67.800
435.57	67.453
435.92	65.943
436.28	67.463
436.63	68.214
436.98	65.915
437.34	67.531
437.69	66.868
438.04	68.006
438.39	67.662
438.75	67.571
439.10	66.808
439.45	67.691
439.81	66.554
440.16	67.507
440.51	66.555
440.86	65.536
441.22	67.631
441.57	68.658
441.92	67.265
442.27	67.475
442.63	66.965
442.98	66.329
443.33	67.806
443.68	67.542
444.03	68.438
444.39	67.591
444.74	67.688
445.09	65.535
445.44	67.545
445.79	67.529
446.15	67.986
446.50	67.804
446.85	67.656
447.20	67.215
447.55	67.835
447.91	67.173
448.26	67.812
448.61	67.906
448.96	69.421
449.31	67.922
449.66	67.974
450.02	68.196
450.37	67.928
450.72	68.138
451.07	68.565
451.42	68.400
451.77	67.927
452.12	68.284
452.47	67.439
452.83	69.538
453.18	66.783
453.53	68.926
453.88	68.250
454.23	69.379
454.58	69.704
454.93	69.417
455.28	70.439
455.63	67.709
455.98	67.765
456.34	69.435
456.69	68.548
457.04	70.272
457.39	69.290
457.74	68.680
458.09	68.589
458.44	69.181
458.79	67.664
459.14	68.065
459.49	70.345
459.84	69.465
460.19	67.574
460.54	70.358
460.89	70.196
461.24	69.598
461.59	68.788
461.94	67.941
462.29	68.813
462.64	68.196
462.99	69.115
463.34	70.733
463.69	68.640
464.04	70.428
464.39	67.825
464.74	67.275
465.09	69.089
465.44	68.079
465.79	68.800
466.14	67.170
466.49	68.579
466.84	68.705
467.19	69.480
467.54	68.566
467.89	69.023
468.24	68.864
468.59	68.327
468.94	68.357
469.29	69.466
469.64	69.358
469.99	69.853
470.34	68.874
470.68	71.360
471.03	70.530
471.38	70.896
471.73	68.791
472.08	70.876
472.43	69.175
472.78	69.962
473.13	69.975
473.48	69.789
473.83	70.749
474.17	68.757
474.52	70.355
474.87	68.937
475.22	70.535
475.57	69.367
475.92	68.840
476.27	69.063
476.61	68.847
476.96	68.822
477.31	68.713
477.66	70.094
478.01	69.395
478.36	68.395
478.70	68.719
479.05	68.661
479.40	70.039
479.75	69.308
480.10	68.546
480.45	69.462
480.79	69.705
481.14	69.118
481.49	69.105
481.84	69.756
482.19	69.161
482.53	68.736
482.88	70.270
483.23	69.631
483.58	68.690
483.92	68.839
484.27	69.136
484.62	68.606
484.97	68.779
485.31	67.652
485.66	66.325
486.01	63.620
486.36	62.973
486.70	63.760
487.05	64.620
487.40	65.777
487.75	67.634
488.09	68.864
488.44	67.324
488.79	69.680
489.13	69.768
489.48	69.359
489.83	68.330
490.17	66.991
490.52	68.062
490.87	69.585
491.22	68.977
491.56	69.539
491.91	69.778
492.26	70.013
492.60	69.042
492.95	68.451
493.30	69.789
493.64	69.777
493.99	69.254
494.34	68.598
494.68	68.565
495.03	68.282
495.37	70.306
495.72	68.889
496.07	70.465
496.41	69.326
496.76	69.683
497.11	69.936
497.45	69.486
497.80	69.614
498.14	70.522
498.49	70.450
498.84	70.841
499.18	69.591
499.53	70.224
499.87	68.835
500.22	69.145
500.56	69.636
500.91	70.526
501.26	70.773
501.60	69.554
501.95	69.952
502.29	69.373
502.64	70.791
502.98	68.464
503.33	69.114
503.67	68.818
504.02	69.046
504.36	70.331
504.71	70.877
505.06	68.440
505.40	69.424
505.75	69.672
506.09	71.363
506.44	69.591
506.78	70.780
507.13	69.802
507.47	70.109
507.82	70.691
508.16	70.746
508.51	69.480
508.85	70.383
509.19	72.051
509.54	70.653
509.88	71.248
510.23	71.685
510.57	70.807
510.92	71.311
511.26	70.178
511.61	69.097
511.95	70.473
512.30	70.310
512.64	70.215
512.98	69.835
513.33	71.825
513.67	71.545
514.02	71.742
514.36	71.765
514.70	71.406
515.05	72.002
515.39	71.549
515.74	72.110
516.08	71.632
516.42	72.841
516.77	72.240
517.11	71.944
517.46	71.103
517.80	72.795
518.14	72.905
518.49	73.048
518.83	70.942
519.17	71.729
519.52	72.117
519.86	71.225
520.20	72.790
520.55	73.275
520.89	73.761
521.23	72.418
521.58	73.616
521.92	73.654
522.26	72.108
522.61	74.306
522.95	73.414
523.29	74.368
523.64	71.413
523.98	73.588
524.32	74.155
524.66	73.364
525.01	72.084
525.35	72.717
525.69	72.506
526.04	72.331
526.38	72.989
526.72	73.760
527.06	73.959
527.41	73.644
527.75	74.228
528.09	73.908
528.43	72.351
528.78	72.890
529.12	74.255
529.46	72.232
529.80	73.112
530.15	73.855
530.49	73.725
530.83	73.436
531.17	74.432
531.51	74.128
531.86	74.760
532.20	73.659
532.54	72.890
532.88	74.061
533.22	72.834
533.57	71.437
533.91	71.549
534.25	72.131
534.59	73.046
534.93	71.817
535.27	72.732
535.62	72.939
535.96	75.596
536.30	73.384
536.64	74.775
536.98	73.801
537.32	74.136
537.66	74.548
538.01	71.782
538.35	73.021
538.69	73.077
539.03	73.268
539.37	72.085
539.71	72.553
540.05	73.141
540.39	74.633
540.73	71.828
541.07	74.065
541.42	72.002
541.76	71.649
542.10	72.256
542.44	73.569
542.78	73.358
543.12	71.931
543.46	71.734
543.80	72.782
544.14	72.472
544.48	72.991
544.82	73.250
545.16	72.868
545.50	71.600
545.84	73.362
546.18	74.630
546.52	72.548
546.86	73.396
547.20	74.109
547.54	71.660
547.88	72.453
548.22	71.754
548.56	71.445
548.90	72.060
549.24	72.766
549.58	72.492
549.92	73.087
550.26	73.981
550.60	73.006
550.94	74.450
551.28	72.937
551.62	75.539
551.96	72.945
552.30	73.996
552.64	72.122
552.98	73.300
553.32	74.598
553.66	74.984
554.00	72.825
554.34	73.488
554.68	73.144
555.02	74.573
555.36	76.200
555.69	72.966
556.03	73.203
556.37	75.469
556.71	75.143
557.05	73.291
557.39	76.311
557.73	74.306
558.07	73.709
558.41	74.884
558.75	75.456
559.08	76.061
559.42	75.034
559.76	74.084
560.10	73.744
560.44	74.142
560.78	73.813
561.12	73.030
561.45	74.209
561.79	72.894
562.13	73.198
562.47	72.626
562.81	73.924
563.15	72.664
563.48	72.467
563.82	73.458
564.16	72.562
564.50	73.838
564.84	73.392
565.17	72.765
565.51	70.598
565.85	74.050
566.19	71.889
566.52	72.850
566.86	72.892
567.20	71.071
567.54	72.544
567.88	70.897
568.21	71.937
568.55	71.990
568.89	71.085
569.23	69.582
569.56	68.425
569.90	67.463
570.24	66.981
570.57	67.415
570.91	66.044
571.25	65.751
571.59	66.240
571.92	65.005
572.26	65.881
572.60	65.438
572.93	66.657
573.27	66.620
573.61	65.511
573.95	65.647
574.28	64.237
574.62	64.552
574.96	63.410
575.29	63.803
575.63	64.310
575.97	65.078
576.30	64.249
576.64	64.782
576.98	64.419
577.31	64.849
577.65	64.631
577.98	63.366
578.32	63.192
578.66	62.910
578.99	63.465
579.33	65.251
579.67	64.869
580.00	65.296
580.34	64.725
580.67	65.026
581.01	64.756
581.35	63.705
581.68	63.088
582.02	62.704
582.35	63.121
582.69	63.821
583.02	63.820
583.36	64.880
583.70	65.281
584.03	64.795
584.37	65.737
584.70	65.892
585.04	64.845
585.37	64.892
585.71	63.193
586.04	63.606
586.38	64.160
586.72	64.527
587.05	64.902
587.39	65.046
587.72	64.426
588.06	65.208
588.39	65.098
588.73	65.053
589.06	66.704
589.40	66.718
589.73	67.192
590.07	67.241
590.40	67.681
590.73	67.762
591.07	68.690
591.40	67.846
591.74	68.800
592.07	69.468
592.41	67.232
592.74	65.531
593.08	65.605
593.41	65.763
593.75	65.661
594.08	66.162
594.41	66.090
594.75	66.622
595.08	66.689
595.42	66.266
595.75	66.096
596.09	67.333
596.42	67.753
596.75	68.777
597.09	69.333
597.42	69.368
597.75	68.013
598.09	68.056
598.42	69.320
598.76	67.023
599.09	67.391
599.42	65.404
599.76	65.632
600.09	66.500
600.42	65.832
600.76	66.711
601.09	65.815
601.42	66.186
601.76	67.379
602.09	66.726
602.42	67.394
602.76	67.897
603.09	67.768
603.42	68.172
603.76	67.689
604.09	68.701
604.42	66.752
604.76	67.314
605.09	69.007
605.42	67.823
605.75	67.500
606.09	68.160
606.42	67.348
606.75	67.541
607.09	67.281
607.42	67.245
607.75	67.995
608.08	68.232
608.42	67.271
608.75	67.496
609.08	67.487
609.41	71.019
609.75	70.000
610.08	70.449
610.41	67.715
610.74	68.235
611.07	69.538
611.41	69.283
611.74	69.376
612.07	69.425
612.40	70.627
612.73	70.807
613.07	70.954
613.40	70.404
613.73	69.475
614.06	70.805
614.39	69.582
614.72	70.306
615.06	69.249
615.39	68.922
615.72	69.668
616.05	69.840
616.38	71.292
616.71	71.630
617.05	71.246
617.38	70.091
617.71	70.734
618.04	72.207
618.37	73.115
618.70	71.719
619.03	73.297
619.36	73.120
619.69	74.375
620.03	73.697
620.36	73.313
620.69	73.720
621.02	75.591
621.35	77.504
621.68	74.910
622.01	74.875
622.34	74.477
622.67	74.089
623.00	74.966
623.33	75.116
623.66	74.708
623.99	73.996
624.32	74.529
624.65	71.815
624.99	74.512
625.32	75.180
625.65	74.039
625.98	72.949
626.31	76.471
626.64	76.777
626.97	76.669
627.30	77.601
627.63	75.919
627.96	77.402
628.29	76.887
628.62	79.429
628.95	79.930
629.28	79.779
629.61	79.882
629.94	77.824
630.26	77.458
630.59	78.238
630.92	78.009
631.25	80.322
631.58	81.544
631.91	80.506
632.24	81.748
632.57	82.543
632.90	81.745
633.23	81.327
633.56	82.449
633.89	80.475
634.22	83.160
634.55	82.777
634.88	85.390
635.20	83.315
635.53	87.119
635.86	83.207
636.19	83.139
636.52	81.751
636.85	82.022
637.18	80.249
637.51	82.796
637.83	84.607
638.16	85.599
638.49	84.038
638.82	82.864
639.15	83.047
639.48	85.912
639.81	83.372
640.13	84.806
640.46	83.152
640.79	82.966
641.12	87.578
641.45	86.449
641.77	88.447
642.10	86.352
642.43	87.367
642.76	89.566
643.09	86.986
643.41	88.515
643.74	88.828
644.07	88.828
644.40	87.836
644.73	89.115
645.05	89.574
645.38	87.770
645.71	89.003
646.04	87.518
646.36	87.591
646.69	90.951
647.02	90.673
647.35	90.229
647.67	93.398
648.00	91.720
648.33	90.841
648.66	87.589
648.98	85.850
649.31	89.851
649.64	83.931
649.96	82.493
650.29	81.780
650.62	85.856
650.94	86.336
651.27	88.922
651.60	85.673
651.92	88.450
652.25	88.133
652.58	85.007
652.90	85.610
653.23	87.324
653.56	86.163
653.88	87.921
654.21	85.775
654.54	87.428
654.86	87.677
655.19	79.674
655.52	71.109
655.84	56.047
656.17	68.623
656.49	95.764
656.82	100.008
657.15	93.168
657.47	66.568
657.80	50.568
658.13	40.717
658.45	55.057
658.78	68.666
659.10	69.719
659.43	71.215
659.75	76.125
660.08	77.647
660.41	79.653
660.73	83.466
661.06	89.427
661.38	88.198
661.71	91.207
662.03	91.182
662.36	92.308
662.68	92.308
663.01	90.088
663.33	95.085
663.66	92.857
663.98	94.423
664.31	92.683
664.63	92.678
664.96	91.470
665.28	88.203
665.61	92.133
665.93	87.500
666.26	91.756
666.58	88.007
666.91	91.589
667.23	86.857
667.56	96.844
667.88	95.000
668.21	90.625
668.53	91.506
668.86	93.124
669.18	94.705
669.50	94.036
669.83	90.000
670.15	92.323
670.48	95.238
670.80	92.161
671.13	87.335
671.45	93.307
671.77	91.902
672.10	84.667
672.42	84.466
672.75	82.949
673.07	82.687
673.39	84.129
673.72	91.275
674.04	87.931
674.37	88.014
674.69	90.300
675.01	96.762
675.34	90.267
675.66	88.951
675.98	92.724
676.31	94.336
676.63	90.875
676.95	89.464
677.28	91.129
677.60	90.748
677.92	88.868
678.25	89.214
678.57	90.036
678.89	87.543
679.22	84.843
679.54	83.932
679.86	86.271
680.18	85.406
680.51	87.264
680.83	84.779
681.15	90.690
681.48	89.637
681.80	87.047
682.12	87.063
682.44	81.469
682.77	86.348
683.09	91.288
683.41	89.341
683.73	88.235
684.06	87.085
684.38	84.079
684.70	89.048
685.02	87.263
685.34	82.529
685.67	80.284
685.99	81.135
686.31	77.035
686.63	83.254
686.96	81.703
687.28	84.202
687.60	84.343
687.92	81.833
688.24	86.477
688.56	83.793
688.89	84.211
689.21	92.172
689.53	86.863
689.85	89.744
690.17	85.370
690.49	91.036
690.82	85.941
691.14	87.449
691.46	87.380
691.78	87.293
692.10	84.037
692.42	82.500
692.74	80.581
693.06	83.333
693.39	83.491
693.71	85.902
694.03	83.643
694.35	83.810
694.67	85.421
694.99	86.809
695.31	88.962
695.63	90.693
695.95	88.613
696.27	89.231
696.59	89.381
696.91	84.685
697.23	92.088
697.56	83.910
697.88	82.576
698.20	84.746
698.52	85.606
698.84	87.110
699.16	87.959
699.48	86.611
699.80	85.957
700.12	87.773
700.44	88.479
700.76	89.786
701.08	86.925
701.40	91.451
701.72	89.552
702.04	97.594
702.36	90.576
702.68	86.064
703.00	89.242
703.32	89.409
703.64	91.687
703.96	88.305
704.28	85.749
704.60	93.165
704.91	90.051
705.23	92.329
705.55	94.429
705.87	100.000
706.19	95.399
706.51	92.169
706.83	93.948
707.15	88.360
707.47	84.346
707.79	85.371
708.11	80.297
708.43	81.935
708.74	81.696
709.06	84.223
709.38	87.559
709.70	92.308
710.02	89.406
710.34	89.096
710.66	86.313
710.98	89.071
711.29	89.286
711.61	89.266
711.93	93.447
712.25	87.568
712.57	96.755
712.89	92.647
713.20	92.308
713.52	89.306
713.84	88.579
714.16	88.421
714.48	85.567
714.80	89.091
715.11	86.089
715.43	87.268
715.75	85.789
716.07	82.873
716.39	84.426
716.70	90.964
717.02	94.426
717.34	95.122
717.66	91.946
717.97	94.178
718.29	86.598
718.61	93.092
718.93	89.644
719.24	91.925
719.56	84.969
719.88	86.787
720.20	88.387
720.51	86.025
720.83	89.688
721.15	85.855
721.46	90.753
721.78	92.333
722.10	85.761
722.42	89.933
722.73	84.516
723.05	91.930
723.37	94.444
723.68	92.832
724.00	91.336
724.32	88.732
724.63	93.706
724.95	92.553
725.27	88.502
725.58	90.459
725.90	94.828
726.22	83.386
726.53	88.312
726.85	87.421
727.16	81.571
727.48	86.544
727.80	82.450
728.11	93.993
728.43	89.562
728.74	87.291
729.06	87.748
729.38	82.468
729.69	89.597
730.01	79.167
730.32	83.030
730.64	87.107
730.96	81.677
731.27	82.682
731.59	80.220
731.90	77.143
732.22	75.000
732.53	75.414
732.85	85.143
733.16	83.284
733.48	84.451
733.80	80.223
734.11	80.342
734.43	80.270
734.74	82.278
735.06	76.884
735.37	82.703
735.69	79.459
736.00	84.746
736.32	74.933
736.63	76.111
736.95	78.736
737.26	85.152
737.58	86.667
737.89	80.000
738.21	81.346
738.52	80.984
738.83	85.324
739.15	87.589
739.46	87.755
739.78	80.368
740.09	74.212
740.41	80.758
740.72	86.667
741.04	80.259
741.35	82.456
741.66	83.137
741.98	90.574
742.29	93.724
742.61	89.912
742.92	86.923
743.23	88.448
743.55	86.434
743.86	89.200
744.18	85.537
744.49	92.405
744.80	91.770
745.12	89.451
745.43	87.805
745.74	89.655
746.06	92.797
746.37	95.781
746.68	88.618
747.00	91.250
747.31	87.983
747.62	84.231
747.94	85.020
748.25	85.141
748.56	88.571
748.88	93.590
749.19	95.259
749.50	88.312
749.82	91.566
750.13	86.833
750.44	80.667
750.75	79.692
751.07	78.462
751.38	77.287
751.69	82.748
752.01	82.524
752.32	80.719
752.63	85.714
752.94	84.083
753.26	85.130
753.57	85.185
753.88	83.895
754.19	81.994
754.51	81.350
754.82	83.923
755.13	79.016
755.44	80.205
755.75	79.934
756.07	78.209
756.38	74.843
756.69	79.819
757.00	74.792
757.31	72.951
757.63	70.588
757.94	69.718
758.25	69.526
758.56	70.153
758.87	70.455
759.18	77.333
759.50	75.637
759.81	75.630
760.12	76.011
760.43	76.302
760.74	73.645
761.05	72.250
761.36	70.602
761.67	72.589
761.99	74.595
762.30	77.439
762.61	75.578
762.92	84.701
763.23	84.644
763.54	79.137
763.85	82.474
764.16	82.828
764.47	80.986
764.78	75.080
765.10	71.554
765.41	74.103
765.72	71.958
766.03	77.119
766.34	71.473
766.65	72.822
766.96	88.048
767.27	88.940
767.58	84.080
767.89	88.462
768.20	87.793
768.51	85.648
768.82	77.108
769.13	78.788
769.44	79.231
769.75	75.812
770.06	78.846
770.37	83.071
770.68	80.851
770.99	70.850
771.30	84.815
771.61	80.608
771.92	75.926
772.23	82.591
772.54	76.852
772.85	86.175
773.16	80.476
773.47	88.360
773.78	92.432
774.09	93.750
774.39	90.500
774.70	95.628
775.01	90.854
775.32	81.765
775.63	81.595
775.94	80.892
776.25	87.097
776.56	88.462
776.87	87.075
777.18	91.034
777.48	95.804
777.79	85.135
778.10	86.765
778.41	89.583
778.72	88.966
779.03	91.358
779.34	89.091
779.65	84.456
779.95	78.889
780.26	82.955
780.57	91.613
780.88	102.899
781.19	83.226
781.50	88.824
781.80	83.871
782.11	80.952
782.42	70.707
782.73	82.036
783.04	78.771
783.34	81.818
783.65	79.739
783.96	83.230
784.27	80.357
784.57	88.079
784.88	94.286
785.19	86.614
785.50	89.764
785.81	87.218
786.11	92.308
786.42	82.734
786.73	90.647
787.04	93.233
787.34	90.984
787.65	83.200
787.96	82.090
788.26	78.322
788.57	95.804
788.88	79.605
789.19	79.085
789.49	73.973
789.80	87.943
790.11	85.827
790.41	85.938
790.72	89.831
791.03	89.320
791.33	82.609
791.64	93.860
791.95	87.500
792.25	73.333
792.56	87.500
792.87	93.750
793.17	88.393
793.48	85.417
793.79	103.614
794.09	85.321
794.40	82.569
794.70	73.469
795.01	70.779
795.32	69.178
795.62	83.803
795.93	75.000
796.23	92.623
796.54	94.643
796.85	91.489
797.15	85.870
797.46	121.918
797.76	102.500
798.07	91.304
798.37	78.351
798.68	102.597
798.99	88.506
799.29	97.753
799.60	87.234
799.90	84.337
800.21	103.077
800.51	104.478
800.82	92.647
801.12	90.411
801.43	105.882
801.73	115.254
802.04	109.091
802.34	106.667
802.65	118.644
802.95	104.478
803.26	118.644
803.56	97.260
803.87	111.429
804.17	98.630
804.48	91.228
804.78	97.222
805.09	84.483
805.39	100.000
805.70	77.465
806.00	87.805
806.30	75.904
806.61	94.521
806.91	79.808
807.22	81.111
807.52	71.264
807.83	111.111
808.13	84.337
808.43	83.146
808.74	97.500
809.04	79.412
809.35	98.667
809.65	108.571
809.95	84.932
810.26	112.281
810.56	110.345
810.86	97.059
811.17	100.000
811.47	90.164
811.77	106.667
812.08	101.695
812.38	121.667
812.69	87.931
812.99	96.226
813.29	112.821
813.59	106.000
813.90	112.281
814.20	130.909
814.50	95.775
814.81	79.487
815.11	103.279
815.41	88.060
815.72	105.172
816.02	92.857
816.32	146.667
816.62	131.818
816.93	97.778
817.23	109.259
817.53	110.638
817.84	123.810
818.14	158.824
818.44	100.000
818.74	115.556
819.04	89.744
819.35	125.714
819.65	161.538
819.95	79.245
820.25	122.222
820.56	107.143
820.86	156.250
821.16	94.872
821.46	109.302
821.76	102.000
822.07	98.214
822.37	115.217
822.67	97.872
822.97	110.811
823.27	130.000
823.57	110.204
823.88	133.333
824.18	142.500
824.48	143.333
824.78	176.000
825.08	139.394
825.38	122.222
825.69	121.277
825.99	130.556
826.29	91.429
826.59	117.949
826.89	93.023
827.19	92.000
827.49	132.353
827.79	108.333
828.09	94.595
828.39	130.000
828.70	102.439
829.00	109.302
829.30	114.286
829.60	150.000
829.90	100.000
830.20	105.714
830.50	144.828
830.80	188.889
831.10	146.154
831.40	123.529
831.70	204.762
832.00	138.710
832.30	194.118
832.60	137.500
832.90	192.308
833.20	194.737
833.50	170.000
833.80	231.579
834.10	142.857
834.40	111.111
834.70	131.250
835.00	74.286
835.30	102.941
835.60	126.667
835.90	156.000
836.20	122.727
836.50	120.000
836.80	118.182
837.10	133.333
837.40	125.926
837.70	156.250
838.00	150.000
838.30	169.565
838.60	127.586
838.90	192.857
839.19	95.652
839.49	250.000
839.79	152.174
840.09	168.750
840.39	175.000
840.69	122.581
840.99	75.000
841.29	246.667
841.59	126.316
841.88	74.359
842.18	173.077
842.48	330.000
842.78	135.000
843.08	116.667
843.38	145.161
843.68	127.778
843.97	126.471
844.27	212.500
844.57	131.579
844.87	240.000
845.17	140.000
845.47	171.429
845.76	104.762
846.06	344.444
846.36	170.588
846.66	111.538
846.96	166.667
847.25	164.706
847.55	143.478
847.85	145.000
848.15	258.824
848.44	236.364
848.74	133.333
849.04	100.000
849.34	156.250
849.63	152.174
849.93	-1300.000
850.23	213.333
850.53	126.923
850.82	227.273
851.12	90.909
851.42	200.000
851.71	238.462
852.01	90.000
852.31	215.385
852.61	152.632
852.90	258.333
853.20	205.556
853.50	177.778
853.79	104.762
854.09	154.545
854.39	208.333
854.68	116.129
854.98	76.923
855.28	216.667
855.57	103.571
855.87	68.000
856.17	140.909
856.46	122.222
856.76	116.667
857.05	143.478
857.35	87.500
857.65	215.385
857.94	180.952
858.24	155.556
858.53	182.609
858.83	164.706
859.13	170.588
859.42	194.118
859.72	200.000
860.01	140.000
860.31	288.889
860.60	240.000
860.90	186.667
861.20	155.556
861.49	192.308
861.79	60.000
862.08	84.615
862.38	100.000
862.67	147.059
862.97	143.750
863.26	211.111
863.56	350.000
863.85	245.455
864.15	188.889
864.44	766.667
864.74	228.571
865.03	156.250
865.33	250.000
865.62	83.871
865.92	140.909
866.21	165.217
866.51	228.571
866.80	520.000
867.10	183.333
867.39	166.667
867.69	-1700.000
867.98	371.429
868.27	194.118
868.57	500.000
868.86	150.000
869.16	119.048
869.45	108.333
869.75	227.273
870.04	357.143
870.33	225.000
870.63	114.286
870.92	650.000
871.22	350.000
871.51	227.273
871.80	166.667
872.10	1350.000
>>>>>End Processed Spectral Data<<<<<
