SpectraSuite Data File
++++++++++++++++++++++++++++++++++++
Date: Thu May 14 14:36:44 PDT 2015
User: schluterlab
Dark Spectrum Present: Yes
Reference Spectrum Present: Yes
Number of Sampled Component Spectra: 1
Spectrometers: USB2E3373
Integration Time (usec): 3000 (USB2E3373)
Spectra Averaged: 3 (USB2E3373)
Boxcar Smoothing: 0 (USB2E3373)
Correct for Electrical Dark: No (USB2E3373)
Strobe/Lamp Enabled: No (USB2E3373)
Correct for Detector Non-linearity: No (USB2E3373)
Correct for Stray Light: No (USB2E3373)
Number of Pixels in Processed Spectrum: 2048
>>>>>Begin Processed Spectral Data<<<<<
178.53	0.000
178.91	-257.143
179.29	100.000
179.67	1600.000
180.04	21.429
180.42	-200.000
180.80	-200.000
181.18	900.000
181.56	2700.000
181.94	-400.000
182.31	475.000
182.69	-466.667
183.07	1100.000
183.45	-100.000
183.83	283.333
184.20	633.333
184.58	-1700.000
184.96	300.000
185.34	277.778
185.72	520.000
186.09	-100.000
186.47	-650.000
186.85	-20.000
187.23	166.667
187.61	1800.000
187.98	-300.000
188.36	-300.000
188.74	375.000
189.12	633.333
189.49	112.500
189.87	162.500
190.25	177.778
190.63	360.000
191.00	100.000
191.38	0.000
191.76	150.000
192.14	183.333
192.51	-400.000
192.89	383.333
193.27	0.000
193.65	257.143
194.02	1400.000
194.40	257.143
194.78	-300.000
195.15	0.000
195.53	190.909
195.91	0.000
196.29	350.000
196.66	169.231
197.04	1000.000
197.42	342.857
197.79	750.000
198.17	250.000
198.55	228.571
198.92	244.444
199.30	200.000
199.68	154.545
200.05	142.857
200.43	650.000
200.81	-114.286
201.18	0.000
201.56	-111.111
201.94	0.000
202.31	-133.333
202.69	122.222
203.07	-1800.000
203.44	222.222
203.82	450.000
204.19	175.000
204.57	216.667
204.95	200.000
205.32	1300.000
205.70	-200.000
206.08	200.000
206.45	350.000
206.83	-160.000
207.20	216.667
207.58	180.000
207.96	250.000
208.33	216.667
208.71	-41.667
209.08	383.333
209.46	0.000
209.84	-200.000
210.21	-1100.000
210.59	-750.000
210.96	-266.667
211.34	375.000
211.71	137.500
212.09	1500.000
212.46	0.000
212.84	-300.000
213.22	340.000
213.59	500.000
213.97	210.000
214.34	466.667
214.72	-133.333
215.09	500.000
215.47	0.000
215.84	-357.143
216.22	-650.000
216.59	200.000
216.97	380.000
217.34	425.000
217.72	262.500
218.09	275.000
218.47	400.000
218.84	0.000
219.22	-320.000
219.59	94.118
219.97	90.000
220.34	-250.000
220.72	177.778
221.09	192.308
221.47	500.000
221.84	180.000
222.22	228.571
222.59	0.000
222.97	125.000
223.34	240.000
223.72	1300.000
224.09	425.000
224.46	425.000
224.84	420.000
225.21	257.143
225.59	75.000
225.96	350.000
226.34	96.154
226.71	-266.667
227.08	700.000
227.46	140.000
227.83	225.000
228.21	126.316
228.58	-162.500
228.95	-900.000
229.33	100.000
229.70	170.000
230.08	115.789
230.45	-50.000
230.82	533.333
231.20	157.143
231.57	200.000
231.95	163.636
232.32	181.818
232.69	130.000
233.07	425.000
233.44	117.647
233.81	20.000
234.19	77.778
234.56	63.636
234.93	75.862
235.31	121.053
235.68	144.444
236.05	70.000
236.43	123.077
236.80	108.000
237.17	118.519
237.55	51.515
237.92	-10.000
238.29	70.968
238.67	18.182
239.04	41.667
239.41	66.667
239.79	30.435
240.16	40.741
240.53	39.130
240.91	3.922
241.28	11.475
241.65	40.299
242.02	28.378
242.40	15.385
242.77	28.000
243.14	24.390
243.51	5.263
243.89	16.667
244.26	17.822
244.63	27.451
245.00	8.411
245.38	20.175
245.75	8.850
246.12	18.254
246.49	8.527
246.87	15.714
247.24	18.543
247.61	17.763
247.98	2.013
248.36	9.877
248.73	9.202
249.10	16.940
249.47	13.930
249.84	19.372
250.22	9.326
250.59	7.778
250.96	10.455
251.33	10.204
251.70	14.530
252.08	9.167
252.45	10.246
252.82	9.091
253.19	5.469
253.56	13.308
253.94	8.077
254.31	9.470
254.68	11.888
255.05	9.446
255.42	8.503
255.79	5.825
256.16	4.305
256.54	5.298
256.91	12.131
257.28	8.852
257.65	4.777
258.02	7.375
258.39	7.407
258.76	10.092
259.14	8.908
259.51	5.187
259.88	5.666
260.25	7.778
260.62	7.671
260.99	9.836
261.36	6.166
261.73	5.836
262.10	6.319
262.47	5.094
262.85	9.091
263.22	4.675
263.59	3.158
263.96	6.138
264.33	7.161
264.70	5.926
265.07	11.933
265.44	7.937
265.81	6.481
266.18	6.122
266.55	7.812
266.92	3.417
267.29	7.221
267.66	6.652
268.03	6.114
268.40	5.428
268.77	3.872
269.14	4.626
269.51	5.263
269.88	8.197
270.25	6.237
270.62	7.806
270.99	9.293
271.36	7.327
271.73	6.287
272.10	6.814
272.47	5.812
272.84	5.422
273.21	4.208
273.58	6.250
273.95	5.962
274.32	4.183
274.69	2.901
275.06	6.777
275.43	4.806
275.80	7.407
276.17	3.333
276.54	5.597
276.91	5.546
277.28	5.967
277.65	5.566
278.02	6.985
278.39	6.159
278.76	5.097
279.13	5.496
279.50	7.045
279.87	6.082
280.23	4.225
280.60	7.119
280.97	6.579
281.34	4.414
281.71	6.599
282.08	7.143
282.45	5.401
282.82	5.338
283.19	3.877
283.56	2.623
283.92	7.207
284.29	8.689
284.66	6.076
285.03	3.846
285.40	6.182
285.77	3.870
286.14	5.344
286.51	4.110
286.87	6.003
287.24	4.970
287.61	4.335
287.98	5.438
288.35	5.621
288.72	6.805
289.08	5.857
289.45	6.065
289.82	5.271
290.19	4.885
290.56	7.183
290.93	5.136
291.29	5.096
291.66	5.096
292.03	5.292
292.40	6.939
292.77	5.121
293.13	7.442
293.50	4.862
293.87	6.443
294.24	6.933
294.60	6.700
294.97	5.235
295.34	7.042
295.71	6.179
296.08	5.814
296.44	5.515
296.81	6.699
297.18	6.600
297.55	5.896
297.91	6.287
298.28	6.161
298.65	6.421
299.02	6.257
299.38	7.437
299.75	7.593
300.12	5.787
300.48	5.991
300.85	7.874
301.22	8.166
301.59	6.393
301.95	6.780
302.32	7.333
302.69	6.134
303.05	6.964
303.42	7.095
303.79	6.458
304.15	6.099
304.52	6.871
304.89	6.911
305.25	6.832
305.62	5.538
305.99	6.598
306.35	7.359
306.72	6.618
307.09	5.990
307.45	6.936
307.82	6.357
308.19	7.064
308.55	7.522
308.92	6.913
309.29	7.280
309.65	7.018
310.02	6.535
310.38	6.004
310.75	7.379
311.12	7.670
311.48	7.234
311.85	6.458
312.22	7.021
312.58	7.606
312.95	6.501
313.31	8.311
313.68	7.875
314.05	7.769
314.41	8.834
314.78	8.084
315.14	9.165
315.51	8.772
315.87	8.551
316.24	9.406
316.61	9.325
316.97	7.783
317.34	6.614
317.70	8.996
318.07	8.554
318.43	8.248
318.80	10.368
319.16	8.841
319.53	7.541
319.89	8.151
320.26	10.320
320.62	8.865
320.99	9.326
321.35	9.335
321.72	10.512
322.08	9.378
322.45	10.208
322.81	8.845
323.18	9.823
323.54	8.793
323.91	9.786
324.27	10.069
324.64	10.747
325.00	9.867
325.37	10.647
325.73	10.744
326.10	10.300
326.46	11.808
326.83	11.449
327.19	10.630
327.56	11.225
327.92	10.622
328.29	11.452
328.65	11.474
329.01	11.168
329.38	12.131
329.74	11.815
330.11	13.014
330.47	11.205
330.84	12.575
331.20	12.667
331.56	12.218
331.93	12.552
332.29	13.051
332.66	11.213
333.02	12.814
333.38	12.919
333.75	12.710
334.11	11.843
334.48	11.634
334.84	12.574
335.20	11.503
335.57	12.732
335.93	11.983
336.29	11.897
336.66	10.849
337.02	12.040
337.38	12.755
337.75	12.727
338.11	11.270
338.47	12.821
338.84	13.452
339.20	11.036
339.56	12.438
339.93	11.494
340.29	13.043
340.65	11.598
341.02	13.168
341.38	12.692
341.74	11.864
342.11	13.516
342.47	11.279
342.83	12.480
343.20	12.265
343.56	13.392
343.92	12.250
344.28	12.656
344.65	12.868
345.01	12.949
345.37	12.364
345.73	11.769
346.10	12.324
346.46	11.392
346.82	12.584
347.19	12.834
347.55	12.215
347.91	11.664
348.27	11.608
348.63	12.110
349.00	12.304
349.36	13.309
349.72	12.574
350.08	13.670
350.45	12.015
350.81	11.237
351.17	11.429
351.53	13.040
351.89	12.377
352.26	12.015
352.62	12.537
352.98	12.061
353.34	11.501
353.70	11.402
354.07	12.668
354.43	11.769
354.79	12.640
355.15	12.215
355.51	12.719
355.87	11.967
356.24	11.711
356.60	12.712
356.96	12.973
357.32	12.193
357.68	12.592
358.04	11.751
358.40	12.463
358.77	12.281
359.13	12.334
359.49	10.929
359.85	11.240
360.21	12.339
360.57	12.204
360.93	12.271
361.29	12.140
361.66	12.165
362.02	13.709
362.38	11.595
362.74	12.919
363.10	12.930
363.46	11.981
363.82	13.068
364.18	11.823
364.54	13.071
364.90	13.311
365.26	11.862
365.62	12.533
365.98	13.138
366.35	12.752
366.71	12.993
367.07	12.314
367.43	12.804
367.79	13.072
368.15	12.910
368.51	12.923
368.87	13.455
369.23	12.600
369.59	12.637
369.95	12.847
370.31	13.437
370.67	13.480
371.03	13.366
371.39	13.163
371.75	12.311
372.11	14.024
372.47	12.187
372.83	13.482
373.19	13.276
373.55	13.279
373.91	12.406
374.27	13.519
374.63	14.073
374.99	13.462
375.35	14.156
375.71	13.355
376.07	13.815
376.42	13.980
376.78	14.792
377.14	13.974
377.50	13.156
377.86	14.163
378.22	13.952
378.58	14.566
378.94	13.674
379.30	14.470
379.66	14.521
380.02	14.714
380.38	14.631
380.74	14.535
381.09	14.750
381.45	14.773
381.81	15.340
382.17	14.964
382.53	15.205
382.89	14.221
383.25	16.061
383.61	14.468
383.97	15.724
384.32	16.089
384.68	15.255
385.04	15.905
385.40	16.441
385.76	16.647
386.12	16.218
386.48	15.588
386.83	16.389
387.19	15.469
387.55	15.610
387.91	15.468
388.27	16.224
388.62	16.552
388.98	16.356
389.34	16.618
389.70	16.734
390.06	16.637
390.42	16.506
390.77	16.978
391.13	16.667
391.49	16.969
391.85	17.515
392.20	17.497
392.56	17.897
392.92	17.394
393.28	17.247
393.64	16.704
393.99	17.838
394.35	17.523
394.71	18.383
395.07	17.725
395.42	17.704
395.78	18.038
396.14	17.825
396.50	18.349
396.85	18.485
397.21	17.692
397.57	17.491
397.92	17.984
398.28	17.599
398.64	16.533
399.00	17.330
399.35	18.063
399.71	17.391
400.07	18.024
400.42	18.219
400.78	17.824
401.14	18.042
401.49	18.306
401.85	18.198
402.21	18.946
402.57	18.486
402.92	18.558
403.28	17.974
403.63	17.422
403.99	18.112
404.35	17.965
404.70	19.603
405.06	17.717
405.42	18.267
405.77	18.648
406.13	18.044
406.49	18.243
406.84	18.504
407.20	18.334
407.55	17.868
407.91	18.982
408.27	19.199
408.62	19.255
408.98	18.108
409.34	17.478
409.69	18.665
410.05	18.757
410.40	19.142
410.76	18.564
411.11	18.878
411.47	19.287
411.83	19.636
412.18	20.120
412.54	19.146
412.89	18.685
413.25	19.413
413.60	18.840
413.96	18.823
414.31	18.640
414.67	19.618
415.03	18.708
415.38	18.979
415.74	18.937
416.09	18.939
416.45	18.973
416.80	18.788
417.16	19.029
417.51	18.618
417.87	19.681
418.22	18.563
418.58	18.959
418.93	20.314
419.29	19.420
419.64	18.607
420.00	19.585
420.35	19.708
420.71	19.472
421.06	18.976
421.42	20.241
421.77	18.955
422.12	19.292
422.48	19.099
422.83	20.811
423.19	19.310
423.54	20.077
423.90	19.161
424.25	19.947
424.61	19.575
424.96	19.934
425.31	20.382
425.67	20.183
426.02	19.590
426.38	20.207
426.73	19.643
427.09	20.473
427.44	20.262
427.79	20.564
428.15	19.521
428.50	20.112
428.85	19.460
429.21	20.372
429.56	19.941
429.92	20.344
430.27	20.627
430.62	19.834
430.98	19.085
431.33	19.599
431.68	20.354
432.04	20.670
432.39	20.193
432.74	19.863
433.10	20.065
433.45	19.064
433.80	20.708
434.16	20.300
434.51	20.041
434.86	20.521
435.22	20.776
435.57	20.637
435.92	20.590
436.28	20.250
436.63	21.300
436.98	20.934
437.34	20.800
437.69	19.923
438.04	20.201
438.39	20.908
438.75	20.310
439.10	21.723
439.45	20.961
439.81	20.452
440.16	19.571
440.51	20.401
440.86	20.067
441.22	20.525
441.57	20.964
441.92	20.902
442.27	20.859
442.63	21.113
442.98	21.025
443.33	21.094
443.68	21.903
444.03	20.978
444.39	20.758
444.74	21.286
445.09	20.578
445.44	21.496
445.79	21.121
446.15	21.531
446.50	20.930
446.85	20.817
447.20	21.567
447.55	21.444
447.91	21.309
448.26	21.459
448.61	20.829
448.96	22.371
449.31	21.050
449.66	20.915
450.02	20.570
450.37	21.257
450.72	21.690
451.07	21.640
451.42	21.779
451.77	20.678
452.12	20.711
452.47	20.559
452.83	22.016
453.18	20.724
453.53	21.137
453.88	21.204
454.23	21.525
454.58	21.706
454.93	21.238
455.28	21.674
455.63	21.262
455.98	21.173
456.34	21.790
456.69	21.693
457.04	21.513
457.39	20.732
457.74	21.309
458.09	21.801
458.44	21.929
458.79	21.042
459.14	21.290
459.49	21.336
459.84	21.668
460.19	20.655
460.54	21.124
460.89	21.069
461.24	21.609
461.59	21.527
461.94	20.536
462.29	22.732
462.64	21.605
462.99	22.097
463.34	21.350
463.69	21.395
464.04	22.123
464.39	21.637
464.74	20.182
465.09	21.107
465.44	21.406
465.79	21.682
466.14	21.157
466.49	21.316
466.84	22.149
467.19	21.272
467.54	20.917
467.89	21.149
468.24	21.108
468.59	20.672
468.94	20.396
469.29	21.176
469.64	21.297
469.99	21.861
470.34	20.978
470.68	21.189
471.03	21.873
471.38	21.125
471.73	20.936
472.08	21.447
472.43	21.975
472.78	21.662
473.13	21.555
473.48	21.148
473.83	21.880
474.17	22.509
474.52	21.648
474.87	21.927
475.22	22.479
475.57	21.028
475.92	21.155
476.27	20.501
476.61	21.236
476.96	21.011
477.31	20.792
477.66	21.773
478.01	20.895
478.36	21.137
478.70	21.133
479.05	21.524
479.40	20.681
479.75	21.566
480.10	20.748
480.45	21.376
480.79	21.043
481.14	21.140
481.49	20.809
481.84	21.062
482.19	21.118
482.53	21.294
482.88	21.799
483.23	21.654
483.58	20.917
483.92	20.124
484.27	20.152
484.62	20.421
484.97	21.190
485.31	20.873
485.66	20.146
486.01	19.483
486.36	19.639
486.70	20.247
487.05	20.028
487.40	20.455
487.75	20.280
488.09	20.626
488.44	19.914
488.79	20.978
489.13	20.818
489.48	19.728
489.83	20.483
490.17	20.454
490.52	20.402
490.87	20.305
491.22	20.191
491.56	20.478
491.91	20.192
492.26	20.814
492.60	20.638
492.95	20.667
493.30	20.215
493.64	20.499
493.99	20.570
494.34	20.078
494.68	19.743
495.03	20.044
495.37	20.328
495.72	20.408
496.07	20.333
496.41	20.206
496.76	20.934
497.11	19.958
497.45	20.501
497.80	21.146
498.14	20.363
498.49	21.599
498.84	20.384
499.18	20.558
499.53	21.345
499.87	20.747
500.22	20.169
500.56	20.468
500.91	20.732
501.26	20.955
501.60	20.460
501.95	21.320
502.29	20.755
502.64	20.682
502.98	20.880
503.33	20.432
503.67	19.320
504.02	20.359
504.36	20.688
504.71	20.211
505.06	20.600
505.40	20.704
505.75	20.492
506.09	20.442
506.44	20.334
506.78	20.596
507.13	20.286
507.47	20.085
507.82	20.739
508.16	20.554
508.51	20.113
508.85	20.926
509.19	20.275
509.54	20.605
509.88	20.398
510.23	20.690
510.57	21.170
510.92	20.271
511.26	20.010
511.61	19.894
511.95	20.547
512.30	20.778
512.64	20.040
512.98	21.111
513.33	20.716
513.67	20.041
514.02	20.797
514.36	20.460
514.70	20.104
515.05	21.116
515.39	20.682
515.74	21.368
516.08	20.602
516.42	20.931
516.77	20.768
517.11	19.959
517.46	20.308
517.80	21.219
518.14	20.675
518.49	20.879
518.83	20.543
519.17	19.602
519.52	20.650
519.86	20.486
520.20	20.288
520.55	20.975
520.89	19.876
521.23	20.380
521.58	21.017
521.92	20.453
522.26	20.275
522.61	21.123
522.95	20.127
523.29	20.517
523.64	19.899
523.98	19.852
524.32	21.318
524.66	20.546
525.01	19.649
525.35	20.333
525.69	19.722
526.04	19.575
526.38	20.977
526.72	20.185
527.06	20.938
527.41	20.175
527.75	20.665
528.09	20.307
528.43	20.485
528.78	21.272
529.12	20.470
529.46	20.292
529.80	20.595
530.15	20.638
530.49	20.522
530.83	20.189
531.17	19.892
531.51	19.675
531.86	20.553
532.20	21.037
532.54	19.988
532.88	19.939
533.22	19.564
533.57	21.062
533.91	20.202
534.25	20.407
534.59	20.287
534.93	18.959
535.27	20.056
535.62	20.296
535.96	20.802
536.30	20.212
536.64	20.661
536.98	19.803
537.32	19.753
537.66	20.025
538.01	19.517
538.35	20.828
538.69	20.433
539.03	20.172
539.37	19.847
539.71	19.700
540.05	20.624
540.39	19.499
540.73	19.551
541.07	20.417
541.42	20.732
541.76	19.751
542.10	19.783
542.44	19.793
542.78	20.134
543.12	19.964
543.46	19.170
543.80	19.185
544.14	19.031
544.48	18.913
544.82	20.287
545.16	18.724
545.50	20.312
545.84	19.780
546.18	20.741
546.52	19.363
546.86	20.000
547.20	19.656
547.54	19.975
547.88	18.746
548.22	20.117
548.56	18.958
548.90	19.164
549.24	19.818
549.58	19.243
549.92	19.133
550.26	19.676
550.60	20.230
550.94	19.470
551.28	19.802
551.62	19.474
551.96	19.353
552.30	20.459
552.64	20.411
552.98	20.087
553.32	19.936
553.66	19.293
554.00	20.555
554.34	20.077
554.68	19.367
555.02	20.368
555.36	20.250
555.69	18.578
556.03	18.979
556.37	20.401
556.71	19.784
557.05	20.064
557.39	19.509
557.73	19.749
558.07	20.000
558.41	20.266
558.75	20.622
559.08	19.415
559.42	19.547
559.76	20.285
560.10	19.893
560.44	20.515
560.78	20.562
561.12	19.581
561.45	20.560
561.79	19.475
562.13	20.764
562.47	18.927
562.81	18.354
563.15	19.760
563.48	18.894
563.82	20.375
564.16	18.837
564.50	18.832
564.84	19.233
565.17	19.412
565.51	19.390
565.85	19.596
566.19	18.779
566.52	19.075
566.86	19.581
567.20	18.543
567.54	19.225
567.88	19.776
568.21	19.022
568.55	19.089
568.89	19.110
569.23	18.885
569.56	18.093
569.90	18.532
570.24	18.617
570.57	18.153
570.91	18.065
571.25	17.992
571.59	18.258
571.92	17.990
572.26	17.972
572.60	18.509
572.93	18.592
573.27	18.179
573.61	17.972
573.95	18.621
574.28	18.010
574.62	17.644
574.96	17.600
575.29	17.471
575.63	17.487
575.97	17.916
576.30	18.061
576.64	18.134
576.98	18.155
577.31	17.565
577.65	17.809
577.98	17.639
578.32	17.724
578.66	17.622
578.99	17.776
579.33	17.852
579.67	17.452
580.00	17.375
580.34	17.714
580.67	17.652
581.01	17.482
581.35	17.612
581.68	17.835
582.02	17.427
582.35	17.560
582.69	17.739
583.02	17.548
583.36	17.519
583.70	17.541
584.03	17.807
584.37	17.996
584.70	17.946
585.04	17.531
585.37	17.587
585.71	17.325
586.04	17.613
586.38	17.711
586.72	17.674
587.05	17.703
587.39	17.627
587.72	17.775
588.06	17.892
588.39	18.123
588.73	16.931
589.06	18.030
589.40	17.271
589.73	17.159
590.07	17.905
590.40	18.087
590.73	18.275
591.07	18.801
591.40	18.313
591.74	18.045
592.07	18.108
592.41	18.178
592.74	17.501
593.08	18.280
593.41	18.577
593.75	17.701
594.08	18.176
594.41	18.013
594.75	17.635
595.08	17.631
595.42	18.084
595.75	18.147
596.09	17.994
596.42	18.273
596.75	18.101
597.09	18.747
597.42	18.554
597.75	17.875
598.09	18.532
598.42	18.416
598.76	17.883
599.09	18.120
599.42	17.298
599.76	17.729
600.09	17.851
600.42	18.085
600.76	17.867
601.09	17.823
601.42	17.817
601.76	18.069
602.09	17.441
602.42	17.266
602.76	18.155
603.09	17.915
603.42	17.991
603.76	18.323
604.09	18.701
604.42	17.541
604.76	18.075
605.09	17.910
605.42	18.062
605.75	18.154
606.09	17.842
606.42	17.512
606.75	17.016
607.09	17.396
607.42	17.996
607.75	18.484
608.08	17.482
608.42	17.614
608.75	17.952
609.08	18.294
609.41	17.997
609.75	18.214
610.08	18.558
610.41	17.842
610.74	17.605
611.07	17.718
611.41	18.341
611.74	18.430
612.07	18.326
612.40	17.395
612.73	17.946
613.07	18.337
613.40	19.057
613.73	17.910
614.06	18.744
614.39	17.493
614.72	18.632
615.06	18.287
615.39	18.125
615.72	18.246
616.05	18.164
616.38	18.466
616.71	18.757
617.05	17.625
617.38	18.513
617.71	18.790
618.04	18.349
618.37	19.016
618.70	18.495
619.03	17.861
619.36	18.187
619.69	18.834
620.03	18.142
620.36	18.650
620.69	18.939
621.02	18.963
621.35	20.174
621.68	19.450
622.01	18.719
622.34	18.201
622.67	18.763
623.00	17.476
623.33	18.845
623.66	18.872
623.99	18.697
624.32	19.363
624.65	18.404
624.99	19.636
625.32	19.595
625.65	18.813
625.98	19.186
626.31	19.135
626.64	18.388
626.97	18.680
627.30	17.995
627.63	19.355
627.96	19.595
628.29	19.066
628.62	17.884
628.95	19.457
629.28	19.116
629.61	19.529
629.94	18.326
630.26	18.898
630.59	19.171
630.92	19.221
631.25	19.767
631.58	19.774
631.91	19.025
632.24	18.924
632.57	19.639
632.90	19.659
633.23	20.102
633.56	20.204
633.89	19.731
634.22	20.374
634.55	19.520
634.88	19.697
635.20	20.344
635.53	19.887
635.86	20.368
636.19	20.891
636.52	20.570
636.85	20.429
637.18	20.062
637.51	20.538
637.83	21.262
638.16	21.083
638.49	20.188
638.82	19.842
639.15	18.900
639.48	19.169
639.81	18.591
640.13	20.377
640.46	20.242
640.79	19.485
641.12	22.112
641.45	21.079
641.77	21.823
642.10	20.604
642.43	21.676
642.76	20.461
643.09	20.548
643.41	21.429
643.74	21.103
644.07	20.552
644.40	20.509
644.73	22.061
645.05	19.971
645.38	22.014
645.71	20.088
646.04	21.664
646.36	21.460
646.69	23.313
647.02	22.936
647.35	20.916
647.67	22.544
648.00	22.611
648.33	21.772
648.66	19.971
648.98	19.320
649.31	20.704
649.64	20.452
649.96	21.088
650.29	19.193
650.62	21.641
650.94	20.721
651.27	20.060
651.60	21.053
651.92	20.213
652.25	20.405
652.58	20.220
652.90	19.622
653.23	20.423
653.56	18.688
653.88	21.208
654.21	19.859
654.54	21.676
654.86	21.388
655.19	19.699
655.52	18.755
655.84	15.610
656.17	19.739
656.49	28.130
656.82	31.128
657.15	24.402
657.47	18.268
657.80	13.435
658.13	10.779
658.45	14.027
658.78	17.718
659.10	16.979
659.43	17.864
659.75	17.430
660.08	18.263
660.41	18.362
660.73	18.586
661.06	20.117
661.38	20.415
661.71	20.862
662.03	19.577
662.36	21.109
662.68	23.265
663.01	22.478
663.33	21.172
663.66	23.077
663.98	21.538
664.31	22.702
664.63	22.543
664.96	22.142
665.28	19.238
665.61	22.727
665.93	23.214
666.26	21.505
666.58	21.956
666.91	23.925
667.23	21.714
667.56	21.893
667.88	23.000
668.21	20.313
668.53	18.919
668.86	23.772
669.18	20.570
669.50	22.465
669.83	21.200
670.15	21.654
670.48	22.024
670.80	22.180
671.13	21.361
671.45	21.850
671.77	23.540
672.10	20.500
672.42	19.903
672.75	22.273
673.07	19.701
673.39	19.414
673.72	21.309
674.04	22.414
674.37	23.077
674.69	23.986
675.01	22.095
675.34	19.847
675.66	20.974
675.98	21.269
676.31	23.828
676.63	23.574
676.95	20.307
677.28	22.984
677.60	19.685
677.92	18.810
678.25	21.572
678.57	21.352
678.89	24.915
679.22	20.383
679.54	21.026
679.86	20.169
680.18	22.056
680.51	21.069
680.83	22.913
681.15	19.828
681.48	22.280
681.80	21.071
682.12	19.231
682.44	19.866
682.77	21.277
683.09	20.833
683.41	24.225
683.73	20.114
684.06	22.140
684.38	19.499
684.70	21.185
685.02	22.375
685.34	20.632
685.67	19.401
685.99	20.552
686.31	18.895
686.63	20.853
686.96	20.347
687.28	21.010
687.60	19.529
687.92	20.740
688.24	19.199
688.56	21.724
688.89	21.234
689.21	20.157
689.53	19.412
689.85	19.921
690.17	20.926
690.49	20.717
690.82	19.604
691.14	20.040
691.46	21.989
691.78	22.836
692.10	20.734
692.42	19.821
692.74	21.960
693.06	19.444
693.39	23.529
693.71	21.805
694.03	22.305
694.35	20.952
694.67	21.971
694.99	21.277
695.31	21.413
695.63	22.511
695.95	22.153
696.27	22.637
696.59	23.673
696.91	22.523
697.23	22.198
697.56	21.996
697.88	20.265
698.20	21.092
698.52	22.538
698.84	23.701
699.16	21.224
699.48	23.013
699.80	21.489
700.12	20.742
700.44	21.429
700.76	22.090
701.08	23.971
701.40	24.611
701.72	25.124
702.04	21.123
702.36	22.513
702.68	21.760
703.00	22.249
703.32	21.675
703.64	22.983
703.96	22.196
704.28	22.113
704.60	22.278
704.91	22.449
705.23	24.384
705.55	20.334
705.87	23.939
706.19	25.767
706.51	18.675
706.83	21.902
707.15	20.370
707.47	21.028
707.79	21.179
708.11	16.737
708.43	18.495
708.74	18.304
709.06	21.346
709.38	21.596
709.70	25.310
710.02	22.997
710.34	22.606
710.66	20.112
710.98	20.219
711.29	21.978
711.61	25.424
711.93	26.211
712.25	21.081
712.57	21.239
712.89	27.059
713.20	22.485
713.52	23.121
713.84	23.120
714.16	23.421
714.48	20.361
714.80	23.377
715.11	19.160
715.43	19.098
715.75	24.474
716.07	20.994
716.39	21.038
716.70	23.193
717.02	21.639
717.34	22.997
717.66	21.477
717.97	20.548
718.29	23.711
718.61	25.000
718.93	21.683
719.24	21.118
719.56	21.472
719.88	23.724
720.20	22.258
720.51	23.602
720.83	23.125
721.15	23.026
721.46	20.890
721.78	20.667
722.10	22.654
722.42	22.148
722.73	20.323
723.05	29.474
723.37	24.306
723.68	24.014
724.00	23.466
724.32	23.239
724.63	26.224
724.95	28.723
725.27	21.254
725.58	24.028
725.90	27.931
726.22	21.003
726.53	23.701
726.85	21.069
727.16	25.378
727.48	25.688
727.80	24.834
728.11	22.615
728.43	27.273
728.74	20.736
729.06	23.510
729.38	23.052
729.69	20.134
730.01	23.810
730.32	21.515
730.64	21.698
730.96	19.876
731.27	24.581
731.59	22.802
731.90	21.818
732.22	19.531
732.53	19.061
732.85	20.286
733.16	18.475
733.48	17.988
733.80	24.513
734.11	23.647
734.43	21.622
734.74	23.038
735.06	19.598
735.37	23.243
735.69	18.919
736.00	20.621
736.32	21.294
736.63	22.222
736.95	22.126
737.26	21.818
737.58	20.000
737.89	20.588
738.21	21.713
738.52	19.344
738.83	20.819
739.15	22.340
739.46	22.789
739.78	21.779
740.09	20.917
740.41	23.032
740.72	23.333
741.04	21.683
741.35	23.509
741.66	25.882
741.98	24.590
742.29	25.941
742.61	28.947
742.92	22.692
743.23	24.549
743.55	24.031
743.86	19.600
744.18	20.661
744.49	19.409
744.80	24.691
745.12	21.519
745.43	24.797
745.74	24.569
746.06	23.305
746.37	27.004
746.68	27.642
747.00	26.250
747.31	21.459
747.62	28.846
747.94	27.530
748.25	25.703
748.56	21.633
748.88	24.359
749.19	28.017
749.50	23.810
749.82	24.096
750.13	26.690
750.44	20.000
750.75	23.385
751.07	20.308
751.38	27.129
751.69	23.323
752.01	20.712
752.32	21.895
752.63	23.129
752.94	20.069
753.26	20.818
753.57	24.815
753.88	19.101
754.19	23.794
754.51	22.508
754.82	23.794
755.13	25.246
755.44	22.867
755.75	23.355
756.07	25.373
756.38	22.956
756.69	23.494
757.00	19.945
757.31	20.765
757.63	16.880
757.94	17.371
758.25	21.896
758.56	20.479
758.87	22.273
759.18	20.267
759.50	22.663
759.81	19.608
760.12	22.642
760.43	22.135
760.74	19.704
761.05	20.750
761.36	21.928
761.67	19.036
761.99	21.351
762.30	19.207
762.61	19.802
762.92	23.881
763.23	25.094
763.54	20.863
763.85	21.306
764.16	22.222
764.47	22.535
764.78	21.086
765.10	22.581
765.41	20.256
765.72	18.254
766.03	19.774
766.34	21.317
766.65	20.906
766.96	23.108
767.27	24.885
767.58	24.378
767.89	31.250
768.20	25.822
768.51	24.074
768.82	21.687
769.13	24.621
769.44	18.462
769.75	23.105
770.06	20.769
770.37	25.197
770.68	20.426
770.99	20.648
771.30	25.556
771.61	24.715
771.92	20.000
772.23	27.530
772.54	18.056
772.85	29.954
773.16	28.571
773.47	21.164
773.78	25.405
774.09	25.000
774.39	31.000
774.70	28.962
775.01	19.512
775.32	21.765
775.63	25.153
775.94	24.841
776.25	32.903
776.56	32.051
776.87	31.293
777.18	29.655
777.48	27.972
777.79	26.351
778.10	28.676
778.41	29.167
778.72	28.276
779.03	29.012
779.34	26.061
779.65	26.943
779.95	32.778
780.26	31.250
780.57	21.290
780.88	36.957
781.19	36.774
781.50	34.118
781.80	24.731
782.11	26.984
782.42	23.737
782.73	29.940
783.04	25.140
783.34	23.636
783.65	26.144
783.96	28.571
784.27	29.167
784.57	29.801
784.88	29.286
785.19	31.496
785.50	30.709
785.81	34.586
786.11	30.000
786.42	21.583
786.73	28.777
787.04	33.835
787.34	28.689
787.65	27.200
787.96	32.090
788.26	27.972
788.57	30.070
788.88	27.632
789.19	29.412
789.49	28.767
789.80	27.660
790.11	29.921
790.41	33.594
790.72	38.136
791.03	24.272
791.33	36.522
791.64	32.456
791.95	23.214
792.25	28.571
792.56	28.571
792.87	32.292
793.17	35.714
793.48	34.375
793.79	37.349
794.09	29.358
794.40	42.202
794.70	23.810
795.01	27.273
795.32	21.918
795.62	21.127
795.93	23.485
796.23	34.426
796.54	29.464
796.85	37.234
797.15	21.739
797.46	28.767
797.76	36.250
798.07	30.435
798.37	18.557
798.68	31.169
798.99	37.931
799.29	40.449
799.60	41.489
799.90	31.325
800.21	33.846
800.51	38.806
800.82	39.706
801.12	32.877
801.43	19.118
801.73	35.593
802.04	39.394
802.34	18.333
802.65	37.288
802.95	50.746
803.26	50.847
803.56	27.397
803.87	40.000
804.17	50.685
804.48	17.544
804.78	31.944
805.09	36.207
805.39	44.595
805.70	18.310
806.00	40.244
806.30	38.554
806.61	45.205
806.91	36.538
807.22	26.667
807.52	26.437
807.83	38.889
808.13	33.735
808.43	41.573
808.74	31.250
809.04	23.529
809.35	33.333
809.65	35.714
809.95	26.027
810.26	35.088
810.56	34.483
810.86	48.529
811.17	50.877
811.47	34.426
811.77	15.556
812.08	45.763
812.38	41.667
812.69	43.103
812.99	35.849
813.29	61.538
813.59	66.000
813.90	49.123
814.20	34.545
814.50	40.845
814.81	38.462
815.11	37.705
815.41	41.791
815.72	68.966
816.02	58.929
816.32	66.667
816.62	47.727
816.93	46.667
817.23	53.704
817.53	65.957
817.84	52.381
818.14	70.588
818.44	57.143
818.74	48.889
819.04	41.026
819.35	60.000
819.65	80.769
819.95	43.396
820.25	48.889
820.56	35.714
820.86	87.500
821.16	33.333
821.46	53.488
821.76	38.000
822.07	28.571
822.37	36.957
822.67	48.936
822.97	48.649
823.27	42.500
823.57	59.184
823.88	64.444
824.18	67.500
824.48	56.667
824.78	72.000
825.08	51.515
825.38	68.889
825.69	51.064
825.99	61.111
826.29	34.286
826.59	28.205
826.89	53.488
827.19	62.000
827.49	55.882
827.79	54.167
828.09	43.243
828.39	70.000
828.70	51.220
829.00	39.535
829.30	57.143
829.60	94.118
829.90	58.696
830.20	77.143
830.50	58.621
830.80	50.000
831.10	15.385
831.40	44.118
831.70	152.381
832.00	93.548
832.30	17.647
832.60	95.833
832.90	107.692
833.20	115.789
833.50	55.000
833.80	89.474
834.10	47.619
834.40	63.889
834.70	100.000
835.00	28.571
835.30	82.353
835.60	66.667
835.90	80.000
836.20	13.636
836.50	84.000
836.80	63.636
837.10	74.074
837.40	51.852
837.70	0.000
838.00	57.143
838.30	52.174
838.60	65.517
838.90	114.286
839.19	21.739
839.49	83.333
839.79	100.000
840.09	37.500
840.39	55.000
840.69	83.871
840.99	75.000
841.29	86.667
841.59	78.947
841.88	76.923
842.18	50.000
842.48	110.000
842.78	115.000
843.08	86.667
843.38	61.290
843.68	55.556
843.97	61.765
844.27	87.500
844.57	63.158
844.87	100.000
845.17	106.667
845.47	123.810
845.76	66.667
846.06	188.889
846.36	111.765
846.66	65.385
846.96	53.333
847.25	135.294
847.55	117.391
847.85	80.000
848.15	117.647
848.44	45.455
848.74	38.095
849.04	70.833
849.34	125.000
849.63	100.000
849.93	-650.000
850.23	113.333
850.53	107.692
850.82	100.000
851.12	145.455
851.42	181.818
851.71	230.769
852.01	75.000
852.31	176.923
852.61	89.474
852.90	183.333
853.20	111.111
853.50	-22.222
853.79	109.524
854.09	45.455
854.39	91.667
854.68	93.548
854.98	46.154
855.28	83.333
855.57	82.143
855.87	64.000
856.17	86.364
856.46	81.481
856.76	77.778
857.05	69.565
857.35	33.333
857.65	38.462
857.94	114.286
858.24	74.074
858.53	65.217
858.83	117.647
859.13	117.647
859.42	123.529
859.72	142.857
860.01	120.000
860.31	155.556
860.60	240.000
860.90	140.000
861.20	111.111
861.49	161.538
861.79	70.000
862.08	115.385
862.38	68.750
862.67	147.059
862.97	93.750
863.26	88.889
863.56	220.000
863.85	90.909
864.15	116.667
864.44	733.333
864.74	121.429
865.03	50.000
865.33	40.000
865.62	51.613
865.92	95.455
866.21	117.391
866.51	192.857
866.80	20.000
867.10	91.667
867.39	125.000
867.69	-600.000
867.98	314.286
868.27	129.412
868.57	900.000
868.86	70.000
869.16	85.714
869.45	91.667
869.75	227.273
870.04	142.857
870.33	158.333
870.63	171.429
870.92	400.000
871.22	75.000
871.51	136.364
871.80	233.333
872.10	800.000
>>>>>End Processed Spectral Data<<<<<
