SpectraSuite Data File
++++++++++++++++++++++++++++++++++++
Date: Thu May 14 14:56:26 PDT 2015
User: schluterlab
Dark Spectrum Present: Yes
Reference Spectrum Present: Yes
Number of Sampled Component Spectra: 1
Spectrometers: USB2E3373
Integration Time (usec): 3000 (USB2E3373)
Spectra Averaged: 3 (USB2E3373)
Boxcar Smoothing: 0 (USB2E3373)
Correct for Electrical Dark: No (USB2E3373)
Strobe/Lamp Enabled: No (USB2E3373)
Correct for Detector Non-linearity: No (USB2E3373)
Correct for Stray Light: No (USB2E3373)
Number of Pixels in Processed Spectrum: 2048
>>>>>Begin Processed Spectral Data<<<<<
178.53	0.000
178.91	285.714
179.29	-2800.000
179.67	-2300.000
180.04	250.000
180.42	120.000
180.80	440.000
181.18	-2600.000
181.56	-1700.000
181.94	500.000
182.31	-200.000
182.69	533.333
183.07	-550.000
183.45	775.000
183.83	-333.333
184.20	-433.333
184.58	1700.000
184.96	-375.000
185.34	-155.556
185.72	-320.000
186.09	288.889
186.47	1250.000
186.85	540.000
187.23	-200.000
187.61	-2600.000
187.98	460.000
188.36	600.000
188.74	-550.000
189.12	-433.333
189.49	-75.000
189.87	-237.500
190.25	-100.000
190.63	-320.000
191.00	-277.778
191.38	0.000
191.76	-550.000
192.14	-266.667
192.51	1000.000
192.89	-150.000
193.27	0.000
193.65	-214.286
194.02	-2200.000
194.40	-285.714
194.78	328.571
195.15	0.000
195.53	-127.273
195.91	0.000
196.29	-475.000
196.66	-138.462
197.04	-2100.000
197.42	-242.857
197.79	-900.000
198.17	-150.000
198.55	-385.714
198.92	-177.778
199.30	-250.000
199.68	-163.636
200.05	-92.857
200.43	-950.000
200.81	385.714
201.18	0.000
201.56	244.444
201.94	0.000
202.31	766.667
202.69	-244.444
203.07	1200.000
203.44	-177.778
203.82	-425.000
204.19	-133.333
204.57	-333.333
204.95	-225.000
205.32	-1600.000
205.70	500.000
206.08	-316.667
206.45	-283.333
206.83	640.000
207.20	-316.667
207.58	-420.000
207.96	-350.000
208.33	-183.333
208.71	208.333
209.08	-216.667
209.46	0.000
209.84	416.667
210.21	800.000
210.59	1000.000
210.96	866.667
211.34	-500.000
211.71	-237.500
212.09	-1200.000
212.46	0.000
212.84	1300.000
213.22	-380.000
213.59	-450.000
213.97	-130.000
214.34	-366.667
214.72	333.333
215.09	-700.000
215.47	0.000
215.84	200.000
216.22	1100.000
216.59	-220.000
216.97	-360.000
217.34	-350.000
217.72	-187.500
218.09	-275.000
218.47	-575.000
218.84	0.000
219.22	240.000
219.59	-100.000
219.97	-55.000
220.34	1500.000
220.72	-188.889
221.09	-46.154
221.47	-400.000
221.84	-160.000
222.22	-357.143
222.59	0.000
222.97	-87.500
223.34	-320.000
223.72	-1700.000
224.09	-475.000
224.46	-425.000
224.84	-180.000
225.21	-242.857
225.59	-350.000
225.96	-325.000
226.34	-42.308
226.71	400.000
227.08	-1200.000
227.46	-106.667
227.83	-375.000
228.21	-63.158
228.58	62.500
228.95	1000.000
229.33	-116.667
229.70	-210.000
230.08	-15.789
230.45	240.000
230.82	-633.333
231.20	-35.714
231.57	-141.667
231.95	-127.273
232.32	-118.182
232.69	-65.000
233.07	-275.000
233.44	-105.882
233.81	-270.000
234.19	-16.667
234.56	-18.182
234.93	-41.379
235.31	-73.684
235.68	-127.778
236.05	-130.000
236.43	-19.231
236.80	8.000
237.17	-40.741
237.55	-24.242
237.92	-180.000
238.29	-48.387
238.67	-20.455
239.04	-44.444
239.41	-35.714
239.79	-26.087
240.16	-24.074
240.53	-52.174
240.91	-45.098
241.28	-21.311
241.65	1.493
242.02	-4.054
242.40	-20.000
242.77	-22.667
243.14	-15.854
243.51	-34.211
243.89	-32.051
244.26	-13.861
244.63	-6.863
245.00	-14.953
245.38	-16.667
245.75	-23.894
246.12	-3.175
246.49	-9.302
246.87	-7.143
247.24	-4.636
247.61	-3.289
247.98	-10.067
248.36	-11.111
248.73	-11.656
249.10	-10.383
249.47	-3.483
249.84	-0.524
250.22	-4.145
250.59	-1.667
250.96	1.364
251.33	-6.633
251.70	-2.564
252.08	-1.667
252.45	-2.049
252.82	-4.132
253.19	-3.906
253.56	-2.662
253.94	1.154
254.31	2.652
254.68	3.846
255.05	0.000
255.42	-3.401
255.79	-2.589
256.16	0.000
256.54	-0.993
256.91	-0.328
257.28	0.328
257.65	-0.955
258.02	-1.475
258.39	2.564
258.76	3.364
259.14	3.448
259.51	4.035
259.88	-0.283
260.25	-0.833
260.62	-1.370
260.99	3.552
261.36	1.340
261.73	-0.265
262.10	2.198
262.47	-2.413
262.85	2.020
263.22	0.260
263.59	-2.368
263.96	1.790
264.33	-2.558
264.70	1.728
265.07	4.535
265.44	2.948
265.81	-1.157
266.18	2.721
266.55	1.786
266.92	-1.367
267.29	2.845
267.66	0.222
268.03	1.747
268.40	2.923
268.77	0.000
269.14	-0.220
269.51	1.535
269.88	1.639
270.25	1.610
270.62	1.688
270.99	4.242
271.36	2.574
271.73	0.589
272.10	2.405
272.47	-1.202
272.84	1.406
273.21	1.804
273.58	2.016
273.95	2.308
274.32	1.521
274.69	1.354
275.06	3.663
275.43	-0.370
275.80	2.293
276.17	1.667
276.54	0.746
276.91	0.537
277.28	3.074
277.65	2.334
278.02	1.654
278.39	0.725
278.76	-0.703
279.13	0.709
279.50	3.780
279.87	1.073
280.23	0.000
280.60	1.525
280.97	1.151
281.34	0.509
281.71	2.200
282.08	1.661
282.45	0.491
282.82	1.413
283.19	0.323
283.56	0.328
283.92	4.354
284.29	3.318
284.66	2.135
285.03	0.321
285.40	3.555
285.77	0.310
286.14	2.901
286.51	2.892
286.87	0.948
287.24	-0.151
287.61	1.345
287.98	0.151
288.35	0.000
288.72	2.071
289.08	2.635
289.45	0.148
289.82	1.205
290.19	1.868
290.56	2.817
290.93	2.140
291.29	1.102
291.66	0.964
292.03	0.271
292.40	1.633
292.77	1.482
293.13	0.947
293.50	-0.657
293.87	0.268
294.24	3.200
294.60	2.023
294.97	0.268
295.34	2.561
295.71	0.757
296.08	1.550
296.44	1.593
296.81	1.340
297.18	0.872
297.55	0.825
297.91	1.305
298.28	1.066
298.65	3.210
299.02	1.063
299.38	1.945
299.75	1.869
300.12	0.926
300.48	1.843
300.85	1.462
301.22	1.790
301.59	0.571
301.95	1.695
302.32	2.556
302.69	1.205
303.05	1.741
303.42	1.774
303.79	1.771
304.15	1.367
304.52	1.268
304.89	1.571
305.25	2.174
305.62	1.776
305.99	0.928
306.35	1.210
306.72	1.965
307.09	1.523
307.45	1.656
307.82	2.220
308.19	0.807
308.55	2.893
308.92	1.363
309.29	1.916
309.65	1.170
310.02	2.178
310.38	1.673
310.75	2.136
311.12	1.726
311.48	1.369
311.85	2.089
312.22	2.372
312.58	2.911
312.95	2.390
313.31	2.168
313.68	1.832
314.05	3.342
314.41	3.461
314.78	3.088
315.14	2.450
315.51	2.955
315.87	2.610
316.24	3.653
316.61	4.085
316.97	3.077
317.34	4.056
317.70	3.319
318.07	2.998
318.43	3.571
318.80	5.184
319.16	3.605
319.53	3.171
319.89	3.067
320.26	4.893
320.62	4.433
320.99	4.801
321.35	4.436
321.72	3.814
322.08	3.968
322.45	3.884
322.81	4.513
323.18	5.044
323.54	4.397
323.91	4.448
324.27	4.733
324.64	5.374
325.00	5.307
325.37	6.798
325.73	5.620
326.10	5.921
326.46	7.410
326.83	6.485
327.19	6.693
327.56	7.194
327.92	7.081
328.29	7.339
328.65	6.533
329.01	8.376
329.38	8.003
329.74	7.877
330.11	8.733
330.47	7.498
330.84	7.321
331.20	7.917
331.56	7.106
331.93	8.285
332.29	8.220
332.66	8.472
333.02	7.370
333.38	7.802
333.75	8.333
334.11	9.091
334.48	8.663
334.84	8.921
335.20	7.305
335.57	7.926
335.93	8.926
336.29	8.070
336.66	7.233
337.02	8.361
337.38	8.844
337.75	8.843
338.11	9.083
338.47	9.677
338.84	8.376
339.20	7.835
339.56	9.226
339.93	9.606
340.29	9.259
340.65	8.273
341.02	10.615
341.38	9.458
341.74	8.717
342.11	9.815
342.47	8.499
342.83	9.581
343.20	9.240
343.56	9.062
343.92	9.367
344.28	10.156
344.65	10.543
345.01	9.516
345.37	10.731
345.73	7.716
346.10	10.062
346.46	9.652
346.82	10.412
347.19	8.403
347.55	9.105
347.91	10.253
348.27	9.408
348.63	9.901
349.00	9.545
349.36	9.517
349.72	10.045
350.08	10.030
350.45	8.669
350.81	10.332
351.17	10.752
351.53	10.008
351.89	11.238
352.26	9.478
352.62	10.522
352.98	9.237
353.34	10.082
353.70	9.322
354.07	10.954
354.43	9.871
354.79	10.172
355.15	10.228
355.51	9.576
355.87	10.172
356.24	10.418
356.60	9.756
356.96	10.749
357.32	9.517
357.68	9.810
358.04	9.506
358.40	9.925
358.77	10.746
359.13	9.897
359.49	8.922
359.85	10.805
360.21	11.693
360.57	10.409
360.93	10.508
361.29	10.737
361.66	10.862
362.02	12.387
362.38	11.244
362.74	9.427
363.10	11.486
363.46	10.942
363.82	11.790
364.18	11.893
364.54	11.826
364.90	12.441
365.26	10.828
365.62	12.133
365.98	11.572
366.35	12.148
366.71	11.361
367.07	11.840
367.43	12.410
367.79	12.873
368.15	12.441
368.51	12.179
368.87	12.802
369.23	12.467
369.59	12.432
369.95	13.049
370.31	12.492
370.67	13.136
371.03	12.742
371.39	12.290
371.75	12.792
372.11	13.618
372.47	13.270
372.83	12.696
373.19	13.342
373.55	13.076
373.91	13.770
374.27	13.389
374.63	14.411
374.99	13.926
375.35	14.481
375.71	14.065
376.07	14.203
376.42	13.917
376.78	15.165
377.14	14.286
377.50	15.307
377.86	14.594
378.22	14.790
378.58	14.269
378.94	15.376
379.30	14.997
379.66	15.755
380.02	15.811
380.38	15.553
380.74	16.000
381.09	15.273
381.45	15.511
381.81	16.218
382.17	15.914
382.53	16.784
382.89	17.607
383.25	16.354
383.61	15.046
383.97	16.078
384.32	17.105
384.68	17.227
385.04	17.698
385.40	17.619
385.76	17.526
386.12	17.235
386.48	17.647
386.83	17.938
387.19	17.845
387.55	18.310
387.91	17.694
388.27	19.111
388.62	18.786
388.98	18.105
389.34	19.446
389.70	18.710
390.06	19.242
390.42	18.554
390.77	18.543
391.13	19.366
391.49	19.324
391.85	18.788
392.20	19.810
392.56	20.260
392.92	19.520
393.28	20.287
393.64	19.497
393.99	19.582
394.35	21.379
394.71	21.198
395.07	20.659
395.42	19.817
395.78	20.963
396.14	20.499
396.50	20.665
396.85	19.738
397.21	20.414
397.57	20.730
397.92	20.905
398.28	20.152
398.64	20.481
399.00	20.576
399.35	20.419
399.71	21.196
400.07	21.224
400.42	21.537
400.78	21.296
401.14	21.799
401.49	21.262
401.85	22.035
402.21	22.132
402.57	21.714
402.92	21.040
403.28	21.429
403.63	21.181
403.99	21.378
404.35	22.285
404.70	21.983
405.06	22.065
405.42	21.780
405.77	21.647
406.13	21.772
406.49	22.354
406.84	22.105
407.20	22.247
407.55	21.078
407.91	22.250
408.27	21.908
408.62	21.059
408.98	22.751
409.34	21.935
409.69	21.693
410.05	21.454
410.40	22.680
410.76	22.098
411.11	23.261
411.47	22.420
411.83	22.516
412.18	23.012
412.54	22.288
412.89	22.468
413.25	22.799
413.60	22.171
413.96	22.611
414.31	22.436
414.67	22.719
415.03	21.908
415.38	23.518
415.74	21.808
416.09	23.072
416.45	22.292
416.80	22.277
417.16	22.222
417.51	23.101
417.87	23.360
418.22	22.156
418.58	22.986
418.93	23.458
419.29	22.072
419.64	22.509
420.00	22.611
420.35	22.852
420.71	22.918
421.06	22.427
421.42	23.165
421.77	22.725
422.12	22.304
422.48	23.963
422.83	23.165
423.19	22.546
423.54	23.451
423.90	23.192
424.25	23.627
424.61	21.986
424.96	23.009
425.31	24.841
425.67	23.027
426.02	23.907
426.38	23.307
426.73	23.661
427.09	24.221
427.44	22.938
427.79	22.830
428.15	23.174
428.50	23.315
428.85	23.421
429.21	24.734
429.56	23.692
429.92	23.440
430.27	24.145
430.62	23.107
430.98	23.364
431.33	23.900
431.68	23.180
432.04	23.921
432.39	24.585
432.74	23.231
433.10	24.175
433.45	23.077
433.80	23.659
434.16	24.019
434.51	24.409
434.86	24.050
435.22	24.920
435.57	24.587
435.92	24.096
436.28	23.834
436.63	23.594
436.98	23.994
437.34	25.254
437.69	24.326
438.04	23.956
438.39	24.469
438.75	24.516
439.10	25.159
439.45	24.539
439.81	24.915
440.16	24.021
440.51	24.415
440.86	23.569
441.22	25.080
441.57	24.109
441.92	24.782
442.27	24.293
442.63	24.540
442.98	24.707
443.33	24.408
443.68	25.322
444.03	25.165
444.39	24.688
444.74	25.370
445.09	24.430
445.44	25.026
445.79	24.761
446.15	25.334
446.50	25.323
446.85	24.660
447.20	24.710
447.55	25.000
447.91	24.136
448.26	24.683
448.61	25.080
448.96	25.644
449.31	24.655
449.66	24.074
450.02	25.053
450.37	25.040
450.72	24.758
451.07	25.171
451.42	24.783
451.77	24.569
452.12	25.113
452.47	24.777
452.83	25.563
453.18	25.277
453.53	25.675
453.88	24.296
454.23	24.633
454.58	24.898
454.93	24.272
455.28	25.647
455.63	24.616
455.98	24.972
456.34	25.501
456.69	24.868
457.04	24.882
457.39	24.834
457.74	25.112
458.09	24.931
458.44	25.054
458.79	24.652
459.14	24.436
459.49	26.203
459.84	24.711
460.19	24.320
460.54	25.440
460.89	25.410
461.24	24.138
461.59	24.848
461.94	23.731
462.29	25.532
462.64	24.502
462.99	24.545
463.34	25.243
463.69	24.736
464.04	25.236
464.39	24.776
464.74	24.971
465.09	25.202
465.44	25.322
465.79	25.013
466.14	25.117
466.49	25.368
466.84	25.950
467.19	25.376
467.54	23.502
467.89	24.540
468.24	25.152
468.59	24.493
468.94	24.417
469.29	24.475
469.64	24.730
469.99	23.964
470.34	24.196
470.68	24.880
471.03	25.278
471.38	24.918
471.73	24.382
472.08	24.810
472.43	24.262
472.78	25.315
473.13	24.589
473.48	24.894
473.83	25.015
474.17	24.678
474.52	25.075
474.87	25.692
475.22	24.958
475.57	24.922
475.92	25.436
476.27	24.867
476.61	24.351
476.96	25.235
477.31	24.901
477.66	24.921
478.01	24.047
478.36	24.477
478.70	25.665
479.05	24.642
479.40	25.568
479.75	25.552
480.10	24.254
480.45	24.658
480.79	24.717
481.14	25.322
481.49	24.716
481.84	25.239
482.19	24.430
482.53	25.011
482.88	24.812
483.23	25.478
483.58	24.454
483.92	23.626
484.27	24.555
484.62	23.597
484.97	24.495
485.31	23.900
485.66	22.441
486.01	22.992
486.36	23.955
486.70	25.658
487.05	26.050
487.40	25.075
487.75	24.478
488.09	24.148
488.44	23.736
488.79	24.216
489.13	24.439
489.48	23.883
489.83	23.863
490.17	24.180
490.52	23.440
490.87	24.112
491.22	23.484
491.56	24.061
491.91	24.335
492.26	24.362
492.60	24.093
492.95	24.002
493.30	24.249
493.64	23.697
493.99	23.816
494.34	23.998
494.68	23.469
495.03	24.009
495.37	24.456
495.72	23.810
496.07	23.357
496.41	23.166
496.76	24.646
497.11	23.779
497.45	23.910
497.80	23.634
498.14	24.218
498.49	24.173
498.84	23.766
499.18	23.752
499.53	23.453
499.87	23.560
500.22	23.108
500.56	24.022
500.91	23.478
501.26	24.091
501.60	23.420
501.95	23.187
502.29	23.914
502.64	24.180
502.98	23.900
503.33	23.801
503.67	23.681
504.02	23.905
504.36	24.263
504.71	24.116
505.06	24.102
505.40	23.537
505.75	23.953
506.09	24.678
506.44	24.188
506.78	24.037
507.13	24.205
507.47	24.207
507.82	24.763
508.16	23.901
508.51	24.473
508.85	23.996
509.19	23.828
509.54	24.256
509.88	23.652
510.23	24.138
510.57	25.085
510.92	23.948
511.26	24.291
511.61	24.433
511.95	23.865
512.30	24.323
512.64	23.888
512.98	24.212
513.33	24.647
513.67	23.916
514.02	23.965
514.36	24.808
514.70	24.687
515.05	25.026
515.39	24.987
515.74	25.451
516.08	24.828
516.42	25.536
516.77	24.343
517.11	24.394
517.46	24.602
517.80	25.708
518.14	25.898
518.49	25.000
518.83	24.109
519.17	23.748
519.52	25.262
519.86	24.815
520.20	25.346
520.55	24.480
520.89	24.550
521.23	25.628
521.58	24.463
521.92	25.326
522.26	24.055
522.61	25.231
522.95	25.490
523.29	25.345
523.64	24.552
523.98	25.328
524.32	26.017
524.66	25.213
525.01	24.745
525.35	24.182
525.69	24.536
526.04	24.168
526.38	24.828
526.72	25.433
527.06	24.809
527.41	24.781
527.75	24.881
528.09	23.613
528.43	24.038
528.78	23.988
529.12	24.541
529.46	24.452
529.80	25.114
530.15	24.000
530.49	23.665
530.83	25.030
531.17	24.194
531.51	25.812
531.86	24.579
532.20	24.756
532.54	24.057
532.88	24.303
533.22	24.042
533.57	23.889
533.91	24.860
534.25	23.968
534.59	25.000
534.93	24.335
535.27	24.169
535.62	25.128
535.96	24.811
536.30	24.148
536.64	25.045
536.98	24.354
537.32	24.506
537.66	24.704
538.01	23.686
538.35	24.117
538.69	24.219
539.03	24.157
539.37	24.499
539.71	24.264
540.05	23.501
540.39	23.411
540.73	23.558
541.07	23.850
541.42	23.390
541.76	24.140
542.10	24.005
542.44	23.143
542.78	24.088
543.12	23.480
543.46	24.359
543.80	23.141
544.14	22.980
544.48	23.345
544.82	23.758
545.16	24.150
545.50	23.307
545.84	23.025
546.18	25.000
546.52	23.439
546.86	22.642
547.20	23.410
547.54	23.471
547.88	24.292
548.22	23.509
548.56	22.996
548.90	23.224
549.24	23.647
549.58	22.965
549.92	23.342
550.26	23.819
550.60	22.974
550.94	23.739
551.28	22.772
551.62	22.507
551.96	23.172
552.30	23.327
552.64	23.273
552.98	23.394
553.32	24.502
553.66	23.151
554.00	23.455
554.34	22.780
554.68	22.918
555.02	23.390
555.36	23.734
555.69	23.575
556.03	23.140
556.37	23.592
556.71	22.384
557.05	21.917
557.39	22.827
557.73	23.316
558.07	22.384
558.41	23.189
558.75	23.394
559.08	22.408
559.42	23.525
559.76	22.795
560.10	22.639
560.44	22.757
560.78	23.187
561.12	23.214
561.45	23.601
561.79	22.711
562.13	22.921
562.47	21.763
562.81	22.532
563.15	22.917
563.48	23.431
563.82	22.551
564.16	22.168
564.50	23.004
564.84	22.478
565.17	22.706
565.51	21.231
565.85	21.853
566.19	22.581
566.52	21.182
566.86	23.260
567.20	21.262
567.54	22.199
567.88	22.069
568.21	21.739
568.55	22.110
568.89	22.152
569.23	21.335
569.56	21.649
569.90	21.703
570.24	21.720
570.57	21.937
570.91	21.464
571.25	21.898
571.59	21.681
571.92	21.588
572.26	21.466
572.60	21.512
572.93	21.319
573.27	21.073
573.61	21.096
573.95	21.899
574.28	21.303
574.62	21.123
574.96	20.909
575.29	20.621
575.63	20.882
575.97	20.838
576.30	20.577
576.64	20.878
576.98	20.387
577.31	20.981
577.65	21.090
577.98	20.745
578.32	20.813
578.66	20.637
578.99	20.848
579.33	20.476
579.67	20.762
580.00	20.409
580.34	20.572
580.67	20.079
581.01	20.229
581.35	20.320
581.68	20.639
582.02	20.749
582.35	21.358
582.69	21.006
583.02	21.080
583.36	21.052
583.70	20.768
584.03	20.134
584.37	20.390
584.70	20.220
585.04	20.646
585.37	20.460
585.71	20.431
586.04	20.365
586.38	20.775
586.72	20.231
587.05	20.159
587.39	21.017
587.72	20.359
588.06	20.334
588.39	20.662
588.73	20.026
589.06	20.796
589.40	20.436
589.73	20.051
590.07	20.391
590.40	21.028
590.73	20.325
591.07	20.253
591.40	20.451
591.74	20.390
592.07	20.747
592.41	19.874
592.74	20.270
593.08	20.637
593.41	20.210
593.75	20.402
594.08	20.660
594.41	20.705
594.75	19.927
595.08	19.886
595.42	20.422
595.75	19.729
596.09	19.925
596.42	20.459
596.75	20.610
597.09	20.566
597.42	19.825
597.75	20.110
598.09	20.079
598.42	20.265
598.76	19.679
599.09	19.010
599.42	19.678
599.76	20.007
600.09	20.087
600.42	20.787
600.76	19.683
601.09	19.681
601.42	19.739
601.76	20.207
602.09	20.014
602.42	19.193
602.76	19.631
603.09	19.420
603.42	20.195
603.76	19.486
604.09	19.801
604.42	20.110
604.76	19.178
605.09	19.944
605.42	19.139
605.75	19.962
606.09	19.597
606.42	19.591
606.75	19.228
607.09	19.086
607.42	19.884
607.75	20.086
608.08	19.968
608.42	19.468
608.75	19.154
609.08	19.228
609.41	20.026
609.75	18.170
610.08	20.097
610.41	19.669
610.74	19.496
611.07	19.361
611.41	19.865
611.74	19.215
612.07	19.168
612.40	18.869
612.73	19.707
613.07	18.778
613.40	19.346
613.73	19.788
614.06	19.627
614.39	19.291
614.72	18.680
615.06	19.105
615.39	18.898
615.72	19.194
616.05	19.233
616.38	19.879
616.71	18.809
617.05	18.850
617.38	19.743
617.71	19.222
618.04	19.158
618.37	19.727
618.70	19.570
619.03	18.937
619.36	19.420
619.69	19.603
620.03	19.272
620.36	18.160
620.69	19.741
621.02	18.701
621.35	18.215
621.68	19.812
622.01	19.502
622.34	18.689
622.67	19.244
623.00	17.949
623.33	18.248
623.66	19.261
623.99	18.697
624.32	20.208
624.65	18.404
624.99	19.311
625.32	19.791
625.65	19.488
625.98	19.525
626.31	19.135
626.64	18.974
626.97	18.830
627.30	19.210
627.63	18.605
627.96	19.895
628.29	18.521
628.62	17.716
628.95	19.018
629.28	18.946
629.61	19.108
629.94	17.824
630.26	18.305
630.59	18.480
630.92	18.442
631.25	18.426
631.58	19.492
631.91	19.306
632.24	18.924
632.57	19.450
632.90	19.057
633.23	18.469
633.56	18.673
633.89	18.079
634.22	19.751
634.55	18.789
634.88	18.074
635.20	18.515
635.53	18.644
635.86	18.743
636.19	19.724
636.52	18.565
636.85	18.080
637.18	17.152
637.51	17.849
637.83	18.937
638.16	19.240
638.49	16.432
638.82	18.602
639.15	17.755
639.48	19.284
639.81	18.360
640.13	18.492
640.46	17.818
640.79	16.912
641.12	19.130
641.45	18.821
641.77	19.512
642.10	18.898
642.43	18.484
642.76	17.615
643.09	18.082
643.41	17.787
643.74	17.931
644.07	19.724
644.40	18.388
644.73	17.417
645.05	17.327
645.38	18.849
645.71	17.449
646.04	18.508
646.36	16.788
646.69	19.479
647.02	18.349
647.35	18.779
647.67	19.324
648.00	18.471
648.33	17.568
648.66	17.546
648.98	17.279
649.31	17.321
649.64	20.319
649.96	15.915
650.29	14.604
650.62	16.549
650.94	16.967
651.27	16.916
651.60	17.251
651.92	17.781
652.25	17.077
652.58	15.818
652.90	16.570
653.23	18.451
653.56	18.402
653.88	17.978
654.21	16.479
654.54	19.075
654.86	17.139
655.19	17.189
655.52	18.276
655.84	18.896
656.17	21.851
656.49	30.439
656.82	33.215
657.15	25.641
657.47	18.955
657.80	13.817
658.13	10.720
658.45	13.999
658.78	16.605
659.10	15.129
659.43	15.171
659.75	14.512
660.08	13.109
660.41	14.061
660.73	14.709
661.06	15.419
661.38	15.789
661.71	16.034
662.03	15.168
662.36	16.995
662.68	15.572
663.01	14.513
663.33	18.336
663.66	18.132
663.98	16.154
664.31	18.199
664.63	13.487
664.96	17.604
665.28	14.882
665.61	18.007
665.93	16.250
666.26	17.025
666.58	14.760
666.91	16.449
667.23	19.048
667.56	16.174
667.88	18.600
668.21	15.820
668.53	14.286
668.86	14.931
669.18	17.719
669.50	16.899
669.83	15.400
670.15	15.551
670.48	17.857
670.80	16.635
671.13	17.391
671.45	17.323
671.77	18.267
672.10	15.833
672.42	16.505
672.75	16.897
673.07	15.522
673.39	15.562
673.72	16.275
674.04	18.276
674.37	15.385
674.69	16.049
675.01	16.000
675.34	15.458
675.66	14.419
675.98	16.791
676.31	16.016
676.63	19.202
676.95	17.625
677.28	13.911
677.60	13.386
677.92	18.042
678.25	16.636
678.57	16.904
678.89	15.358
679.22	15.854
679.54	14.359
679.86	14.407
680.18	17.247
680.51	16.509
680.83	15.057
681.15	15.690
681.48	15.371
681.80	16.235
682.12	15.734
682.44	15.860
682.77	16.135
683.09	14.205
683.41	17.054
683.73	14.991
684.06	12.915
684.38	15.027
684.70	16.338
685.02	16.007
685.34	14.476
685.67	13.880
685.99	14.724
686.31	15.262
686.63	14.060
686.96	16.719
687.28	15.961
687.60	15.152
687.92	14.148
688.24	13.356
688.56	14.138
688.89	16.152
689.21	14.286
689.53	12.745
689.85	14.004
690.17	15.000
690.49	12.749
690.82	17.822
691.14	14.170
691.46	15.679
691.78	16.759
692.10	14.679
692.42	13.036
692.74	15.789
693.06	13.148
693.39	17.268
693.71	14.662
694.03	14.126
694.35	14.667
694.67	13.142
694.99	13.830
695.31	12.583
695.63	14.069
695.95	15.942
696.27	14.725
696.59	15.929
696.91	13.964
697.23	17.363
697.56	14.460
697.88	13.258
698.20	13.559
698.52	16.477
698.84	14.137
699.16	14.286
699.48	14.854
699.80	15.319
700.12	14.410
700.44	14.516
700.76	14.964
701.08	15.012
701.40	16.062
701.72	16.418
702.04	13.102
702.36	9.686
702.68	12.714
703.00	11.247
703.32	13.793
703.64	12.714
703.96	14.320
704.28	13.268
704.60	13.418
704.91	15.306
705.23	14.795
705.55	13.928
705.87	15.455
706.19	13.804
706.51	10.241
706.83	10.663
707.15	13.757
707.47	11.682
707.79	10.699
708.11	11.229
708.43	12.043
708.74	11.161
709.06	11.601
709.38	15.962
709.70	15.881
710.02	11.628
710.34	14.628
710.66	11.453
710.98	10.383
711.29	11.538
711.61	8.757
711.93	13.390
712.25	10.270
712.57	13.864
712.89	16.176
713.20	13.314
713.52	16.474
713.84	10.306
714.16	17.632
714.48	14.948
714.80	15.844
715.11	14.173
715.43	12.467
715.75	13.684
716.07	14.088
716.39	13.661
716.70	11.145
717.02	11.803
717.34	7.666
717.66	12.752
717.97	9.247
718.29	14.089
718.61	8.553
718.93	10.032
719.24	12.733
719.56	13.190
719.88	10.511
720.20	12.258
720.51	11.180
720.83	9.688
721.15	10.855
721.46	8.219
721.78	11.667
722.10	14.239
722.42	12.416
722.73	10.323
723.05	12.632
723.37	10.069
723.68	14.337
724.00	12.635
724.32	11.620
724.63	9.790
724.95	13.830
725.27	10.105
725.58	6.714
725.90	13.793
726.22	13.166
726.53	13.312
726.85	13.208
727.16	10.272
727.48	12.232
727.80	13.245
728.11	8.481
728.43	13.131
728.74	10.702
729.06	9.934
729.38	12.338
729.69	9.732
730.01	13.393
730.32	8.485
730.64	13.836
730.96	11.180
731.27	12.570
731.59	14.560
731.90	9.351
732.22	14.062
732.53	9.945
732.85	12.000
733.16	12.903
733.48	6.098
733.80	10.306
734.11	11.396
734.43	12.973
734.74	12.658
735.06	9.296
735.37	10.541
735.69	11.892
736.00	10.169
736.32	11.321
736.63	11.111
736.95	10.057
737.26	11.818
737.58	10.000
737.89	13.235
738.21	10.398
738.52	11.148
738.83	13.311
739.15	7.801
739.46	10.204
739.78	15.337
740.09	9.742
740.41	15.160
740.72	7.333
741.04	13.269
741.35	12.632
741.66	11.373
741.98	11.066
742.29	10.460
742.61	12.719
742.92	12.692
743.23	10.469
743.55	6.202
743.86	8.800
744.18	3.306
744.49	7.173
744.80	13.580
745.12	9.705
745.43	11.789
745.74	8.190
746.06	9.746
746.37	14.768
746.68	13.008
747.00	8.750
747.31	12.446
747.62	12.308
747.94	4.858
748.25	5.622
748.56	8.980
748.88	7.265
749.19	8.190
749.50	8.225
749.82	11.647
750.13	16.370
750.44	5.333
750.75	12.923
751.07	12.308
751.38	10.410
751.69	15.335
752.01	7.120
752.32	11.438
752.63	10.544
752.94	6.574
753.26	6.691
753.57	4.815
753.88	11.985
754.19	9.325
754.51	11.254
754.82	10.611
755.13	11.475
755.44	11.604
755.75	11.513
756.07	16.119
756.38	9.119
756.69	10.542
757.00	7.479
757.31	10.656
757.63	7.417
757.94	11.502
758.25	10.609
758.56	8.497
758.87	9.091
759.18	10.133
759.50	14.448
759.81	10.364
760.12	9.973
760.43	12.240
760.74	13.054
761.05	11.250
761.36	10.120
761.67	9.137
761.99	11.622
762.30	7.317
762.61	10.561
762.92	13.060
763.23	12.360
763.54	8.993
763.85	10.653
764.16	10.438
764.47	7.746
764.78	8.307
765.10	12.317
765.41	11.538
765.72	7.937
766.03	11.299
766.34	8.464
766.65	8.014
766.96	11.554
767.27	9.677
767.58	1.990
767.89	11.058
768.20	7.981
768.51	7.407
768.82	12.048
769.13	4.924
769.44	5.000
769.75	11.913
770.06	10.000
770.37	12.205
770.68	8.085
770.99	6.478
771.30	14.074
771.61	7.605
771.92	6.667
772.23	10.121
772.54	4.167
772.85	12.442
773.16	10.000
773.47	0.529
773.78	2.162
774.09	7.386
774.39	12.500
774.70	5.464
775.01	-2.439
775.32	2.941
775.63	12.270
775.94	1.274
776.25	6.452
776.56	11.538
776.87	4.762
777.18	0.000
777.48	2.098
777.79	0.676
778.10	6.618
778.41	6.944
778.72	3.448
779.03	2.469
779.34	6.061
779.65	9.326
779.95	6.111
780.26	6.250
780.57	4.516
780.88	5.797
781.19	12.903
781.50	10.000
781.80	6.989
782.11	8.995
782.42	3.535
782.73	4.790
783.04	5.028
783.34	-2.424
783.65	4.575
783.96	9.938
784.27	2.381
784.57	0.000
784.88	-3.571
785.19	-3.937
785.50	3.937
785.81	-1.504
786.11	10.769
786.42	-1.439
786.73	-2.158
787.04	6.767
787.34	4.098
787.65	4.800
787.96	3.731
788.26	9.790
788.57	11.189
788.88	-0.658
789.19	8.497
789.49	9.589
789.80	7.801
790.11	10.236
790.41	1.563
790.72	-3.390
791.03	-0.971
791.33	7.826
791.64	2.632
791.95	0.893
792.25	-0.952
792.56	-6.250
792.87	-3.125
793.17	2.679
793.48	-13.542
793.79	-14.458
794.09	3.670
794.40	-5.505
794.70	6.122
795.01	-0.649
795.32	5.479
795.62	5.634
795.93	0.758
796.23	-3.279
796.54	-0.893
796.85	-4.255
797.15	1.087
797.46	-10.959
797.76	-11.250
798.07	3.261
798.37	-11.340
798.68	-3.896
798.99	-11.494
799.29	-10.112
799.60	-3.191
799.90	-20.482
800.21	-7.692
800.51	-10.448
800.82	-16.176
801.12	-20.548
801.43	-25.000
801.73	-20.339
802.04	-21.212
802.34	-26.667
802.65	-10.169
802.95	-11.940
803.26	-25.424
803.56	-10.959
803.87	-12.857
804.17	-6.849
804.48	-24.561
804.78	-12.500
805.09	-34.483
805.39	-4.054
805.70	-15.493
806.00	-1.220
806.30	9.639
806.61	-17.808
806.91	-8.654
807.22	-6.667
807.52	-17.241
807.83	-9.722
808.13	0.000
808.43	-12.360
808.74	-7.500
809.04	-14.706
809.35	-4.000
809.65	-11.429
809.95	-15.068
810.26	-36.842
810.56	-8.621
810.86	-16.176
811.17	-19.298
811.47	-18.033
811.77	-17.778
812.08	-1.695
812.38	-21.667
812.69	0.000
812.99	-37.736
813.29	-71.795
813.59	-24.000
813.90	-3.509
814.20	-25.455
814.50	-5.634
814.81	-7.692
815.11	-14.754
815.41	-2.985
815.72	-6.897
816.02	-25.000
816.32	-24.444
816.62	-13.636
816.93	-26.667
817.23	-1.852
817.53	-31.915
817.84	-9.524
818.14	-32.353
818.44	-16.327
818.74	-17.778
819.04	-58.974
819.35	-45.714
819.65	-84.615
819.95	-33.962
820.25	-20.000
820.56	-42.857
820.86	-31.250
821.16	-43.590
821.46	-34.884
821.76	-40.000
822.07	-19.643
822.37	-34.783
822.67	-44.681
822.97	-59.459
823.27	-50.000
823.57	0.000
823.88	-4.444
824.18	-20.000
824.48	-43.333
824.78	-64.000
825.08	-24.242
825.38	-11.111
825.69	-10.638
825.99	-19.444
826.29	-77.143
826.59	-33.333
826.89	-34.884
827.19	-20.000
827.49	-14.706
827.79	6.250
828.09	-37.838
828.39	-46.667
828.70	-21.951
829.00	-25.581
829.30	-53.571
829.60	11.765
829.90	-28.261
830.20	-34.286
830.50	-55.172
830.80	-72.222
831.10	-57.692
831.40	-50.000
831.70	-76.190
832.00	-9.677
832.30	-147.059
832.60	-79.167
832.90	-100.000
833.20	-57.895
833.50	-70.000
833.80	-73.684
834.10	-119.048
834.40	-30.556
834.70	-12.500
835.00	-88.571
835.30	-2.941
835.60	-56.667
835.90	-92.000
836.20	-131.818
836.50	-52.000
836.80	-63.636
837.10	-62.963
837.40	-62.963
837.70	-168.750
838.00	-35.714
838.30	-78.261
838.60	-65.517
838.90	-100.000
839.19	-113.043
839.49	-200.000
839.79	-56.522
840.09	-137.500
840.39	-90.000
840.69	-9.677
840.99	-42.857
841.29	-106.667
841.59	-52.632
841.88	-23.077
842.18	-38.462
842.48	-240.000
842.78	-75.000
843.08	-33.333
843.38	-6.452
843.68	-122.222
843.97	0.000
844.27	-106.250
844.57	-94.737
844.87	-140.000
845.17	-140.000
845.47	-23.810
845.76	-100.000
846.06	-288.889
846.36	-117.647
846.66	-65.385
846.96	-206.667
847.25	-147.059
847.55	-52.174
847.85	-105.000
848.15	-41.176
848.44	-100.000
848.74	-42.857
849.04	-50.000
849.34	-112.500
849.63	-82.609
849.93	1550.000
850.23	-113.333
850.53	-38.462
850.82	-154.545
851.12	-18.182
851.42	-100.000
851.71	-84.615
852.01	-145.000
852.31	-115.385
852.61	-68.421
852.90	-158.333
853.20	-50.000
853.50	-277.778
853.79	-128.571
854.09	-40.909
854.39	-200.000
854.68	-45.161
854.98	-111.538
855.28	-83.333
855.57	-57.143
855.87	-32.000
856.17	-95.455
856.46	-40.741
856.76	-88.889
857.05	-52.174
857.35	-37.500
857.65	-176.923
857.94	-80.952
858.24	-25.926
858.53	-39.130
858.83	-94.118
859.13	-70.588
859.42	-105.882
859.72	-92.857
860.01	-85.000
860.31	-244.444
860.60	-140.000
860.90	-100.000
861.20	-83.333
861.49	-115.385
861.79	-43.333
862.08	-115.385
862.38	-25.000
862.67	-88.235
862.97	-81.250
863.26	-188.889
863.56	-50.000
863.85	-200.000
864.15	-116.667
864.44	-633.333
864.74	-150.000
865.03	-106.250
865.33	-260.000
865.62	-58.065
865.92	-18.182
866.21	-13.043
866.51	-135.714
866.80	-460.000
867.10	-158.333
867.39	-141.667
867.69	3000.000
867.98	-242.857
868.27	-88.235
868.57	-2900.000
868.86	-270.000
869.16	-95.238
869.45	-58.333
869.75	-81.818
870.04	-128.571
870.33	-108.333
870.63	-357.143
870.92	-325.000
871.22	-350.000
871.51	-218.182
871.80	-933.333
872.10	-650.000
>>>>>End Processed Spectral Data<<<<<
