SpectraSuite Data File
++++++++++++++++++++++++++++++++++++
Date: Thu May 14 14:59:25 PDT 2015
User: schluterlab
Dark Spectrum Present: Yes
Reference Spectrum Present: Yes
Number of Sampled Component Spectra: 1
Spectrometers: USB2E3373
Integration Time (usec): 3000 (USB2E3373)
Spectra Averaged: 3 (USB2E3373)
Boxcar Smoothing: 0 (USB2E3373)
Correct for Electrical Dark: No (USB2E3373)
Strobe/Lamp Enabled: No (USB2E3373)
Correct for Detector Non-linearity: No (USB2E3373)
Correct for Stray Light: No (USB2E3373)
Number of Pixels in Processed Spectrum: 2048
>>>>>Begin Processed Spectral Data<<<<<
178.53	0.000
178.91	300.000
179.29	-2600.000
179.67	-1900.000
180.04	357.143
180.42	230.000
180.80	520.000
181.18	-2600.000
181.56	-1000.000
181.94	600.000
182.31	-425.000
182.69	733.333
183.07	-600.000
183.45	575.000
183.83	-183.333
184.20	-566.667
184.58	1800.000
184.96	-975.000
185.34	-222.222
185.72	-220.000
186.09	311.111
186.47	1350.000
186.85	580.000
187.23	-288.889
187.61	-3200.000
187.98	440.000
188.36	600.000
188.74	-550.000
189.12	-433.333
189.49	-87.500
189.87	-375.000
190.25	-188.889
190.63	-480.000
191.00	-288.889
191.38	0.000
191.76	-625.000
192.14	-350.000
192.51	1250.000
192.89	-233.333
193.27	0.000
193.65	-228.571
194.02	-2600.000
194.40	-314.286
194.78	371.429
195.15	0.000
195.53	-127.273
195.91	0.000
196.29	-575.000
196.66	-238.462
197.04	-2900.000
197.42	-428.571
197.79	-1150.000
198.17	-375.000
198.55	-300.000
198.92	-144.444
199.30	-300.000
199.68	-172.727
200.05	-78.571
200.43	-1200.000
200.81	514.286
201.18	0.000
201.56	300.000
201.94	0.000
202.31	866.667
202.69	-188.889
203.07	2400.000
203.44	-222.222
203.82	-525.000
204.19	-58.333
204.57	-300.000
204.95	-287.500
205.32	-3100.000
205.70	575.000
206.08	-250.000
206.45	-433.333
206.83	500.000
207.20	-400.000
207.58	-680.000
207.96	-400.000
208.33	-283.333
208.71	250.000
209.08	-266.667
209.46	0.000
209.84	383.333
210.21	1100.000
210.59	1400.000
210.96	666.667
211.34	-500.000
211.71	-187.500
212.09	-2100.000
212.46	0.000
212.84	1450.000
213.22	-400.000
213.59	-450.000
213.97	-110.000
214.34	-933.333
214.72	333.333
215.09	-550.000
215.47	0.000
215.84	314.286
216.22	1100.000
216.59	-280.000
216.97	-520.000
217.34	-550.000
217.72	-212.500
218.09	-525.000
218.47	-525.000
218.84	0.000
219.22	440.000
219.59	-82.353
219.97	-110.000
220.34	1450.000
220.72	-288.889
221.09	-46.154
221.47	-700.000
221.84	-220.000
222.22	-328.571
222.59	0.000
222.97	-187.500
223.34	-400.000
223.72	-1900.000
224.09	-525.000
224.46	-625.000
224.84	-440.000
225.21	-285.714
225.59	-650.000
225.96	-550.000
226.34	-69.231
226.71	533.333
227.08	-1150.000
227.46	-100.000
227.83	-750.000
228.21	-78.947
228.58	325.000
228.95	1150.000
229.33	-100.000
229.70	-110.000
230.08	-21.053
230.45	310.000
230.82	-900.000
231.20	-128.571
231.57	-141.667
231.95	-190.909
232.32	-200.000
232.69	-60.000
233.07	-575.000
233.44	-64.706
233.81	-140.000
234.19	-105.556
234.56	-90.909
234.93	-31.034
235.31	-68.421
235.68	-94.444
236.05	-170.000
236.43	-42.308
236.80	-12.000
237.17	-44.444
237.55	-42.424
237.92	-130.000
238.29	-29.032
238.67	-29.545
239.04	-44.444
239.41	-30.952
239.79	-23.913
240.16	-18.519
240.53	-23.913
240.91	-47.059
241.28	-13.115
241.65	2.985
242.02	-1.351
242.40	-15.385
242.77	-12.000
243.14	-9.756
243.51	-5.263
243.89	-12.821
244.26	-1.980
244.63	-0.980
245.00	-3.738
245.38	-10.526
245.75	-9.735
246.12	3.968
246.49	3.101
246.87	5.714
247.24	9.934
247.61	10.526
247.98	7.383
248.36	3.704
248.73	4.294
249.10	12.022
249.47	8.955
249.84	11.518
250.22	6.736
250.59	8.889
250.96	13.636
251.33	8.163
251.70	14.957
252.08	9.583
252.45	12.705
252.82	11.570
253.19	9.766
253.56	12.928
253.94	9.231
254.31	13.636
254.68	20.979
255.05	13.681
255.42	11.905
255.79	13.916
256.16	11.589
256.54	12.583
256.91	14.098
257.28	13.115
257.65	11.146
258.02	12.094
258.39	15.385
258.76	15.291
259.14	18.966
259.51	13.833
259.88	14.731
260.25	17.500
260.62	16.712
260.99	15.574
261.36	17.694
261.73	13.793
262.10	15.110
262.47	15.013
262.85	15.404
263.22	17.143
263.59	14.211
263.96	15.857
264.33	16.113
264.70	16.790
265.07	16.706
265.44	18.141
265.81	15.278
266.18	21.769
266.55	16.071
266.92	12.528
267.29	18.600
267.66	15.521
268.03	18.341
268.40	16.701
268.77	13.212
269.14	14.537
269.51	17.325
269.88	17.008
270.25	16.700
270.62	19.198
270.99	17.374
271.36	19.802
271.73	16.306
272.10	19.439
272.47	17.034
272.84	16.867
273.21	15.832
273.58	17.742
273.95	15.962
274.32	16.730
274.69	16.441
275.06	18.315
275.43	12.569
275.80	18.342
276.17	15.556
276.54	16.791
276.91	17.531
277.28	14.286
277.65	17.235
278.02	18.566
278.39	16.667
278.76	17.047
279.13	14.894
279.50	18.213
279.87	17.889
280.23	15.141
280.60	16.949
280.97	17.599
281.34	16.978
281.71	16.074
282.08	16.279
282.45	14.730
282.82	14.286
283.19	14.216
283.56	15.574
283.92	17.718
284.29	18.325
284.66	19.704
285.03	13.462
285.40	17.465
285.77	16.718
286.14	15.725
286.51	16.895
286.87	16.430
287.24	15.361
287.61	16.442
287.98	15.710
288.35	15.828
288.72	14.645
289.08	16.545
289.45	16.272
289.82	15.813
290.19	16.954
290.56	15.634
290.93	14.693
291.29	16.804
291.66	14.738
292.03	13.840
292.40	14.694
292.77	15.633
293.13	15.426
293.50	14.717
293.87	13.960
294.24	15.200
294.60	14.286
294.97	11.678
295.34	14.085
295.71	13.745
296.08	13.307
296.44	13.480
296.81	12.667
297.18	13.823
297.55	12.618
297.91	14.116
298.28	12.678
298.65	11.534
299.02	12.633
299.38	13.272
299.75	11.565
300.12	10.764
300.48	12.903
300.85	14.173
301.22	13.311
301.59	11.187
301.95	12.655
302.32	13.222
302.69	13.801
303.05	13.058
303.42	11.863
303.79	13.333
304.15	11.987
304.52	12.156
304.89	13.298
305.25	12.008
305.62	12.121
305.99	12.474
306.35	11.794
306.72	12.927
307.09	13.401
307.45	13.251
307.82	12.008
308.19	12.109
308.55	13.115
308.92	12.658
309.29	12.931
309.65	12.183
310.02	11.386
310.38	11.811
310.75	13.301
311.12	11.505
311.48	12.903
311.85	11.491
312.22	11.195
312.58	11.737
312.95	12.046
313.31	12.647
313.68	14.377
314.05	12.647
314.41	13.024
314.78	13.170
315.14	12.886
315.51	12.558
315.87	12.241
316.24	14.338
316.61	13.854
316.97	12.036
317.34	11.111
317.70	13.712
318.07	12.522
318.43	13.605
318.80	13.545
319.16	13.820
319.53	11.997
319.89	14.198
320.26	12.900
320.62	13.032
320.99	12.927
321.35	13.586
321.72	14.512
322.08	13.526
322.45	15.086
322.81	13.989
323.18	13.451
323.54	13.621
323.91	15.036
324.27	14.716
324.64	15.869
325.00	15.174
325.37	15.152
325.73	14.463
326.10	15.896
326.46	15.391
326.83	17.534
327.19	16.142
327.56	16.917
327.92	15.972
328.29	15.242
328.65	16.080
329.01	16.244
329.38	17.523
329.74	17.038
330.11	18.065
330.47	17.102
330.84	15.504
331.20	17.417
331.56	17.158
331.93	17.992
332.29	17.542
332.66	17.691
333.02	17.588
333.38	16.946
333.75	18.098
334.11	16.847
334.48	17.739
334.84	18.352
335.20	17.464
335.57	17.875
335.93	18.512
336.29	17.637
336.66	17.914
337.02	17.977
337.38	18.707
337.75	16.860
338.11	18.082
338.47	17.535
338.84	18.190
339.20	17.944
339.56	17.381
339.93	18.966
340.29	17.955
340.65	18.654
341.02	18.994
341.38	18.189
341.74	18.160
342.11	18.101
342.47	17.156
342.83	18.116
343.20	19.215
343.56	17.803
343.92	18.815
344.28	18.281
344.65	19.380
345.01	18.175
345.37	19.362
345.73	17.693
346.10	19.423
346.46	17.405
346.82	18.577
347.19	18.411
347.55	18.968
347.91	18.202
348.27	19.044
348.63	18.126
349.00	18.941
349.36	19.033
349.72	18.080
350.08	19.242
350.45	17.643
350.81	18.024
351.17	18.947
351.53	19.181
351.89	17.768
352.26	18.507
352.62	18.881
352.98	18.473
353.34	18.073
353.70	19.260
354.07	18.703
354.43	18.375
354.79	18.250
355.15	18.690
355.51	19.079
355.87	18.998
356.24	20.000
356.60	18.995
356.96	19.051
357.32	19.405
357.68	19.985
358.04	18.563
358.40	18.582
358.77	19.444
359.13	19.055
359.49	19.182
359.85	18.202
360.21	19.512
360.57	18.808
360.93	18.406
361.29	19.439
361.66	18.827
362.02	20.042
362.38	19.606
362.74	19.623
363.10	20.908
363.46	19.668
363.82	19.673
364.18	20.056
364.54	19.848
364.90	20.201
365.26	19.379
365.62	21.000
365.98	19.809
366.35	20.134
366.71	19.728
367.07	21.854
367.43	20.552
367.79	20.902
368.15	20.870
368.51	20.839
368.87	21.097
369.23	20.200
369.59	21.380
369.95	20.757
370.31	21.337
370.67	21.458
371.03	20.914
371.39	20.954
371.75	21.802
372.11	21.680
372.47	21.259
372.83	21.793
373.19	22.282
373.55	21.612
373.91	21.677
374.27	21.669
374.63	21.448
374.99	22.082
375.35	22.597
375.71	21.742
376.07	21.885
376.42	22.733
376.78	23.369
377.14	22.645
377.50	22.517
377.86	23.153
378.22	23.533
378.58	23.662
378.94	22.829
379.30	23.140
379.66	23.339
380.02	24.062
380.38	24.078
380.74	23.324
381.09	24.506
381.45	24.261
381.81	24.532
382.17	24.703
382.53	24.327
382.89	24.661
383.25	24.853
383.61	25.347
383.97	24.912
384.32	25.120
384.68	25.058
385.04	26.374
385.40	26.341
385.76	26.084
386.12	26.451
386.48	26.176
386.83	27.235
387.19	26.246
387.55	26.115
387.91	26.941
388.27	28.176
388.62	26.632
388.98	26.396
389.34	27.460
389.70	27.542
390.06	26.939
390.42	26.807
390.77	28.116
391.13	28.580
391.49	27.778
391.85	27.697
392.20	28.055
392.56	29.002
392.92	29.826
393.28	29.353
393.64	28.939
393.99	29.402
394.35	29.790
394.71	30.000
395.07	29.581
395.42	29.012
395.78	30.713
396.14	29.649
396.50	29.751
396.85	29.398
397.21	30.000
397.57	29.270
397.92	30.355
398.28	30.690
398.64	30.378
399.00	30.052
399.35	30.681
399.71	30.598
400.07	29.983
400.42	30.268
400.78	30.035
401.14	30.222
401.49	30.358
401.85	31.744
402.21	31.460
402.57	31.162
402.92	31.915
403.28	30.562
403.63	30.549
403.99	30.998
404.35	30.358
404.70	31.161
405.06	30.761
405.42	30.855
405.77	30.971
406.13	31.118
406.49	31.081
406.84	31.911
407.20	30.576
407.55	30.890
407.91	30.987
408.27	31.508
408.62	32.403
408.98	30.238
409.34	31.554
409.69	32.447
410.05	31.712
410.40	32.077
410.76	31.800
411.11	32.086
411.47	32.125
411.83	33.157
412.18	32.530
412.54	32.009
412.89	31.723
413.25	31.941
413.60	32.108
413.96	32.051
414.31	31.955
414.67	32.200
415.03	31.815
415.38	31.274
415.74	31.765
416.09	31.956
416.45	31.371
416.80	31.518
417.16	31.865
417.51	31.880
417.87	31.760
418.22	31.916
418.58	32.466
418.93	32.305
419.29	32.491
419.64	32.113
420.00	32.819
420.35	32.061
420.71	32.108
421.06	32.547
421.42	31.709
421.77	30.749
422.12	32.241
422.48	32.156
422.83	32.804
423.19	32.149
423.54	33.241
423.90	31.750
424.25	33.067
424.61	32.262
424.96	32.290
425.31	33.386
425.67	32.636
426.02	33.094
426.38	32.606
426.73	32.199
427.09	33.506
427.44	32.059
427.79	33.057
428.15	32.192
428.50	33.090
428.85	33.123
429.21	32.447
429.56	33.465
429.92	32.678
430.27	33.590
430.62	33.512
430.98	33.743
431.33	32.991
431.68	32.328
432.04	33.469
432.39	33.423
432.74	32.877
433.10	33.207
433.45	32.776
433.80	33.584
434.16	33.419
434.51	34.173
434.86	34.582
435.22	33.794
435.57	34.375
435.92	33.111
436.28	33.845
436.63	34.462
436.98	33.011
437.34	33.709
437.69	33.847
438.04	32.893
438.39	33.142
438.75	34.366
439.10	34.197
439.45	33.818
439.81	33.277
440.16	33.780
440.51	34.615
440.86	33.519
441.22	34.084
441.57	33.805
441.92	33.657
442.27	34.798
442.63	33.532
442.98	34.632
443.33	34.508
443.68	34.836
444.03	35.701
444.39	34.905
444.74	34.405
445.09	33.806
445.44	34.984
445.79	34.243
446.15	35.098
446.50	34.419
446.85	33.998
447.20	34.381
447.55	35.042
447.91	33.822
448.26	34.408
448.61	34.644
448.96	34.764
449.31	33.934
449.66	33.660
450.02	33.966
450.37	34.523
450.72	34.607
451.07	34.624
451.42	34.489
451.77	34.241
452.12	35.609
452.47	34.284
452.83	35.191
453.18	33.975
453.53	34.463
453.88	34.070
454.23	34.011
454.58	34.881
454.93	34.102
455.28	34.678
455.63	34.395
455.98	35.140
456.34	33.510
456.69	34.098
457.04	35.461
457.39	34.257
457.74	35.738
458.09	35.365
458.44	35.506
458.79	33.832
459.14	34.347
459.49	34.805
459.84	35.729
460.19	33.926
460.54	35.264
460.89	34.516
461.24	34.195
461.59	35.252
461.94	33.314
462.29	34.770
462.64	34.339
462.99	34.463
463.34	34.653
463.69	34.232
464.04	34.742
464.39	34.865
464.74	34.322
465.09	34.717
465.44	35.193
465.79	34.691
466.14	34.862
466.49	35.263
466.84	35.041
467.19	34.682
467.54	33.490
467.89	34.540
468.24	33.906
468.59	34.221
468.94	33.392
469.29	34.253
469.64	34.202
469.99	34.544
470.34	34.035
470.68	33.903
471.03	34.971
471.38	34.532
471.73	34.655
472.08	34.581
472.43	35.701
472.78	35.076
473.13	33.881
473.48	34.864
473.83	34.707
474.17	34.525
474.52	34.997
474.87	34.164
475.22	36.113
475.57	34.112
475.92	34.993
476.27	34.771
476.61	35.981
476.96	33.577
477.31	35.149
477.66	35.677
478.01	34.113
478.36	34.347
478.70	34.532
479.05	35.225
479.40	34.847
479.75	35.110
480.10	34.439
480.45	34.822
480.79	35.510
481.14	34.099
481.49	34.439
481.84	35.727
482.19	35.742
482.53	35.461
482.88	35.977
483.23	35.438
483.58	35.415
483.92	34.441
484.27	34.293
484.62	34.530
484.97	35.148
485.31	33.474
485.66	32.379
486.01	32.853
486.36	35.038
486.70	37.283
487.05	37.104
487.40	36.359
487.75	35.394
488.09	34.911
488.44	34.001
488.79	34.132
489.13	34.504
489.48	34.447
489.83	33.924
490.17	33.860
490.52	34.236
490.87	35.321
491.22	35.182
491.56	35.580
491.91	34.714
492.26	35.006
492.60	34.324
492.95	34.840
493.30	35.365
493.64	34.866
493.99	34.518
494.34	34.495
494.68	35.075
495.03	34.493
495.37	35.375
495.72	34.739
496.07	34.750
496.41	35.950
496.76	35.154
497.11	34.947
497.45	35.347
497.80	34.785
498.14	34.694
498.49	35.386
498.84	35.101
499.18	34.863
499.53	35.202
499.87	34.769
500.22	35.619
500.56	34.863
500.91	34.920
501.26	35.409
501.60	34.335
501.95	35.432
502.29	35.981
502.64	36.030
502.98	35.203
503.33	35.421
503.67	35.063
504.02	34.764
504.36	35.880
504.71	34.910
505.06	35.061
505.40	35.649
505.75	35.246
506.09	35.820
506.44	36.444
506.78	35.963
507.13	35.777
507.47	35.812
507.82	35.369
508.16	35.564
508.51	36.006
508.85	35.664
509.19	35.576
509.54	36.455
509.88	35.600
510.23	36.280
510.57	36.878
510.92	35.704
511.26	35.883
511.61	35.973
511.95	36.603
512.30	35.352
512.64	36.332
512.98	36.368
513.33	36.190
513.67	37.277
514.02	36.484
514.36	36.982
514.70	37.135
515.05	36.340
515.39	36.430
515.74	37.381
516.08	36.186
516.42	37.153
516.77	36.751
517.11	36.101
517.46	36.691
517.80	36.718
518.14	37.378
518.49	36.876
518.83	36.562
519.17	36.349
519.52	37.002
519.86	37.223
520.20	37.966
520.55	37.185
520.89	37.613
521.23	37.409
521.58	37.062
521.92	38.414
522.26	37.915
522.61	37.269
522.95	37.601
523.29	37.414
523.64	36.603
523.98	39.532
524.32	39.427
524.66	38.190
525.01	37.542
525.35	37.565
525.69	37.471
526.04	37.084
526.38	38.736
526.72	38.351
527.06	38.651
527.41	38.367
527.75	38.955
528.09	38.548
528.43	37.951
528.78	37.572
529.12	38.303
529.46	38.505
529.80	38.387
530.15	38.145
530.49	39.680
530.83	38.371
531.17	38.829
531.51	39.290
531.86	39.724
532.20	39.390
532.54	37.822
532.88	39.515
533.22	38.539
533.57	38.777
533.91	39.675
534.25	39.062
534.59	39.080
534.93	38.257
535.27	39.380
535.62	40.023
535.96	38.873
536.30	40.482
536.64	38.559
536.98	39.914
537.32	40.309
537.66	38.989
538.01	39.335
538.35	39.890
538.69	39.243
539.03	40.343
539.37	39.164
539.71	39.339
540.05	40.468
540.39	38.753
540.73	39.162
541.07	39.975
541.42	38.452
541.76	39.502
542.10	39.928
542.44	39.281
542.78	40.207
543.12	39.928
543.46	39.194
543.80	39.029
544.14	39.497
544.48	40.130
544.82	39.916
545.16	40.072
545.50	39.724
545.84	39.804
546.18	40.802
546.52	40.127
546.86	40.000
547.20	40.394
547.54	40.449
547.88	39.421
548.22	40.760
548.56	40.316
548.90	40.597
549.24	40.547
549.58	39.495
549.92	40.179
550.26	41.165
550.60	40.779
550.94	41.268
551.28	39.208
551.62	40.566
551.96	39.353
552.30	40.153
552.64	40.510
552.98	41.235
553.32	41.801
553.66	41.801
554.00	42.055
554.34	41.570
554.68	40.284
555.02	41.130
555.36	41.617
555.69	40.679
556.03	40.605
556.37	41.740
556.71	41.978
557.05	41.853
557.39	41.075
557.73	40.687
558.07	41.656
558.41	42.126
558.75	42.326
559.08	41.336
559.42	41.358
559.76	40.977
560.10	39.853
560.44	41.755
560.78	41.312
561.12	41.379
561.45	40.998
561.79	41.575
562.13	41.774
562.47	41.060
562.81	41.456
563.15	41.667
563.48	42.635
563.82	42.019
564.16	41.732
564.50	41.359
564.84	42.006
565.17	41.529
565.51	41.600
565.85	42.458
566.19	41.187
566.52	42.891
566.86	42.275
567.20	41.218
567.54	41.583
567.88	43.119
568.21	41.897
568.55	41.583
568.89	42.578
569.23	42.163
569.56	41.540
569.90	41.091
570.24	42.125
570.57	42.367
570.91	41.733
571.25	41.452
571.59	41.748
571.92	41.791
572.26	41.689
572.60	41.305
572.93	41.915
573.27	41.613
573.61	41.477
573.95	41.296
574.28	41.486
574.62	41.542
574.96	40.825
575.29	41.463
575.63	41.234
575.97	41.365
576.30	40.933
576.64	40.969
576.98	41.139
577.31	41.524
577.65	41.808
577.98	41.510
578.32	41.754
578.66	41.839
578.99	41.778
579.33	41.752
579.67	41.432
580.00	41.537
580.34	41.732
580.67	41.417
581.01	41.302
581.35	42.003
581.68	41.686
582.02	42.248
582.35	42.864
582.69	43.260
583.02	42.609
583.36	42.514
583.70	41.809
584.03	41.589
584.37	41.718
584.70	41.222
585.04	41.386
585.37	42.355
585.71	42.136
586.04	41.986
586.38	42.247
586.72	42.016
587.05	42.517
587.39	42.982
587.72	43.589
588.06	42.650
588.39	42.694
588.73	41.720
589.06	42.607
589.40	43.792
589.73	42.898
590.07	42.905
590.40	42.157
590.73	43.195
591.07	43.299
591.40	42.729
591.74	42.925
592.07	42.753
592.41	42.863
592.74	42.918
593.08	44.204
593.41	43.920
593.75	44.425
594.08	45.471
594.41	44.071
594.75	43.175
595.08	43.035
595.42	43.636
595.75	43.849
596.09	43.883
596.42	43.389
596.75	43.805
597.09	43.758
597.42	43.226
597.75	43.473
598.09	43.929
598.42	44.190
598.76	43.408
599.09	44.429
599.42	43.044
599.76	43.282
600.09	44.144
600.42	43.644
600.76	44.089
601.09	43.843
601.42	43.392
601.76	44.034
602.09	42.888
602.42	42.893
602.76	43.173
603.09	43.833
603.42	44.509
603.76	44.221
604.09	44.642
604.42	44.073
604.76	44.787
605.09	44.396
605.42	44.378
605.75	44.000
606.09	44.457
606.42	43.415
606.75	43.891
607.09	43.356
607.42	44.085
607.75	44.431
608.08	45.067
608.42	44.297
608.75	43.947
609.08	44.270
609.41	44.817
609.75	45.045
610.08	44.811
610.41	45.115
610.74	44.622
611.07	45.337
611.41	45.067
611.74	44.896
612.07	44.881
612.40	44.439
612.73	45.428
613.07	44.645
613.40	44.947
613.73	45.065
614.06	45.535
614.39	44.606
614.72	44.833
615.06	45.332
615.39	44.708
615.72	45.308
616.05	45.168
616.38	46.216
616.71	46.499
617.05	45.367
617.38	45.532
617.71	45.356
618.04	45.926
618.37	45.519
618.70	46.437
619.03	46.356
619.36	45.438
619.69	45.291
620.03	46.077
620.36	46.074
620.69	45.836
621.02	46.194
621.35	48.694
621.68	46.999
622.01	45.765
622.34	46.513
622.67	45.911
623.00	46.559
623.33	47.711
623.66	46.757
623.99	45.688
624.32	46.784
624.65	46.203
624.99	47.204
625.32	46.636
625.65	47.943
625.98	44.881
626.31	46.563
626.64	46.960
626.97	45.536
627.30	46.773
627.63	46.662
627.96	47.973
628.29	47.549
628.62	47.859
628.95	47.415
629.28	46.219
629.61	47.727
629.94	46.360
630.26	46.864
630.59	46.373
630.92	46.667
631.25	47.406
631.58	48.682
631.91	49.203
632.24	48.799
632.57	47.723
632.90	47.342
633.23	49.694
633.56	46.837
633.89	47.624
634.22	49.168
634.55	49.269
634.88	50.108
635.20	50.484
635.53	48.814
635.86	48.429
636.19	47.084
636.52	49.473
636.85	48.110
637.18	49.064
637.51	49.355
637.83	48.726
638.16	49.539
638.49	48.944
638.82	48.929
639.15	48.568
639.48	49.423
639.81	48.614
640.13	49.352
640.46	46.424
640.79	47.304
641.12	50.311
641.45	49.435
641.77	51.348
642.10	49.213
642.43	50.000
642.76	47.019
643.09	48.356
643.41	48.179
643.74	50.759
644.07	48.966
644.40	49.646
644.73	50.073
645.05	50.808
645.38	48.921
645.71	49.853
646.04	49.498
646.36	49.489
646.69	51.074
647.02	50.153
647.35	50.534
647.67	51.047
648.00	50.637
648.33	50.000
648.66	49.643
648.98	48.571
649.31	49.797
649.64	49.535
649.96	49.337
650.29	49.374
650.62	49.505
650.94	49.249
651.27	48.653
651.60	47.222
651.92	49.392
652.25	48.046
652.58	47.730
652.90	46.512
653.23	47.606
653.56	49.358
653.88	51.124
654.21	50.141
654.54	46.387
654.86	50.992
655.19	48.181
655.52	51.955
655.84	50.969
656.17	59.267
656.49	81.530
656.82	86.774
657.15	67.399
657.47	50.700
657.80	36.718
658.13	28.199
658.45	35.905
658.78	43.270
659.10	40.890
659.43	39.856
659.75	39.400
660.08	37.703
660.41	40.447
660.73	40.935
661.06	44.493
661.38	46.093
661.71	46.207
662.03	48.325
662.36	47.943
662.68	48.405
663.01	46.195
663.33	49.716
663.66	50.000
663.98	48.654
664.31	51.782
664.63	46.050
664.96	49.728
665.28	48.094
665.61	47.203
665.93	50.000
666.26	50.717
666.58	48.339
666.91	51.028
667.23	50.476
667.56	51.085
667.88	51.000
668.21	45.703
668.53	44.595
668.86	48.134
669.18	48.473
669.50	49.901
669.83	46.800
670.15	48.031
670.48	51.587
670.80	45.889
671.13	47.826
671.45	50.394
671.77	51.412
672.10	46.000
672.42	50.809
672.75	48.080
673.07	47.463
673.39	46.071
673.72	47.987
674.04	49.138
674.37	49.553
674.69	51.675
675.01	50.286
675.34	48.473
675.66	44.569
675.98	50.560
676.31	48.828
676.63	49.430
676.95	47.510
677.28	48.387
677.60	50.394
677.92	48.560
678.25	48.446
678.57	49.110
678.89	50.683
679.22	47.735
679.54	47.179
679.86	46.102
680.18	47.761
680.51	48.742
680.83	48.282
681.15	47.759
681.48	51.813
681.80	48.359
682.12	50.000
682.44	46.411
682.77	49.468
683.09	45.265
683.41	47.481
683.73	50.095
684.06	47.786
684.38	49.374
684.70	48.294
685.02	49.570
685.34	48.752
685.67	46.845
685.99	48.006
686.31	46.076
686.63	48.341
686.96	47.319
687.28	46.743
687.60	45.118
687.92	44.534
688.24	46.244
688.56	44.483
688.89	47.368
689.21	50.294
689.53	46.471
689.85	47.140
690.17	47.222
690.49	48.207
690.82	48.911
691.14	45.951
691.46	49.331
691.78	48.803
692.10	48.624
692.42	44.286
692.74	47.550
693.06	44.074
693.39	47.628
693.71	46.805
694.03	48.327
694.35	46.667
694.67	48.871
694.99	45.106
695.31	50.552
695.63	45.022
695.95	46.377
696.27	47.692
696.59	46.239
696.91	46.847
697.23	50.110
697.56	47.454
697.88	49.242
698.20	47.834
698.52	48.295
698.84	48.441
699.16	47.959
699.48	43.933
699.80	46.170
700.12	47.380
700.44	41.935
700.76	47.506
701.08	47.700
701.40	45.337
701.72	42.040
702.04	47.059
702.36	48.429
702.68	46.455
703.00	44.988
703.32	45.567
703.64	47.433
703.96	44.391
704.28	44.226
704.60	47.595
704.91	44.898
705.23	50.959
705.55	42.340
705.87	49.394
706.19	49.080
706.51	46.084
706.83	47.550
707.15	43.651
707.47	41.822
707.79	47.817
708.11	41.525
708.43	45.806
708.74	42.411
709.06	45.708
709.38	48.122
709.70	46.154
710.02	44.703
710.34	48.936
710.66	42.458
710.98	47.814
711.29	44.780
711.61	46.893
711.93	46.154
712.25	44.054
712.57	46.018
712.89	48.529
713.20	43.787
713.52	48.266
713.84	42.897
714.16	44.474
714.48	44.330
714.80	47.273
715.11	42.257
715.43	45.358
715.75	44.474
716.07	44.475
716.39	44.809
716.70	41.265
717.02	46.557
717.34	45.645
717.66	46.309
717.97	35.959
718.29	46.048
718.61	47.368
718.93	49.838
719.24	48.137
719.56	44.172
719.88	41.141
720.20	43.871
720.51	44.099
720.83	42.500
721.15	44.079
721.46	43.836
721.78	46.000
722.10	45.307
722.42	49.329
722.73	43.226
723.05	44.912
723.37	42.361
723.68	45.878
724.00	44.404
724.32	40.141
724.63	45.804
724.95	42.553
725.27	39.373
725.58	43.816
725.90	46.552
726.22	38.245
726.53	49.675
726.85	44.340
727.16	39.577
727.48	46.483
727.80	43.709
728.11	45.230
728.43	44.781
728.74	41.806
729.06	43.046
729.38	40.909
729.69	44.631
730.01	45.536
730.32	41.515
730.64	46.541
730.96	43.789
731.27	39.385
731.59	41.209
731.90	40.519
732.22	41.406
732.53	39.227
732.85	40.286
733.16	43.988
733.48	42.378
733.80	41.504
734.11	40.171
734.43	45.405
734.74	46.329
735.06	41.709
735.37	42.162
735.69	42.432
736.00	41.243
736.32	40.701
736.63	42.222
736.95	40.230
737.26	44.848
737.58	45.758
737.89	42.059
738.21	42.202
738.52	40.000
738.83	43.686
739.15	40.426
739.46	45.238
739.78	42.945
740.09	42.407
740.41	42.566
740.72	42.333
741.04	44.660
741.35	43.860
741.66	38.039
741.98	39.754
742.29	37.657
742.61	45.614
742.92	39.615
743.23	40.072
743.55	42.636
743.86	38.800
744.18	34.298
744.49	35.021
744.80	41.564
745.12	45.148
745.43	41.870
745.74	42.672
746.06	41.525
746.37	41.772
746.68	45.122
747.00	42.083
747.31	47.639
747.62	40.769
747.94	40.891
748.25	40.562
748.56	38.776
748.88	36.325
749.19	41.379
749.50	37.229
749.82	47.791
750.13	41.637
750.44	36.000
750.75	40.923
751.07	40.308
751.38	40.063
751.69	44.409
752.01	38.511
752.32	44.771
752.63	41.837
752.94	40.830
753.26	34.572
753.57	38.519
753.88	39.326
754.19	40.836
754.51	39.228
754.82	40.193
755.13	41.311
755.44	41.980
755.75	40.132
756.07	41.791
756.38	39.937
756.69	43.976
757.00	37.119
757.31	42.623
757.63	38.363
757.94	39.671
758.25	40.858
758.56	39.869
758.87	38.182
759.18	39.467
759.50	43.626
759.81	39.776
760.12	39.353
760.43	39.583
760.74	39.901
761.05	40.750
761.36	39.759
761.67	39.848
761.99	36.757
762.30	38.110
762.61	34.983
762.92	38.806
763.23	38.202
763.54	41.727
763.85	41.237
764.16	41.077
764.47	44.014
764.78	38.019
765.10	41.056
765.41	42.308
765.72	38.095
766.03	42.373
766.34	37.304
766.65	34.495
766.96	36.255
767.27	38.249
767.58	29.851
767.89	39.904
768.20	40.845
768.51	35.648
768.82	33.333
769.13	40.909
769.44	33.846
769.75	39.711
770.06	40.385
770.37	40.551
770.68	33.191
770.99	34.413
771.30	44.074
771.61	40.304
771.92	35.556
772.23	36.437
772.54	34.259
772.85	38.710
773.16	37.143
773.47	28.571
773.78	31.892
774.09	38.068
774.39	34.000
774.70	30.601
775.01	31.707
775.32	33.529
775.63	34.356
775.94	24.204
776.25	30.323
776.56	35.256
776.87	31.293
777.18	32.414
777.48	30.070
777.79	28.378
778.10	29.412
778.41	31.944
778.72	24.828
779.03	32.099
779.34	32.727
779.65	31.606
779.95	33.889
780.26	34.091
780.57	30.968
780.88	34.783
781.19	31.613
781.50	39.412
781.80	39.785
782.11	39.683
782.42	27.778
782.73	27.545
783.04	35.754
783.34	28.485
783.65	27.451
783.96	32.919
784.27	37.500
784.57	31.126
784.88	29.286
785.19	31.496
785.50	33.071
785.81	32.331
786.11	27.692
786.42	21.583
786.73	26.619
787.04	27.820
787.34	31.148
787.65	31.200
787.96	37.313
788.26	33.566
788.57	40.559
788.88	23.026
789.19	31.373
789.49	25.342
789.80	36.879
790.11	29.921
790.41	23.437
790.72	16.949
791.03	15.534
791.33	30.435
791.64	31.579
791.95	24.107
792.25	22.857
792.56	25.000
792.87	16.667
793.17	22.321
793.48	16.667
793.79	26.506
794.09	24.771
794.40	34.862
794.70	27.891
795.01	24.675
795.32	28.767
795.62	28.169
795.93	28.030
796.23	28.689
796.54	19.643
796.85	24.468
797.15	21.739
797.46	8.219
797.76	17.500
798.07	18.478
798.37	16.495
798.68	22.078
798.99	16.092
799.29	25.843
799.60	19.149
799.90	18.072
800.21	12.308
800.51	4.478
800.82	23.529
801.12	1.370
801.43	11.765
801.73	23.729
802.04	1.515
802.34	5.000
802.65	1.695
802.95	10.448
803.26	0.000
803.56	5.479
803.87	15.714
804.17	15.068
804.48	-17.544
804.78	0.000
805.09	-8.621
805.39	10.811
805.70	5.634
806.00	26.829
806.30	16.867
806.61	10.959
806.91	16.346
807.22	17.778
807.52	4.598
807.83	16.667
808.13	21.687
808.43	4.494
808.74	12.500
809.04	8.824
809.35	18.667
809.65	27.143
809.95	16.438
810.26	-8.772
810.56	3.448
810.86	19.118
811.17	0.000
811.47	1.639
811.77	-24.444
812.08	5.085
812.38	-1.667
812.69	13.793
812.99	3.774
813.29	-17.949
813.59	-2.000
813.90	1.754
814.20	1.818
814.50	22.535
814.81	23.077
815.11	11.475
815.41	2.985
815.72	6.897
816.02	3.571
816.32	-8.889
816.62	13.636
816.93	0.000
817.23	-11.111
817.53	-21.277
817.84	14.286
818.14	-11.765
818.44	6.122
818.74	-17.778
819.04	-30.769
819.35	-20.000
819.65	-53.846
819.95	-18.868
820.25	2.222
820.56	-14.286
820.86	-12.500
821.16	-15.385
821.46	-6.977
821.76	0.000
822.07	7.143
822.37	-13.043
822.67	-17.021
822.97	-43.243
823.27	-37.500
823.57	-14.286
823.88	-13.333
824.18	-12.500
824.48	-66.667
824.78	-60.000
825.08	-33.333
825.38	2.222
825.69	0.000
825.99	-11.111
826.29	-37.143
826.59	2.564
826.89	-32.558
827.19	-12.000
827.49	-20.588
827.79	2.083
828.09	-24.324
828.39	-40.000
828.70	-21.951
829.00	-20.930
829.30	-32.143
829.60	-14.706
829.90	-17.391
830.20	-17.143
830.50	-20.690
830.80	-50.000
831.10	-88.462
831.40	-44.118
831.70	-52.381
832.00	-3.226
832.30	-135.294
832.60	-75.000
832.90	-230.769
833.20	-57.895
833.50	-85.000
833.80	-42.105
834.10	-100.000
834.40	2.778
834.70	-12.500
835.00	-57.143
835.30	-17.647
835.60	-26.667
835.90	-48.000
836.20	-77.273
836.50	-20.000
836.80	-42.424
837.10	-70.370
837.40	-70.370
837.70	-118.750
838.00	25.000
838.30	-43.478
838.60	-34.483
838.90	-142.857
839.19	-165.217
839.49	-241.667
839.79	-82.609
840.09	-87.500
840.39	-60.000
840.69	-32.258
840.99	-89.286
841.29	-20.000
841.59	-63.158
841.88	-35.897
842.18	-61.538
842.48	-200.000
842.78	-115.000
843.08	-10.000
843.38	-22.581
843.68	-150.000
843.97	-32.353
844.27	-106.250
844.57	-84.211
844.87	-200.000
845.17	-153.333
845.47	-47.619
845.76	-42.857
846.06	-111.111
846.36	-105.882
846.66	-42.308
846.96	-140.000
847.25	-129.412
847.55	-26.087
847.85	-115.000
848.15	-64.706
848.44	-163.636
848.74	-61.905
849.04	-54.167
849.34	-93.750
849.63	-52.174
849.93	1150.000
850.23	-86.667
850.53	-26.923
850.82	-181.818
851.12	-45.455
851.42	-72.727
851.71	-138.462
852.01	-85.000
852.31	-61.538
852.61	-94.737
852.90	-166.667
853.20	-111.111
853.50	-255.556
853.79	-90.476
854.09	-100.000
854.39	-208.333
854.68	-48.387
854.98	-92.308
855.28	-66.667
855.57	-32.143
855.87	-40.000
856.17	-59.091
856.46	-51.852
856.76	-50.000
857.05	-69.565
857.35	-79.167
857.65	-153.846
857.94	-61.905
858.24	-14.815
858.53	-65.217
858.83	-64.706
859.13	-88.235
859.42	-76.471
859.72	-107.143
860.01	-75.000
860.31	-266.667
860.60	-170.000
860.90	-126.667
861.20	-116.667
861.49	-192.308
861.79	-43.333
862.08	-184.615
862.38	-43.750
862.67	-35.294
862.97	-93.750
863.26	-255.556
863.56	-240.000
863.85	-109.091
864.15	-105.556
864.44	-566.667
864.74	-128.571
865.03	-106.250
865.33	-220.000
865.62	-48.387
865.92	-72.727
866.21	-39.130
866.51	-107.143
866.80	-480.000
867.10	-208.333
867.39	-191.667
867.69	3400.000
867.98	-228.571
868.27	-100.000
868.57	-3200.000
868.86	-250.000
869.16	-85.714
869.45	-79.167
869.75	-118.182
870.04	-300.000
870.33	-75.000
870.63	-385.714
870.92	-575.000
871.22	-362.500
871.51	-163.636
871.80	-833.333
872.10	-1300.000
>>>>>End Processed Spectral Data<<<<<
