SpectraSuite Data File
++++++++++++++++++++++++++++++++++++
Date: Thu May 14 15:17:54 PDT 2015
User: schluterlab
Dark Spectrum Present: Yes
Reference Spectrum Present: Yes
Number of Sampled Component Spectra: 1
Spectrometers: USB2E3373
Integration Time (usec): 3000 (USB2E3373)
Spectra Averaged: 3 (USB2E3373)
Boxcar Smoothing: 0 (USB2E3373)
Correct for Electrical Dark: No (USB2E3373)
Strobe/Lamp Enabled: No (USB2E3373)
Correct for Detector Non-linearity: No (USB2E3373)
Correct for Stray Light: No (USB2E3373)
Number of Pixels in Processed Spectrum: 2048
>>>>>Begin Processed Spectral Data<<<<<
178.53	0.000
178.91	385.714
179.29	-4600.000
179.67	-3700.000
180.04	421.429
180.42	380.000
180.80	1000.000
181.18	-3900.000
181.56	-3600.000
181.94	975.000
182.31	-725.000
182.69	1200.000
183.07	-2050.000
183.45	1175.000
183.83	-566.667
184.20	-1233.333
184.58	4000.000
184.96	-1075.000
185.34	-500.000
185.72	-560.000
186.09	544.444
186.47	2000.000
186.85	940.000
187.23	-477.778
187.61	-4900.000
187.98	840.000
188.36	950.000
188.74	-975.000
189.12	-1100.000
189.49	-187.500
189.87	-525.000
190.25	-333.333
190.63	-840.000
191.00	-444.444
191.38	0.000
191.76	-900.000
192.14	-633.333
192.51	2000.000
192.89	-466.667
193.27	0.000
193.65	-500.000
194.02	-4500.000
194.40	-471.429
194.78	614.286
195.15	0.000
195.53	-236.364
195.91	0.000
196.29	-1125.000
196.66	-246.154
197.04	-4700.000
197.42	-528.571
197.79	-1800.000
198.17	-487.500
198.55	-485.714
198.92	-388.889
199.30	-512.500
199.68	-254.545
200.05	-214.286
200.43	-2200.000
200.81	685.714
201.18	0.000
201.56	488.889
201.94	0.000
202.31	1400.000
202.69	-411.111
203.07	4200.000
203.44	-400.000
203.82	-1125.000
204.19	-341.667
204.57	-666.667
204.95	-487.500
205.32	-3900.000
205.70	1100.000
206.08	-716.667
206.45	-516.667
206.83	920.000
207.20	-583.333
207.58	-780.000
207.96	-716.667
208.33	-683.333
208.71	358.333
209.08	-500.000
209.46	0.000
209.84	733.333
210.21	2000.000
210.59	2100.000
210.96	1600.000
211.34	-1125.000
211.71	-525.000
212.09	-3600.000
212.46	0.000
212.84	2150.000
213.22	-860.000
213.59	-1075.000
213.97	-370.000
214.34	-1400.000
214.72	650.000
215.09	-925.000
215.47	0.000
215.84	657.143
216.22	1900.000
216.59	-780.000
216.97	-800.000
217.34	-900.000
217.72	-400.000
218.09	-950.000
218.47	-1025.000
218.84	0.000
219.22	720.000
219.59	-235.294
219.97	-210.000
220.34	2250.000
220.72	-488.889
221.09	-238.462
221.47	-1166.667
221.84	-430.000
222.22	-585.714
222.59	0.000
222.97	-400.000
223.34	-880.000
223.72	-3600.000
224.09	-950.000
224.46	-1125.000
224.84	-440.000
225.21	-571.429
225.59	-825.000
225.96	-975.000
226.34	-119.231
226.71	850.000
227.08	-2350.000
227.46	-260.000
227.83	-975.000
228.21	-173.684
228.58	475.000
228.95	1900.000
229.33	-291.667
229.70	-370.000
230.08	-205.263
230.45	470.000
230.82	-1266.667
231.20	-271.429
231.57	-266.667
231.95	-372.727
232.32	-345.455
232.69	-150.000
233.07	-1175.000
233.44	-205.882
233.81	-430.000
234.19	-216.667
234.56	-150.000
234.93	-110.345
235.31	-210.526
235.68	-205.556
236.05	-205.000
236.43	-111.538
236.80	-104.000
237.17	-174.074
237.55	-96.970
237.92	-420.000
238.29	-103.226
238.67	-56.818
239.04	-102.778
239.41	-104.762
239.79	-82.609
240.16	-66.667
240.53	-78.261
240.91	-72.549
241.28	-65.574
241.65	-38.806
242.02	-43.243
242.40	-50.769
242.77	-46.667
243.14	-30.488
243.51	-55.263
243.89	-53.846
244.26	-26.733
244.63	-24.510
245.00	-23.364
245.38	-18.421
245.75	-44.248
246.12	-23.016
246.49	-23.256
246.87	-17.857
247.24	-16.556
247.61	-8.553
247.98	-16.107
248.36	-20.370
248.73	-13.497
249.10	-8.743
249.47	-9.453
249.84	-6.283
250.22	-14.508
250.59	-14.444
250.96	-3.636
251.33	-11.224
251.70	-2.564
252.08	-5.417
252.45	-5.738
252.82	-3.719
253.19	-6.641
253.56	-5.703
253.94	-7.692
254.31	-4.167
254.68	-2.098
255.05	-0.977
255.42	-3.741
255.79	-6.472
256.16	-3.974
256.54	-3.974
256.91	-3.607
257.28	-4.918
257.65	-6.051
258.02	-5.605
258.39	-1.709
258.76	-0.917
259.14	-0.287
259.51	-1.729
259.88	-3.116
260.25	-2.778
260.62	-1.918
260.99	0.546
261.36	1.609
261.73	-4.775
262.10	0.549
262.47	-0.268
262.85	1.768
263.22	-4.675
263.59	-4.211
263.96	1.790
264.33	-1.535
264.70	0.741
265.07	3.580
265.44	3.401
265.81	0.231
266.18	1.814
266.55	1.116
266.92	-3.189
267.29	0.656
267.66	1.109
268.03	0.873
268.40	1.044
268.77	-1.367
269.14	1.762
269.51	1.316
269.88	2.664
270.25	0.604
270.62	1.477
270.99	3.434
271.36	1.188
271.73	1.179
272.10	4.008
272.47	0.000
272.84	1.406
273.21	1.403
273.58	2.621
273.95	1.154
274.32	0.190
274.69	1.547
275.06	4.396
275.43	0.924
275.80	2.646
276.17	1.296
276.54	0.933
276.91	0.537
277.28	1.447
277.65	2.334
278.02	2.757
278.39	1.087
278.76	2.636
279.13	1.596
279.50	4.296
279.87	3.578
280.23	1.585
280.60	3.220
280.97	2.796
281.34	1.528
281.71	5.753
282.08	3.488
282.45	1.964
282.82	1.884
283.19	0.646
283.56	1.967
283.92	5.856
284.29	4.897
284.66	3.612
285.03	1.763
285.40	3.400
285.77	3.251
286.14	2.443
286.51	3.501
286.87	1.422
287.24	2.711
287.61	1.943
287.98	3.776
288.35	3.698
288.72	1.775
289.08	2.928
289.45	1.627
289.82	3.464
290.19	2.586
290.56	3.521
290.93	4.565
291.29	3.306
291.66	2.617
292.03	1.900
292.40	4.354
292.77	3.235
293.13	3.924
293.50	1.708
293.87	1.879
294.24	5.733
294.60	2.276
294.97	0.940
295.34	3.585
295.71	1.261
296.08	0.517
296.44	2.941
296.81	2.923
297.18	2.615
297.55	2.358
297.91	2.966
298.28	3.081
298.65	2.616
299.02	2.715
299.38	3.661
299.75	3.154
300.12	3.009
300.48	1.959
300.85	3.262
301.22	3.803
301.59	1.826
301.95	3.164
302.32	4.111
302.69	2.191
303.05	3.808
303.42	2.882
303.79	2.812
304.15	3.891
304.52	3.594
304.89	2.723
305.25	3.934
305.62	2.194
305.99	3.814
306.35	2.923
306.72	4.240
307.09	3.959
307.45	3.520
307.82	3.935
308.19	3.027
308.55	4.147
308.92	3.116
309.29	4.502
309.65	3.509
310.02	3.465
310.38	4.232
310.75	3.981
311.12	5.465
311.48	3.030
311.85	3.039
312.22	5.218
312.58	4.977
312.95	4.302
313.31	4.697
313.68	5.403
314.05	5.962
314.41	6.102
314.78	4.632
315.14	5.535
315.51	6.187
315.87	5.941
316.24	7.945
316.61	6.927
316.97	6.516
317.34	5.820
317.70	7.249
318.07	6.878
318.43	8.418
318.80	8.110
319.16	7.468
319.53	7.712
319.89	7.187
320.26	8.452
320.62	8.954
320.99	8.680
321.35	8.133
321.72	10.605
322.08	8.837
322.45	10.208
322.81	10.469
323.18	10.177
323.54	11.121
323.91	11.388
324.27	10.671
324.64	11.503
325.00	11.940
325.37	12.449
325.73	12.231
326.10	14.112
326.46	12.866
326.83	14.331
327.19	12.520
327.56	13.913
327.92	13.375
328.29	13.387
328.65	13.317
329.01	13.367
329.38	15.164
329.74	15.582
330.11	15.068
330.47	15.501
330.84	14.901
331.20	15.833
331.56	16.118
331.93	16.318
332.29	17.034
332.66	17.276
333.02	16.080
333.38	16.779
333.75	17.508
334.11	16.347
334.48	17.739
334.84	19.116
335.20	16.709
335.57	18.044
335.93	17.107
336.29	16.722
336.66	17.746
337.02	16.973
337.38	18.112
337.75	17.686
338.11	18.923
338.47	19.107
338.84	17.766
339.20	16.007
339.56	19.357
339.93	18.391
340.29	19.082
340.65	18.167
341.02	19.074
341.38	19.159
341.74	18.725
342.11	19.147
342.47	17.951
342.83	19.082
343.20	20.033
343.56	19.086
343.92	19.696
344.28	19.453
344.65	20.078
345.01	19.033
345.37	18.585
345.73	17.849
346.10	19.345
346.46	19.937
346.82	18.577
347.19	19.481
347.55	20.865
347.91	19.762
348.27	19.499
348.63	19.269
349.00	18.643
349.36	21.041
349.72	19.792
350.08	19.539
350.45	19.163
350.81	20.211
351.17	19.549
351.53	20.015
351.89	19.970
352.26	20.522
352.62	18.507
352.98	19.924
353.34	20.687
353.70	19.569
354.07	20.045
354.43	21.412
354.79	20.269
355.15	20.162
355.51	20.980
355.87	20.269
356.24	20.989
356.60	19.956
356.96	20.756
357.32	20.743
357.68	20.205
358.04	20.584
358.40	20.373
358.77	20.687
359.13	20.532
359.49	20.372
359.85	21.247
360.21	20.588
360.57	21.752
360.93	20.240
361.29	21.544
361.66	20.782
362.02	22.338
362.38	21.293
362.74	21.858
363.10	22.627
363.46	21.953
363.82	21.804
364.18	22.308
364.54	22.199
364.90	23.010
365.26	21.172
365.62	21.733
365.98	21.443
366.35	22.013
366.71	22.721
367.07	22.463
367.43	22.653
367.79	23.756
368.15	23.813
368.51	24.087
368.87	22.926
369.23	22.867
369.59	22.609
369.95	24.138
370.31	22.890
370.67	23.177
371.03	23.961
371.39	22.834
371.75	23.659
372.11	24.051
372.47	23.290
372.83	23.429
373.19	24.016
373.55	23.306
373.91	24.063
374.27	24.386
374.63	24.696
374.99	24.867
375.35	24.740
375.71	24.839
376.07	25.500
376.42	24.937
376.78	26.227
377.14	25.639
377.50	25.933
377.86	25.985
378.22	25.928
378.58	25.743
378.94	25.822
379.30	26.186
379.66	26.808
380.02	26.313
380.38	27.880
380.74	27.775
381.09	26.597
381.45	26.761
381.81	27.635
382.17	28.385
382.53	28.596
382.89	27.088
383.25	27.726
383.61	28.819
383.97	28.033
384.32	28.050
384.68	27.842
385.04	29.497
385.40	29.876
385.76	30.657
386.12	28.486
386.48	29.941
386.83	29.678
387.19	29.316
387.55	29.754
387.91	29.852
388.27	30.196
388.62	29.897
388.98	29.554
389.34	31.173
389.70	31.203
390.06	31.261
390.42	30.542
390.77	31.186
391.13	30.516
391.49	31.522
391.85	31.515
392.20	31.317
392.56	31.010
392.92	31.625
393.28	31.620
393.64	32.291
393.99	33.643
394.35	32.185
394.71	32.695
395.07	32.036
395.42	31.639
395.78	33.333
396.14	33.155
396.50	32.838
396.85	32.021
397.21	31.893
397.57	33.510
397.92	33.562
398.28	32.156
398.64	31.979
399.00	32.304
399.35	32.147
399.71	33.207
400.07	33.184
400.42	33.411
400.78	33.333
401.14	33.637
401.49	33.826
401.85	33.779
402.21	33.893
402.57	33.920
402.92	33.983
403.28	33.138
403.63	34.368
403.99	32.898
404.35	33.030
404.70	33.428
405.06	32.554
405.42	34.426
405.77	33.642
406.13	34.360
406.49	34.178
406.84	34.737
407.20	33.818
407.55	34.222
407.91	34.444
408.27	33.628
408.62	34.671
408.98	34.185
409.34	33.372
409.69	34.425
410.05	35.287
410.40	34.397
410.76	34.324
411.11	36.295
411.47	34.951
411.83	35.509
412.18	34.819
412.54	35.210
412.89	35.856
413.25	35.384
413.60	35.325
413.96	36.189
414.31	34.844
414.67	36.255
415.03	36.554
415.38	36.129
415.74	35.980
416.09	35.842
416.45	36.255
416.80	35.006
417.16	36.462
417.51	35.990
417.87	36.419
418.22	36.946
418.58	36.183
418.93	37.427
419.29	36.806
419.64	36.735
420.00	36.380
420.35	36.777
420.71	36.990
421.06	36.113
421.42	37.500
421.77	36.726
422.12	37.315
422.48	37.737
422.83	37.185
423.19	37.507
423.54	39.436
423.90	38.487
424.25	38.560
424.61	37.945
424.96	38.550
425.31	39.119
425.67	38.486
426.02	39.624
426.38	38.404
426.73	38.616
427.09	39.735
427.44	38.886
427.79	39.801
428.15	38.813
428.50	38.989
428.85	38.921
429.21	40.426
429.56	40.276
429.92	40.000
430.27	40.771
430.62	41.426
430.98	41.663
431.33	41.153
431.68	40.900
432.04	41.544
432.39	41.832
432.74	41.495
433.10	41.644
433.45	41.472
433.80	41.255
434.16	41.632
434.51	43.114
434.86	43.648
435.22	43.411
435.57	42.571
435.92	42.682
436.28	42.776
436.63	43.801
436.98	41.224
437.34	42.728
437.69	43.533
438.04	43.469
438.39	42.849
438.75	43.387
439.10	44.450
439.45	43.041
439.81	43.842
440.16	42.949
440.51	43.813
440.86	43.191
441.22	43.676
441.57	44.392
441.92	43.986
442.27	44.646
442.63	44.213
442.98	44.877
443.33	45.187
443.68	45.738
444.03	46.519
444.39	44.383
444.74	44.666
445.09	45.261
445.44	45.153
445.79	46.648
446.15	45.478
446.50	46.770
446.85	45.817
447.20	46.325
447.55	46.287
447.91	45.759
448.26	45.877
448.61	46.546
448.96	46.727
449.31	46.501
449.66	45.534
450.02	46.466
450.37	46.244
450.72	46.394
451.07	47.096
451.42	47.083
451.77	46.859
452.12	47.122
452.47	46.465
452.83	47.579
453.18	48.044
453.53	47.157
453.88	47.819
454.23	47.797
454.58	48.462
454.93	47.330
455.28	48.465
455.63	47.527
455.98	47.989
456.34	46.643
456.69	47.384
457.04	48.050
457.39	47.284
457.74	48.266
458.09	47.446
458.44	47.845
458.79	47.138
459.14	47.247
459.49	47.878
459.84	48.531
460.19	48.140
460.54	49.006
460.89	50.132
461.24	48.046
461.59	48.644
461.94	47.461
462.29	48.432
462.64	46.832
462.99	49.843
463.34	49.578
463.69	47.890
464.04	49.138
464.39	48.487
464.74	48.233
465.09	48.097
465.44	48.927
465.79	48.334
466.14	48.098
466.49	48.947
466.84	49.972
467.19	49.075
467.54	47.532
467.89	48.563
468.24	48.809
468.59	49.218
468.94	49.709
469.29	48.830
469.64	48.760
469.99	49.586
470.34	51.052
470.68	49.419
471.03	50.753
471.38	51.275
471.73	49.675
472.08	49.619
472.43	49.729
472.78	50.378
473.13	49.178
473.48	49.607
473.83	51.596
474.17	50.352
474.52	50.872
474.87	49.779
475.22	51.380
475.57	49.169
475.92	50.025
476.27	50.479
476.61	49.792
476.96	49.739
477.31	49.505
477.66	52.413
478.01	50.076
478.36	50.648
478.70	51.921
479.05	50.818
479.40	51.086
479.75	50.528
480.10	51.634
480.45	50.137
480.79	50.385
481.14	50.368
481.49	51.386
481.84	50.348
482.19	50.323
482.53	51.640
482.88	51.883
483.23	50.912
483.58	50.655
483.92	49.911
484.27	50.762
484.62	50.619
484.97	49.844
485.31	49.982
485.66	45.990
486.01	45.762
486.36	48.508
486.70	51.349
487.05	52.655
487.40	51.683
487.75	49.949
488.09	50.070
488.44	48.921
488.79	49.444
489.13	49.928
489.48	49.515
489.83	50.543
490.17	50.952
490.52	50.780
490.87	50.677
491.22	51.473
491.56	51.280
491.91	52.072
492.26	51.103
492.60	50.721
492.95	51.294
493.30	52.891
493.64	52.431
493.99	51.930
494.34	51.524
494.68	51.692
495.03	52.467
495.37	51.664
495.72	50.748
496.07	51.972
496.41	50.622
496.76	52.919
497.11	52.611
497.45	51.446
497.80	52.510
498.14	51.746
498.49	52.114
498.84	52.148
499.18	52.857
499.53	52.601
499.87	51.560
500.22	51.870
500.56	52.857
500.91	51.899
501.26	53.773
501.60	51.480
501.95	51.932
502.29	51.953
502.64	52.645
502.98	51.682
503.33	51.706
503.67	51.853
504.02	51.795
504.36	52.904
504.71	53.284
505.06	52.569
505.40	52.285
505.75	51.776
506.09	51.565
506.44	53.157
506.78	52.798
507.13	52.282
507.47	53.150
507.82	52.699
508.16	53.537
508.51	52.508
508.85	54.700
509.19	53.245
509.54	53.554
509.88	53.570
510.23	53.861
510.57	54.084
510.92	53.507
511.26	53.728
511.61	51.714
511.95	53.587
512.30	53.323
512.64	52.824
512.98	53.677
513.33	54.083
513.67	54.666
514.02	55.340
514.36	55.345
514.70	53.854
515.05	54.745
515.39	53.858
515.74	54.878
516.08	55.151
516.42	54.893
516.77	55.152
517.11	54.977
517.46	55.090
517.80	56.494
518.14	55.550
518.49	55.857
518.83	53.912
519.17	54.820
519.52	54.822
519.86	55.227
520.20	54.633
520.55	56.572
520.89	56.757
521.23	54.662
521.58	56.497
521.92	55.637
522.26	55.040
522.61	57.234
522.95	56.055
523.29	55.920
523.64	56.054
523.98	57.901
524.32	57.708
524.66	56.574
525.01	55.889
525.35	55.887
525.69	55.278
526.04	54.879
526.38	55.747
526.72	55.190
527.06	57.126
527.41	55.569
527.75	56.591
528.09	56.966
528.43	56.602
528.78	55.838
529.12	54.874
529.46	54.694
529.80	56.751
530.15	56.522
530.49	56.880
530.83	55.136
531.17	57.527
531.51	57.341
531.86	55.950
532.20	56.402
532.54	55.476
532.88	55.636
533.22	55.156
533.57	56.261
533.91	55.499
534.25	55.851
534.59	55.862
534.93	55.631
535.27	56.113
535.62	54.974
535.96	56.304
536.30	55.758
536.64	56.396
536.98	57.257
537.32	55.988
537.66	56.394
538.01	54.985
538.35	56.212
538.69	54.988
539.03	58.185
539.37	55.241
539.71	56.577
540.05	57.074
540.39	55.990
540.73	55.495
541.07	56.101
541.42	54.696
541.76	54.330
542.10	55.489
542.44	55.786
542.78	56.752
543.12	55.483
543.46	55.739
543.80	54.436
544.14	55.177
544.48	55.615
544.82	56.254
545.16	55.933
545.50	55.362
545.84	55.052
546.18	56.790
546.52	57.006
546.86	55.597
547.20	55.789
547.54	55.618
547.88	54.852
548.22	55.789
548.56	55.588
548.90	55.821
549.24	56.717
549.58	57.413
549.92	57.398
550.26	56.634
550.60	56.477
550.94	55.627
551.28	55.974
551.62	58.895
551.96	55.599
552.30	57.553
552.64	56.067
552.98	56.457
553.32	58.392
553.66	58.585
554.00	56.557
554.34	56.885
554.68	55.068
555.02	56.833
555.36	57.594
555.69	56.823
556.03	56.999
556.37	57.009
556.71	57.451
557.05	56.613
557.39	57.266
557.73	57.133
558.07	57.881
558.41	58.073
558.75	57.471
559.08	57.342
559.42	56.790
559.76	56.784
560.10	56.263
560.44	56.992
560.78	57.000
561.12	56.712
561.45	57.056
561.79	57.631
562.13	57.055
562.47	56.473
562.81	58.608
563.15	57.260
563.48	57.924
563.82	56.590
564.16	56.632
564.50	56.675
564.84	55.870
565.17	54.941
565.51	55.351
565.85	56.888
566.19	56.106
566.52	57.753
566.86	56.933
567.20	56.770
567.54	55.868
567.88	56.269
568.21	55.484
568.55	55.492
568.89	54.698
569.23	54.288
569.56	54.084
569.90	53.849
570.24	53.727
570.57	52.534
570.91	52.756
571.25	51.577
571.59	51.183
571.92	51.093
572.26	51.588
572.60	51.979
572.93	51.517
573.27	51.278
573.61	51.006
573.95	50.109
574.28	50.759
574.62	50.477
574.96	49.912
575.29	49.835
575.63	49.757
575.97	50.970
576.30	50.012
576.64	49.869
576.98	50.137
577.31	50.329
577.65	49.856
577.98	49.586
578.32	49.568
578.66	50.188
578.99	49.396
579.33	50.156
579.67	49.660
580.00	49.247
580.34	49.236
580.67	49.139
581.01	48.615
581.35	49.640
581.68	49.317
582.02	49.300
582.35	50.329
582.69	50.718
583.02	50.402
583.36	49.969
583.70	50.216
584.03	49.532
584.37	50.185
584.70	49.976
585.04	48.849
585.37	49.271
585.71	49.795
586.04	50.044
586.38	50.279
586.72	49.987
587.05	51.266
587.39	50.885
587.72	51.100
588.06	50.774
588.39	50.685
588.73	50.794
589.06	50.705
589.40	52.274
589.73	51.671
590.07	51.525
590.40	52.164
590.73	51.467
591.07	52.122
591.40	52.177
591.74	52.146
592.07	53.959
592.41	52.090
592.74	51.757
593.08	50.987
593.41	52.464
593.75	52.328
594.08	51.833
594.41	52.596
594.75	51.910
595.08	52.423
595.42	52.045
595.75	51.760
596.09	52.016
596.42	52.669
596.75	52.258
597.09	53.778
597.42	52.642
597.75	51.980
598.09	52.024
598.42	53.760
598.76	51.930
599.09	51.371
599.42	51.760
599.76	51.403
600.09	51.652
600.42	52.019
600.76	52.246
601.09	51.344
601.42	51.493
601.76	51.931
602.09	51.823
602.42	51.836
602.76	52.140
603.09	52.974
603.42	53.071
603.76	51.621
604.09	52.449
604.42	52.917
604.76	51.294
605.09	52.054
605.42	52.352
605.75	53.192
606.09	52.930
606.42	52.280
606.75	52.099
607.09	51.536
607.42	52.524
607.75	53.419
608.08	52.249
608.42	52.197
608.75	53.317
609.08	52.716
609.41	53.419
609.75	53.304
610.08	53.254
610.41	52.464
610.74	52.563
611.07	53.952
611.41	53.587
611.74	54.642
612.07	54.465
612.40	53.755
612.73	54.425
613.07	54.768
613.40	53.946
613.73	53.394
614.06	53.140
614.39	53.693
614.72	54.197
615.06	52.647
615.39	53.842
615.72	54.360
616.05	55.270
616.38	55.298
616.71	55.068
617.05	53.408
617.38	53.879
617.71	54.320
618.04	55.424
618.37	55.519
618.70	54.638
619.03	55.735
619.36	56.535
619.69	57.015
620.03	56.183
620.36	56.258
620.69	56.570
621.02	56.693
621.35	59.289
621.68	58.496
622.01	58.007
622.34	57.880
622.67	58.832
623.00	56.613
623.33	58.328
623.66	57.263
623.99	57.011
624.32	58.415
624.65	56.757
624.99	58.583
625.32	56.564
625.65	59.407
625.98	57.627
626.31	58.044
626.64	58.681
626.97	58.740
627.30	58.618
627.63	59.715
627.96	60.435
628.29	59.144
628.62	60.285
628.95	60.911
629.28	60.918
629.61	60.522
629.94	60.837
630.26	59.576
630.59	60.622
630.92	59.481
631.25	61.807
631.58	63.371
631.91	62.887
632.24	62.056
632.57	60.721
632.90	65.095
633.23	62.755
633.56	62.041
633.89	62.500
634.22	63.514
634.55	65.553
634.88	62.771
635.20	63.186
635.53	64.520
635.86	64.680
636.19	63.521
636.52	63.713
636.85	61.389
637.18	60.707
637.51	62.581
637.83	63.898
638.16	64.401
638.49	64.437
638.82	65.276
639.15	63.230
639.48	65.820
639.81	62.471
640.13	65.607
640.46	62.545
640.79	62.990
641.12	64.845
641.45	63.112
641.77	68.549
642.10	63.911
642.43	66.489
642.76	65.447
643.09	65.068
643.41	65.686
643.74	65.931
644.07	64.276
644.40	66.054
644.73	68.650
645.05	66.373
645.38	65.036
645.71	65.249
646.04	65.854
646.36	64.380
646.69	67.025
647.02	68.196
647.35	67.176
647.67	65.539
648.00	68.471
648.33	67.868
648.66	66.904
648.98	63.537
649.31	64.276
649.64	65.604
649.96	64.324
650.29	63.421
650.62	65.347
650.94	64.414
651.27	61.826
651.60	61.696
651.92	64.438
652.25	64.255
652.58	62.586
652.90	63.663
653.23	65.211
653.56	63.195
653.88	64.185
654.21	65.211
654.54	63.006
654.86	65.014
655.19	60.979
655.52	62.650
655.84	57.033
656.17	61.685
656.49	82.990
656.82	88.038
657.15	68.248
657.47	52.320
657.80	38.507
658.13	29.760
658.45	38.672
658.78	45.849
659.10	43.747
659.43	42.729
659.75	42.562
660.08	40.728
660.41	46.237
660.73	52.109
661.06	58.737
661.38	62.998
661.71	64.310
662.03	64.021
662.36	66.190
662.68	67.542
663.01	67.434
663.33	67.675
663.66	66.667
663.98	67.115
664.31	68.480
664.63	68.401
664.96	65.154
665.28	64.791
665.61	66.608
665.93	63.214
666.26	67.204
666.58	66.605
666.91	65.981
667.23	65.714
667.56	67.061
667.88	67.600
668.21	64.453
668.53	66.216
668.86	66.012
669.18	69.450
669.50	66.998
669.83	68.200
670.15	67.913
670.48	69.246
670.80	66.922
671.13	67.297
671.45	63.583
671.77	67.043
672.10	62.833
672.42	65.372
672.75	62.673
673.07	58.955
673.39	59.784
673.72	62.919
674.04	66.379
674.37	65.653
674.69	65.785
675.01	66.095
675.34	67.939
675.66	63.670
675.98	63.993
676.31	68.359
676.63	65.399
676.95	64.751
677.28	65.323
677.60	63.976
677.92	66.027
678.25	64.717
678.57	63.701
678.89	62.969
679.22	60.801
679.54	63.761
679.86	59.661
680.18	63.682
680.51	62.579
680.83	60.720
681.15	65.000
681.48	61.485
681.80	62.694
682.12	62.762
682.44	58.765
682.77	60.106
683.09	64.773
683.41	63.566
683.73	64.706
684.06	62.731
684.38	58.676
684.70	62.478
685.02	61.790
685.34	61.231
685.67	61.199
685.99	58.742
686.31	59.157
686.63	59.242
686.96	58.360
687.28	59.609
687.60	61.953
687.92	57.556
688.24	58.765
688.56	59.828
688.89	60.436
689.21	65.949
689.53	60.392
689.85	64.103
690.17	60.926
690.49	61.952
690.82	60.792
691.14	62.551
691.46	62.715
691.78	62.983
692.10	62.936
692.42	59.821
692.74	60.073
693.06	59.074
693.39	63.757
693.71	60.714
694.03	60.781
694.35	57.905
694.67	63.655
694.99	63.191
695.31	60.927
695.63	62.338
695.95	59.213
696.27	59.780
696.59	61.947
696.91	61.261
697.23	65.275
697.56	62.118
697.88	59.659
698.20	59.322
698.52	62.500
698.84	61.331
699.16	60.408
699.48	59.833
699.80	62.766
700.12	58.515
700.44	63.825
700.76	63.183
701.08	65.133
701.40	64.767
701.72	61.940
702.04	66.845
702.36	62.042
702.68	62.103
703.00	62.103
703.32	58.374
703.64	61.369
703.96	60.859
704.28	55.774
704.60	61.772
704.91	58.673
705.23	65.753
705.55	61.281
705.87	66.970
706.19	68.098
706.51	58.735
706.83	63.401
707.15	61.640
707.47	60.514
707.79	58.297
708.11	55.720
708.43	57.634
708.74	56.920
709.06	58.469
709.38	59.859
709.70	57.320
710.02	58.656
710.34	61.968
710.66	63.966
710.98	61.749
711.29	59.890
711.61	61.864
711.93	66.382
712.25	57.838
712.57	61.357
712.89	63.824
713.20	57.988
713.52	58.960
713.84	59.610
714.16	62.105
714.48	58.763
714.80	60.000
715.11	58.793
715.43	57.029
715.75	58.421
716.07	57.182
716.39	57.104
716.70	57.229
717.02	60.656
717.34	55.749
717.66	61.745
717.97	58.904
718.29	59.794
718.61	56.908
718.93	57.605
719.24	57.764
719.56	55.828
719.88	60.060
720.20	54.839
720.51	58.385
720.83	59.063
721.15	55.263
721.46	58.562
721.78	65.000
722.10	55.987
722.42	57.383
722.73	57.419
723.05	64.912
723.37	56.250
723.68	60.573
724.00	60.289
724.32	55.282
724.63	60.839
724.95	60.993
725.27	55.749
725.58	60.424
725.90	61.724
726.22	54.232
726.53	58.117
726.85	54.717
727.16	52.266
727.48	53.823
727.80	55.298
728.11	56.184
728.43	55.219
728.74	53.846
729.06	53.311
729.38	55.844
729.69	53.691
730.01	55.952
730.32	53.333
730.64	59.748
730.96	54.658
731.27	56.425
731.59	56.593
731.90	50.130
732.22	51.823
732.53	50.000
732.85	52.000
733.16	54.545
733.48	52.134
733.80	53.203
734.11	49.288
734.43	58.108
734.74	56.203
735.06	52.010
735.37	52.973
735.69	48.649
736.00	53.107
736.32	52.291
736.63	48.611
736.95	52.874
737.26	57.576
737.58	52.424
737.89	53.824
738.21	49.541
738.52	53.770
738.83	54.608
739.15	53.191
739.46	61.224
739.78	57.669
740.09	48.424
740.41	53.353
740.72	52.333
741.04	48.867
741.35	54.035
741.66	53.725
741.98	52.459
742.29	49.791
742.61	59.211
742.92	51.923
743.23	55.957
743.55	53.101
743.86	56.400
744.18	50.000
744.49	54.852
744.80	53.909
745.12	55.274
745.43	53.252
745.74	56.897
746.06	57.203
746.37	53.165
746.68	55.285
747.00	58.750
747.31	54.077
747.62	54.231
747.94	57.085
748.25	55.823
748.56	51.020
748.88	54.274
749.19	64.224
749.50	58.442
749.82	60.643
750.13	59.431
750.44	54.333
750.75	54.154
751.07	53.538
751.38	50.789
751.69	53.355
752.01	50.809
752.32	46.732
752.63	52.381
752.94	52.249
753.26	56.506
753.57	52.593
753.88	56.929
754.19	52.090
754.51	49.196
754.82	55.627
755.13	54.754
755.44	56.314
755.75	49.671
756.07	54.627
756.38	52.201
756.69	55.120
757.00	46.537
757.31	52.459
757.63	46.547
757.94	47.887
758.25	51.242
758.56	48.366
758.87	47.273
759.18	48.800
759.50	53.824
759.81	53.221
760.12	49.326
760.43	51.042
760.74	51.970
761.05	50.750
761.36	46.988
761.67	47.716
761.99	48.919
762.30	47.866
762.61	45.545
762.92	55.224
763.23	56.554
763.54	53.597
763.85	47.079
764.16	49.495
764.47	57.042
764.78	49.840
765.10	50.440
765.41	47.692
765.72	44.444
766.03	45.763
766.34	43.260
766.65	47.038
766.96	47.809
767.27	51.152
767.58	49.751
767.89	48.558
768.20	46.948
768.51	54.630
768.82	44.980
769.13	50.000
769.44	45.769
769.75	45.126
770.06	48.846
770.37	48.819
770.68	43.404
770.99	45.749
771.30	49.259
771.61	47.909
771.92	42.963
772.23	47.368
772.54	47.685
772.85	52.535
773.16	48.095
773.47	46.032
773.78	51.351
774.09	53.409
774.39	51.000
774.70	44.809
775.01	40.244
775.32	39.412
775.63	46.626
775.94	36.943
776.25	45.161
776.56	41.026
776.87	40.136
777.18	39.310
777.48	44.056
777.79	45.946
778.10	38.971
778.41	45.833
778.72	44.828
779.03	37.037
779.34	40.606
779.65	43.005
779.95	50.000
780.26	43.750
780.57	34.839
780.88	48.551
781.19	43.226
781.50	52.353
781.80	40.323
782.11	41.270
782.42	31.818
782.73	44.910
783.04	34.637
783.34	36.970
783.65	35.948
783.96	40.373
784.27	41.071
784.57	39.735
784.88	38.571
785.19	42.520
785.50	36.220
785.81	43.609
786.11	42.308
786.42	32.374
786.73	33.094
787.04	37.594
787.34	33.607
787.65	33.600
787.96	41.045
788.26	51.748
788.57	34.965
788.88	37.500
789.19	33.987
789.49	41.096
789.80	30.496
790.11	33.858
790.41	33.594
790.72	32.203
791.03	31.068
791.33	33.043
791.64	40.351
791.95	26.786
792.25	28.571
792.56	29.464
792.87	23.958
793.17	28.571
793.48	19.792
793.79	25.301
794.09	28.440
794.40	32.110
794.70	39.456
795.01	24.675
795.32	20.548
795.62	31.690
795.93	29.545
796.23	30.328
796.54	22.321
796.85	24.468
797.15	7.609
797.46	20.548
797.76	13.750
798.07	23.913
798.37	24.742
798.68	9.091
798.99	22.989
799.29	22.472
799.60	14.894
799.90	36.145
800.21	12.308
800.51	0.000
800.82	13.235
801.12	-2.740
801.43	-4.412
801.73	3.390
802.04	19.697
802.34	11.667
802.65	1.695
802.95	5.970
803.26	13.559
803.56	15.068
803.87	18.571
804.17	20.548
804.48	8.772
804.78	4.167
805.09	-6.897
805.39	13.514
805.70	1.408
806.00	18.293
806.30	15.663
806.61	20.548
806.91	16.346
807.22	14.444
807.52	12.644
807.83	20.833
808.13	18.072
808.43	5.618
808.74	-5.000
809.04	1.471
809.35	12.000
809.65	7.143
809.95	-5.479
810.26	-10.526
810.56	-15.517
810.86	4.412
811.17	-3.509
811.47	1.639
811.77	-28.889
812.08	-3.390
812.38	-10.000
812.69	5.172
812.99	-24.528
813.29	-48.718
813.59	0.000
813.90	1.754
814.20	-7.273
814.50	18.310
814.81	1.282
815.11	-18.033
815.41	-8.955
815.72	-8.621
816.02	-5.357
816.32	11.111
816.62	9.091
816.93	-13.333
817.23	-1.852
817.53	-6.383
817.84	-2.381
818.14	8.824
818.44	-12.245
818.74	-28.889
819.04	-53.846
819.35	-45.714
819.65	-34.615
819.95	-20.755
820.25	-20.000
820.56	-21.429
820.86	-59.375
821.16	-48.718
821.46	-46.512
821.76	-42.000
822.07	-17.857
822.37	-41.304
822.67	-29.787
822.97	-64.865
823.27	-27.500
823.57	-4.082
823.88	-24.444
824.18	-22.500
824.48	-66.667
824.78	-84.000
825.08	-33.333
825.38	-17.778
825.69	-27.660
825.99	-38.889
826.29	-74.286
826.59	-56.410
826.89	-27.907
827.19	-32.000
827.49	-26.471
827.79	-14.583
828.09	-56.757
828.39	-66.667
828.70	-46.341
829.00	-39.535
829.30	-92.857
829.60	-32.353
829.90	-30.435
830.20	-28.571
830.50	-65.517
830.80	-138.889
831.10	-92.308
831.40	-67.647
831.70	-109.524
832.00	-61.290
832.30	-194.118
832.60	-91.667
832.90	-261.538
833.20	-131.579
833.50	-160.000
833.80	-115.789
834.10	-123.810
834.40	-63.889
834.70	-75.000
835.00	-82.857
835.30	-23.529
835.60	-66.667
835.90	-100.000
836.20	-140.909
836.50	-80.000
836.80	-57.576
837.10	-70.370
837.40	-77.778
837.70	-237.500
838.00	-85.714
838.30	-139.130
838.60	-103.448
838.90	-214.286
839.19	-178.261
839.49	-325.000
839.79	-100.000
840.09	-237.500
840.39	-160.000
840.69	-58.065
840.99	-100.000
841.29	-140.000
841.59	-142.105
841.88	-35.897
842.18	-123.077
842.48	-260.000
842.78	-140.000
843.08	-46.667
843.38	-74.194
843.68	-205.556
843.97	-35.294
844.27	-156.250
844.57	-157.895
844.87	-280.000
845.17	-173.333
845.47	-80.952
845.76	-176.190
846.06	-333.333
846.36	-194.118
846.66	-76.923
846.96	-206.667
847.25	-158.824
847.55	-91.304
847.85	-130.000
848.15	-111.765
848.44	-318.182
848.74	-104.762
849.04	-150.000
849.34	-218.750
849.63	-126.087
849.93	2100.000
850.23	-180.000
850.53	-73.077
850.82	-281.818
851.12	-136.364
851.42	-272.727
851.71	-223.077
852.01	-190.000
852.31	-253.846
852.61	-147.368
852.90	-233.333
853.20	-133.333
853.50	-300.000
853.79	-176.190
854.09	-104.545
854.39	-275.000
854.68	-61.290
854.98	-107.692
855.28	-133.333
855.57	-82.143
855.87	-96.000
856.17	-109.091
856.46	-81.481
856.76	-194.444
857.05	-143.478
857.35	-108.333
857.65	-215.385
857.94	-119.048
858.24	-81.481
858.53	-130.435
858.83	-152.941
859.13	-152.941
859.42	-105.882
859.72	-171.429
860.01	-150.000
860.31	-255.556
860.60	-330.000
860.90	-240.000
861.20	-216.667
861.49	-207.692
861.79	-100.000
862.08	-300.000
862.38	-87.500
862.67	-129.412
862.97	-206.250
863.26	-422.222
863.56	-290.000
863.85	-400.000
864.15	-166.667
864.44	-1000.000
864.74	-257.143
865.03	-206.250
865.33	-380.000
865.62	-96.774
865.92	-109.091
866.21	-108.696
866.51	-185.714
866.80	-620.000
867.10	-291.667
867.39	-391.667
867.69	4900.000
867.98	-471.429
868.27	-141.176
868.57	-4400.000
868.86	-430.000
869.16	-128.571
869.45	-79.167
869.75	-254.545
870.04	-614.286
870.33	-216.667
870.63	-642.857
870.92	-850.000
871.22	-550.000
871.51	-309.091
871.80	-1266.667
872.10	-1800.000
>>>>>End Processed Spectral Data<<<<<
