SpectraSuite Data File
++++++++++++++++++++++++++++++++++++
Date: Thu May 14 14:31:35 PDT 2015
User: schluterlab
Dark Spectrum Present: Yes
Reference Spectrum Present: Yes
Number of Sampled Component Spectra: 1
Spectrometers: USB2E3373
Integration Time (usec): 3000 (USB2E3373)
Spectra Averaged: 3 (USB2E3373)
Boxcar Smoothing: 0 (USB2E3373)
Correct for Electrical Dark: No (USB2E3373)
Strobe/Lamp Enabled: No (USB2E3373)
Correct for Detector Non-linearity: No (USB2E3373)
Correct for Stray Light: No (USB2E3373)
Number of Pixels in Processed Spectrum: 2048
>>>>>Begin Processed Spectral Data<<<<<
178.53	0.000
178.91	-257.143
179.29	200.000
179.67	1700.000
180.04	-14.286
180.42	-190.000
180.80	-320.000
181.18	1000.000
181.56	2500.000
181.94	-275.000
182.31	475.000
182.69	-300.000
183.07	650.000
183.45	-575.000
183.83	316.667
184.20	566.667
184.58	-1800.000
184.96	225.000
185.34	266.667
185.72	520.000
186.09	-88.889
186.47	-400.000
186.85	-300.000
187.23	200.000
187.61	1600.000
187.98	-500.000
188.36	-375.000
188.74	275.000
189.12	700.000
189.49	143.750
189.87	125.000
190.25	177.778
190.63	380.000
191.00	111.111
191.38	0.000
191.76	25.000
192.14	216.667
192.51	-800.000
192.89	283.333
193.27	0.000
193.65	271.429
194.02	1400.000
194.40	157.143
194.78	-200.000
195.15	0.000
195.53	200.000
195.91	0.000
196.29	325.000
196.66	115.385
197.04	1200.000
197.42	228.571
197.79	400.000
198.17	162.500
198.55	100.000
198.92	166.667
199.30	150.000
199.68	181.818
200.05	128.571
200.43	550.000
200.81	-128.571
201.18	0.000
201.56	-144.444
201.94	0.000
202.31	-466.667
202.69	233.333
203.07	-2300.000
203.44	188.889
203.82	425.000
204.19	108.333
204.57	400.000
204.95	250.000
205.32	800.000
205.70	-450.000
206.08	250.000
206.45	283.333
206.83	-80.000
207.20	366.667
207.58	140.000
207.96	66.667
208.33	316.667
208.71	-100.000
209.08	483.333
209.46	0.000
209.84	-66.667
210.21	-900.000
210.59	-600.000
210.96	-466.667
211.34	650.000
211.71	200.000
212.09	2000.000
212.46	0.000
212.84	-650.000
213.22	420.000
213.59	325.000
213.97	130.000
214.34	566.667
214.72	-266.667
215.09	550.000
215.47	0.000
215.84	-228.571
216.22	-400.000
216.59	460.000
216.97	400.000
217.34	350.000
217.72	237.500
218.09	600.000
218.47	450.000
218.84	0.000
219.22	-260.000
219.59	105.882
219.97	65.000
220.34	-450.000
220.72	211.111
221.09	230.769
221.47	633.333
221.84	190.000
222.22	271.429
222.59	0.000
222.97	350.000
223.34	180.000
223.72	2100.000
224.09	475.000
224.46	200.000
224.84	440.000
225.21	300.000
225.59	475.000
225.96	475.000
226.34	107.692
226.71	-250.000
227.08	850.000
227.46	200.000
227.83	200.000
228.21	115.789
228.58	-112.500
228.95	-850.000
229.33	175.000
229.70	190.000
230.08	147.368
230.45	-110.000
230.82	666.667
231.20	100.000
231.57	191.667
231.95	154.545
232.32	272.727
232.69	130.000
233.07	550.000
233.44	129.412
233.81	100.000
234.19	133.333
234.56	81.818
234.93	110.345
235.31	110.526
235.68	116.667
236.05	105.000
236.43	126.923
236.80	144.000
237.17	103.704
237.55	78.788
237.92	220.000
238.29	93.548
238.67	72.727
239.04	77.778
239.41	42.857
239.79	60.870
240.16	64.815
240.53	50.000
240.91	45.098
241.28	54.098
241.65	56.716
242.02	47.297
242.40	53.846
242.77	49.333
243.14	36.585
243.51	43.421
243.89	51.282
244.26	58.416
244.63	50.980
245.00	37.383
245.38	41.228
245.75	37.168
246.12	40.476
246.49	37.209
246.87	42.143
247.24	39.735
247.61	36.184
247.98	40.268
248.36	38.889
248.73	41.104
249.10	36.066
249.47	42.786
249.84	38.220
250.22	34.197
250.59	37.222
250.96	37.727
251.33	38.776
251.70	36.752
252.08	35.833
252.45	37.295
252.82	35.950
253.19	30.469
253.56	36.882
253.94	33.077
254.31	37.500
254.68	36.014
255.05	35.179
255.42	35.034
255.79	31.068
256.16	33.113
256.54	30.132
256.91	31.148
257.28	34.754
257.65	31.847
258.02	31.563
258.39	28.490
258.76	34.557
259.14	32.759
259.51	33.141
259.88	30.595
260.25	34.167
260.62	35.342
260.99	35.246
261.36	38.338
261.73	28.647
262.10	34.341
262.47	32.172
262.85	33.838
263.22	30.390
263.59	26.842
263.96	30.691
264.33	28.900
264.70	28.889
265.07	33.652
265.44	33.333
265.81	33.565
266.18	32.200
266.55	31.250
266.92	28.929
267.29	31.729
267.66	31.042
268.03	32.096
268.40	32.150
268.77	32.574
269.14	28.855
269.51	31.360
269.88	33.811
270.25	29.980
270.62	31.224
270.99	30.303
271.36	31.485
271.73	31.631
272.10	34.269
272.47	29.860
272.84	33.133
273.21	28.457
273.58	32.056
273.95	29.423
274.32	30.798
274.69	28.627
275.06	29.304
275.43	28.281
275.80	28.748
276.17	29.074
276.54	29.478
276.91	27.191
277.28	30.741
277.65	28.905
278.02	29.779
278.39	31.703
278.76	27.241
279.13	30.496
279.50	29.210
279.87	30.769
280.23	26.761
280.60	29.322
280.97	29.934
281.34	28.693
281.71	30.964
282.08	30.565
282.45	26.514
282.82	28.414
283.19	27.302
283.56	29.016
283.92	30.931
284.29	29.384
284.66	30.049
285.03	26.442
285.40	27.821
285.77	26.471
286.14	28.244
286.51	26.941
286.87	28.278
287.24	28.313
287.61	26.756
287.98	27.190
288.35	27.663
288.72	28.994
289.08	28.551
289.45	25.148
289.82	25.151
290.19	29.023
290.56	28.169
290.93	27.532
291.29	27.686
291.66	26.860
292.03	26.594
292.40	26.259
292.77	25.606
293.13	26.522
293.50	26.150
293.87	26.443
294.24	27.067
294.60	28.066
294.97	25.101
295.34	26.633
295.71	23.329
296.08	25.711
296.44	24.755
296.81	25.579
297.18	24.533
297.55	23.703
297.91	24.674
298.28	24.882
298.65	25.208
299.02	24.557
299.38	25.858
299.75	24.182
300.12	25.463
300.48	25.000
300.85	24.972
301.22	25.727
301.59	23.516
301.95	24.633
302.32	24.444
302.69	24.863
303.05	25.136
303.42	25.166
303.79	25.521
304.15	23.764
304.52	25.159
304.89	23.665
305.25	23.706
305.62	24.138
305.99	24.433
306.35	25.403
306.72	26.474
307.09	24.873
307.45	25.569
307.82	25.732
308.19	25.530
308.55	25.554
308.92	25.803
309.29	25.287
309.65	25.439
310.02	25.842
310.38	26.575
310.75	26.699
311.12	27.133
311.48	27.370
311.85	27.825
312.22	27.894
312.58	27.230
312.95	26.577
313.31	26.739
313.68	28.755
314.05	28.726
314.41	29.508
314.78	27.884
315.14	28.584
315.51	29.178
315.87	29.523
316.24	31.233
316.61	30.728
316.97	30.407
317.34	30.776
317.70	30.830
318.07	31.570
318.43	30.272
318.80	31.773
319.16	31.416
319.53	31.534
319.89	30.675
320.26	31.762
320.62	31.206
320.99	32.964
321.35	32.625
321.72	34.047
322.08	32.822
322.45	32.159
322.81	33.303
323.18	33.009
323.54	33.879
323.91	33.897
324.27	34.337
324.64	34.425
325.00	33.250
325.37	33.989
325.73	34.959
326.10	34.469
326.46	35.749
326.83	36.029
327.19	34.173
327.56	36.680
327.92	35.012
328.29	34.516
328.65	35.930
329.01	36.125
329.38	35.973
329.74	37.671
330.11	37.414
330.47	36.479
330.84	36.520
331.20	37.417
331.56	37.002
331.93	37.573
332.29	37.288
332.66	37.542
333.02	36.265
333.38	36.577
333.75	37.290
334.11	37.364
334.48	37.789
334.84	37.978
335.20	37.196
335.57	38.786
335.93	37.851
336.29	36.938
336.66	36.333
337.02	36.873
337.38	37.755
337.75	36.694
338.11	38.856
338.47	37.883
338.84	38.494
339.20	37.405
339.56	36.903
339.93	37.685
340.29	36.795
340.65	35.929
341.02	37.590
341.38	37.833
341.74	37.530
342.11	37.088
342.47	37.411
342.83	37.923
343.20	37.612
343.56	38.091
343.92	37.390
344.28	37.266
344.65	37.519
345.01	38.222
345.37	37.403
345.73	35.620
346.10	36.739
346.46	37.816
346.82	36.854
347.19	38.121
347.55	37.253
347.91	37.593
348.27	36.571
348.63	36.862
349.00	35.794
349.36	36.952
349.72	35.565
350.08	36.627
350.45	37.262
350.81	37.330
351.17	37.368
351.53	37.377
351.89	37.054
352.26	36.343
352.62	37.388
352.98	36.794
353.34	36.893
353.70	36.826
354.07	37.258
354.43	37.509
354.79	37.023
355.15	36.497
355.51	37.573
355.87	37.023
356.24	37.871
356.60	36.585
356.96	37.361
357.32	36.803
357.68	36.164
358.04	36.602
358.40	36.940
358.77	38.085
359.13	37.666
359.49	37.100
359.85	36.403
360.21	37.374
360.57	37.186
360.93	38.152
361.29	38.246
361.66	37.219
362.02	38.344
362.38	38.159
362.74	38.478
363.10	37.827
363.46	39.266
363.82	38.707
364.18	38.987
364.54	38.382
364.90	38.930
365.26	39.586
365.62	38.333
365.98	36.964
366.35	38.591
366.71	39.184
367.07	38.566
367.43	39.002
367.79	39.947
368.15	39.599
368.51	38.227
368.87	38.472
369.23	39.533
369.59	40.164
369.95	39.621
370.31	39.973
370.67	39.133
371.03	39.197
371.39	38.684
371.75	40.509
372.11	39.634
372.47	40.420
372.83	39.398
373.19	39.026
373.55	40.989
373.91	40.900
374.27	40.492
374.63	41.610
374.99	40.915
375.35	41.818
375.71	40.839
376.07	41.252
376.42	41.121
376.78	41.765
377.14	40.299
377.50	42.062
377.86	42.796
378.22	43.772
378.58	42.568
378.94	41.960
379.30	42.238
379.66	42.152
380.02	42.874
380.38	43.779
380.74	44.113
381.09	43.438
381.45	43.750
381.81	45.023
382.17	43.884
382.53	44.854
382.89	43.679
383.25	45.955
383.61	45.718
383.97	44.582
384.32	46.890
384.68	44.838
385.04	46.270
385.40	46.788
385.76	47.479
386.12	45.841
386.48	46.529
386.83	47.735
387.19	46.060
387.55	46.244
387.91	47.432
388.27	48.441
388.62	47.766
388.98	45.742
389.34	48.438
389.70	49.390
390.06	49.201
390.42	47.711
390.77	49.247
391.13	47.711
391.49	49.577
391.85	48.000
392.20	48.754
392.56	49.084
392.92	49.891
393.28	49.309
393.64	49.385
393.99	49.448
394.35	49.124
394.71	50.419
395.07	48.383
395.42	49.457
395.78	51.188
396.14	49.733
396.50	50.178
396.85	49.135
397.21	50.296
397.57	50.177
397.92	50.057
398.28	49.538
398.64	48.913
399.00	48.639
399.35	50.209
399.71	49.348
400.07	49.579
400.42	50.116
400.78	50.810
401.14	49.573
401.49	50.370
401.85	51.221
402.21	51.275
402.57	51.056
402.92	49.882
403.28	48.419
403.63	49.821
403.99	50.950
404.35	49.801
404.70	49.915
405.06	50.598
405.42	50.468
405.77	51.200
406.13	50.189
406.49	50.619
406.84	51.025
407.20	50.084
407.55	49.849
407.91	50.660
408.27	50.412
408.62	50.320
408.98	51.538
409.34	50.381
409.69	51.792
410.05	50.703
410.40	51.682
410.76	51.094
411.11	51.490
411.47	50.983
411.83	51.793
412.18	50.783
412.54	50.741
412.89	51.164
413.25	51.242
413.60	50.948
413.96	51.865
414.31	49.972
414.67	50.924
415.03	50.646
415.38	51.828
415.74	50.886
416.09	52.437
416.45	51.472
416.80	50.857
417.16	51.660
417.51	51.432
417.87	52.912
418.22	51.437
418.58	52.416
418.93	52.503
419.29	53.329
419.64	53.721
420.00	51.632
420.35	52.835
420.71	53.188
421.06	52.559
421.42	52.924
421.77	53.096
422.12	51.533
422.48	52.279
422.83	53.560
423.19	52.785
423.54	53.761
423.90	52.457
424.25	53.867
424.61	53.502
424.96	54.201
425.31	53.185
425.67	54.160
426.02	53.625
426.38	53.789
426.73	53.739
427.09	55.421
427.44	53.850
427.79	55.832
428.15	55.023
428.50	54.775
428.85	53.961
429.21	55.266
429.56	55.972
429.92	55.086
430.27	56.000
430.62	55.642
430.98	55.730
431.33	54.692
431.68	54.789
432.04	56.323
432.39	56.829
432.74	55.594
433.10	56.679
433.45	56.633
433.80	56.062
434.16	56.250
434.51	57.605
434.86	57.438
435.22	57.705
435.57	58.432
435.92	57.485
436.28	58.020
436.63	59.093
436.98	57.434
437.34	57.666
437.69	57.843
438.04	58.488
438.39	58.185
438.75	58.993
439.10	59.725
439.45	58.971
439.81	59.661
440.16	58.713
440.51	59.922
440.86	59.422
441.22	59.110
441.57	60.063
441.92	59.408
442.27	60.505
442.63	59.960
442.98	60.139
443.33	60.863
443.68	62.091
444.03	62.418
444.39	61.073
444.74	60.898
445.09	60.061
445.44	63.435
445.79	61.207
446.15	61.202
446.50	62.067
446.85	61.527
447.20	60.977
447.55	61.977
447.91	61.990
448.26	61.998
448.61	61.530
448.96	63.627
449.31	61.400
449.66	62.255
450.02	61.973
450.37	62.493
450.72	63.778
451.07	63.383
451.42	61.236
451.77	62.034
452.12	64.221
452.47	64.290
452.83	64.527
453.18	62.872
453.53	63.929
453.88	63.114
454.23	62.881
454.58	64.597
454.93	63.956
455.28	65.141
455.63	65.094
455.98	64.134
456.34	64.193
456.69	63.962
457.04	64.598
457.39	65.576
457.74	64.430
458.09	63.756
458.44	63.901
458.79	64.415
459.14	64.709
459.49	65.761
459.84	64.900
460.19	65.353
460.54	66.837
460.89	66.331
461.24	66.034
461.59	65.744
461.94	64.746
462.29	65.454
462.64	65.963
462.99	67.169
463.34	67.618
463.69	65.416
464.04	66.259
464.39	65.807
464.74	66.477
465.09	67.589
465.44	66.202
465.79	66.367
466.14	65.242
466.49	65.789
466.84	67.273
467.19	67.283
467.54	64.924
467.89	66.667
468.24	66.648
468.59	66.474
468.94	66.434
469.29	67.307
469.64	67.832
469.99	66.667
470.34	67.574
470.68	68.968
471.03	67.976
471.38	67.822
471.73	69.961
472.08	67.766
472.43	68.694
472.78	68.703
473.13	68.900
473.48	69.245
473.83	69.414
474.17	68.992
474.52	68.190
474.87	69.324
475.22	69.915
475.57	68.847
475.92	68.591
476.27	68.530
476.61	68.484
476.96	69.135
477.31	69.505
477.66	69.622
478.01	69.293
478.36	68.245
478.70	69.409
479.05	71.779
479.40	69.250
479.75	69.308
480.10	70.204
480.45	69.827
480.79	69.796
481.14	68.980
481.49	69.650
481.84	70.148
482.19	70.151
482.53	69.873
482.88	70.891
483.23	70.165
483.58	69.083
483.92	69.592
484.27	70.745
484.62	68.729
484.97	69.635
485.31	70.116
485.66	68.890
486.01	68.403
486.36	67.641
486.70	68.112
487.05	67.373
487.40	67.147
487.75	68.066
488.09	68.442
488.44	66.769
488.79	69.376
489.13	68.646
489.48	70.408
489.83	68.813
490.17	69.380
490.52	69.951
490.87	70.854
491.22	71.317
491.56	69.966
491.91	70.781
492.26	70.662
492.60	70.660
492.95	70.689
493.30	71.717
493.64	71.879
493.99	71.009
494.34	70.296
494.68	71.563
495.03	71.366
495.37	70.839
495.72	72.154
496.07	72.261
496.41	71.557
496.76	71.852
497.11	72.272
497.45	71.731
497.80	71.390
498.14	71.338
498.49	72.105
498.84	73.172
499.18	72.425
499.53	72.825
499.87	72.879
500.22	72.618
500.56	72.515
500.91	73.181
501.26	73.500
501.60	72.912
501.95	72.471
502.29	72.663
502.64	72.672
502.98	71.829
503.33	72.700
503.67	73.136
504.02	72.242
504.36	74.710
504.71	74.047
505.06	72.669
505.40	72.669
505.75	72.769
506.09	73.665
506.44	75.070
506.78	74.908
507.13	73.813
507.47	75.414
507.82	74.384
508.16	74.426
508.51	74.684
508.85	75.579
509.19	75.651
509.54	75.456
509.88	75.231
510.23	75.862
510.57	75.834
510.92	76.101
511.26	75.132
511.61	74.360
511.95	74.817
512.30	75.628
512.64	74.613
512.98	76.138
513.33	75.504
513.67	76.594
514.02	76.035
514.36	77.954
514.70	76.927
515.05	75.704
515.39	76.430
515.74	78.049
516.08	76.281
516.42	77.028
516.77	78.654
517.11	75.967
517.46	77.784
517.80	78.033
518.14	78.128
518.49	77.874
518.83	76.583
519.17	77.975
519.52	76.468
519.86	76.610
520.20	76.784
520.55	77.437
520.89	78.097
521.23	77.722
521.58	79.266
521.92	78.244
522.26	77.090
522.61	79.630
522.95	78.662
523.29	79.080
523.64	76.513
523.98	79.407
524.32	79.542
524.66	79.624
525.01	78.369
525.35	77.542
525.69	77.552
526.04	76.980
526.38	78.046
526.72	78.547
527.06	78.944
527.41	79.417
527.75	79.572
528.09	77.922
528.43	79.337
528.78	78.092
529.12	78.268
529.46	78.078
529.80	78.547
530.15	79.884
530.49	79.359
530.83	78.749
531.17	78.793
531.51	79.422
531.86	80.409
532.20	80.427
532.54	77.379
532.88	79.212
533.22	78.315
533.57	77.149
533.91	79.349
534.25	78.858
534.59	78.908
534.93	77.872
535.27	77.972
535.62	79.250
535.96	77.920
536.30	78.378
536.64	79.279
536.98	79.889
537.32	80.000
537.66	79.913
538.01	76.918
538.35	77.954
538.69	78.666
539.03	79.951
539.37	78.033
539.71	77.898
540.05	78.837
540.39	77.995
540.73	77.778
541.07	79.399
541.42	77.614
541.76	77.046
542.10	77.744
542.44	77.832
542.78	77.798
543.12	77.175
543.46	77.961
543.80	77.338
544.14	77.259
544.48	78.546
544.82	78.516
545.16	77.877
545.50	79.269
545.84	78.200
546.18	78.457
546.52	78.662
546.86	77.296
547.20	79.135
547.54	76.904
547.88	78.541
548.22	78.012
548.56	77.999
548.90	78.030
549.24	77.994
549.58	78.612
549.92	79.401
550.26	78.252
550.60	77.664
550.94	77.878
551.28	78.020
551.62	81.065
551.96	77.476
552.30	78.330
552.64	78.656
552.98	78.915
553.32	80.579
553.66	79.035
554.00	79.634
554.34	78.443
554.68	77.082
555.02	79.041
555.36	80.145
555.69	77.963
556.03	78.689
556.37	79.099
556.71	80.025
557.05	78.466
557.39	81.088
557.73	79.392
558.07	79.272
558.41	79.468
558.75	80.122
559.08	79.749
559.42	77.778
559.76	78.901
560.10	78.835
560.44	79.288
560.78	81.000
561.12	79.002
561.45	80.414
561.79	79.060
562.13	79.113
562.47	78.422
562.81	78.418
563.15	78.535
563.48	79.988
563.82	78.416
564.16	77.710
564.50	77.950
564.84	79.646
565.17	77.647
565.51	76.812
565.85	79.929
566.19	77.823
566.52	77.531
566.86	78.212
567.20	77.270
567.54	78.067
567.88	77.829
568.21	77.717
568.55	76.211
568.89	77.939
569.23	76.595
569.56	77.022
569.90	75.232
570.24	76.054
570.57	76.010
570.91	73.913
571.25	73.850
571.59	73.615
571.92	73.188
572.26	73.531
572.60	74.038
572.93	73.142
573.27	73.729
573.61	74.060
573.95	73.246
574.28	72.647
574.62	72.988
574.96	72.078
575.29	72.086
575.63	72.118
575.97	71.928
576.30	71.996
576.64	72.465
576.98	72.415
577.31	73.500
577.65	74.164
577.98	72.816
578.32	71.851
578.66	71.749
578.99	71.227
579.33	71.476
579.67	72.348
580.00	72.129
580.34	72.600
580.67	72.264
581.01	72.566
581.35	71.693
581.68	72.760
582.02	71.775
582.35	72.937
582.69	72.460
583.02	72.622
583.36	72.746
583.70	73.120
584.03	72.474
584.37	72.402
584.70	72.714
585.04	72.286
585.37	73.707
585.71	72.794
586.04	73.536
586.38	73.027
586.72	72.048
587.05	73.753
587.39	74.794
587.72	73.971
588.06	74.202
588.39	73.214
588.73	73.439
589.06	74.125
589.40	74.155
589.73	74.132
590.07	74.038
590.40	75.389
590.73	75.186
591.07	75.242
591.40	75.544
591.74	75.199
592.07	75.802
592.41	74.882
592.74	74.796
593.08	74.713
593.41	75.707
593.75	73.736
594.08	74.341
594.41	74.071
594.75	74.095
595.08	74.630
595.42	74.903
595.75	73.716
596.09	74.551
596.42	75.134
596.75	75.724
597.09	75.960
597.42	75.089
597.75	74.520
598.09	74.841
598.42	75.392
598.76	74.666
599.09	74.297
599.42	74.455
599.76	73.225
600.09	73.240
600.42	74.708
600.76	74.670
601.09	73.913
601.42	73.807
601.76	74.241
602.09	73.981
602.42	74.627
602.76	75.203
603.09	75.110
603.42	75.289
603.76	74.489
604.09	75.834
604.42	74.679
604.76	73.478
605.09	74.830
605.42	75.518
605.75	74.808
606.09	73.796
606.42	74.134
606.75	73.013
607.09	72.427
607.42	74.104
607.75	74.443
608.08	74.546
608.42	73.438
608.75	75.083
609.08	73.090
609.41	74.195
609.75	75.848
610.08	74.846
610.41	74.427
610.74	74.958
611.07	75.533
611.41	76.054
611.74	77.044
612.07	75.129
612.40	76.759
612.73	76.626
613.07	74.328
613.40	74.976
613.73	75.108
614.06	76.300
614.39	74.247
614.72	74.672
615.06	73.340
615.39	73.562
615.72	74.882
616.05	74.211
616.38	76.287
616.71	73.563
617.05	74.547
617.38	74.478
617.71	76.404
618.04	75.067
618.37	75.738
618.70	76.810
619.03	77.180
619.36	77.189
619.69	75.977
620.03	76.397
620.36	76.012
620.69	75.324
621.02	76.969
621.35	78.084
621.68	77.802
622.01	77.082
622.34	76.918
622.67	76.907
623.00	74.966
623.33	77.173
623.66	76.719
623.99	77.617
624.32	76.543
624.65	76.062
624.99	76.463
625.32	75.833
625.65	78.827
625.98	74.983
626.31	75.762
626.64	76.337
626.97	77.569
627.30	77.449
627.63	76.519
627.96	78.228
628.29	77.665
628.62	77.834
628.95	80.105
629.28	77.740
629.61	80.387
629.94	77.071
630.26	77.373
630.59	77.375
630.92	76.970
631.25	79.696
631.58	79.944
631.91	78.913
632.24	79.539
632.57	78.083
632.90	79.639
633.23	81.020
633.56	78.265
633.89	78.409
634.22	79.106
634.55	78.914
634.88	80.736
635.20	79.656
635.53	81.469
635.86	78.657
636.19	79.745
636.52	80.696
636.85	76.404
637.18	77.339
637.51	79.140
637.83	80.731
638.16	81.106
638.49	78.873
638.82	79.143
639.15	78.580
639.48	80.139
639.81	79.330
640.13	81.037
640.46	77.576
640.79	78.554
641.12	78.758
641.45	79.423
641.77	83.184
642.10	79.003
642.43	81.250
642.76	78.591
643.09	80.685
643.41	82.213
643.74	81.793
644.07	84.138
644.40	81.471
644.73	82.438
645.05	81.938
645.38	82.014
645.71	81.965
646.04	81.779
646.36	78.686
646.69	81.442
647.02	83.486
647.35	80.916
647.67	84.541
648.00	84.076
648.33	79.580
648.66	79.315
648.98	78.231
649.31	81.597
649.64	79.150
649.96	77.188
650.29	75.939
650.62	78.925
650.94	76.727
651.27	76.946
651.60	75.731
651.92	80.699
652.25	77.858
652.58	74.140
652.90	78.488
653.23	79.859
653.56	78.174
653.88	77.107
654.21	75.915
654.54	76.590
654.86	78.470
655.19	73.902
655.52	69.114
655.84	63.424
656.17	79.379
656.49	100.042
656.82	100.008
657.15	100.000
657.47	91.010
657.80	51.086
658.13	40.582
658.45	53.135
658.78	65.775
659.10	64.848
659.43	66.906
659.75	69.396
660.08	71.148
660.41	72.291
660.73	74.230
661.06	78.267
661.38	76.236
661.71	79.310
662.03	77.954
662.36	79.249
662.68	81.051
663.01	79.646
663.33	81.096
663.66	78.755
663.98	82.692
664.31	77.674
664.63	77.842
664.96	78.221
665.28	77.495
665.61	77.098
665.93	77.857
666.26	78.136
666.58	79.151
666.91	78.692
667.23	77.143
667.56	79.684
667.88	80.400
668.21	76.953
668.53	77.027
668.86	78.193
669.18	81.059
669.50	78.529
669.83	81.600
670.15	78.150
670.48	80.159
670.80	77.438
671.13	78.639
671.45	77.953
671.77	78.719
672.10	73.833
672.42	74.110
672.75	74.962
673.07	72.836
673.39	73.960
673.72	74.329
674.04	76.724
674.37	79.249
674.69	73.545
675.01	77.524
675.34	76.336
675.66	73.596
675.98	76.493
676.31	78.516
676.63	77.186
676.95	76.820
677.28	81.250
677.60	73.031
677.92	75.624
678.25	77.514
678.57	76.512
678.89	74.915
679.22	74.564
679.54	74.359
679.86	73.559
680.18	73.632
680.51	72.170
680.83	72.177
681.15	76.207
681.48	77.202
681.80	77.375
682.12	72.552
682.44	72.287
682.77	71.099
683.09	76.705
683.41	76.357
683.73	75.332
684.06	71.771
684.38	72.093
684.70	76.302
685.02	72.978
685.34	70.383
685.67	69.558
685.99	71.626
686.31	67.006
686.63	74.250
686.96	70.978
687.28	71.661
687.60	71.044
687.92	70.579
688.24	71.285
688.56	72.069
688.89	72.414
689.21	75.342
689.53	72.745
689.85	71.992
690.17	71.481
690.49	76.693
690.82	74.059
691.14	75.911
691.46	72.084
691.78	74.770
692.10	75.963
692.42	69.643
692.74	70.962
693.06	69.074
693.39	72.296
693.71	69.173
694.03	74.907
694.35	69.905
694.67	73.717
694.99	73.830
695.31	71.302
695.63	75.541
695.95	70.393
696.27	70.989
696.59	73.230
696.91	71.622
697.23	75.165
697.56	73.116
697.88	71.780
698.20	70.621
698.52	70.644
698.84	76.507
699.16	72.041
699.48	70.502
699.80	73.617
700.12	74.017
700.44	73.733
700.76	73.872
701.08	72.639
701.40	76.425
701.72	68.657
702.04	74.599
702.36	74.607
702.68	72.372
703.00	72.861
703.32	70.197
703.64	74.817
703.96	74.940
704.28	69.042
704.60	74.430
704.91	70.408
705.23	74.521
705.55	70.752
705.87	78.485
706.19	76.687
706.51	71.084
706.83	73.199
707.15	69.841
707.47	69.626
707.79	69.869
708.11	67.797
708.43	70.753
708.74	68.527
709.06	63.573
709.38	71.127
709.70	71.464
710.02	73.127
710.34	69.415
710.66	75.978
710.98	71.311
711.29	74.451
711.61	74.576
711.93	77.208
712.25	69.189
712.57	75.811
712.89	74.706
713.20	71.302
713.52	74.566
713.84	67.967
714.16	71.842
714.48	68.557
714.80	73.506
715.11	70.079
715.43	70.292
715.75	68.421
716.07	69.890
716.39	68.033
716.70	69.880
717.02	74.098
717.34	77.700
717.66	71.477
717.97	65.753
718.29	76.632
718.61	71.382
718.93	70.227
719.24	70.186
719.56	69.018
719.88	66.366
720.20	71.935
720.51	66.770
720.83	68.438
721.15	66.118
721.46	72.603
721.78	71.000
722.10	67.638
722.42	72.148
722.73	70.323
723.05	73.684
723.37	72.222
723.68	74.194
724.00	75.451
724.32	68.662
724.63	70.629
724.95	73.759
725.27	67.596
725.58	72.438
725.90	73.793
726.22	70.219
726.53	74.351
726.85	71.698
727.16	61.631
727.48	70.642
727.80	70.861
728.11	70.671
728.43	73.064
728.74	69.231
729.06	68.874
729.38	73.377
729.69	68.792
730.01	65.179
730.32	61.212
730.64	68.239
730.96	69.255
731.27	67.039
731.59	65.659
731.90	65.455
732.22	63.542
732.53	63.536
732.85	64.857
733.16	65.982
733.48	62.195
733.80	65.460
734.11	64.387
734.43	64.054
734.74	68.354
735.06	62.563
735.37	70.000
735.69	63.243
736.00	67.514
736.32	64.960
736.63	66.944
736.95	66.092
737.26	65.455
737.58	66.364
737.89	67.059
738.21	66.667
738.52	65.246
738.83	66.894
739.15	72.340
739.46	70.068
739.78	64.724
740.09	61.318
740.41	66.472
740.72	69.000
741.04	66.667
741.35	67.719
741.66	70.588
741.98	66.393
742.29	70.293
742.61	69.737
742.92	66.154
743.23	71.119
743.55	71.705
743.86	67.200
744.18	73.140
744.49	65.401
744.80	66.255
745.12	70.042
745.43	69.512
745.74	72.414
746.06	71.186
746.37	72.574
746.68	68.699
747.00	68.333
747.31	72.103
747.62	65.385
747.94	69.636
748.25	70.281
748.56	74.286
748.88	71.795
749.19	67.672
749.50	71.861
749.82	69.076
750.13	67.972
750.44	65.000
750.75	63.692
751.07	64.923
751.38	67.508
751.69	67.732
752.01	62.136
752.32	64.052
752.63	68.707
752.94	65.398
753.26	68.773
753.57	63.333
753.88	65.918
754.19	67.203
754.51	65.595
754.82	65.916
755.13	64.918
755.44	68.259
755.75	66.118
756.07	66.866
756.38	63.836
756.69	63.855
757.00	56.510
757.31	59.836
757.63	55.754
757.94	59.390
758.25	60.271
758.56	57.734
758.87	57.727
759.18	57.067
759.50	62.323
759.81	60.504
760.12	62.264
760.43	63.281
760.74	60.837
761.05	60.000
761.36	59.277
761.67	57.614
761.99	60.811
762.30	65.244
762.61	57.096
762.92	64.925
763.23	68.165
763.54	63.309
763.85	60.137
764.16	63.300
764.47	65.493
764.78	66.134
765.10	63.050
765.41	60.513
765.72	58.466
766.03	62.429
766.34	57.680
766.65	58.188
766.96	65.737
767.27	62.212
767.58	63.682
767.89	71.635
768.20	64.789
768.51	66.667
768.82	60.643
769.13	61.742
769.44	59.615
769.75	62.455
770.06	64.615
770.37	62.598
770.68	63.404
770.99	61.134
771.30	65.556
771.61	63.878
771.92	59.259
772.23	68.421
772.54	61.111
772.85	61.751
773.16	66.667
773.47	65.608
773.78	64.324
774.09	70.455
774.39	70.000
774.70	71.038
775.01	62.805
775.32	61.765
775.63	60.123
775.94	66.242
776.25	70.323
776.56	77.564
776.87	67.347
777.18	64.138
777.48	76.224
777.79	65.541
778.10	66.176
778.41	71.528
778.72	68.966
779.03	66.667
779.34	63.030
779.65	66.321
779.95	67.222
780.26	65.341
780.57	65.806
780.88	81.159
781.19	64.516
781.50	64.118
781.80	70.968
782.11	67.196
782.42	60.606
782.73	68.263
783.04	58.101
783.34	68.485
783.65	66.013
783.96	61.491
784.27	65.476
784.57	72.185
784.88	62.143
785.19	76.378
785.50	66.142
785.81	69.173
786.11	78.462
786.42	56.835
786.73	60.432
787.04	74.436
787.34	70.492
787.65	64.800
787.96	74.627
788.26	74.126
788.57	69.231
788.88	61.184
789.19	67.974
789.49	70.548
789.80	74.468
790.11	64.567
790.41	67.969
790.72	69.492
791.03	66.990
791.33	62.609
791.64	65.789
791.95	69.643
792.25	63.810
792.56	64.286
792.87	65.625
793.17	68.750
793.48	53.125
793.79	56.627
794.09	60.550
794.40	74.312
794.70	68.707
795.01	62.987
795.32	58.904
795.62	56.338
795.93	62.879
796.23	64.754
796.54	60.714
796.85	59.574
797.15	61.957
797.46	63.014
797.76	56.250
798.07	82.609
798.37	53.608
798.68	84.416
798.99	75.862
799.29	70.787
799.60	71.277
799.90	80.723
800.21	81.538
800.51	82.090
800.82	82.353
801.12	50.685
801.43	69.118
801.73	79.661
802.04	81.818
802.34	98.333
802.65	93.220
802.95	80.597
803.26	74.576
803.56	65.753
803.87	68.571
804.17	89.041
804.48	66.667
804.78	69.444
805.09	89.655
805.39	64.865
805.70	56.338
806.00	70.732
806.30	56.627
806.61	69.863
806.91	65.385
807.22	72.222
807.52	62.069
807.83	90.278
808.13	72.289
808.43	62.921
808.74	77.500
809.04	70.588
809.35	76.000
809.65	77.143
809.95	72.603
810.26	84.211
810.56	79.310
810.86	86.765
811.17	75.439
811.47	60.656
811.77	84.444
812.08	76.271
812.38	86.667
812.69	82.759
812.99	64.151
813.29	69.231
813.59	94.000
813.90	107.018
814.20	98.182
814.50	85.915
814.81	67.949
815.11	95.082
815.41	74.627
815.72	75.862
816.02	76.786
816.32	104.444
816.62	90.909
816.93	100.000
817.23	90.741
817.53	78.723
817.84	130.952
818.14	97.059
818.44	69.388
818.74	95.556
819.04	79.487
819.35	77.143
819.65	84.615
819.95	88.679
820.25	88.889
820.56	69.048
820.86	75.000
821.16	107.692
821.46	104.651
821.76	64.000
822.07	73.214
822.37	47.826
822.67	61.702
822.97	75.676
823.27	90.000
823.57	97.959
823.88	111.111
824.18	100.000
824.48	116.667
824.78	168.000
825.08	121.212
825.38	77.778
825.69	80.851
825.99	100.000
826.29	68.571
826.59	82.051
826.89	69.767
827.19	92.000
827.49	91.176
827.79	81.250
828.09	64.865
828.39	93.333
828.70	109.756
829.00	79.070
829.30	92.857
829.60	100.000
829.90	67.391
830.20	85.714
830.50	106.897
830.80	111.111
831.10	119.231
831.40	76.471
831.70	133.333
832.00	141.935
832.30	82.353
832.60	79.167
832.90	107.692
833.20	157.895
833.50	140.000
833.80	157.895
834.10	71.429
834.40	113.889
834.70	131.250
835.00	85.714
835.30	97.059
835.60	40.000
835.90	108.000
836.20	31.818
836.50	140.000
836.80	66.667
837.10	100.000
837.40	85.185
837.70	125.000
838.00	75.000
838.30	95.652
838.60	100.000
838.90	171.429
839.19	69.565
839.49	116.667
839.79	117.391
840.09	187.500
840.39	165.000
840.69	116.129
840.99	60.714
841.29	166.667
841.59	142.105
841.88	110.256
842.18	119.231
842.48	80.000
842.78	85.000
843.08	116.667
843.38	96.774
843.68	105.556
843.97	79.412
844.27	150.000
844.57	126.316
844.87	240.000
845.17	113.333
845.47	166.667
845.76	95.238
846.06	211.111
846.36	105.882
846.66	100.000
846.96	153.333
847.25	147.059
847.55	169.565
847.85	140.000
848.15	158.824
848.44	181.818
848.74	128.571
849.04	79.167
849.34	106.250
849.63	108.696
849.93	-1000.000
850.23	126.667
850.53	146.154
850.82	109.091
851.12	127.273
851.42	190.909
851.71	215.385
852.01	110.000
852.31	192.308
852.61	115.789
852.90	191.667
853.20	150.000
853.50	144.444
853.79	90.476
854.09	122.727
854.39	83.333
854.68	87.097
854.98	80.769
855.28	138.889
855.57	100.000
855.87	100.000
856.17	127.273
856.46	92.593
856.76	111.111
857.05	78.261
857.35	79.167
857.65	192.308
857.94	138.095
858.24	122.222
858.53	108.696
858.83	170.588
859.13	141.176
859.42	164.706
859.72	185.714
860.01	105.000
860.31	233.333
860.60	210.000
860.90	106.667
861.20	111.111
861.49	169.231
861.79	100.000
862.08	123.077
862.38	81.250
862.67	152.941
862.97	162.500
863.26	88.889
863.56	240.000
863.85	181.818
864.15	122.222
864.44	566.667
864.74	171.429
865.03	118.750
865.33	100.000
865.62	70.968
865.92	150.000
866.21	95.652
866.51	157.143
866.80	560.000
867.10	158.333
867.39	183.333
867.69	-1000.000
867.98	271.429
868.27	135.294
868.57	600.000
868.86	220.000
869.16	95.238
869.45	75.000
869.75	281.818
870.04	242.857
870.33	175.000
870.63	171.429
870.92	625.000
871.22	100.000
871.51	109.091
871.80	333.333
872.10	300.000
>>>>>End Processed Spectral Data<<<<<
