SpectraSuite Data File
++++++++++++++++++++++++++++++++++++
Date: Thu May 14 14:51:48 PDT 2015
User: schluterlab
Dark Spectrum Present: Yes
Reference Spectrum Present: Yes
Number of Sampled Component Spectra: 1
Spectrometers: USB2E3373
Integration Time (usec): 3000 (USB2E3373)
Spectra Averaged: 3 (USB2E3373)
Boxcar Smoothing: 0 (USB2E3373)
Correct for Electrical Dark: No (USB2E3373)
Strobe/Lamp Enabled: No (USB2E3373)
Correct for Detector Non-linearity: No (USB2E3373)
Correct for Stray Light: No (USB2E3373)
Number of Pixels in Processed Spectrum: 2048
>>>>>Begin Processed Spectral Data<<<<<
178.53	0.000
178.91	200.000
179.29	-1400.000
179.67	-800.000
180.04	171.429
180.42	160.000
180.80	380.000
181.18	-1300.000
181.56	100.000
181.94	425.000
182.31	-325.000
182.69	633.333
183.07	50.000
183.45	350.000
183.83	0.000
184.20	-366.667
184.58	800.000
184.96	-400.000
185.34	-122.222
185.72	-80.000
186.09	211.111
186.47	900.000
186.85	360.000
187.23	-222.222
187.61	-1700.000
187.98	200.000
188.36	350.000
188.74	-225.000
189.12	-233.333
189.49	-25.000
189.87	-125.000
190.25	-77.778
190.63	-200.000
191.00	-188.889
191.38	0.000
191.76	-475.000
192.14	-266.667
192.51	350.000
192.89	-33.333
193.27	0.000
193.65	-85.714
194.02	-1500.000
194.40	-28.571
194.78	214.286
195.15	0.000
195.53	-9.091
195.91	0.000
196.29	-50.000
196.66	-53.846
197.04	-1700.000
197.42	-128.571
197.79	-450.000
198.17	-37.500
198.55	-85.714
198.92	-44.444
199.30	-62.500
199.68	9.091
200.05	7.143
200.43	-800.000
200.81	257.143
201.18	0.000
201.56	311.111
201.94	0.000
202.31	533.333
202.69	-122.222
203.07	400.000
203.44	-44.444
203.82	-325.000
204.19	-41.667
204.57	-50.000
204.95	-25.000
205.32	-500.000
205.70	175.000
206.08	-133.333
206.45	-150.000
206.83	440.000
207.20	-83.333
207.58	-300.000
207.96	-233.333
208.33	-33.333
208.71	75.000
209.08	-216.667
209.46	0.000
209.84	333.333
210.21	800.000
210.59	150.000
210.96	333.333
211.34	-250.000
211.71	12.500
212.09	0.000
212.46	0.000
212.84	950.000
213.22	-240.000
213.59	-100.000
213.97	60.000
214.34	-100.000
214.72	100.000
215.09	-50.000
215.47	0.000
215.84	214.286
216.22	850.000
216.59	-120.000
216.97	-120.000
217.34	-350.000
217.72	0.000
218.09	-275.000
218.47	-350.000
218.84	0.000
219.22	80.000
219.59	-5.882
219.97	0.000
220.34	450.000
220.72	-66.667
221.09	7.692
221.47	-133.333
221.84	-60.000
222.22	-57.143
222.59	0.000
222.97	-37.500
223.34	-280.000
223.72	-200.000
224.09	-200.000
224.46	-300.000
224.84	-60.000
225.21	-257.143
225.59	-300.000
225.96	-425.000
226.34	-11.538
226.71	216.667
227.08	-350.000
227.46	-13.333
227.83	-275.000
228.21	26.316
228.58	62.500
228.95	250.000
229.33	16.667
229.70	-50.000
230.08	21.053
230.45	190.000
230.82	-233.333
231.20	-28.571
231.57	-50.000
231.95	-90.909
232.32	-54.545
232.69	-20.000
233.07	-225.000
233.44	-76.471
233.81	-90.000
234.19	0.000
234.56	22.727
234.93	-6.897
235.31	-57.895
235.68	-77.778
236.05	-15.000
236.43	30.769
236.80	4.000
237.17	-7.407
237.55	21.212
237.92	-160.000
238.29	-25.806
238.67	4.545
239.04	8.333
239.41	-14.286
239.79	-23.913
240.16	7.407
240.53	4.348
240.91	0.000
241.28	8.197
241.65	7.463
242.02	8.108
242.40	15.385
242.77	14.667
243.14	2.439
243.51	-2.632
243.89	10.256
244.26	9.901
244.63	18.627
245.00	12.150
245.38	11.404
245.75	-0.885
246.12	13.492
246.49	3.876
246.87	11.429
247.24	12.583
247.61	11.842
247.98	13.423
248.36	7.407
248.73	2.454
249.10	13.115
249.47	14.925
249.84	16.230
250.22	8.290
250.59	16.667
250.96	17.273
251.33	11.224
251.70	17.094
252.08	12.500
252.45	9.426
252.82	12.810
253.19	11.328
253.56	14.068
253.94	8.462
254.31	16.288
254.68	13.986
255.05	13.681
255.42	14.966
255.79	12.298
256.16	14.570
256.54	9.603
256.91	14.754
257.28	15.082
257.65	11.783
258.02	11.504
258.39	12.821
258.76	15.902
259.14	18.966
259.51	10.951
259.88	11.898
260.25	14.167
260.62	15.616
260.99	15.027
261.36	17.426
261.73	13.528
262.10	13.736
262.47	16.354
262.85	16.667
263.22	12.208
263.59	11.053
263.96	16.113
264.33	15.601
264.70	16.543
265.07	15.990
265.44	17.914
265.81	14.352
266.18	16.100
266.55	14.955
266.92	12.528
267.29	13.567
267.66	13.082
268.03	15.284
268.40	14.405
268.77	12.073
269.14	12.335
269.51	12.061
269.88	14.754
270.25	13.883
270.62	16.034
270.99	16.566
271.36	16.040
271.73	14.145
272.10	16.032
272.47	13.427
272.84	14.859
273.21	12.425
273.58	14.315
273.95	15.385
274.32	14.639
274.69	11.992
275.06	14.469
275.43	12.384
275.80	16.226
276.17	12.222
276.54	13.619
276.91	11.807
277.28	14.105
277.65	13.106
278.02	13.603
278.39	11.413
278.76	11.599
279.13	14.184
279.50	15.292
279.87	14.132
280.23	9.859
280.60	12.542
280.97	12.993
281.34	12.394
281.71	14.890
282.08	12.126
282.45	12.930
282.82	11.303
283.19	13.732
283.56	11.967
283.92	12.462
284.29	14.218
284.66	13.957
285.03	10.897
285.40	12.210
285.77	9.907
286.14	13.282
286.51	14.003
286.87	13.112
287.24	12.500
287.61	13.453
287.98	12.085
288.35	13.462
288.72	10.355
289.08	12.592
289.45	13.757
289.82	12.199
290.19	11.925
290.56	13.662
290.93	11.698
291.29	12.121
291.66	11.433
292.03	10.041
292.40	11.973
292.77	10.782
293.13	11.367
293.50	9.593
293.87	11.678
294.24	12.000
294.60	12.137
294.97	11.007
295.34	12.292
295.71	9.079
296.08	11.886
296.44	10.539
296.81	11.449
297.18	11.582
297.55	10.731
297.91	10.676
298.28	9.479
298.65	9.750
299.02	10.153
299.38	10.297
299.75	10.981
300.12	10.764
300.48	11.060
300.85	11.699
301.22	11.298
301.59	10.845
301.95	11.977
302.32	11.000
302.69	10.953
303.05	10.337
303.42	10.643
303.79	11.979
304.15	10.936
304.52	11.839
304.89	11.414
305.25	11.698
305.62	11.076
305.99	11.340
306.35	11.290
306.72	10.445
307.09	10.254
307.45	12.422
307.82	10.999
308.19	11.302
308.55	12.536
308.92	10.127
309.29	11.207
309.65	10.916
310.02	11.881
310.38	10.433
310.75	10.680
311.12	11.985
311.48	11.632
311.85	11.396
312.22	11.195
312.58	11.925
312.95	10.803
313.31	11.472
313.68	11.630
314.05	11.924
314.41	12.204
314.78	11.898
315.14	12.341
315.51	11.911
315.87	10.891
316.24	12.237
316.61	12.877
316.97	12.036
317.34	11.376
317.70	13.188
318.07	12.522
318.43	11.990
318.80	13.545
319.16	12.189
319.53	11.482
319.89	12.095
320.26	13.879
320.62	13.032
320.99	12.742
321.35	12.200
321.72	13.116
322.08	11.632
322.45	13.279
322.81	13.628
323.18	13.717
323.54	14.397
323.91	13.345
324.27	14.028
324.64	13.602
325.00	13.682
325.37	14.005
325.73	14.215
326.10	15.004
326.46	14.577
326.83	14.331
327.19	14.724
327.56	14.783
327.92	14.005
328.29	14.597
328.65	13.819
329.01	14.298
329.38	14.743
329.74	14.812
330.11	16.096
330.47	15.249
330.84	15.159
331.20	15.250
331.56	15.598
331.93	15.230
332.29	14.153
332.66	16.030
333.02	14.322
333.38	15.101
333.75	14.899
334.11	15.430
334.48	15.264
334.84	15.973
335.20	14.358
335.57	15.683
335.93	15.289
336.29	15.308
336.66	14.802
337.02	16.054
337.38	15.901
337.75	15.537
338.11	16.148
338.47	14.806
338.84	15.313
339.20	14.827
339.56	14.745
339.93	15.025
340.29	14.976
340.65	15.896
341.02	16.121
341.38	15.764
341.74	13.882
342.11	15.044
342.47	14.297
342.83	15.539
343.20	15.209
343.56	16.119
343.92	14.171
344.28	14.609
344.65	15.426
345.01	16.069
345.37	16.174
345.73	14.497
346.10	15.679
346.46	15.427
346.82	15.730
347.19	16.730
347.55	16.161
347.91	15.379
348.27	15.175
348.63	16.222
349.00	15.362
349.36	15.316
349.72	16.220
350.08	14.785
350.45	14.373
350.81	15.309
351.17	16.241
351.53	15.542
351.89	15.642
352.26	15.149
352.62	16.119
352.98	15.420
353.34	15.161
353.70	16.641
354.07	16.095
354.43	15.414
354.79	15.707
355.15	16.409
355.51	16.009
355.87	15.931
356.24	16.502
356.60	15.447
356.96	15.567
357.32	15.242
357.68	14.934
358.04	15.644
358.40	17.090
358.77	15.936
359.13	15.657
359.49	15.613
359.85	14.938
360.21	16.356
360.57	15.937
360.93	15.585
361.29	16.842
361.66	15.641
362.02	16.910
362.38	16.796
362.74	16.061
363.10	15.818
363.46	16.551
363.82	16.619
364.18	16.890
364.54	16.321
364.90	17.926
365.26	16.621
365.62	17.267
365.98	16.201
366.35	16.443
366.71	17.007
367.07	17.388
367.43	16.743
367.79	16.722
368.15	17.659
368.51	17.591
368.87	17.309
369.23	17.133
369.59	16.803
369.95	17.512
370.31	17.421
370.67	16.988
371.03	16.967
371.39	16.185
371.75	17.400
372.11	17.683
372.47	17.739
372.83	17.408
373.19	17.211
373.55	17.276
373.91	18.200
374.27	17.788
374.63	16.982
374.99	17.440
375.35	17.792
375.71	18.323
376.07	18.464
376.42	18.514
376.78	18.272
377.14	18.777
377.50	17.394
377.86	19.212
378.22	18.802
378.58	18.133
378.94	18.192
379.30	18.395
379.66	18.577
380.02	18.177
380.38	19.700
380.74	19.606
381.09	18.990
381.45	20.000
381.81	19.496
382.17	19.181
382.53	19.825
382.89	19.187
383.25	19.988
383.61	18.750
383.97	19.611
384.32	20.156
384.68	19.258
385.04	19.954
385.40	19.564
385.76	20.281
386.12	20.168
386.48	20.588
386.83	20.262
387.19	20.510
387.55	20.188
387.91	20.947
388.27	21.189
388.62	19.645
388.98	19.966
389.34	21.037
389.70	20.395
390.06	20.485
390.42	21.145
390.77	21.734
391.13	21.303
391.49	21.920
391.85	21.273
392.20	22.064
392.56	21.382
392.92	22.246
393.28	21.559
393.64	21.788
393.99	21.964
394.35	21.145
394.71	22.036
395.07	20.778
395.42	22.273
395.78	23.218
396.14	22.698
396.50	22.447
396.85	21.825
397.21	22.249
397.57	22.497
397.92	22.509
398.28	21.510
398.64	21.739
399.00	21.571
399.35	22.199
399.71	21.848
400.07	22.796
400.42	22.759
400.78	22.569
401.14	22.311
401.49	22.172
401.85	22.733
402.21	22.654
402.57	23.592
402.92	22.754
403.28	22.658
403.63	22.971
403.99	22.506
404.35	22.683
404.70	22.720
405.06	22.228
405.42	23.126
405.77	23.501
406.13	22.690
406.49	23.142
406.84	22.992
407.20	23.589
407.55	22.108
407.91	22.879
408.27	23.263
408.62	23.618
408.98	23.215
409.34	22.405
409.69	23.053
410.05	23.740
410.40	23.666
410.76	23.331
411.11	24.021
411.47	23.771
411.83	24.691
412.18	24.157
412.54	23.829
412.89	23.749
413.25	23.420
413.60	22.573
413.96	23.951
414.31	23.796
414.67	23.971
415.03	24.123
415.38	24.149
415.74	24.679
416.09	24.676
416.45	23.795
416.80	24.847
417.16	24.521
417.51	24.533
417.87	24.709
418.22	24.132
418.58	24.535
418.93	25.320
419.29	24.291
419.64	23.830
420.00	23.917
420.35	24.312
420.71	24.411
421.06	23.749
421.42	24.541
421.77	23.694
422.12	24.947
422.48	24.885
422.83	25.849
423.19	25.623
423.54	25.608
423.90	25.069
424.25	25.920
424.61	24.742
424.96	25.590
425.31	25.531
425.67	25.067
426.02	26.453
426.38	25.660
426.73	25.335
427.09	26.125
427.44	24.904
427.79	25.373
428.15	25.685
428.50	25.730
428.85	25.144
429.21	26.064
429.56	25.765
429.92	26.241
430.27	26.554
430.62	26.771
430.98	25.971
431.33	26.197
431.68	25.431
432.04	26.359
432.39	26.138
432.74	27.340
433.10	26.609
433.45	25.697
433.80	26.019
434.16	26.653
434.51	27.184
434.86	27.579
435.22	27.683
435.57	26.828
435.92	27.101
436.28	27.531
436.63	27.198
436.98	26.248
437.34	26.776
437.69	26.087
438.04	27.499
438.39	26.422
438.75	26.065
439.10	27.696
439.45	27.557
439.81	26.667
440.16	26.488
440.51	27.592
440.86	25.903
441.22	27.063
441.57	27.149
441.92	27.498
442.27	27.879
442.63	26.925
442.98	27.535
443.33	27.249
443.68	28.890
444.03	28.128
444.39	27.924
444.74	27.361
445.09	27.471
445.44	27.450
445.79	28.161
446.15	28.109
446.50	28.269
446.85	27.724
447.20	27.708
447.55	27.144
447.91	27.853
448.26	28.066
448.61	28.162
448.96	28.541
449.31	27.572
449.66	27.288
450.02	28.217
450.37	28.237
450.72	27.126
451.07	28.303
451.42	27.556
451.77	27.460
452.12	28.442
452.47	28.580
452.83	28.773
453.18	29.013
453.53	27.455
453.88	28.382
454.23	28.644
454.58	28.729
454.93	27.913
455.28	28.597
455.63	28.709
455.98	27.374
456.34	27.915
456.69	27.454
457.04	27.246
457.39	28.437
457.74	28.803
458.09	28.940
458.44	28.287
458.79	27.901
459.14	28.422
459.49	28.014
459.84	28.699
460.19	28.151
460.54	28.620
460.89	28.798
461.24	28.276
461.59	29.054
461.94	27.895
462.29	28.835
462.64	28.304
462.99	28.814
463.34	29.267
463.69	28.195
464.04	28.794
464.39	28.419
464.74	28.107
465.09	28.258
465.44	28.112
465.79	28.715
466.14	28.035
466.49	28.789
466.84	29.366
467.19	28.613
467.54	27.791
467.89	28.046
468.24	28.366
468.59	27.736
468.94	28.147
469.29	28.494
469.64	28.735
469.99	27.916
470.34	29.517
470.68	28.230
471.03	28.684
471.38	27.796
471.73	28.218
472.08	28.997
472.43	27.815
472.78	29.093
473.13	28.508
473.48	28.399
473.83	28.439
474.17	28.370
474.52	28.443
474.87	28.793
475.22	28.958
475.57	27.674
475.92	28.920
476.27	28.914
476.61	28.349
476.96	28.571
477.31	28.267
477.66	28.751
478.01	28.419
478.36	28.415
478.70	28.916
479.05	29.499
479.40	28.085
479.75	28.194
480.10	29.323
480.45	28.715
480.79	28.662
481.14	28.722
481.49	28.351
481.84	28.808
482.19	28.817
482.53	28.728
482.88	29.154
483.23	28.235
483.58	28.166
483.92	28.546
484.27	28.366
484.62	28.300
484.97	29.082
485.31	27.807
485.66	27.059
486.01	26.722
486.36	28.088
486.70	29.399
487.05	30.864
487.40	29.974
487.75	29.618
488.09	29.727
488.44	28.298
488.79	28.533
489.13	28.458
489.48	27.806
489.83	28.129
490.17	27.947
490.52	28.161
490.87	28.723
491.22	28.596
491.56	28.968
491.91	28.958
492.26	28.775
492.60	28.509
492.95	28.346
493.30	28.194
493.64	28.340
493.99	28.026
494.34	28.659
494.68	28.266
495.03	29.075
495.37	29.206
495.72	28.345
496.07	28.922
496.41	27.327
496.76	28.565
497.11	28.577
497.45	29.132
497.80	28.387
498.14	28.299
498.49	28.814
498.84	28.656
499.18	28.835
499.53	28.475
499.87	28.703
500.22	28.094
500.56	28.565
500.91	28.696
501.26	28.773
501.60	28.679
501.95	28.702
502.29	28.697
502.64	28.378
502.98	28.041
503.33	27.905
503.67	28.958
504.02	28.415
504.36	29.044
504.71	28.342
505.06	28.058
505.40	28.839
505.75	28.279
506.09	29.696
506.44	28.784
506.78	28.624
507.13	28.354
507.47	28.944
507.82	29.309
508.16	28.107
508.51	28.223
508.85	28.956
509.19	28.659
509.54	28.963
509.88	28.315
510.23	29.043
510.57	29.725
510.92	28.979
511.26	28.090
511.61	28.296
511.95	28.990
512.30	28.459
512.64	27.286
512.98	28.664
513.33	29.486
513.67	29.118
514.02	28.973
514.36	29.463
514.70	28.646
515.05	29.458
515.39	29.081
515.74	29.215
516.08	29.107
516.42	28.938
516.77	29.232
517.11	28.210
517.46	29.109
517.80	29.343
518.14	30.522
518.49	29.067
518.83	29.484
519.17	28.110
519.52	28.878
519.86	29.250
520.20	29.499
520.55	28.970
520.89	28.885
521.23	29.146
521.58	28.475
521.92	28.442
522.26	27.778
522.61	28.241
522.95	29.412
523.29	29.195
523.64	29.596
523.98	30.918
524.32	30.487
524.66	29.767
525.01	29.502
525.35	29.121
525.69	28.828
526.04	27.784
526.38	29.310
526.72	29.066
527.06	29.736
527.41	29.563
527.75	29.869
528.09	29.457
528.43	28.834
528.78	28.266
529.12	28.268
529.46	29.623
529.80	28.776
530.15	30.319
530.49	29.478
530.83	28.749
531.17	28.973
531.51	29.122
531.86	29.748
532.20	30.244
532.54	29.264
532.88	29.879
533.22	29.582
533.57	29.775
533.91	28.788
534.25	28.943
534.59	29.540
534.93	29.598
535.27	30.535
535.62	30.756
535.96	29.808
536.30	29.318
536.64	29.850
536.98	28.352
537.32	28.951
537.66	28.821
538.01	29.063
538.35	29.294
538.69	28.966
539.03	29.552
539.37	29.859
539.71	30.511
540.05	30.456
540.39	29.584
540.73	29.387
541.07	28.510
541.42	28.706
541.76	28.826
542.10	29.252
542.44	28.380
542.78	28.528
543.12	29.023
543.46	29.182
543.80	27.398
544.14	28.845
544.48	29.078
544.82	29.443
545.16	29.636
545.50	28.999
545.84	28.047
546.18	29.506
546.52	29.618
546.86	28.553
547.20	28.880
547.54	28.527
547.88	28.692
548.22	28.246
548.56	30.369
548.90	30.866
549.24	29.848
549.58	30.158
549.92	28.699
550.26	29.320
550.60	29.355
550.94	29.948
551.28	28.647
551.62	29.852
551.96	28.479
552.30	29.573
552.64	29.558
552.98	29.382
553.32	29.325
553.66	28.875
554.00	29.445
554.34	29.858
554.68	29.245
555.02	29.238
555.36	28.994
555.69	28.828
556.03	28.625
556.37	29.787
556.71	28.345
557.05	29.073
557.39	29.529
557.73	29.789
558.07	28.675
558.41	29.502
558.75	28.330
559.08	29.019
559.42	29.561
559.76	29.172
560.10	29.203
560.44	28.232
560.78	29.688
561.12	29.372
561.45	29.440
561.79	29.609
562.13	29.575
562.47	29.223
562.81	29.241
563.15	29.987
563.48	29.397
563.82	28.174
564.16	28.831
564.50	29.380
564.84	28.968
565.17	29.882
565.51	29.402
565.85	30.404
566.19	28.687
566.52	29.081
566.86	29.372
567.20	28.385
567.54	28.040
567.88	29.358
568.21	28.953
568.55	29.353
568.89	29.641
569.23	28.728
569.56	28.722
569.90	29.971
570.24	28.971
570.57	28.640
570.91	28.690
571.25	29.332
571.59	28.945
571.92	29.531
572.26	29.645
572.60	29.156
572.93	29.335
573.27	28.969
573.61	28.904
573.95	28.114
574.28	29.035
574.62	28.649
574.96	28.937
575.29	28.619
575.63	28.644
575.97	28.814
576.30	28.892
576.64	28.370
576.98	28.656
577.31	28.800
577.65	29.406
577.98	28.934
578.32	28.939
578.66	29.288
578.99	28.671
579.33	29.458
579.67	28.672
580.00	28.231
580.34	28.556
580.67	28.751
581.01	28.516
581.35	28.872
581.68	28.500
582.02	29.088
582.35	29.316
582.69	29.713
583.02	30.088
583.36	29.678
583.70	29.539
584.03	28.774
584.37	28.586
584.70	28.582
585.04	28.110
585.37	28.590
585.71	28.565
586.04	28.974
586.38	29.271
586.72	29.205
587.05	29.419
587.39	29.145
587.72	29.354
588.06	29.545
588.39	29.076
588.73	29.127
589.06	29.458
589.40	29.656
589.73	29.659
590.07	29.808
590.40	29.615
590.73	29.480
591.07	29.561
591.40	29.005
591.74	29.054
592.07	29.963
592.41	29.416
592.74	29.038
593.08	29.076
593.41	29.163
593.75	29.655
594.08	29.264
594.41	31.058
594.75	29.724
595.08	29.307
595.42	29.610
595.75	29.512
596.09	29.888
596.42	29.918
596.75	29.757
597.09	29.495
597.42	28.844
597.75	29.479
598.09	29.722
598.42	29.996
598.76	29.690
599.09	28.978
599.42	28.595
599.76	28.623
600.09	29.229
600.42	29.196
600.76	29.194
601.09	29.539
601.42	29.248
601.76	29.172
602.09	28.914
602.42	28.317
602.76	29.410
603.09	29.258
603.42	29.697
603.76	29.528
604.09	29.702
604.42	30.128
604.76	29.642
605.09	29.557
605.42	29.107
605.75	29.538
606.09	29.265
606.42	29.150
606.75	28.748
607.09	28.533
607.42	29.518
607.75	29.230
608.08	28.769
608.42	29.303
608.75	29.353
609.08	29.499
609.41	29.466
609.75	28.527
610.08	29.771
610.41	29.184
610.74	28.739
611.07	28.952
611.41	28.610
611.74	30.300
612.07	29.827
612.40	29.943
612.73	29.144
613.07	29.535
613.40	29.933
613.73	29.754
614.06	29.637
614.39	28.523
614.72	28.287
615.06	28.922
615.39	29.580
615.72	28.957
616.05	29.480
616.38	29.516
616.71	29.937
617.05	28.914
617.38	29.213
617.71	29.050
618.04	29.088
618.37	29.727
618.70	29.468
619.03	28.495
619.36	28.792
619.69	28.443
620.03	29.190
620.36	28.221
620.69	29.303
621.02	29.921
621.35	29.826
621.68	30.586
622.01	29.395
622.34	29.498
622.67	29.416
623.00	28.677
623.33	29.463
623.66	30.026
623.99	28.506
624.32	28.850
624.65	28.764
624.99	29.584
625.32	29.458
625.65	30.074
625.98	28.542
626.31	28.703
626.64	28.645
626.97	28.432
627.30	28.474
627.63	29.632
627.96	29.054
628.29	29.572
628.62	27.792
628.95	28.747
629.28	28.887
629.61	28.704
629.94	27.699
630.26	28.898
630.59	27.979
630.92	27.706
631.25	30.233
631.58	29.849
631.91	29.241
632.24	29.683
632.57	28.273
632.90	27.683
633.23	28.163
633.56	29.184
633.89	26.963
634.22	29.834
634.55	30.585
634.88	28.463
635.20	29.925
635.53	28.362
635.86	28.494
636.19	29.056
636.52	29.008
636.85	27.886
637.18	28.690
637.51	28.925
637.83	28.461
638.16	29.032
638.49	28.991
638.82	29.538
639.15	27.262
639.48	29.677
639.81	27.829
640.13	28.975
640.46	27.636
640.79	27.696
641.12	29.689
641.45	29.235
641.77	30.680
642.10	27.428
642.43	29.388
642.76	29.404
643.09	29.041
643.41	29.412
643.74	28.276
644.07	29.241
644.40	31.400
644.73	27.576
645.05	27.460
645.38	27.914
645.71	29.032
646.04	29.412
646.36	27.153
646.69	29.141
647.02	30.428
647.35	29.313
647.67	27.858
648.00	30.892
648.33	28.529
648.66	28.245
648.98	27.619
649.31	29.229
649.64	28.420
649.96	27.321
650.29	28.234
650.62	27.016
650.94	28.228
651.27	25.898
651.60	28.655
651.92	25.532
652.25	27.641
652.58	28.061
652.90	27.616
653.23	26.620
653.56	29.529
653.88	29.354
654.21	27.887
654.54	28.902
654.86	27.337
655.19	27.227
655.52	29.050
655.84	29.724
656.17	34.922
656.49	49.885
656.82	55.476
657.15	44.093
657.47	33.602
657.80	24.538
658.13	18.972
658.45	24.755
658.78	28.814
659.10	28.220
659.43	27.259
659.75	26.672
660.08	24.762
660.41	23.656
660.73	24.173
661.06	26.138
661.38	27.751
661.71	26.207
662.03	26.984
662.36	27.907
662.68	26.266
663.01	27.965
663.33	29.679
663.66	30.586
663.98	26.154
664.31	28.330
664.63	27.168
664.96	30.672
665.28	27.223
665.61	27.797
665.93	25.357
666.26	29.211
666.58	24.908
666.91	29.720
667.23	28.381
667.56	26.430
667.88	26.600
668.21	27.148
668.53	26.062
668.86	28.094
669.18	27.902
669.50	26.441
669.83	27.000
670.15	27.953
670.48	28.175
670.80	27.725
671.13	27.599
671.45	26.378
671.77	28.060
672.10	25.500
672.42	25.566
672.75	28.879
673.07	27.164
673.39	26.810
673.72	28.188
674.04	30.517
674.37	27.728
674.69	28.571
675.01	27.429
675.34	26.336
675.66	26.404
675.98	27.425
676.31	29.102
676.63	29.087
676.95	29.502
677.28	29.435
677.60	26.378
677.92	27.447
678.25	27.788
678.57	30.071
678.89	29.010
679.22	25.958
679.54	26.496
679.86	24.746
680.18	28.690
680.51	28.459
680.83	29.133
681.15	26.897
681.48	29.016
681.80	29.879
682.12	27.098
682.44	26.043
682.77	26.950
683.09	27.652
683.41	29.070
683.73	25.617
684.06	27.122
684.38	25.581
684.70	30.341
685.02	26.162
685.34	23.627
685.67	28.076
685.99	27.761
686.31	27.616
686.63	27.488
686.96	27.287
687.28	27.362
687.60	26.936
687.92	26.367
688.24	25.710
688.56	25.862
688.89	26.134
689.21	27.202
689.53	27.059
689.85	27.416
690.17	27.222
690.49	26.892
690.82	26.733
691.14	25.709
691.46	28.107
691.78	30.387
692.10	26.239
692.42	25.536
692.74	27.223
693.06	25.000
693.39	28.463
693.71	26.316
694.03	25.279
694.35	26.286
694.67	25.462
694.99	26.809
695.31	28.477
695.63	24.242
695.95	25.466
696.27	25.495
696.59	25.664
696.91	24.775
697.23	28.132
697.56	28.717
697.88	29.167
698.20	27.684
698.52	29.167
698.84	30.353
699.16	29.388
699.48	25.523
699.80	23.404
700.12	26.201
700.44	26.959
700.76	26.841
701.08	26.392
701.40	27.720
701.72	26.866
702.04	24.866
702.36	24.346
702.68	25.428
703.00	26.650
703.32	26.355
703.64	25.672
703.96	25.537
704.28	24.816
704.60	28.861
704.91	26.276
705.23	24.110
705.55	23.955
705.87	24.545
706.19	28.528
706.51	25.301
706.83	27.089
707.15	26.720
707.47	26.869
707.79	27.074
708.11	23.093
708.43	25.591
708.74	23.661
709.06	25.058
709.38	26.291
709.70	25.558
710.02	23.514
710.34	26.596
710.66	22.626
710.98	26.503
711.29	28.022
711.61	26.836
711.93	32.194
712.25	24.054
712.57	32.153
712.89	28.529
713.20	23.373
713.52	26.301
713.84	27.855
714.16	27.368
714.48	28.351
714.80	28.571
715.11	23.885
715.43	26.790
715.75	25.526
716.07	27.348
716.39	26.230
716.70	25.301
717.02	25.574
717.34	25.784
717.66	24.497
717.97	24.658
718.29	25.430
718.61	24.013
718.93	20.712
719.24	27.019
719.56	27.914
719.88	26.727
720.20	26.452
720.51	25.155
720.83	25.313
721.15	20.724
721.46	23.288
721.78	28.000
722.10	23.301
722.42	24.161
722.73	25.484
723.05	27.018
723.37	24.306
723.68	29.032
724.00	25.632
724.32	21.479
724.63	23.077
724.95	28.369
725.27	21.603
725.58	20.495
725.90	28.276
726.22	22.257
726.53	26.623
726.85	28.616
727.16	24.471
727.48	29.358
727.80	25.828
728.11	22.261
728.43	24.242
728.74	25.418
729.06	21.854
729.38	25.325
729.69	23.490
730.01	24.107
730.32	25.152
730.64	23.899
730.96	23.913
731.27	28.212
731.59	25.275
731.90	21.558
732.22	25.521
732.53	21.547
732.85	27.143
733.16	22.581
733.48	25.610
733.80	22.563
734.11	27.350
734.43	24.595
734.74	27.848
735.06	25.126
735.37	25.676
735.69	24.595
736.00	24.859
736.32	25.876
736.63	23.889
736.95	24.425
737.26	26.667
737.58	24.848
737.89	26.176
738.21	25.382
738.52	24.262
738.83	25.597
739.15	21.631
739.46	22.109
739.78	25.767
740.09	22.923
740.41	25.364
740.72	27.000
741.04	26.537
741.35	24.211
741.66	25.882
741.98	27.459
742.29	21.339
742.61	24.561
742.92	24.615
743.23	24.910
743.55	25.969
743.86	22.800
744.18	23.554
744.49	19.409
744.80	26.337
745.12	27.426
745.43	24.797
745.74	21.121
746.06	19.068
746.37	27.848
746.68	31.301
747.00	22.500
747.31	28.755
747.62	23.846
747.94	22.267
748.25	17.671
748.56	20.408
748.88	24.359
749.19	31.034
749.50	26.407
749.82	29.317
750.13	25.623
750.44	22.667
750.75	28.000
751.07	21.538
751.38	25.237
751.69	23.003
752.01	23.301
752.32	26.144
752.63	25.170
752.94	25.606
753.26	23.792
753.57	24.444
753.88	24.345
754.19	24.116
754.51	26.045
754.82	27.653
755.13	23.934
755.44	25.597
755.75	27.303
756.07	25.373
756.38	22.642
756.69	24.398
757.00	20.776
757.31	23.770
757.63	25.320
757.94	24.883
758.25	25.734
758.56	24.837
758.87	24.545
759.18	26.400
759.50	25.779
759.81	25.210
760.12	25.876
760.43	24.479
760.74	26.108
761.05	24.750
761.36	22.892
761.67	23.350
761.99	21.351
762.30	25.610
762.61	20.132
762.92	20.522
763.23	26.217
763.54	25.180
763.85	25.430
764.16	26.599
764.47	22.183
764.78	24.601
765.10	24.047
765.41	27.436
765.72	23.810
766.03	24.294
766.34	24.765
766.65	26.481
766.96	27.490
767.27	17.972
767.58	18.905
767.89	24.519
768.20	22.066
768.51	21.759
768.82	22.490
769.13	26.894
769.44	20.000
769.75	25.271
770.06	22.692
770.37	24.016
770.68	19.149
770.99	22.267
771.30	29.630
771.61	25.095
771.92	24.444
772.23	26.316
772.54	19.444
772.85	24.424
773.16	26.190
773.47	18.519
773.78	22.162
774.09	25.568
774.39	25.000
774.70	22.951
775.01	19.512
775.32	17.059
775.63	23.926
775.94	12.739
776.25	22.581
776.56	21.154
776.87	23.129
777.18	21.379
777.48	20.979
777.79	17.568
778.10	18.382
778.41	17.361
778.72	19.310
779.03	19.136
779.34	20.606
779.65	15.544
779.95	26.111
780.26	19.886
780.57	25.161
780.88	22.464
781.19	27.097
781.50	22.941
781.80	24.731
782.11	24.339
782.42	20.202
782.73	20.359
783.04	22.346
783.34	21.212
783.65	22.222
783.96	16.770
784.27	22.619
784.57	19.205
784.88	21.429
785.19	19.685
785.50	16.535
785.81	21.053
786.11	26.154
786.42	17.266
786.73	15.827
787.04	20.301
787.34	15.574
787.65	18.400
787.96	21.642
788.26	22.378
788.57	26.573
788.88	23.026
789.19	20.915
789.49	26.027
789.80	21.277
790.11	15.748
790.41	20.313
790.72	16.102
791.03	8.738
791.33	25.217
791.64	19.298
791.95	16.071
792.25	22.857
792.56	14.286
792.87	10.417
793.17	23.214
793.48	10.417
793.79	1.205
794.09	8.257
794.40	16.514
794.70	17.687
795.01	18.182
795.32	16.438
795.62	20.423
795.93	16.667
796.23	25.410
796.54	17.857
796.85	10.638
797.15	11.957
797.46	4.110
797.76	18.750
798.07	18.478
798.37	5.155
798.68	3.896
798.99	17.241
799.29	16.854
799.60	11.702
799.90	14.458
800.21	10.769
800.51	-7.463
800.82	10.294
801.12	5.479
801.43	5.882
801.73	-5.085
802.04	12.121
802.34	6.667
802.65	5.085
802.95	19.403
803.26	16.949
803.56	2.740
803.87	10.000
804.17	4.110
804.48	-15.789
804.78	18.056
805.09	-8.621
805.39	14.865
805.70	1.408
806.00	15.854
806.30	21.687
806.61	12.329
806.91	15.385
807.22	10.000
807.52	4.598
807.83	9.722
808.13	20.482
808.43	7.865
808.74	6.250
809.04	1.471
809.35	10.667
809.65	0.000
809.95	20.548
810.26	7.018
810.56	15.517
810.86	13.235
811.17	10.526
811.47	0.000
811.77	-11.111
812.08	10.169
812.38	18.333
812.69	17.241
812.99	-7.547
813.29	-35.897
813.59	8.000
813.90	5.263
814.20	16.364
814.50	15.493
814.81	11.538
815.11	4.918
815.41	13.433
815.72	12.069
816.02	7.143
816.32	11.111
816.62	9.091
816.93	2.222
817.23	29.630
817.53	-6.383
817.84	-11.905
818.14	-2.941
818.44	2.041
818.74	11.111
819.04	-17.949
819.35	-37.143
819.65	0.000
819.95	-9.434
820.25	20.000
820.56	7.143
820.86	3.125
821.16	-12.821
821.46	11.628
821.76	0.000
822.07	10.714
822.37	2.174
822.67	0.000
822.97	-40.541
823.27	-22.500
823.57	14.286
823.88	28.889
824.18	20.000
824.48	16.667
824.78	12.000
825.08	-9.091
825.38	-2.222
825.69	31.915
825.99	36.111
826.29	-31.429
826.59	7.692
826.89	-18.605
827.19	-12.000
827.49	11.765
827.79	35.417
828.09	-27.027
828.39	-33.333
828.70	-4.878
829.00	-6.977
829.30	-17.857
829.60	23.529
829.90	8.696
830.20	-11.429
830.50	-20.690
830.80	-5.556
831.10	-50.000
831.40	-38.235
831.70	-28.571
832.00	9.677
832.30	-82.353
832.60	-25.000
832.90	-100.000
833.20	-47.368
833.50	-75.000
833.80	-36.842
834.10	-57.143
834.40	0.000
834.70	18.750
835.00	0.000
835.30	-26.471
835.60	-3.333
835.90	-20.000
836.20	-81.818
836.50	12.000
836.80	-45.455
837.10	-11.111
837.40	-7.407
837.70	-37.500
838.00	-39.286
838.30	-78.261
838.60	-6.897
838.90	-100.000
839.19	-73.913
839.49	-108.333
839.79	-8.696
840.09	-93.750
840.39	-35.000
840.69	-16.129
840.99	-14.286
841.29	-40.000
841.59	-52.632
841.88	0.000
842.18	-46.154
842.48	-120.000
842.78	-45.000
843.08	-26.667
843.38	9.677
843.68	-77.778
843.97	14.706
844.27	37.500
844.57	-15.789
844.87	-60.000
845.17	-20.000
845.47	9.524
845.76	-52.381
846.06	-88.889
846.36	-41.176
846.66	-11.538
846.96	-46.667
847.25	11.765
847.55	-8.696
847.85	-10.000
848.15	-41.176
848.44	-63.636
848.74	4.762
849.04	-54.167
849.34	-68.750
849.63	-13.043
849.93	800.000
850.23	-60.000
850.53	0.000
850.82	-27.273
851.12	9.091
851.42	-90.909
851.71	-23.077
852.01	-70.000
852.31	-69.231
852.61	-5.263
852.90	-16.667
853.20	-22.222
853.50	-155.556
853.79	-61.905
854.09	-63.636
854.39	-66.667
854.68	-16.129
854.98	-50.000
855.28	-11.111
855.57	0.000
855.87	-40.000
856.17	-18.182
856.46	3.704
856.76	-11.111
857.05	4.348
857.35	-16.667
857.65	-69.231
857.94	9.524
858.24	18.519
858.53	-34.783
858.83	-58.824
859.13	-41.176
859.42	-64.706
859.72	21.429
860.01	-10.000
860.31	-88.889
860.60	-90.000
860.90	-33.333
861.20	-50.000
861.49	-38.462
861.79	3.333
862.08	-107.692
862.38	3.125
862.67	-11.765
862.97	-6.250
863.26	-122.222
863.56	-10.000
863.85	-100.000
864.15	0.000
864.44	-433.333
864.74	-28.571
865.03	-56.250
865.33	-140.000
865.62	-22.581
865.92	-27.273
866.21	-91.304
866.51	7.143
866.80	-260.000
867.10	-91.667
867.39	-58.333
867.69	500.000
867.98	0.000
868.27	0.000
868.57	-1200.000
868.86	-180.000
869.16	-66.667
869.45	-45.833
869.75	-81.818
870.04	-100.000
870.33	-83.333
870.63	-200.000
870.92	-125.000
871.22	-237.500
871.51	-136.364
871.80	-800.000
872.10	-950.000
>>>>>End Processed Spectral Data<<<<<
