SpectraSuite Data File
++++++++++++++++++++++++++++++++++++
Date: Thu May 14 14:43:51 PDT 2015
User: schluterlab
Dark Spectrum Present: Yes
Reference Spectrum Present: Yes
Number of Sampled Component Spectra: 1
Spectrometers: USB2E3373
Integration Time (usec): 3000 (USB2E3373)
Spectra Averaged: 3 (USB2E3373)
Boxcar Smoothing: 0 (USB2E3373)
Correct for Electrical Dark: No (USB2E3373)
Strobe/Lamp Enabled: No (USB2E3373)
Correct for Detector Non-linearity: No (USB2E3373)
Correct for Stray Light: No (USB2E3373)
Number of Pixels in Processed Spectrum: 2048
>>>>>Begin Processed Spectral Data<<<<<
178.53	0.000
178.91	-42.857
179.29	-500.000
179.67	-100.000
180.04	92.857
180.42	-40.000
180.80	80.000
181.18	-200.000
181.56	600.000
181.94	25.000
182.31	-25.000
182.69	66.667
183.07	-200.000
183.45	75.000
183.83	116.667
184.20	200.000
184.58	-300.000
184.96	-25.000
185.34	11.111
185.72	340.000
186.09	111.111
186.47	150.000
186.85	160.000
187.23	-55.556
187.61	-1400.000
187.98	60.000
188.36	175.000
188.74	-250.000
189.12	133.333
189.49	62.500
189.87	-87.500
190.25	177.778
190.63	160.000
191.00	22.222
191.38	0.000
191.76	-75.000
192.14	33.333
192.51	-350.000
192.89	150.000
193.27	0.000
193.65	57.143
194.02	-300.000
194.40	85.714
194.78	42.857
195.15	0.000
195.53	81.818
195.91	0.000
196.29	50.000
196.66	15.385
197.04	700.000
197.42	71.429
197.79	50.000
198.17	0.000
198.55	0.000
198.92	200.000
199.30	-100.000
199.68	27.273
200.05	14.286
200.43	-150.000
200.81	85.714
201.18	0.000
201.56	77.778
201.94	0.000
202.31	33.333
202.69	122.222
203.07	200.000
203.44	44.444
203.82	-50.000
204.19	-50.000
204.57	-250.000
204.95	0.000
205.32	-200.000
205.70	-0.000
206.08	-33.333
206.45	83.333
206.83	260.000
207.20	16.667
207.58	-20.000
207.96	-16.667
208.33	150.000
208.71	16.667
209.08	200.000
209.46	0.000
209.84	216.667
210.21	-150.000
210.59	-50.000
210.96	300.000
211.34	275.000
211.71	-12.500
212.09	700.000
212.46	0.000
212.84	900.000
213.22	-80.000
213.59	200.000
213.97	60.000
214.34	66.667
214.72	50.000
215.09	75.000
215.47	0.000
215.84	-28.571
216.22	400.000
216.59	80.000
216.97	-80.000
217.34	25.000
217.72	50.000
218.09	25.000
218.47	150.000
218.84	0.000
219.22	60.000
219.59	0.000
219.97	25.000
220.34	-150.000
220.72	122.222
221.09	46.154
221.47	-33.333
221.84	-30.000
222.22	28.571
222.59	0.000
222.97	100.000
223.34	20.000
223.72	400.000
224.09	-50.000
224.46	-125.000
224.84	80.000
225.21	-114.286
225.59	50.000
225.96	-150.000
226.34	-3.846
226.71	83.333
227.08	100.000
227.46	40.000
227.83	50.000
228.21	15.789
228.58	50.000
228.95	-200.000
229.33	108.333
229.70	60.000
230.08	131.579
230.45	30.000
230.82	66.667
231.20	100.000
231.57	100.000
231.95	136.364
232.32	63.636
232.69	80.000
233.07	-125.000
233.44	29.412
233.81	120.000
234.19	127.778
234.56	27.273
234.93	6.897
235.31	21.053
235.68	16.667
236.05	35.000
236.43	46.154
236.80	52.000
237.17	22.222
237.55	33.333
237.92	-30.000
238.29	9.677
238.67	47.727
239.04	44.444
239.41	21.429
239.79	36.957
240.16	22.222
240.53	34.783
240.91	7.843
241.28	29.508
241.65	34.328
242.02	31.081
242.40	16.923
242.77	18.667
243.14	13.415
243.51	23.684
243.89	17.949
244.26	27.723
244.63	36.275
245.00	36.449
245.38	27.193
245.75	7.965
246.12	29.365
246.49	26.357
246.87	23.571
247.24	29.139
247.61	24.342
247.98	24.832
248.36	21.605
248.73	25.767
249.10	29.508
249.47	33.333
249.84	30.890
250.22	24.870
250.59	25.000
250.96	26.364
251.33	24.490
251.70	25.214
252.08	25.417
252.45	29.098
252.82	26.860
253.19	21.875
253.56	24.715
253.94	25.000
254.31	29.924
254.68	30.070
255.05	26.710
255.42	22.789
255.79	28.803
256.16	21.523
256.54	27.483
256.91	24.918
257.28	26.230
257.65	22.930
258.02	22.419
258.39	26.496
258.76	29.969
259.14	28.448
259.51	23.055
259.88	26.629
260.25	25.000
260.62	28.767
260.99	28.415
261.36	27.614
261.73	23.873
262.10	27.198
262.47	29.491
262.85	30.303
263.22	26.494
263.59	20.263
263.96	27.366
264.33	24.297
264.70	26.420
265.07	27.446
265.44	27.438
265.81	28.009
266.18	26.304
266.55	24.330
266.92	24.829
267.29	28.228
267.66	24.834
268.03	28.384
268.40	24.217
268.77	24.374
269.14	24.449
269.51	24.123
269.88	25.000
270.25	23.340
270.62	26.371
270.99	28.687
271.36	26.931
271.73	26.130
272.10	26.854
272.47	23.447
272.84	25.703
273.21	25.050
273.58	23.790
273.95	25.192
274.32	24.144
274.69	23.985
275.06	25.641
275.43	24.030
275.80	24.515
276.17	22.963
276.54	22.015
276.91	24.687
277.28	27.125
277.65	24.417
278.02	26.103
278.39	23.913
278.76	26.011
279.13	25.177
279.50	26.460
279.87	25.939
280.23	21.127
280.60	25.593
280.97	24.013
281.34	24.278
281.71	26.058
282.08	23.754
282.45	22.586
282.82	22.920
283.19	23.263
283.56	24.426
283.92	25.225
284.29	25.118
284.66	23.317
285.03	21.955
285.40	23.957
285.77	23.529
286.14	23.664
286.51	25.266
286.87	22.907
287.24	22.289
287.61	22.272
287.98	22.205
288.35	23.669
288.72	21.450
289.08	22.401
289.45	23.225
289.82	22.892
290.19	22.989
290.56	23.099
290.93	22.254
291.29	21.625
291.66	21.212
292.03	18.318
292.40	22.041
292.77	20.620
293.13	20.298
293.50	18.397
293.87	20.268
294.24	20.667
294.60	20.986
294.97	20.268
295.34	21.127
295.71	18.033
296.08	19.897
296.44	20.343
296.81	18.270
297.18	18.929
297.55	18.396
297.91	18.861
298.28	19.550
298.65	18.074
299.02	17.473
299.38	18.650
299.75	19.509
300.12	17.477
300.48	19.585
300.85	18.448
301.22	18.345
301.59	17.580
301.95	18.079
302.32	17.556
302.69	18.291
303.05	17.737
303.42	17.960
303.79	17.292
304.15	17.876
304.52	17.019
304.89	18.220
305.25	17.805
305.62	17.346
305.99	18.557
306.35	16.431
306.72	19.545
307.09	16.548
307.45	18.530
307.82	18.668
308.19	17.760
308.55	17.840
308.92	17.235
309.29	16.475
309.65	17.349
310.02	17.129
310.38	17.815
310.75	16.796
311.12	17.737
311.48	16.618
311.85	16.619
312.22	17.457
312.58	17.559
312.95	16.922
313.31	17.615
313.68	17.308
314.05	18.970
314.41	17.851
314.78	17.620
315.14	17.514
315.51	18.190
315.87	17.192
316.24	16.895
316.61	18.561
316.97	17.738
317.34	19.929
317.70	19.389
318.07	19.400
318.43	19.133
318.80	19.147
319.16	19.142
319.53	17.909
319.89	18.580
320.26	20.196
320.62	19.947
320.99	20.314
321.35	20.148
321.72	20.000
322.08	20.920
322.45	21.861
322.81	20.217
323.18	21.062
323.54	20.948
323.91	21.975
324.27	22.203
324.64	23.510
325.00	22.056
325.37	24.079
325.73	24.380
326.10	24.818
326.46	24.756
326.83	25.781
327.19	25.118
327.56	25.455
327.92	25.177
328.29	26.371
328.65	26.884
329.01	26.396
329.38	27.548
329.74	27.997
330.11	28.168
330.47	27.970
330.84	28.165
331.20	27.250
331.56	28.336
331.93	30.293
332.29	29.322
332.66	28.738
333.02	28.643
333.38	29.027
333.75	28.030
334.11	30.525
334.48	30.116
334.84	29.567
335.20	29.555
335.57	29.427
335.93	30.083
336.29	28.785
336.66	28.343
337.02	29.431
337.38	30.867
337.75	29.091
338.11	31.539
338.47	29.198
338.84	30.034
339.20	29.739
339.56	28.748
339.93	30.049
340.29	28.583
340.65	29.603
341.02	30.088
341.38	30.396
341.74	29.459
342.11	30.732
342.47	28.991
342.83	30.193
343.20	30.417
343.56	30.393
343.92	29.864
344.28	30.078
344.65	30.000
345.01	29.719
345.37	29.549
345.73	29.072
346.10	31.123
346.46	29.826
346.82	30.412
347.19	30.328
347.55	29.287
347.91	29.049
348.27	29.666
348.63	29.551
349.00	29.530
349.36	29.368
349.72	29.390
350.08	30.461
350.45	29.354
350.81	29.563
351.17	29.624
351.53	29.265
351.89	28.550
352.26	28.582
352.62	30.373
352.98	29.084
353.34	28.827
353.70	28.737
354.07	29.508
354.43	29.461
354.79	29.020
355.15	30.169
355.51	29.678
355.87	30.965
356.24	29.658
356.60	28.603
356.96	29.948
357.32	28.699
357.68	29.575
358.04	29.042
358.40	29.851
358.77	29.825
359.13	29.321
359.49	28.773
359.85	29.877
360.21	28.838
360.57	29.146
360.93	28.914
361.29	30.526
361.66	28.747
362.02	29.576
362.38	30.007
362.74	28.980
363.10	30.399
363.46	29.917
363.82	30.114
364.18	29.275
364.54	31.051
364.90	29.699
365.26	29.517
365.62	30.267
365.98	30.633
366.35	29.463
366.71	30.680
367.07	30.650
367.43	30.204
367.79	31.121
368.15	31.639
368.51	29.702
368.87	29.850
369.23	30.200
369.59	30.260
369.95	30.426
370.31	30.250
370.67	30.330
371.03	30.956
371.39	30.289
371.75	30.880
372.11	30.759
372.47	30.873
372.83	30.825
373.19	30.954
373.55	30.352
373.91	31.493
374.27	31.889
374.63	31.867
374.99	31.764
375.35	32.727
375.71	31.355
376.07	30.923
376.42	30.730
376.78	33.188
377.14	33.188
377.50	32.511
377.86	33.867
378.22	32.515
378.58	32.937
378.94	32.570
379.30	33.333
379.66	33.921
380.02	33.526
380.38	33.525
380.74	33.746
381.09	34.262
381.45	33.864
381.81	34.426
382.17	33.729
382.53	34.912
382.89	34.481
383.25	34.584
383.61	35.764
383.97	34.982
384.32	35.347
384.68	33.759
385.04	35.454
385.40	35.769
385.76	36.284
386.12	35.189
386.48	35.941
386.83	36.949
387.19	35.226
387.55	36.502
387.91	35.788
388.27	36.778
388.62	36.598
388.98	35.928
389.34	37.478
389.70	37.478
390.06	36.353
390.42	37.831
390.77	37.508
391.13	37.207
391.49	36.534
391.85	37.576
392.20	37.426
392.56	37.803
392.92	37.241
393.28	38.198
393.64	38.380
393.99	39.163
394.35	38.785
394.71	37.904
395.07	37.784
395.42	38.892
395.78	39.793
396.14	39.037
396.50	38.242
396.85	37.925
397.21	37.041
397.57	37.750
397.92	38.889
398.28	38.566
398.64	38.043
399.00	37.958
399.35	39.215
399.71	38.533
400.07	39.023
400.42	38.533
400.78	38.657
401.14	38.532
401.49	39.341
401.85	38.953
402.21	38.992
402.57	39.202
402.92	38.180
403.28	38.232
403.63	38.246
403.99	38.717
404.35	38.317
404.70	38.300
405.06	38.098
405.42	38.993
405.77	38.659
406.13	38.466
406.49	38.514
406.84	38.670
407.20	39.072
407.55	38.098
407.91	38.781
408.27	37.986
408.62	39.267
408.98	38.886
409.34	37.771
409.69	39.184
410.05	38.687
410.40	39.849
410.76	38.643
411.11	40.094
411.47	39.128
411.83	39.271
412.18	38.193
412.54	38.174
412.89	38.591
413.25	38.826
413.60	38.656
413.96	39.510
414.31	37.847
414.67	38.342
415.03	39.138
415.38	39.092
415.74	38.119
416.09	38.927
416.45	38.510
416.80	39.902
417.16	38.761
417.51	38.543
417.87	38.565
418.22	38.862
418.58	38.352
418.93	38.882
419.29	38.163
419.64	39.436
420.00	39.644
420.35	39.135
420.71	38.943
421.06	39.160
421.42	39.106
421.77	38.288
422.12	39.323
422.48	38.966
422.83	38.992
423.19	39.469
423.54	39.215
423.90	39.647
424.25	40.320
424.61	39.208
424.96	38.605
425.31	39.490
425.67	39.130
426.02	39.402
426.38	40.758
426.73	39.676
427.09	39.735
427.44	39.596
427.79	39.469
428.15	39.384
428.50	40.562
428.85	39.839
429.21	42.181
429.56	39.832
429.92	39.410
430.27	40.241
430.62	40.498
430.98	40.580
431.33	39.394
431.68	39.224
432.04	40.274
432.39	41.189
432.74	40.297
433.10	40.346
433.45	40.134
433.80	40.075
434.16	40.548
434.51	40.236
434.86	41.422
435.22	41.658
435.57	42.394
435.92	40.512
436.28	41.468
436.63	41.507
436.98	40.472
437.34	41.263
437.69	39.846
438.04	41.248
438.39	40.724
438.75	39.292
439.10	41.966
439.45	41.755
439.81	40.960
440.16	41.072
440.51	41.583
440.86	41.467
441.22	42.015
441.57	42.453
441.92	40.931
442.27	42.273
442.63	41.729
442.98	40.608
443.33	42.346
443.68	41.427
444.03	42.568
444.39	42.487
444.74	42.215
445.09	41.156
445.44	43.256
445.79	41.427
446.15	41.778
446.50	42.222
446.85	42.218
447.20	42.747
447.55	42.312
447.91	42.775
448.26	42.072
448.61	42.136
448.96	43.133
449.31	42.365
449.66	43.083
450.02	41.614
450.37	41.982
450.72	42.734
451.07	42.711
451.42	42.808
451.77	41.690
452.12	41.817
452.47	42.602
452.83	43.525
453.18	43.433
453.53	42.791
453.88	42.739
454.23	42.655
454.58	43.645
454.93	42.900
455.28	43.769
455.63	43.036
455.98	42.514
456.34	43.757
456.69	44.444
457.04	42.671
457.39	43.792
457.74	44.463
458.09	41.790
458.44	43.534
458.79	43.992
459.14	43.471
459.49	43.916
459.84	43.652
460.19	43.531
460.54	44.861
460.89	43.462
461.24	43.678
461.59	43.996
461.94	42.213
462.29	44.457
462.64	44.357
462.99	42.812
463.34	43.997
463.69	42.966
464.04	43.635
464.39	43.722
464.74	43.330
465.09	44.406
465.44	43.884
465.79	44.209
466.14	42.678
466.49	44.211
466.84	44.959
467.19	43.410
467.54	44.360
467.89	43.046
468.24	42.825
468.59	43.196
468.94	43.007
469.29	43.371
469.64	43.420
469.99	43.595
470.34	43.688
470.68	44.019
471.03	42.960
471.38	44.016
471.73	43.888
472.08	44.036
472.43	43.648
472.78	43.955
473.13	44.564
473.48	43.202
473.83	45.154
474.17	42.966
474.52	44.859
474.87	44.463
475.22	44.563
475.57	44.081
475.92	43.703
476.27	42.865
476.61	43.821
476.96	43.796
477.31	44.059
477.66	44.911
478.01	43.823
478.36	44.118
478.70	44.286
479.05	45.706
479.40	45.064
479.75	44.092
480.10	43.865
480.45	43.892
480.79	43.810
481.14	43.428
481.49	44.434
481.84	44.082
482.19	44.344
482.53	45.693
482.88	45.724
483.23	45.353
483.58	44.410
483.92	42.952
484.27	43.734
484.62	43.771
484.97	43.468
485.31	43.083
485.66	42.074
486.01	42.585
486.36	43.977
486.70	45.392
487.05	46.097
487.40	44.486
487.75	44.504
488.09	44.238
488.44	43.157
488.79	44.182
489.13	44.280
489.48	43.806
489.83	43.219
490.17	42.730
490.52	44.048
490.87	43.613
491.22	44.367
491.56	43.814
491.91	44.178
492.26	44.743
492.60	44.250
492.95	44.713
493.30	43.971
493.64	43.933
493.99	44.123
494.34	43.772
494.68	43.426
495.03	43.965
495.37	44.563
495.72	44.308
496.07	44.785
496.41	43.801
496.76	44.912
497.11	44.713
497.45	44.756
497.80	44.825
498.14	44.218
498.49	44.669
498.84	43.647
499.18	44.130
499.53	44.305
499.87	44.352
500.22	44.301
500.56	43.590
500.91	44.897
501.26	45.727
501.60	43.526
501.95	45.028
502.29	44.362
502.64	44.469
502.98	43.313
503.33	44.017
503.67	43.829
504.02	43.827
504.36	45.353
504.71	43.776
505.06	43.702
505.40	43.739
505.75	43.625
506.09	44.429
506.44	43.872
506.78	45.046
507.13	43.707
507.47	44.529
507.82	44.223
508.16	44.981
508.51	43.835
508.85	44.828
509.19	44.623
509.54	44.813
509.88	43.856
510.23	44.002
510.57	44.224
510.92	44.315
511.26	44.348
511.61	43.264
511.95	43.729
512.30	43.624
512.64	44.028
512.98	43.272
513.33	44.153
513.67	45.232
514.02	44.865
514.36	44.450
514.70	44.583
515.05	44.578
515.39	43.517
515.74	44.963
516.08	44.163
516.42	44.532
516.77	43.901
517.11	43.528
517.46	44.592
517.80	44.254
518.14	45.267
518.49	44.197
518.83	43.214
519.17	44.265
519.52	43.291
519.86	44.773
520.20	44.462
520.55	42.990
520.89	45.045
521.23	43.495
521.58	46.102
521.92	44.249
522.26	43.414
522.61	45.081
522.95	43.195
523.29	44.713
523.64	45.123
523.98	44.609
524.32	44.298
524.66	45.134
525.01	44.621
525.35	43.538
525.69	43.910
526.04	42.365
526.38	44.828
526.72	44.060
527.06	44.751
527.41	43.673
527.75	44.715
528.09	44.746
528.43	43.221
528.78	43.584
529.12	43.062
529.46	43.845
529.80	43.593
530.15	44.174
530.49	44.306
530.83	44.451
531.17	43.608
531.51	43.201
531.86	44.471
532.20	44.817
532.54	44.345
532.88	43.939
533.22	44.137
533.57	44.085
533.91	43.939
534.25	43.188
534.59	44.425
534.93	44.256
535.27	44.732
535.62	44.684
535.96	44.393
536.30	43.831
536.64	43.844
536.98	43.973
537.32	43.580
537.66	43.731
538.01	42.417
538.35	43.788
538.69	44.291
539.03	43.777
539.37	43.581
539.71	42.643
540.05	43.465
540.39	43.276
540.73	42.927
541.07	43.409
541.42	43.001
541.76	43.654
542.10	42.521
542.44	43.544
542.78	44.526
543.12	44.279
543.46	42.369
543.80	43.225
544.14	42.968
544.48	44.917
544.82	43.387
545.16	44.603
545.50	43.080
545.84	42.621
546.18	44.568
546.52	43.822
546.86	43.145
547.20	44.148
547.54	42.509
547.88	42.797
548.22	43.743
548.56	44.178
548.90	43.642
549.24	43.647
549.58	43.659
549.92	43.048
550.26	43.689
550.60	42.693
550.94	43.855
551.28	42.046
551.62	43.464
551.96	42.265
552.30	44.105
552.64	43.435
552.98	43.543
553.32	43.408
553.66	43.215
554.00	44.010
554.34	43.050
554.68	43.060
555.02	43.233
555.36	44.050
555.69	42.217
556.03	43.758
556.37	43.742
556.71	45.022
557.05	43.387
557.39	44.127
557.73	43.131
558.07	43.377
558.41	44.053
558.75	43.543
559.08	43.911
559.42	42.318
559.76	44.166
560.10	43.403
560.44	42.348
560.78	44.625
561.12	43.719
561.45	43.309
561.79	42.796
562.13	43.315
562.47	42.972
562.81	43.228
563.15	42.803
563.48	43.505
563.82	43.229
564.16	42.944
564.50	42.670
564.84	42.891
565.17	44.059
565.51	43.383
565.85	42.815
566.19	42.915
566.52	43.593
566.86	42.445
567.20	41.490
567.54	42.804
567.88	43.272
568.21	42.441
568.55	43.981
568.89	43.395
569.23	42.924
569.56	43.689
569.90	43.656
570.24	43.406
570.57	42.656
570.91	42.774
571.25	42.060
571.59	42.861
571.92	42.217
572.26	43.039
572.60	42.179
572.93	42.638
573.27	42.737
573.61	42.245
573.95	42.146
574.28	41.766
574.62	41.928
574.96	42.126
575.29	41.617
575.63	41.742
575.97	42.060
576.30	42.043
576.64	41.875
576.98	42.096
577.31	41.897
577.65	42.468
577.98	42.489
578.32	41.791
578.66	41.726
578.99	41.429
579.33	42.219
579.67	41.092
580.00	41.380
580.34	41.514
580.67	41.968
581.01	41.692
581.35	41.672
581.68	42.449
582.02	41.857
582.35	42.897
582.69	43.072
583.02	42.646
583.36	42.103
583.70	42.422
584.03	40.845
584.37	41.669
584.70	40.856
585.04	41.734
585.37	42.355
585.71	41.338
586.04	42.470
586.38	41.783
586.72	41.865
587.05	42.185
587.39	41.760
587.72	42.249
588.06	42.094
588.39	42.221
588.73	42.011
589.06	42.269
589.40	42.286
589.73	41.870
590.07	42.275
590.40	42.664
590.73	41.923
591.07	43.187
591.40	41.952
591.74	41.812
592.07	42.144
592.41	42.074
592.74	42.421
593.08	42.675
593.41	43.132
593.75	41.667
594.08	42.775
594.41	42.019
594.75	41.481
595.08	41.958
595.42	41.981
595.75	42.396
596.09	42.426
596.42	42.709
596.75	41.799
597.09	43.111
597.42	41.478
597.75	41.709
598.09	41.944
598.42	42.380
598.76	41.918
599.09	41.901
599.42	42.239
599.76	41.532
600.09	42.476
600.42	41.708
600.76	41.678
601.09	42.283
601.42	41.366
601.76	41.310
602.09	41.565
602.42	40.676
602.76	41.808
603.09	41.593
603.42	41.691
603.76	41.438
604.09	42.832
604.42	41.688
604.76	42.390
605.09	41.604
605.42	41.866
605.75	42.115
606.09	41.993
606.42	41.189
606.75	41.604
607.09	40.822
607.42	41.888
607.75	42.243
608.08	41.910
608.42	40.871
608.75	41.376
609.08	40.789
609.41	41.200
609.75	41.384
610.08	42.040
610.41	40.909
610.74	41.681
611.07	42.052
611.41	42.287
611.74	41.663
612.07	41.094
612.40	41.825
612.73	41.467
613.07	42.396
613.40	41.675
613.73	41.839
614.06	41.658
614.39	41.545
614.72	40.660
615.06	41.145
615.39	41.131
615.72	41.943
616.05	41.234
616.38	42.886
616.71	41.327
617.05	41.587
617.38	41.734
617.71	41.523
618.04	41.284
618.37	42.678
618.70	43.156
619.03	41.637
619.36	41.430
619.69	40.423
620.03	41.620
620.36	41.227
620.69	40.901
621.02	41.273
621.35	42.598
621.68	41.359
622.01	42.135
622.34	41.841
622.67	42.131
623.00	41.633
623.33	41.539
623.66	41.569
623.99	41.935
624.32	43.145
624.65	41.377
624.99	42.198
625.32	42.195
625.65	42.819
625.98	40.610
626.31	41.743
626.64	41.319
626.97	40.210
627.30	41.306
627.63	40.735
627.96	41.967
628.29	41.556
628.62	40.722
628.95	41.893
629.28	41.546
629.61	42.256
629.94	40.000
630.26	41.356
630.59	41.537
630.92	40.606
631.25	42.039
631.58	43.315
631.91	41.050
632.24	42.267
632.57	41.841
632.90	42.126
633.23	42.755
633.56	41.735
633.89	41.529
634.22	41.060
634.55	43.006
634.88	39.827
635.20	42.519
635.53	41.808
635.86	43.229
636.19	41.994
636.52	41.983
636.85	40.347
637.18	40.541
637.51	42.043
637.83	42.193
638.16	41.820
638.49	42.136
638.82	41.826
639.15	40.664
639.48	42.379
639.81	39.954
640.13	40.872
640.46	40.848
640.79	40.196
641.12	41.118
641.45	41.280
641.77	43.004
642.10	41.995
642.43	41.622
642.76	42.005
643.09	40.000
643.41	41.597
643.74	42.621
644.07	41.793
644.40	40.028
644.73	40.348
645.05	41.557
645.38	42.446
645.71	41.349
646.04	40.890
646.36	41.606
646.69	41.258
647.02	41.437
647.35	44.122
647.67	42.512
648.00	42.994
648.33	41.441
648.66	42.796
648.98	41.361
649.31	42.760
649.64	42.231
649.96	41.114
650.29	39.221
650.62	40.311
650.94	40.390
651.27	39.521
651.60	38.012
651.92	41.033
652.25	41.389
652.58	39.890
652.90	39.971
653.23	41.972
653.56	41.797
653.88	42.135
654.21	39.014
654.54	41.908
654.86	41.643
655.19	40.527
655.52	39.665
655.84	40.076
656.17	49.131
656.49	67.685
656.82	73.997
657.15	56.552
657.47	42.151
657.80	30.916
658.13	23.637
658.45	30.712
658.78	36.902
659.10	35.878
659.43	35.577
659.75	35.630
660.08	35.406
660.41	37.138
660.73	36.602
661.06	40.382
661.38	40.510
661.71	38.793
662.03	38.801
662.36	41.503
662.68	43.527
663.01	38.761
663.33	42.344
663.66	43.040
663.98	41.538
664.31	39.400
664.63	40.270
664.96	41.742
665.28	40.835
665.61	40.909
665.93	37.143
666.26	43.728
666.58	40.221
666.91	38.692
667.23	40.000
667.56	43.590
667.88	40.400
668.21	36.523
668.53	38.224
668.86	38.310
669.18	38.900
669.50	42.744
669.83	42.800
670.15	39.961
670.48	42.262
670.80	40.918
671.13	39.319
671.45	39.173
671.77	39.171
672.10	37.500
672.42	40.453
672.75	40.707
673.07	39.851
673.39	40.216
673.72	40.101
674.04	40.690
674.37	40.250
674.69	40.212
675.01	40.952
675.34	38.740
675.66	38.390
675.98	40.672
676.31	36.328
676.63	42.966
676.95	41.379
677.28	40.323
677.60	36.614
677.92	39.539
678.25	38.757
678.57	42.171
678.89	37.713
679.22	37.979
679.54	40.171
679.86	39.153
680.18	38.972
680.51	38.522
680.83	41.408
681.15	38.448
681.48	37.133
681.80	38.515
682.12	37.238
682.44	38.898
682.77	41.135
683.09	39.394
683.41	39.341
683.73	37.951
684.06	35.793
684.38	39.893
684.70	38.600
685.02	40.275
685.34	38.103
685.67	38.644
685.99	35.890
686.31	36.483
686.63	38.073
686.96	39.432
687.28	38.111
687.60	37.542
687.92	37.460
688.24	36.227
688.56	38.103
688.89	38.475
689.21	37.573
689.53	36.863
689.85	38.067
690.17	35.556
690.49	40.239
690.82	35.050
691.14	38.057
691.46	38.815
691.78	40.884
692.10	37.615
692.42	37.321
692.74	36.661
693.06	36.667
693.39	39.089
693.71	38.346
694.03	37.175
694.35	36.190
694.67	37.166
694.99	39.787
695.31	37.528
695.63	39.610
695.95	38.302
696.27	35.604
696.59	39.823
696.91	36.261
697.23	40.659
697.56	37.882
697.88	36.932
698.20	39.925
698.52	40.341
698.84	38.877
699.16	40.612
699.48	37.448
699.80	37.234
700.12	37.336
700.44	35.484
700.76	40.618
701.08	37.772
701.40	39.378
701.72	39.055
702.04	41.711
702.36	35.864
702.68	39.120
703.00	40.587
703.32	35.714
703.64	35.941
703.96	39.857
704.28	37.346
704.60	37.468
704.91	35.969
705.23	40.822
705.55	39.554
705.87	41.212
706.19	39.877
706.51	32.831
706.83	37.176
707.15	34.921
707.47	37.617
707.79	36.245
708.11	35.169
708.43	33.548
708.74	33.036
709.06	35.035
709.38	36.854
709.70	38.213
710.02	36.951
710.34	37.766
710.66	39.944
710.98	39.071
711.29	37.912
711.61	42.090
711.93	36.752
712.25	37.568
712.57	39.528
712.89	38.824
713.20	33.432
713.52	39.017
713.84	37.604
714.16	40.000
714.48	34.794
714.80	42.338
715.11	35.958
715.43	35.544
715.75	38.421
716.07	37.017
716.39	37.705
716.70	34.639
717.02	37.377
717.34	33.101
717.66	34.228
717.97	35.616
718.29	35.395
718.61	34.539
718.93	36.246
719.24	36.646
719.56	35.583
719.88	36.336
720.20	37.097
720.51	37.267
720.83	30.938
721.15	31.908
721.46	37.329
721.78	38.667
722.10	35.922
722.42	34.899
722.73	32.258
723.05	34.737
723.37	36.806
723.68	35.484
724.00	41.877
724.32	31.338
724.63	41.958
724.95	42.199
725.27	35.540
725.58	33.569
725.90	38.621
726.22	35.423
726.53	36.688
726.85	38.994
727.16	34.139
727.48	37.309
727.80	38.411
728.11	33.216
728.43	36.700
728.74	35.786
729.06	34.106
729.38	35.065
729.69	35.570
730.01	34.226
730.32	33.939
730.64	32.390
730.96	36.957
731.27	37.709
731.59	37.088
731.90	34.805
732.22	37.760
732.53	36.188
732.85	35.429
733.16	36.364
733.48	35.061
733.80	35.655
734.11	31.339
734.43	37.027
734.74	38.228
735.06	33.920
735.37	33.514
735.69	38.649
736.00	34.181
736.32	39.623
736.63	33.056
736.95	36.494
737.26	37.576
737.58	35.152
737.89	37.353
738.21	32.416
738.52	34.426
738.83	36.177
739.15	35.461
739.46	34.694
739.78	36.503
740.09	34.384
740.41	33.528
740.72	36.333
741.04	34.304
741.35	37.544
741.66	35.686
741.98	34.016
742.29	38.075
742.61	39.474
742.92	36.538
743.23	36.823
743.55	39.147
743.86	34.400
744.18	31.818
744.49	32.068
744.80	39.918
745.12	37.553
745.43	37.398
745.74	37.500
746.06	33.898
746.37	40.506
746.68	35.772
747.00	35.833
747.31	36.052
747.62	36.538
747.94	31.174
748.25	36.948
748.56	29.796
748.88	30.342
749.19	39.655
749.50	38.095
749.82	38.956
750.13	37.722
750.44	36.333
750.75	37.538
751.07	36.000
751.38	34.385
751.69	31.949
752.01	33.010
752.32	34.967
752.63	35.374
752.94	33.564
753.26	34.572
753.57	34.074
753.88	31.461
754.19	36.013
754.51	36.977
754.82	33.119
755.13	33.770
755.44	34.812
755.75	34.868
756.07	39.403
756.38	33.962
756.69	37.048
757.00	30.471
757.31	31.421
757.63	33.504
757.94	32.629
758.25	33.860
758.56	34.205
758.87	33.636
759.18	32.533
759.50	36.261
759.81	34.454
760.12	36.658
760.43	35.937
760.74	36.700
761.05	34.250
761.36	33.253
761.67	35.025
761.99	34.595
762.30	33.537
762.61	35.314
762.92	32.836
763.23	31.461
763.54	33.094
763.85	34.708
764.16	35.017
764.47	37.676
764.78	36.741
765.10	36.950
765.41	35.385
765.72	32.804
766.03	35.593
766.34	33.856
766.65	33.449
766.96	37.052
767.27	35.484
767.58	37.811
767.89	40.385
768.20	33.803
768.51	36.574
768.82	34.940
769.13	37.121
769.44	32.692
769.75	36.823
770.06	37.308
770.37	40.551
770.68	28.936
770.99	30.364
771.30	37.778
771.61	36.502
771.92	31.852
772.23	40.486
772.54	30.556
772.85	38.249
773.16	36.667
773.47	31.217
773.78	36.216
774.09	33.523
774.39	41.500
774.70	33.880
775.01	39.634
775.32	29.412
775.63	33.129
775.94	39.490
776.25	34.194
776.56	35.897
776.87	28.571
777.18	37.241
777.48	29.371
777.79	35.135
778.10	22.794
778.41	33.333
778.72	42.759
779.03	33.951
779.34	31.515
779.65	36.269
779.95	42.222
780.26	34.659
780.57	36.774
780.88	37.681
781.19	30.968
781.50	41.765
781.80	37.634
782.11	34.392
782.42	28.283
782.73	34.132
783.04	31.285
783.34	32.727
783.65	29.412
783.96	36.025
784.27	34.524
784.57	33.775
784.88	37.143
785.19	30.709
785.50	29.134
785.81	33.083
786.11	33.077
786.42	24.460
786.73	29.496
787.04	36.090
787.34	36.066
787.65	36.000
787.96	28.358
788.26	43.357
788.57	41.958
788.88	35.526
789.19	39.216
789.49	20.548
789.80	34.752
790.11	32.283
790.41	33.594
790.72	33.051
791.03	33.981
791.33	29.565
791.64	30.702
791.95	25.893
792.25	47.619
792.56	26.786
792.87	35.417
793.17	36.607
793.48	33.333
793.79	25.301
794.09	31.193
794.40	30.275
794.70	25.850
795.01	29.221
795.32	32.192
795.62	33.803
795.93	30.303
796.23	25.410
796.54	26.786
796.85	38.298
797.15	22.826
797.46	47.945
797.76	27.500
798.07	38.043
798.37	27.835
798.68	40.260
798.99	36.782
799.29	31.461
799.60	45.745
799.90	39.759
800.21	20.000
800.51	28.358
800.82	44.118
801.12	23.288
801.43	23.529
801.73	50.847
802.04	40.909
802.34	48.333
802.65	32.203
802.95	40.299
803.26	37.288
803.56	24.658
803.87	37.143
804.17	34.247
804.48	28.070
804.78	23.611
805.09	27.586
805.39	33.784
805.70	26.761
806.00	31.707
806.30	31.325
806.61	43.836
806.91	28.846
807.22	30.000
807.52	18.391
807.83	54.167
808.13	45.783
808.43	33.708
808.74	28.750
809.04	33.824
809.35	30.667
809.65	30.000
809.95	26.027
810.26	26.316
810.56	31.034
810.86	39.706
811.17	35.088
811.47	27.869
811.77	26.667
812.08	28.814
812.38	31.667
812.69	36.207
812.99	22.642
813.29	15.385
813.59	36.000
813.90	40.351
814.20	38.182
814.50	46.479
814.81	28.205
815.11	44.262
815.41	26.866
815.72	37.931
816.02	41.071
816.32	51.111
816.62	56.818
816.93	42.222
817.23	33.333
817.53	8.511
817.84	28.571
818.14	35.294
818.44	34.694
818.74	44.444
819.04	10.256
819.35	5.714
819.65	61.538
819.95	30.189
820.25	40.000
820.56	19.048
820.86	3.125
821.16	43.590
821.46	53.488
821.76	10.000
822.07	46.429
822.37	39.130
822.67	14.894
822.97	10.811
823.27	30.000
823.57	51.020
823.88	26.667
824.18	50.000
824.48	23.333
824.78	36.000
825.08	24.242
825.38	46.667
825.69	29.787
825.99	55.556
826.29	8.571
826.59	23.077
826.89	20.930
827.19	40.000
827.49	35.294
827.79	27.083
828.09	18.919
828.39	60.000
828.70	43.902
829.00	27.907
829.30	-7.143
829.60	44.118
829.90	30.435
830.20	-5.714
830.50	41.379
830.80	33.333
831.10	0.000
831.40	50.000
831.70	42.857
832.00	90.323
832.30	-29.412
832.60	33.333
832.90	7.692
833.20	36.842
833.50	25.000
833.80	42.105
834.10	4.762
834.40	41.667
834.70	56.250
835.00	11.429
835.30	38.235
835.60	30.000
835.90	52.000
836.20	-13.636
836.50	48.000
836.80	30.303
837.10	14.815
837.40	14.815
837.70	-6.250
838.00	25.000
838.30	-21.739
838.60	27.586
838.90	78.571
839.19	21.739
839.49	8.333
839.79	39.130
840.09	37.500
840.39	45.000
840.69	32.258
840.99	10.714
841.29	53.333
841.59	47.368
841.88	20.513
842.18	38.462
842.48	0.000
842.78	15.000
843.08	46.667
843.38	25.806
843.68	-33.333
843.97	29.412
844.27	75.000
844.57	63.158
844.87	10.000
845.17	40.000
845.47	57.143
845.76	33.333
846.06	-33.333
846.36	-17.647
846.66	46.154
846.96	-60.000
847.25	5.882
847.55	26.087
847.85	50.000
848.15	100.000
848.44	72.727
848.74	52.381
849.04	66.667
849.34	37.500
849.63	43.478
849.93	250.000
850.23	6.667
850.53	50.000
850.82	90.909
851.12	27.273
851.42	36.364
851.71	53.846
852.01	-25.000
852.31	-23.077
852.61	-10.526
852.90	58.333
853.20	44.444
853.50	-66.667
853.79	-23.810
854.09	-40.909
854.39	-50.000
854.68	32.258
854.98	61.538
855.28	61.111
855.57	3.571
855.87	36.000
856.17	31.818
856.46	22.222
856.76	22.222
857.05	-4.348
857.35	54.167
857.65	-15.385
857.94	52.381
858.24	29.630
858.53	56.522
858.83	5.882
859.13	11.765
859.42	11.765
859.72	85.714
860.01	35.000
860.31	66.667
860.60	100.000
860.90	-6.667
861.20	33.333
861.49	46.154
861.79	33.333
862.08	0.000
862.38	31.250
862.67	82.353
862.97	31.250
863.26	33.333
863.56	80.000
863.85	54.545
864.15	66.667
864.44	200.000
864.74	92.857
865.03	31.250
865.33	30.000
865.62	0.000
865.92	22.727
866.21	60.870
866.51	0.000
866.80	-80.000
867.10	16.667
867.39	16.667
867.69	200.000
867.98	-14.286
868.27	52.941
868.57	100.000
868.86	-30.000
869.16	33.333
869.45	58.333
869.75	36.364
870.04	-42.857
870.33	-25.000
870.63	-200.000
870.92	125.000
871.22	-175.000
871.51	-18.182
871.80	0.000
872.10	-100.000
>>>>>End Processed Spectral Data<<<<<
