SpectraSuite Data File
++++++++++++++++++++++++++++++++++++
Date: Thu May 14 15:02:24 PDT 2015
User: schluterlab
Dark Spectrum Present: Yes
Reference Spectrum Present: Yes
Number of Sampled Component Spectra: 1
Spectrometers: USB2E3373
Integration Time (usec): 3000 (USB2E3373)
Spectra Averaged: 3 (USB2E3373)
Boxcar Smoothing: 0 (USB2E3373)
Correct for Electrical Dark: No (USB2E3373)
Strobe/Lamp Enabled: No (USB2E3373)
Correct for Detector Non-linearity: No (USB2E3373)
Correct for Stray Light: No (USB2E3373)
Number of Pixels in Processed Spectrum: 2048
>>>>>Begin Processed Spectral Data<<<<<
178.53	0.000
178.91	414.286
179.29	-3000.000
179.67	-2100.000
180.04	300.000
180.42	140.000
180.80	540.000
181.18	-3000.000
181.56	-1900.000
181.94	650.000
182.31	-525.000
182.69	933.333
183.07	-850.000
183.45	575.000
183.83	-200.000
184.20	-733.333
184.58	2600.000
184.96	-500.000
185.34	-255.556
185.72	-420.000
186.09	322.222
186.47	1350.000
186.85	400.000
187.23	-300.000
187.61	-3400.000
187.98	380.000
188.36	725.000
188.74	-475.000
189.12	-533.333
189.49	-93.750
189.87	-237.500
190.25	-244.444
190.63	-380.000
191.00	-311.111
191.38	0.000
191.76	-450.000
192.14	-450.000
192.51	1650.000
192.89	-266.667
193.27	0.000
193.65	-385.714
194.02	-3000.000
194.40	-328.571
194.78	314.286
195.15	0.000
195.53	-181.818
195.91	0.000
196.29	-600.000
196.66	-192.308
197.04	-2200.000
197.42	-314.286
197.79	-1100.000
198.17	-412.500
198.55	-342.857
198.92	-166.667
199.30	-312.500
199.68	-200.000
200.05	-71.429
200.43	-1150.000
200.81	414.286
201.18	0.000
201.56	277.778
201.94	0.000
202.31	1066.667
202.69	-266.667
203.07	1900.000
203.44	-322.222
203.82	-675.000
204.19	-175.000
204.57	-416.667
204.95	-437.500
205.32	-2700.000
205.70	450.000
206.08	-233.333
206.45	-333.333
206.83	680.000
207.20	-316.667
207.58	-380.000
207.96	-400.000
208.33	-383.333
208.71	283.333
209.08	-250.000
209.46	0.000
209.84	450.000
210.21	950.000
210.59	1350.000
210.96	833.333
211.34	-425.000
211.71	-237.500
212.09	-2400.000
212.46	0.000
212.84	1600.000
213.22	-500.000
213.59	-375.000
213.97	-190.000
214.34	-666.667
214.72	516.667
215.09	-625.000
215.47	0.000
215.84	357.143
216.22	1600.000
216.59	-400.000
216.97	-400.000
217.34	-525.000
217.72	-187.500
218.09	-450.000
218.47	-525.000
218.84	0.000
219.22	600.000
219.59	-82.353
219.97	-65.000
220.34	1250.000
220.72	-277.778
221.09	-107.692
221.47	-766.667
221.84	-160.000
222.22	-357.143
222.59	0.000
222.97	-275.000
223.34	-660.000
223.72	-2800.000
224.09	-600.000
224.46	-675.000
224.84	-260.000
225.21	-371.429
225.59	-875.000
225.96	-650.000
226.34	-38.462
226.71	600.000
227.08	-1100.000
227.46	-113.333
227.83	-575.000
228.21	-57.895
228.58	337.500
228.95	1600.000
229.33	-133.333
229.70	-270.000
230.08	-57.895
230.45	220.000
230.82	-466.667
231.20	-128.571
231.57	-200.000
231.95	-218.182
232.32	-172.727
232.69	-25.000
233.07	-400.000
233.44	-141.176
233.81	-240.000
234.19	-33.333
234.56	-77.273
234.93	-31.034
235.31	-89.474
235.68	-61.111
236.05	-105.000
236.43	-53.846
236.80	-32.000
237.17	-29.630
237.55	-48.485
237.92	-180.000
238.29	-48.387
238.67	-47.727
239.04	-27.778
239.41	-40.476
239.79	-8.696
240.16	-16.667
240.53	-13.043
240.91	-15.686
241.28	-3.279
241.65	5.970
242.02	5.405
242.40	-9.231
242.77	-1.333
243.14	-9.756
243.51	-15.789
243.89	-6.410
244.26	15.842
244.63	13.725
245.00	11.215
245.38	13.158
245.75	8.850
246.12	12.698
246.49	10.853
246.87	10.714
247.24	11.258
247.61	15.789
247.98	10.067
248.36	12.963
248.73	7.362
249.10	16.940
249.47	17.413
249.84	18.848
250.22	15.544
250.59	17.222
250.96	23.636
251.33	16.837
251.70	22.222
252.08	23.333
252.45	23.361
252.82	20.661
253.19	20.703
253.56	20.152
253.94	19.231
254.31	23.485
254.68	27.972
255.05	21.498
255.42	17.687
255.79	20.712
256.16	20.530
256.54	19.868
256.91	23.934
257.28	26.230
257.65	21.338
258.02	21.534
258.39	21.937
258.76	25.994
259.14	25.862
259.51	21.614
259.88	21.813
260.25	22.500
260.62	23.562
260.99	23.224
261.36	25.201
261.73	24.403
262.10	23.077
262.47	24.129
262.85	27.778
263.22	25.195
263.59	20.000
263.96	21.739
264.33	21.483
264.70	25.185
265.07	24.821
265.44	25.397
265.81	22.454
266.18	25.170
266.55	25.670
266.92	24.829
267.29	26.039
267.66	23.282
268.03	23.581
268.40	24.635
268.77	20.957
269.14	21.806
269.51	25.658
269.88	25.000
270.25	22.736
270.62	24.051
270.99	22.626
271.36	23.564
271.73	24.754
272.10	25.251
272.47	25.852
272.84	24.498
273.21	22.244
273.58	23.992
273.95	22.308
274.32	23.004
274.69	22.824
275.06	24.359
275.43	19.963
275.80	24.339
276.17	22.593
276.54	25.187
276.91	21.825
277.28	22.061
277.65	22.621
278.02	23.897
278.39	23.913
278.76	23.550
279.13	23.404
279.50	24.914
279.87	21.467
280.23	19.366
280.60	24.746
280.97	22.697
281.34	24.958
281.71	25.212
282.08	23.090
282.45	24.059
282.82	21.507
283.19	22.132
283.56	24.262
283.92	23.724
284.29	26.224
284.66	23.810
285.03	22.115
285.40	24.884
285.77	23.839
286.14	22.901
286.51	24.505
286.87	22.749
287.24	22.892
287.61	24.963
287.98	23.263
288.35	23.669
288.72	21.598
289.08	24.597
289.45	21.154
289.82	22.289
290.19	24.138
290.56	22.817
290.93	23.680
291.29	20.523
291.66	20.799
292.03	20.217
292.40	23.673
292.77	22.776
293.13	22.598
293.50	21.288
293.87	21.074
294.24	22.800
294.60	21.239
294.97	19.597
295.34	21.895
295.71	20.681
296.08	19.897
296.44	20.343
296.81	20.463
297.18	21.171
297.55	20.991
297.91	20.996
298.28	19.194
298.65	20.690
299.02	21.015
299.38	20.137
299.75	19.860
300.12	21.065
300.48	21.313
300.85	20.022
301.22	21.700
301.59	18.721
301.95	21.130
302.32	21.556
302.69	20.920
303.05	20.783
303.42	20.843
303.79	19.583
304.15	21.241
304.52	18.710
304.89	20.314
305.25	18.323
305.62	20.585
305.99	20.103
306.35	19.456
306.72	22.027
307.09	20.305
307.45	19.462
307.82	20.081
308.19	20.383
308.55	21.697
308.92	20.448
309.29	20.785
309.65	20.468
310.02	19.604
310.38	19.980
310.75	20.971
311.12	21.572
311.48	20.723
311.85	20.608
312.22	20.493
312.58	21.221
312.95	20.554
313.31	20.867
313.68	22.344
314.05	21.771
314.41	22.040
314.78	21.344
315.14	20.417
315.51	20.868
315.87	21.062
316.24	22.283
316.61	22.380
316.97	23.258
317.34	20.194
317.70	22.445
318.07	22.575
318.43	21.769
318.80	21.572
319.16	21.545
319.53	19.195
319.89	21.823
320.26	22.242
320.62	20.656
320.99	20.499
321.35	21.165
321.72	22.047
322.08	21.010
322.45	22.493
322.81	24.097
323.18	22.301
323.54	22.155
323.91	24.555
324.27	22.978
324.64	24.601
325.00	23.051
325.37	23.833
325.73	23.967
326.10	23.601
326.46	24.756
326.83	24.179
327.19	23.622
327.56	25.138
327.92	23.997
328.29	24.355
328.65	24.539
329.01	25.465
329.38	25.611
329.74	24.058
330.11	25.171
330.47	25.021
330.84	25.668
331.20	26.167
331.56	25.737
331.93	27.280
332.29	26.695
332.66	25.748
333.02	24.623
333.38	25.587
333.75	24.747
334.11	25.605
334.48	25.743
334.84	26.933
335.20	25.945
335.57	26.560
335.93	26.694
336.29	25.790
336.66	25.904
337.02	26.589
337.38	26.276
337.75	26.364
338.11	26.493
338.47	26.882
338.84	26.311
339.20	25.779
339.56	25.700
339.93	25.944
340.29	26.006
340.65	25.466
341.02	26.975
341.38	26.839
341.74	25.989
342.11	25.744
342.47	26.052
342.83	27.134
343.20	25.429
343.56	25.341
343.92	26.821
344.28	24.922
344.65	27.287
345.01	25.351
345.37	26.283
345.73	26.111
346.10	26.989
346.46	26.741
346.82	28.015
347.19	26.891
347.55	26.555
347.91	26.672
348.27	27.011
348.63	26.123
349.00	26.025
349.36	27.063
349.72	26.042
350.08	26.523
350.45	27.681
350.81	26.772
351.17	26.767
351.53	26.914
351.89	27.183
352.26	26.940
352.62	26.493
352.98	27.863
353.34	26.736
353.70	27.273
354.07	26.602
354.43	27.563
354.79	27.076
355.15	26.637
355.51	28.070
355.87	27.973
356.24	28.745
356.60	26.903
356.96	27.872
357.32	27.807
357.68	27.672
358.04	26.722
358.40	27.612
358.77	27.924
359.13	27.622
359.49	27.286
359.85	27.774
360.21	27.475
360.57	26.920
360.93	27.927
361.29	27.368
361.66	27.371
362.02	28.323
362.38	28.039
362.74	29.609
363.10	28.680
363.46	28.463
363.82	29.190
364.18	28.571
364.54	29.322
364.90	28.361
365.26	28.276
365.62	29.267
365.98	29.135
366.35	28.658
366.71	29.252
367.07	28.484
367.43	29.153
367.79	29.064
368.15	29.900
368.51	29.770
368.87	28.805
369.23	28.533
369.59	29.781
369.95	28.668
370.31	29.440
370.67	30.261
371.03	29.501
371.39	29.013
371.75	29.986
372.11	30.420
372.47	29.655
372.83	29.450
373.19	30.420
373.55	30.081
373.91	28.562
374.27	29.754
374.63	30.176
374.99	30.570
375.35	29.221
375.71	29.290
376.07	29.632
376.42	30.479
376.78	31.386
377.14	30.193
377.50	31.120
377.86	31.404
378.22	31.557
378.58	31.451
378.94	30.986
379.30	31.283
379.66	31.864
380.02	31.621
380.38	31.740
380.74	30.423
381.09	31.475
381.45	31.875
381.81	33.080
382.17	32.363
382.53	32.749
382.89	31.433
383.25	32.943
383.61	32.639
383.97	32.509
384.32	33.612
384.68	31.903
385.04	32.504
385.40	32.882
385.76	33.763
386.12	31.478
386.48	32.882
386.83	33.850
387.19	32.966
387.55	32.923
387.91	32.363
388.27	33.949
388.62	33.849
388.98	32.431
389.34	33.824
389.70	33.411
390.06	33.748
390.42	33.675
390.77	33.715
391.13	33.509
391.49	33.514
391.85	33.333
392.20	33.155
392.56	33.963
392.92	33.261
393.28	33.554
393.64	33.575
393.99	33.295
394.35	34.229
394.71	35.090
395.07	33.772
395.42	33.809
395.78	35.040
396.14	33.928
396.50	33.551
396.85	33.691
397.21	33.787
397.57	33.392
397.92	34.135
398.28	33.895
398.64	33.753
399.00	33.403
399.35	33.246
399.71	33.859
400.07	33.801
400.42	33.818
400.78	33.160
401.14	33.921
401.49	35.247
401.85	34.070
402.21	34.589
402.57	34.624
402.92	33.983
403.28	33.431
403.63	33.890
403.99	32.363
404.35	33.201
404.70	32.805
405.06	32.880
405.42	33.138
405.77	34.297
406.13	33.441
406.49	34.291
406.84	33.075
407.20	33.985
407.55	33.010
407.91	33.438
408.27	32.921
408.62	32.984
408.98	33.372
409.34	33.079
409.69	33.313
410.05	34.349
410.40	33.701
410.76	33.371
411.11	34.600
411.47	33.538
411.83	34.098
412.18	33.976
412.54	33.136
412.89	33.120
413.25	32.901
413.60	33.257
413.96	33.741
414.31	33.428
414.67	33.691
415.03	32.862
415.38	34.363
415.74	33.415
416.09	33.313
416.45	32.749
416.80	33.354
417.16	33.653
417.51	32.503
417.87	33.660
418.22	33.234
418.58	33.767
418.93	34.109
419.29	34.217
419.64	33.253
420.00	33.353
420.35	33.408
420.71	32.912
421.06	32.605
421.42	33.429
421.77	32.041
422.12	32.875
422.48	33.026
422.83	32.913
423.19	33.369
423.54	34.458
423.90	33.297
424.25	33.440
424.61	33.984
424.96	33.004
425.31	33.758
425.67	33.655
426.02	33.370
426.38	33.410
426.73	32.868
427.09	34.198
427.44	33.534
427.79	32.725
428.15	33.276
428.50	33.708
428.85	32.778
429.21	35.106
429.56	32.823
429.92	33.612
430.27	34.169
430.62	34.294
430.98	34.530
431.33	34.213
431.68	33.429
432.04	34.789
432.39	33.690
432.74	33.333
433.10	33.802
433.45	32.943
433.80	32.940
434.16	34.711
434.51	34.327
434.86	35.505
435.22	34.485
435.57	34.257
435.92	33.779
436.28	35.040
436.63	33.916
436.98	33.763
437.34	35.287
437.69	34.122
438.04	34.479
438.39	34.176
438.75	33.924
439.10	34.619
439.45	33.930
439.81	33.955
440.16	33.566
440.51	34.560
440.86	33.463
441.22	33.387
441.57	34.172
441.92	33.948
442.27	35.404
442.63	34.575
442.98	34.845
443.33	34.035
443.68	35.084
444.03	35.654
444.39	35.460
444.74	35.273
445.09	35.175
445.44	34.299
445.79	34.483
446.15	34.378
446.50	33.437
446.85	33.998
447.20	34.139
447.55	34.414
447.91	34.712
448.26	33.879
448.61	34.910
448.96	34.388
449.31	34.199
449.66	34.586
450.02	34.335
450.37	35.109
450.72	34.392
451.07	34.624
451.42	33.969
451.77	33.630
452.12	34.932
452.47	33.749
452.83	34.854
453.18	33.567
453.53	33.601
453.88	33.793
454.23	34.350
454.58	34.765
454.93	33.192
455.28	35.581
455.63	34.110
455.98	34.302
456.34	34.276
456.69	33.862
457.04	33.747
457.39	33.980
457.74	34.452
458.09	33.553
458.44	34.052
458.79	33.883
459.14	33.246
459.49	33.956
459.84	34.103
460.19	34.203
460.54	34.299
460.89	34.569
461.24	34.885
461.59	34.034
461.94	34.227
462.29	34.882
462.64	34.098
462.99	34.149
463.34	33.809
463.69	34.174
464.04	34.130
464.39	34.697
464.74	34.379
465.09	34.602
465.44	33.906
465.79	33.739
466.14	33.924
466.49	33.368
466.84	33.774
467.19	34.104
467.54	32.667
467.89	33.621
468.24	34.127
468.59	32.774
468.94	33.100
469.29	33.893
469.64	33.312
469.99	33.843
470.34	33.106
470.68	34.040
471.03	34.381
471.38	33.878
471.73	33.160
472.08	34.074
472.43	33.173
472.78	34.131
473.13	33.565
473.48	33.293
473.83	33.720
474.17	33.177
474.52	34.095
474.87	33.001
475.22	33.408
475.57	34.060
475.92	33.848
476.27	33.972
476.61	34.320
476.96	33.837
477.31	33.713
477.66	33.841
478.01	33.706
478.36	33.599
478.70	33.251
479.05	34.151
479.40	34.057
479.75	32.997
480.10	33.018
480.45	33.683
480.79	34.331
481.14	33.502
481.49	33.985
481.84	34.769
482.19	33.548
482.53	34.150
482.88	34.603
483.23	34.060
483.58	32.445
483.92	33.245
484.27	33.150
484.62	32.384
484.97	32.271
485.31	32.313
485.66	30.759
486.01	30.600
486.36	32.481
486.70	34.907
487.05	35.856
487.40	34.641
487.75	34.148
488.09	33.953
488.44	33.015
488.79	32.850
489.13	33.020
489.48	32.350
489.83	32.072
490.17	32.645
490.52	32.964
490.87	32.403
491.22	33.059
491.56	32.381
491.91	33.275
492.26	32.886
492.60	32.488
492.95	32.646
493.30	32.945
493.64	33.377
493.99	32.544
494.34	32.274
494.68	32.034
495.03	32.026
495.37	33.378
495.72	32.880
496.07	32.822
496.41	32.604
496.76	32.902
497.11	32.654
497.45	33.146
497.80	32.430
498.14	31.927
498.49	32.858
498.84	32.495
499.18	32.928
499.53	32.870
499.87	33.187
500.22	32.324
500.56	32.389
500.91	33.501
501.26	33.364
501.60	31.860
501.95	33.044
502.29	33.787
502.64	33.319
502.98	32.442
503.33	33.391
503.67	33.101
504.02	32.881
504.36	33.199
504.71	32.935
505.06	32.742
505.40	33.272
505.75	32.650
506.09	32.919
506.44	33.148
506.78	33.716
507.13	32.550
507.47	33.728
507.82	33.239
508.16	33.270
508.51	32.865
508.85	33.349
509.19	33.775
509.54	33.525
509.88	33.026
510.23	34.628
510.57	34.799
510.92	33.962
511.26	33.430
511.61	32.834
511.95	33.626
512.30	34.121
512.64	32.784
512.98	33.667
513.33	34.325
513.67	32.840
514.02	34.594
514.36	34.834
514.70	34.271
515.05	34.984
515.39	34.226
515.74	34.730
516.08	34.390
516.42	35.531
516.77	34.595
517.11	33.832
517.46	34.252
517.80	34.794
518.14	36.017
518.49	34.165
518.83	34.912
519.17	34.787
519.52	34.748
519.86	33.791
520.20	35.889
520.55	35.378
520.89	35.079
521.23	34.562
521.58	35.198
521.92	34.561
522.26	35.052
522.61	34.780
522.95	35.294
523.29	35.000
523.64	35.538
523.98	36.395
524.32	36.160
524.66	34.946
525.01	35.561
525.35	34.348
525.69	34.397
526.04	34.673
526.38	34.943
526.72	34.660
527.06	35.543
527.41	35.044
527.75	36.520
528.09	36.009
528.43	33.985
528.78	34.913
529.12	34.576
529.46	35.076
529.80	35.870
530.15	35.362
530.49	35.765
530.83	36.423
531.17	35.066
531.51	34.898
531.86	34.976
532.20	34.817
532.54	34.949
532.88	34.667
533.22	35.710
533.57	35.141
533.91	34.961
534.25	35.218
534.59	35.862
534.93	35.144
535.27	35.268
535.62	35.361
535.96	35.096
536.30	34.430
536.64	35.916
536.98	36.654
537.32	36.358
537.66	36.681
538.01	34.502
538.35	35.018
538.69	35.337
539.03	35.561
539.37	34.511
539.71	35.616
540.05	35.132
540.39	34.291
540.73	34.608
541.07	35.438
541.42	34.731
541.76	34.994
542.10	35.766
542.44	34.714
542.78	35.766
543.12	35.101
543.46	34.249
543.80	35.492
544.14	34.829
544.48	34.929
544.82	34.829
545.16	34.884
545.50	35.231
545.84	34.783
546.18	37.222
546.52	35.350
546.86	34.843
547.20	35.178
547.54	34.332
547.88	34.901
548.22	34.503
548.56	35.869
548.90	35.104
549.24	35.441
549.58	34.637
549.92	34.630
550.26	34.628
550.60	35.227
550.94	34.994
551.28	34.851
551.62	35.714
551.96	33.981
552.30	34.608
552.64	34.972
552.98	35.371
553.32	34.791
553.66	35.949
554.00	35.435
554.34	35.521
554.68	34.732
555.02	35.611
555.36	35.371
555.69	34.529
556.03	35.876
556.37	35.732
556.71	34.369
557.05	34.377
557.39	35.567
557.73	34.941
558.07	34.901
558.41	35.349
558.75	35.227
559.08	35.351
559.42	34.705
559.76	34.193
560.10	34.963
560.44	34.235
560.78	35.500
561.12	34.975
561.45	35.766
561.79	35.104
562.13	35.921
562.47	33.600
562.81	35.696
563.15	34.343
563.48	36.234
563.82	34.643
564.16	33.737
564.50	34.684
564.84	34.867
565.17	34.588
565.51	33.832
565.85	35.095
566.19	35.369
566.52	35.108
566.86	34.918
567.20	33.714
567.54	34.679
567.88	35.321
568.21	35.178
568.55	35.012
568.89	35.089
569.23	35.108
569.56	35.365
569.90	34.996
570.24	34.806
570.57	34.734
570.91	34.231
571.25	34.076
571.59	34.400
571.92	35.048
572.26	35.019
572.60	35.190
572.93	34.484
573.27	35.038
573.61	34.569
573.95	34.984
574.28	34.665
574.62	34.288
574.96	34.252
575.29	34.303
575.63	34.627
575.97	34.683
576.30	34.370
576.64	34.073
576.98	34.374
577.31	34.187
577.65	34.709
577.98	34.262
578.32	34.602
578.66	34.301
578.99	35.142
579.33	35.149
579.67	34.474
580.00	34.659
580.34	34.599
580.67	33.870
581.01	34.163
581.35	33.859
581.68	34.765
582.02	34.528
582.35	35.400
582.69	35.169
583.02	34.629
583.36	35.161
583.70	34.878
584.03	34.509
584.37	34.584
584.70	34.010
585.04	33.969
585.37	33.849
585.71	34.326
586.04	34.412
586.38	34.819
586.72	34.545
587.05	34.178
587.39	34.655
587.72	35.239
588.06	34.840
588.39	34.752
588.73	34.206
589.06	34.622
589.40	35.372
589.73	34.737
590.07	35.212
590.40	35.057
590.73	34.464
591.07	35.927
591.40	34.565
591.74	34.539
592.07	34.227
592.41	34.700
592.74	34.043
593.08	34.809
593.41	34.208
593.75	34.713
594.08	34.929
594.41	35.064
594.75	34.739
595.08	35.330
595.42	35.130
595.75	35.389
596.09	35.276
596.42	34.826
596.75	35.044
597.09	36.121
597.42	34.168
597.75	34.653
598.09	34.405
598.42	35.344
598.76	34.391
599.09	34.283
599.42	33.993
599.76	34.533
600.09	34.801
600.42	35.636
600.76	35.337
601.09	34.252
601.42	34.775
601.76	34.552
602.09	35.132
602.42	33.988
602.76	34.686
603.09	34.545
603.42	34.899
603.76	35.095
604.09	35.273
604.42	35.706
604.76	35.274
605.09	36.059
605.42	35.526
605.75	35.231
606.09	34.789
606.42	34.331
606.75	35.157
607.09	34.332
607.42	34.644
607.75	35.522
608.08	35.083
608.42	34.744
608.75	35.406
609.08	34.550
609.41	34.539
609.75	35.089
610.08	35.224
610.41	34.749
610.74	33.908
611.07	34.813
611.41	35.022
611.74	35.658
612.07	35.484
612.40	34.553
612.73	35.501
613.07	35.403
613.40	34.312
613.73	35.051
614.06	35.770
614.39	34.208
614.72	35.323
615.06	35.707
615.39	34.461
615.72	34.645
616.05	35.940
616.38	35.419
616.71	35.789
617.05	35.517
617.38	35.259
617.71	34.935
618.04	36.158
618.37	34.809
618.70	36.708
619.03	35.723
619.36	36.436
619.69	35.426
620.03	35.530
620.36	35.153
620.69	35.040
621.02	34.777
621.35	36.139
621.68	35.358
622.01	34.947
622.34	34.658
622.67	35.326
623.00	33.806
623.33	35.899
623.66	35.863
623.99	33.377
624.32	36.517
624.65	35.199
624.99	36.931
625.32	35.990
625.65	36.480
625.98	35.186
626.31	35.719
626.64	36.044
626.97	34.959
627.30	34.396
627.63	34.134
627.96	36.336
628.29	34.630
628.62	35.852
628.95	35.933
629.28	35.854
629.61	35.774
629.94	34.561
630.26	35.678
630.59	35.838
630.92	34.719
631.25	36.494
631.58	36.911
631.91	36.270
632.24	36.984
632.57	35.199
632.90	36.209
633.23	37.245
633.56	36.837
633.89	35.640
634.22	35.447
634.55	36.952
634.88	36.255
635.20	37.137
635.53	36.610
635.86	36.186
636.19	37.540
636.52	36.076
636.85	34.423
637.18	36.279
637.51	35.269
637.83	36.323
638.16	38.134
638.49	35.563
638.82	35.851
639.15	35.853
639.48	36.836
639.81	36.143
640.13	36.985
640.46	33.333
640.79	35.172
641.12	34.658
641.45	36.261
641.77	37.484
642.10	37.139
642.43	37.367
642.76	37.398
643.09	36.575
643.41	35.154
643.74	34.897
644.07	36.966
644.40	35.078
644.73	37.155
645.05	36.858
645.38	36.115
645.71	34.311
646.04	37.159
646.36	36.058
646.69	35.583
647.02	36.697
647.35	36.336
647.67	36.715
648.00	37.102
648.33	37.688
648.66	37.660
648.98	35.374
649.31	36.265
649.64	35.989
649.96	36.074
650.29	32.545
650.62	36.351
650.94	35.736
651.27	35.030
651.60	35.673
651.92	35.866
652.25	36.324
652.58	35.763
652.90	35.029
653.23	38.169
653.56	37.375
653.88	37.079
654.21	33.380
654.54	37.139
654.86	34.844
655.19	35.759
655.52	36.153
655.84	37.134
656.17	42.506
656.49	59.927
656.82	65.657
657.15	52.419
657.47	40.302
657.80	30.170
658.13	23.264
658.45	30.003
658.78	36.101
659.10	34.215
659.43	33.603
659.75	32.185
660.08	30.700
660.41	30.687
660.73	31.813
661.06	31.718
661.38	34.769
661.71	35.172
662.03	35.802
662.36	37.567
662.68	37.899
663.01	35.575
663.33	38.185
663.66	36.081
663.98	36.923
664.31	35.272
664.63	35.067
664.96	35.572
665.28	35.027
665.61	36.364
665.93	34.286
666.26	36.022
666.58	35.240
666.91	37.757
667.23	38.286
667.56	38.659
667.88	36.600
668.21	36.133
668.53	35.328
668.86	34.185
669.18	37.678
669.50	37.177
669.83	36.600
670.15	33.858
670.48	36.508
670.80	34.799
671.13	34.783
671.45	34.252
671.77	35.405
672.10	35.667
672.42	34.466
672.75	36.713
673.07	34.776
673.39	35.747
673.72	36.913
674.04	36.552
674.37	35.420
674.69	36.861
675.01	34.667
675.34	35.305
675.66	35.581
675.98	36.567
676.31	37.109
676.63	37.643
676.95	35.824
677.28	37.097
677.60	33.661
677.92	38.388
678.25	37.477
678.57	36.477
678.89	37.031
679.22	36.760
679.54	37.094
679.86	34.746
680.18	36.318
680.51	37.736
680.83	38.298
681.15	36.207
681.48	39.551
681.80	36.615
682.12	36.888
682.44	36.394
682.77	37.411
683.09	35.038
683.41	38.566
683.73	36.053
684.06	36.162
684.38	33.453
684.70	38.779
685.02	41.136
685.34	37.271
685.67	34.069
685.99	36.043
686.31	34.884
686.63	38.231
686.96	36.751
687.28	35.505
687.60	34.343
687.92	33.923
688.24	34.057
688.56	33.103
688.89	36.661
689.21	36.595
689.53	33.725
689.85	35.503
690.17	32.963
690.49	35.657
690.82	35.446
691.14	36.842
691.46	35.946
691.78	36.280
692.10	36.514
692.42	35.893
692.74	36.479
693.06	31.667
693.39	36.812
693.71	36.466
694.03	33.457
694.35	35.429
694.67	36.961
694.99	37.447
695.31	37.307
695.63	38.528
695.95	32.091
696.27	33.626
696.59	37.389
696.91	35.811
697.23	37.143
697.56	36.456
697.88	33.523
698.20	34.463
698.52	37.879
698.84	35.967
699.16	36.939
699.48	35.565
699.80	36.170
700.12	37.555
700.44	33.180
700.76	39.905
701.08	33.898
701.40	36.788
701.72	36.816
702.04	35.294
702.36	31.414
702.68	35.697
703.00	37.164
703.32	35.714
703.64	36.430
703.96	35.322
704.28	35.627
704.60	36.203
704.91	37.245
705.23	38.082
705.55	31.755
705.87	38.182
706.19	40.184
706.51	34.337
706.83	35.159
707.15	32.804
707.47	32.243
707.79	34.934
708.11	31.144
708.43	32.258
708.74	33.929
709.06	34.339
709.38	34.507
709.70	37.469
710.02	33.333
710.34	38.298
710.66	34.358
710.98	39.071
711.29	33.516
711.61	36.723
711.93	36.752
712.25	32.703
712.57	38.643
712.89	34.706
713.20	32.840
713.52	34.971
713.84	37.604
714.16	35.526
714.48	35.567
714.80	39.481
715.11	33.858
715.43	34.748
715.75	36.842
716.07	34.254
716.39	32.514
716.70	33.133
717.02	33.770
717.34	32.056
717.66	34.564
717.97	32.192
718.29	29.897
718.61	31.579
718.93	36.246
719.24	36.957
719.56	31.595
719.88	33.634
720.20	35.484
720.51	33.230
720.83	29.688
721.15	31.908
721.46	38.699
721.78	35.000
722.10	32.039
722.42	35.570
722.73	30.645
723.05	35.088
723.37	33.681
723.68	36.918
724.00	29.603
724.32	30.986
724.63	32.168
724.95	38.652
725.27	31.359
725.58	32.862
725.90	38.966
726.22	30.094
726.53	36.688
726.85	34.277
727.16	35.045
727.48	36.086
727.80	34.106
728.11	30.035
728.43	37.374
728.74	34.448
729.06	34.106
729.38	33.442
729.69	34.228
730.01	33.036
730.32	28.788
730.64	34.591
730.96	32.919
731.27	33.799
731.59	34.066
731.90	33.506
732.22	30.990
732.53	30.663
732.85	34.000
733.16	35.191
733.48	33.232
733.80	33.426
734.11	33.333
734.43	32.973
734.74	35.696
735.06	30.905
735.37	32.162
735.69	32.703
736.00	33.051
736.32	34.501
736.63	32.500
736.95	37.356
737.26	37.879
737.58	36.667
737.89	35.882
738.21	31.804
738.52	32.459
738.83	35.154
739.15	38.298
739.46	36.735
739.78	35.276
740.09	28.653
740.41	34.985
740.72	39.000
741.04	33.333
741.35	32.281
741.66	31.765
741.98	34.426
742.29	30.126
742.61	34.211
742.92	32.692
743.23	28.520
743.55	36.822
743.86	36.800
744.18	32.231
744.49	30.380
744.80	33.333
745.12	34.177
745.43	39.024
745.74	33.621
746.06	34.322
746.37	36.709
746.68	36.585
747.00	31.250
747.31	34.764
747.62	35.769
747.94	35.628
748.25	35.341
748.56	31.020
748.88	32.479
749.19	31.034
749.50	30.303
749.82	38.956
750.13	35.943
750.44	36.000
750.75	36.000
751.07	35.385
751.38	32.492
751.69	31.949
752.01	31.392
752.32	39.542
752.63	32.653
752.94	35.294
753.26	35.316
753.57	33.704
753.88	34.082
754.19	33.762
754.51	32.154
754.82	33.119
755.13	34.426
755.44	34.471
755.75	34.211
756.07	33.731
756.38	36.792
756.69	36.446
757.00	28.809
757.31	32.514
757.63	34.783
757.94	33.333
758.25	33.634
758.56	33.987
758.87	32.955
759.18	32.267
759.50	34.561
759.81	35.574
760.12	33.154
760.43	33.073
760.74	35.714
761.05	32.000
761.36	31.807
761.67	30.964
761.99	32.703
762.30	33.232
762.61	30.363
762.92	31.343
763.23	37.079
763.54	30.935
763.85	32.302
764.16	35.690
764.47	34.507
764.78	35.463
765.10	33.431
765.41	33.333
765.72	31.481
766.03	31.638
766.34	32.288
766.65	28.223
766.96	29.482
767.27	34.562
767.58	25.871
767.89	37.019
768.20	27.230
768.51	28.241
768.82	32.530
769.13	30.303
769.44	27.308
769.75	32.491
770.06	31.154
770.37	35.827
770.68	33.191
770.99	27.935
771.30	33.704
771.61	28.897
771.92	30.741
772.23	29.960
772.54	28.241
772.85	35.484
773.16	30.000
773.47	30.159
773.78	27.568
774.09	31.818
774.39	33.500
774.70	30.601
775.01	21.341
775.32	28.824
775.63	25.153
775.94	24.204
776.25	32.258
776.56	34.615
776.87	25.850
777.18	22.069
777.48	26.573
777.79	27.703
778.10	25.000
778.41	21.528
778.72	28.966
779.03	25.926
779.34	30.303
779.65	25.907
779.95	32.222
780.26	24.432
780.57	22.581
780.88	36.232
781.19	30.323
781.50	29.412
781.80	26.344
782.11	26.984
782.42	24.242
782.73	29.940
783.04	23.464
783.34	27.879
783.65	25.490
783.96	26.087
784.27	23.810
784.57	25.828
784.88	25.714
785.19	23.622
785.50	22.835
785.81	24.060
786.11	27.692
786.42	17.986
786.73	28.058
787.04	22.556
787.34	14.754
787.65	14.400
787.96	26.119
788.26	27.273
788.57	22.378
788.88	26.316
789.19	30.719
789.49	19.178
789.80	23.404
790.11	22.835
790.41	32.812
790.72	21.186
791.03	10.680
791.33	20.870
791.64	20.175
791.95	18.750
792.25	13.333
792.56	16.964
792.87	17.708
793.17	21.429
793.48	14.583
793.79	4.819
794.09	14.679
794.40	20.183
794.70	19.048
795.01	18.182
795.32	17.808
795.62	21.831
795.93	18.939
796.23	20.492
796.54	13.393
796.85	17.021
797.15	11.957
797.46	10.959
797.76	23.750
798.07	15.217
798.37	5.155
798.68	1.299
798.99	4.598
799.29	26.966
799.60	17.021
799.90	24.096
800.21	12.308
800.51	4.478
800.82	8.824
801.12	6.849
801.43	-2.941
801.73	-6.780
802.04	10.606
802.34	-6.667
802.65	5.085
802.95	2.985
803.26	1.695
803.56	4.110
803.87	-4.286
804.17	24.658
804.48	-10.526
804.78	4.167
805.09	0.000
805.39	13.514
805.70	1.408
806.00	13.415
806.30	15.663
806.61	10.959
806.91	16.346
807.22	7.778
807.52	6.897
807.83	19.444
808.13	22.892
808.43	14.607
808.74	2.500
809.04	-1.471
809.35	12.000
809.65	-5.714
809.95	10.959
810.26	-8.772
810.56	20.690
810.86	10.294
811.17	1.754
811.47	1.639
811.77	-15.556
812.08	-6.780
812.38	-8.333
812.69	8.621
812.99	-7.547
813.29	17.949
813.59	4.000
813.90	1.754
814.20	10.909
814.50	22.535
814.81	16.667
815.11	3.279
815.41	14.925
815.72	3.448
816.02	-10.714
816.32	11.111
816.62	-2.273
816.93	0.000
817.23	-3.704
817.53	10.638
817.84	-4.762
818.14	-17.647
818.44	-20.408
818.74	-37.778
819.04	-25.641
819.35	-40.000
819.65	-38.462
819.95	-20.755
820.25	-20.000
820.56	-19.048
820.86	-43.750
821.16	-15.385
821.46	-6.977
821.76	-4.000
822.07	-7.143
822.37	6.522
822.67	17.021
822.97	-40.541
823.27	-7.500
823.57	10.204
823.88	0.000
824.18	-2.500
824.48	0.000
824.78	-4.000
825.08	-33.333
825.38	13.333
825.69	-10.638
825.99	-13.889
826.29	-40.000
826.59	-35.897
826.89	-9.302
827.19	12.000
827.49	-5.882
827.79	-4.167
828.09	-29.730
828.39	-40.000
828.70	-24.390
829.00	-44.186
829.30	-50.000
829.60	-17.647
829.90	-26.087
830.20	-37.143
830.50	-37.931
830.80	-61.111
831.10	-42.308
831.40	-29.412
831.70	-42.857
832.00	-3.226
832.30	-123.529
832.60	-75.000
832.90	-123.077
833.20	-115.789
833.50	-80.000
833.80	-42.105
834.10	-133.333
834.40	-2.778
834.70	-43.750
835.00	-57.143
835.30	-38.235
835.60	-30.000
835.90	-4.000
836.20	-63.636
836.50	-84.000
836.80	-69.697
837.10	-18.519
837.40	-7.407
837.70	-118.750
838.00	-17.857
838.30	-104.348
838.60	-24.138
838.90	-42.857
839.19	-139.130
839.49	-183.333
839.79	-82.609
840.09	-106.250
840.39	-70.000
840.69	-25.806
840.99	-96.429
841.29	-106.667
841.59	-94.737
841.88	-15.385
842.18	-53.846
842.48	-240.000
842.78	-70.000
843.08	-66.667
843.38	-32.258
843.68	-177.778
843.97	-20.588
844.27	-87.500
844.57	-126.316
844.87	-150.000
845.17	-140.000
845.47	-71.429
845.76	-85.714
846.06	-277.778
846.36	-158.824
846.66	-26.923
846.96	-86.667
847.25	-147.059
847.55	-60.870
847.85	-50.000
848.15	-94.118
848.44	-163.636
848.74	-42.857
849.04	-91.667
849.34	-125.000
849.63	-65.217
849.93	1250.000
850.23	-100.000
850.53	-34.615
850.82	-181.818
851.12	-72.727
851.42	-136.364
851.71	-107.692
852.01	-95.000
852.31	-123.077
852.61	-47.368
852.90	-133.333
853.20	-50.000
853.50	-255.556
853.79	-100.000
854.09	-59.091
854.39	-183.333
854.68	-51.613
854.98	-15.385
855.28	-44.444
855.57	-53.571
855.87	-68.000
856.17	-50.000
856.46	-25.926
856.76	-66.667
857.05	-95.652
857.35	-70.833
857.65	-184.615
857.94	-80.952
858.24	-18.519
858.53	-30.435
858.83	-100.000
859.13	-117.647
859.42	-123.529
859.72	-50.000
860.01	-55.000
860.31	-211.111
860.60	-200.000
860.90	-93.333
861.20	-72.222
861.49	-184.615
861.79	-40.000
862.08	-146.154
862.38	-40.625
862.67	-111.765
862.97	-156.250
863.26	-311.111
863.56	-200.000
863.85	-263.636
864.15	-111.111
864.44	-566.667
864.74	-128.571
865.03	-81.250
865.33	-320.000
865.62	-45.161
865.92	-63.636
866.21	-73.913
866.51	-107.143
866.80	-620.000
867.10	-175.000
867.39	-250.000
867.69	3200.000
867.98	-128.571
868.27	-70.588
868.57	-3100.000
868.86	-250.000
869.16	-128.571
869.45	-54.167
869.75	-109.091
870.04	-257.143
870.33	-166.667
870.63	-342.857
870.92	-375.000
871.22	-412.500
871.51	-181.818
871.80	-1066.667
872.10	-700.000
>>>>>End Processed Spectral Data<<<<<
