SpectraSuite Data File
++++++++++++++++++++++++++++++++++++
Date: Thu May 14 15:16:32 PDT 2015
User: schluterlab
Dark Spectrum Present: Yes
Reference Spectrum Present: Yes
Number of Sampled Component Spectra: 1
Spectrometers: USB2E3373
Integration Time (usec): 3000 (USB2E3373)
Spectra Averaged: 3 (USB2E3373)
Boxcar Smoothing: 0 (USB2E3373)
Correct for Electrical Dark: No (USB2E3373)
Strobe/Lamp Enabled: No (USB2E3373)
Correct for Detector Non-linearity: No (USB2E3373)
Correct for Stray Light: No (USB2E3373)
Number of Pixels in Processed Spectrum: 2048
>>>>>Begin Processed Spectral Data<<<<<
178.53	0.000
178.91	671.429
179.29	-5100.000
179.67	-4100.000
180.04	392.857
180.42	350.000
180.80	800.000
181.18	-3500.000
181.56	-3000.000
181.94	1075.000
182.31	-900.000
182.69	1233.333
183.07	-1800.000
183.45	1075.000
183.83	-600.000
184.20	-1300.000
184.58	4000.000
184.96	-1150.000
185.34	-400.000
185.72	-620.000
186.09	511.111
186.47	2000.000
186.85	840.000
187.23	-522.222
187.61	-4600.000
187.98	980.000
188.36	975.000
188.74	-925.000
189.12	-1166.667
189.49	-218.750
189.87	-512.500
190.25	-422.222
190.63	-840.000
191.00	-466.667
191.38	0.000
191.76	-1200.000
192.14	-783.333
192.51	1550.000
192.89	-466.667
193.27	0.000
193.65	-585.714
194.02	-5100.000
194.40	-514.286
194.78	614.286
195.15	0.000
195.53	-327.273
195.91	0.000
196.29	-825.000
196.66	-330.769
197.04	-3800.000
197.42	-500.000
197.79	-2000.000
198.17	-512.500
198.55	-642.857
198.92	-433.333
199.30	-525.000
199.68	-263.636
200.05	-221.429
200.43	-1950.000
200.81	700.000
201.18	0.000
201.56	666.667
201.94	0.000
202.31	1466.667
202.69	-444.444
203.07	3800.000
203.44	-411.111
203.82	-1025.000
204.19	-308.333
204.57	-633.333
204.95	-587.500
205.32	-4000.000
205.70	1025.000
206.08	-716.667
206.45	-633.333
206.83	820.000
207.20	-550.000
207.58	-920.000
207.96	-766.667
208.33	-750.000
208.71	308.333
209.08	-683.333
209.46	0.000
209.84	700.000
210.21	1900.000
210.59	2450.000
210.96	1666.667
211.34	-950.000
211.71	-462.500
212.09	-3700.000
212.46	0.000
212.84	2750.000
213.22	-960.000
213.59	-1050.000
213.97	-290.000
214.34	-1300.000
214.72	616.667
215.09	-975.000
215.47	0.000
215.84	671.429
216.22	2250.000
216.59	-720.000
216.97	-720.000
217.34	-825.000
217.72	-562.500
218.09	-825.000
218.47	-1125.000
218.84	0.000
219.22	960.000
219.59	-247.059
219.97	-150.000
220.34	2200.000
220.72	-455.556
221.09	-300.000
221.47	-1300.000
221.84	-390.000
222.22	-542.857
222.59	0.000
222.97	-437.500
223.34	-940.000
223.72	-4300.000
224.09	-1200.000
224.46	-1275.000
224.84	-740.000
225.21	-714.286
225.59	-1075.000
225.96	-975.000
226.34	-138.462
226.71	800.000
227.08	-2100.000
227.46	-266.667
227.83	-1125.000
228.21	-231.579
228.58	662.500
228.95	2600.000
229.33	-325.000
229.70	-390.000
230.08	-147.368
230.45	400.000
230.82	-1333.333
231.20	-250.000
231.57	-275.000
231.95	-363.636
232.32	-327.273
232.69	-160.000
233.07	-800.000
233.44	-217.647
233.81	-390.000
234.19	-188.889
234.56	-181.818
234.93	-131.034
235.31	-210.526
235.68	-200.000
236.05	-260.000
236.43	-103.846
236.80	-112.000
237.17	-125.926
237.55	-90.909
237.92	-360.000
238.29	-100.000
238.67	-68.182
239.04	-105.556
239.41	-95.238
239.79	-89.130
240.16	-77.778
240.53	-86.957
240.91	-80.392
241.28	-68.852
241.65	-49.254
242.02	-43.243
242.40	-70.769
242.77	-53.333
243.14	-56.098
243.51	-67.105
243.89	-64.103
244.26	-32.673
244.63	-29.412
245.00	-32.710
245.38	-35.965
245.75	-49.558
246.12	-31.746
246.49	-38.760
246.87	-32.143
247.24	-23.179
247.61	-21.711
247.98	-27.517
248.36	-30.864
248.73	-28.834
249.10	-26.230
249.47	-13.930
249.84	-14.136
250.22	-19.689
250.59	-19.444
250.96	-13.182
251.33	-17.857
251.70	-11.966
252.08	-14.583
252.45	-9.016
252.82	-15.702
253.19	-14.844
253.56	-9.506
253.94	-15.769
254.31	-12.500
254.68	-10.490
255.05	-11.401
255.42	-13.946
255.79	-14.239
256.16	-13.576
256.54	-12.583
256.91	-12.787
257.28	-14.426
257.65	-12.102
258.02	-13.274
258.39	-6.838
258.76	-9.480
259.14	-8.908
259.51	-11.239
259.88	-13.598
260.25	-9.444
260.62	-6.575
260.99	-7.377
261.36	-6.166
261.73	-8.223
262.10	-13.462
262.47	-10.992
262.85	-4.798
263.22	-9.091
263.59	-12.632
263.96	-7.928
264.33	-9.974
264.70	-8.148
265.07	-4.535
265.44	-5.442
265.81	-6.250
266.18	-6.576
266.55	-6.696
266.92	-9.112
267.29	-7.440
267.66	-9.978
268.03	-10.480
268.40	-7.307
268.77	-9.795
269.14	-11.233
269.51	-7.018
269.88	-6.352
270.25	-5.433
270.62	-6.118
270.99	-5.455
271.36	-4.752
271.73	-5.108
272.10	-4.810
272.47	-5.611
272.84	-6.024
273.21	-4.810
273.58	-5.645
273.95	-5.962
274.32	-6.844
274.69	-7.350
275.06	-5.861
275.43	-6.470
275.80	-4.586
276.17	-7.593
276.54	-7.090
276.91	-6.619
277.28	-6.872
277.65	-7.002
278.02	-6.801
278.39	-6.703
278.76	-7.557
279.13	-7.092
279.50	-2.921
279.87	-3.757
280.23	-7.218
280.60	-5.424
280.97	-5.428
281.34	-5.603
281.71	-3.384
282.08	-5.482
282.45	-5.401
282.82	-5.338
283.19	-7.593
283.56	-6.885
283.92	-2.402
284.29	-1.896
284.66	-4.762
285.03	-5.929
285.40	-3.864
285.77	-6.037
286.14	-3.359
286.51	-4.110
286.87	-4.581
287.24	-5.572
287.61	-5.680
287.98	-5.136
288.35	-4.438
288.72	-5.325
289.08	-4.539
289.45	-5.030
289.82	-4.217
290.19	-4.741
290.56	-4.507
290.93	-4.708
291.29	-4.408
291.66	-4.545
292.03	-4.342
292.40	-2.449
292.77	-4.313
293.13	-3.654
293.50	-4.205
293.87	-4.832
294.24	-2.667
294.60	-3.034
294.97	-5.235
295.34	-2.689
295.71	-4.161
296.08	-3.876
296.44	-3.186
296.81	-3.410
297.18	-5.106
297.55	-3.656
297.91	-4.152
298.28	-4.147
298.65	-3.092
299.02	-4.132
299.38	-2.860
299.75	-3.037
300.12	-4.167
300.48	-3.341
300.85	-3.825
301.22	-3.356
301.59	-4.338
301.95	-2.938
302.32	-2.000
302.69	-2.848
303.05	-3.047
303.42	-3.437
303.79	-2.604
304.15	-2.734
304.52	-3.911
304.89	-3.770
305.25	-2.795
305.62	-2.926
305.99	-2.784
306.35	-2.823
306.72	-2.275
307.09	-2.741
307.45	-2.484
307.82	-2.119
308.19	-2.119
308.55	-1.446
308.92	-2.434
309.29	-2.299
309.65	-2.534
310.02	-3.267
310.38	-3.248
310.75	-1.748
311.12	-1.630
311.48	-2.835
311.85	-2.374
312.22	-2.372
312.58	-2.066
312.95	-2.294
313.31	-1.536
313.68	-1.465
314.05	-0.542
314.41	-1.002
314.78	-2.089
315.14	-1.361
315.51	-0.462
315.87	-0.540
316.24	-0.822
316.61	-0.089
316.97	-0.814
317.34	-0.441
317.70	0.349
318.07	0.088
318.43	1.616
318.80	1.505
319.16	1.373
319.53	0.686
319.89	0.438
320.26	1.512
320.62	0.975
320.99	2.401
321.35	1.294
321.72	2.977
322.08	2.164
322.45	3.071
322.81	4.061
323.18	2.832
323.54	3.276
323.91	4.537
324.27	4.045
324.64	4.870
325.00	4.975
325.37	5.324
325.73	5.785
326.10	6.164
326.46	6.678
326.83	7.846
327.19	7.795
327.56	7.668
327.92	8.576
328.29	8.871
328.65	7.370
329.01	9.137
329.38	10.615
329.74	11.216
330.11	10.788
330.47	10.447
330.84	11.370
331.20	12.750
331.56	12.998
331.93	12.218
332.29	12.373
332.66	13.455
333.02	12.395
333.38	12.416
333.75	12.795
334.11	13.845
334.48	14.686
334.84	14.444
335.20	13.686
335.57	13.828
335.93	14.050
336.29	13.894
336.66	14.382
337.02	14.967
337.38	15.561
337.75	14.545
338.11	15.055
338.47	15.302
338.84	13.959
339.20	13.985
339.56	14.250
339.93	15.764
340.29	14.815
340.65	15.328
341.02	16.361
341.38	16.168
341.74	15.738
342.11	15.366
342.47	14.297
342.83	15.781
343.20	15.781
343.56	16.520
343.92	16.253
344.28	14.922
344.65	16.822
345.01	14.587
345.37	15.397
345.73	14.731
346.10	15.913
346.46	15.427
346.82	16.180
347.19	15.584
347.55	16.692
347.91	15.899
348.27	15.781
348.63	15.537
349.00	15.958
349.36	16.208
349.72	16.443
350.08	15.973
350.45	16.198
350.81	15.385
351.17	15.338
351.53	15.466
351.89	17.236
352.26	15.299
352.62	15.672
352.98	16.031
353.34	14.937
353.70	15.408
354.07	16.244
354.43	15.718
354.79	15.707
355.15	15.453
355.51	16.813
355.87	14.510
356.24	15.513
356.60	16.038
356.96	16.605
357.32	14.721
357.68	15.886
358.04	15.120
358.40	16.642
358.77	15.789
359.13	15.214
359.49	16.506
359.85	15.809
360.21	15.997
360.57	15.506
360.93	15.585
361.29	16.351
361.66	15.930
362.02	17.189
362.38	15.741
362.74	16.760
363.10	16.781
363.46	16.413
363.82	15.909
364.18	16.538
364.54	17.082
364.90	17.391
365.26	17.586
365.62	17.133
365.98	16.338
366.35	16.242
366.71	18.095
367.07	17.118
367.43	16.743
367.79	17.784
368.15	18.127
368.51	17.524
368.87	16.917
369.23	17.400
369.59	17.350
369.95	17.377
370.31	17.758
370.67	16.781
371.03	17.313
371.39	16.857
371.75	17.194
372.11	17.886
372.47	17.062
372.83	17.539
373.19	18.145
373.55	17.615
373.91	16.564
374.27	18.305
374.63	17.862
374.99	17.308
375.35	17.597
375.71	17.871
376.07	18.399
376.42	18.010
376.78	19.142
377.14	18.715
377.50	18.849
377.86	18.966
378.22	18.982
378.58	19.620
378.94	18.955
379.30	19.215
379.66	19.048
380.02	19.677
380.38	19.412
380.74	19.662
381.09	19.512
381.45	20.398
381.81	20.785
382.17	20.190
382.53	19.474
382.89	20.542
383.25	20.106
383.61	19.387
383.97	19.906
384.32	20.754
384.68	19.026
385.04	21.110
385.40	21.037
385.76	20.692
386.12	20.527
386.48	21.647
386.83	21.156
387.19	20.220
387.55	20.599
387.91	21.404
388.27	20.958
388.62	20.447
388.98	20.587
389.34	21.509
389.70	20.686
390.06	21.018
390.42	21.627
390.77	22.216
391.13	21.185
391.49	21.437
391.85	20.909
392.20	21.056
392.56	20.969
392.92	22.792
393.28	21.725
393.64	21.620
393.99	22.603
394.35	21.963
394.71	21.976
395.07	21.437
395.42	21.816
395.78	21.999
396.14	22.400
396.50	21.200
396.85	21.884
397.21	22.012
397.57	21.967
397.92	21.821
398.28	21.293
398.64	21.911
399.00	21.099
399.35	21.518
399.71	22.554
400.07	22.010
400.42	22.235
400.78	21.701
401.14	21.400
401.49	22.285
401.85	22.093
402.21	22.190
402.57	22.418
402.92	21.809
403.28	20.902
403.63	21.778
403.99	22.031
404.35	22.342
404.70	22.720
405.06	22.337
405.42	22.073
405.77	22.410
406.13	22.204
406.49	22.072
406.84	22.271
407.20	22.638
407.55	22.350
407.91	22.753
408.27	22.085
408.62	21.408
408.98	21.997
409.34	21.760
409.69	22.621
410.05	22.040
410.40	21.578
410.76	21.705
411.11	21.800
411.47	22.482
411.83	22.163
412.18	22.651
412.54	22.347
412.89	21.653
413.25	22.009
413.60	21.482
413.96	23.077
414.31	22.493
414.67	22.660
415.03	22.154
415.38	22.194
415.74	21.869
416.09	22.764
416.45	22.229
416.80	22.338
417.16	22.158
417.51	22.229
417.87	22.502
418.22	22.335
418.58	21.995
418.93	23.283
419.29	22.380
419.64	21.849
420.00	22.196
420.35	22.122
420.71	22.171
421.06	21.449
421.42	22.362
421.77	21.809
422.12	21.564
422.48	23.195
422.83	23.549
423.19	22.706
423.54	22.622
423.90	22.253
424.25	22.773
424.61	22.675
424.96	22.900
425.31	23.408
425.67	22.169
426.02	22.579
426.38	22.618
426.73	21.763
427.09	24.048
427.44	22.611
427.79	22.609
428.15	22.432
428.50	22.472
428.85	23.077
429.21	23.511
429.56	22.507
429.92	23.292
430.27	22.940
430.62	23.351
430.98	22.774
431.33	22.532
431.68	22.749
432.04	22.600
432.39	24.317
432.74	23.345
433.10	22.769
433.45	23.467
433.80	23.230
434.16	23.554
434.51	23.792
434.86	24.701
435.22	23.698
435.57	23.585
435.92	23.428
436.28	22.753
436.63	23.321
436.98	23.027
437.34	23.563
437.69	22.950
438.04	23.057
438.39	23.607
438.75	22.966
439.10	23.256
439.45	23.365
439.81	23.785
440.16	23.378
440.51	22.854
440.86	22.624
441.22	23.687
441.57	23.637
441.92	23.909
442.27	23.737
442.63	23.547
442.98	23.853
443.33	23.198
443.68	24.430
444.03	25.024
444.39	24.226
444.74	23.788
445.09	23.517
445.44	23.973
445.79	24.425
446.15	23.433
446.50	23.514
446.85	24.222
447.20	24.516
447.55	23.640
447.91	23.351
448.26	24.366
448.61	23.698
448.96	24.571
449.31	23.277
449.66	23.638
450.02	23.945
450.37	24.134
450.72	23.843
451.07	23.975
451.42	23.686
451.77	23.958
452.12	24.605
452.47	24.064
452.83	24.155
453.18	23.701
453.53	24.124
453.88	23.302
454.23	24.633
454.58	24.028
454.93	24.090
455.28	24.925
455.63	22.570
455.98	24.637
456.34	23.439
456.69	24.985
457.04	24.704
457.39	23.891
457.74	25.056
458.09	24.382
458.44	24.784
458.79	24.291
459.14	24.751
459.49	24.165
459.84	25.026
460.19	23.765
460.54	24.588
460.89	24.404
461.24	23.046
461.59	24.460
461.94	24.358
462.29	25.028
462.64	24.140
462.99	24.105
463.34	25.243
463.69	24.209
464.04	25.403
464.39	25.056
464.74	23.831
465.09	24.567
465.44	23.605
465.79	25.119
466.14	24.075
466.49	24.053
466.84	24.298
467.19	25.202
467.54	24.207
467.89	24.368
468.24	24.543
468.59	24.030
468.94	23.834
469.29	24.295
469.64	23.331
469.99	24.538
470.34	24.319
470.68	23.172
471.03	25.213
471.38	24.395
471.73	24.187
472.08	24.937
472.43	25.166
472.78	24.559
473.13	24.652
473.48	23.867
473.83	24.260
474.17	23.857
474.52	24.775
474.87	24.142
475.22	24.620
475.57	24.299
475.92	25.137
476.27	24.867
476.61	24.922
476.96	23.514
477.31	25.050
477.66	25.393
478.01	24.403
478.36	25.174
478.70	24.581
479.05	24.744
479.40	25.370
479.75	24.928
480.10	24.680
480.45	25.296
480.79	25.215
481.14	25.138
481.49	25.080
481.84	24.804
482.19	25.247
482.53	24.967
482.88	25.033
483.23	24.811
483.58	24.978
483.92	24.424
484.27	24.894
484.62	24.340
484.97	25.389
485.31	24.252
485.66	23.224
486.01	23.435
486.36	24.828
486.70	26.381
487.05	27.853
487.40	26.747
487.75	25.954
488.09	25.923
488.44	25.062
488.79	24.992
489.13	24.294
489.48	24.893
489.83	24.588
490.17	24.909
490.52	23.933
490.87	25.677
491.22	25.433
491.56	25.213
491.91	24.684
492.26	24.794
492.60	25.186
492.95	24.879
493.30	24.742
493.64	25.756
493.99	24.123
494.34	24.956
494.68	24.625
495.03	25.419
495.37	25.300
495.72	25.079
496.07	24.803
496.41	25.054
496.76	25.730
497.11	25.138
497.45	24.385
497.80	24.700
498.14	23.946
498.49	24.540
498.84	25.183
499.18	24.696
499.53	25.247
499.87	24.527
500.22	23.865
500.56	24.831
500.91	24.805
501.26	25.227
501.60	24.702
501.95	25.445
502.29	25.011
502.64	25.273
502.98	25.324
503.33	25.227
503.67	24.553
504.02	24.825
504.36	25.067
504.71	24.575
505.06	24.648
505.40	23.903
505.75	24.499
506.09	24.816
506.44	25.209
506.78	25.917
507.13	23.974
507.47	24.680
507.82	25.095
508.16	24.140
508.51	25.035
508.85	25.224
509.19	25.154
509.54	25.168
509.88	24.575
510.23	25.158
510.57	24.988
510.92	23.899
511.26	24.435
511.61	24.239
511.95	23.572
512.30	24.618
512.64	24.738
512.98	24.312
513.33	24.395
513.67	24.477
514.02	24.885
514.36	24.143
514.70	24.062
515.05	24.557
515.39	23.675
515.74	25.610
516.08	24.353
516.42	25.536
516.77	24.921
517.11	24.497
517.46	24.390
517.80	24.906
518.14	24.701
518.49	24.729
518.83	24.268
519.17	23.371
519.52	24.528
519.86	24.129
520.20	24.441
520.55	24.644
520.89	24.324
521.23	24.232
521.58	24.576
521.92	24.023
522.26	23.883
522.61	23.958
522.95	23.702
523.29	24.598
523.64	24.047
523.98	24.472
524.32	24.986
524.66	24.075
525.01	24.009
525.35	23.837
525.69	23.782
526.04	23.536
526.38	24.253
526.72	23.645
527.06	24.457
527.41	23.965
527.75	24.881
528.09	24.144
528.43	24.512
528.78	24.220
529.12	23.853
529.46	23.946
529.80	23.741
530.15	23.478
530.49	23.547
530.83	23.849
531.17	23.536
531.51	24.549
531.86	24.760
532.20	23.537
532.54	23.579
532.88	23.333
533.22	24.101
533.57	23.370
533.91	23.120
534.25	24.421
534.59	23.621
534.93	22.694
535.27	23.324
535.62	23.081
535.96	23.359
536.30	22.797
536.64	24.625
536.98	24.231
537.32	24.259
537.66	23.331
538.01	23.505
538.35	23.082
538.69	23.558
539.03	23.912
539.37	23.204
539.71	23.724
540.05	23.321
540.39	23.105
540.73	22.222
541.07	22.195
541.42	22.623
541.76	23.013
542.10	23.040
542.44	22.351
542.78	22.993
543.12	23.004
543.46	22.955
543.80	24.101
544.14	22.561
544.48	23.168
544.82	23.938
545.16	22.898
545.50	22.349
545.84	22.229
546.18	23.765
546.52	22.675
546.86	22.327
547.20	22.265
547.54	21.910
547.88	22.423
548.22	21.462
548.56	22.820
548.90	22.209
549.24	23.040
549.58	22.965
549.92	21.811
550.26	23.172
550.60	22.527
550.94	21.992
551.28	22.046
551.62	22.305
551.96	21.748
552.30	21.734
552.64	21.966
552.98	22.208
553.32	21.865
553.66	22.444
554.00	22.825
554.34	22.329
554.68	21.498
555.02	21.945
555.36	22.748
555.69	21.589
556.03	22.509
556.37	22.653
556.71	21.306
557.05	22.684
557.39	21.831
557.73	23.052
558.07	22.053
558.41	21.927
558.75	21.433
559.08	20.946
559.42	21.399
559.76	21.370
560.10	21.969
560.44	22.361
560.78	22.250
561.12	22.414
561.45	22.019
561.79	21.551
562.13	23.475
562.47	22.626
562.81	21.899
563.15	21.528
563.48	21.690
563.82	21.826
564.16	20.957
564.50	21.514
564.84	20.708
565.17	21.882
565.51	21.634
565.85	21.793
566.19	21.774
566.52	22.294
566.86	21.845
567.20	20.555
567.54	21.243
567.88	21.662
568.21	21.344
568.55	21.343
568.89	20.790
569.23	21.166
569.56	21.297
569.90	20.706
570.24	21.113
570.57	21.584
570.91	20.698
571.25	21.059
571.59	21.625
571.92	21.189
572.26	20.831
572.60	21.212
572.93	20.679
573.27	21.467
573.61	20.805
573.95	20.636
574.28	20.556
574.62	20.373
574.96	20.622
575.29	20.599
575.63	20.675
575.97	20.790
576.30	20.627
576.64	20.377
576.98	20.456
577.31	20.499
577.65	21.110
577.98	20.689
578.32	20.592
578.66	20.543
578.99	20.786
579.33	20.765
579.67	20.920
580.00	20.477
580.34	20.462
580.67	20.565
581.01	20.208
581.35	20.105
581.68	20.248
582.02	20.147
582.35	20.766
582.69	21.040
583.02	20.856
583.36	20.785
583.70	20.109
584.03	20.110
584.37	19.995
584.70	19.560
585.04	19.926
585.37	19.996
585.71	19.525
586.04	20.145
586.38	20.102
586.72	19.955
587.05	19.852
587.39	20.170
587.72	20.144
588.06	19.923
588.39	20.239
588.73	19.550
589.06	20.288
589.40	20.344
589.73	20.084
590.07	20.060
590.40	20.284
590.73	19.972
591.07	19.657
591.40	18.935
591.74	19.992
592.07	20.463
592.41	19.716
592.74	19.595
593.08	20.000
593.41	20.443
593.75	20.661
594.08	20.085
594.41	20.160
594.75	19.861
595.08	19.381
595.42	20.000
595.75	19.212
596.09	20.197
596.42	19.276
596.75	19.838
597.09	19.919
597.42	19.269
597.75	19.365
598.09	19.524
598.42	20.024
598.76	19.182
599.09	19.438
599.42	19.041
599.76	19.280
600.09	20.153
600.42	19.520
600.76	19.881
601.09	19.283
601.42	19.430
601.76	19.379
602.09	19.585
602.42	19.338
602.76	19.483
603.09	19.493
603.42	19.473
603.76	18.992
604.09	19.979
604.42	19.706
604.76	19.330
605.09	18.987
605.42	18.740
605.75	19.346
606.09	19.186
606.42	18.752
606.75	19.453
607.09	18.126
607.42	18.882
607.75	18.835
608.08	19.179
608.42	19.025
608.75	18.740
609.08	18.548
609.41	18.747
609.75	18.348
610.08	19.261
610.41	18.862
610.74	18.950
611.07	19.139
611.41	18.834
611.74	18.984
612.07	19.635
612.40	18.441
612.73	18.924
613.07	19.413
613.40	19.346
613.73	18.922
614.06	18.891
614.39	19.145
614.72	19.117
615.06	18.287
615.39	18.850
615.72	19.194
616.05	18.601
616.38	19.828
616.71	18.861
617.05	18.264
617.38	19.743
617.71	19.384
618.04	18.295
618.37	19.071
618.70	18.835
619.03	19.056
619.36	17.879
619.69	19.283
620.03	18.895
620.36	18.405
620.69	17.643
621.02	18.504
621.35	19.086
621.68	20.029
622.01	17.367
622.34	17.294
622.67	17.801
623.00	17.544
623.33	19.575
623.66	18.612
623.99	17.643
624.32	19.623
624.65	17.954
624.99	18.726
625.32	19.660
625.65	17.802
625.98	18.034
626.31	19.064
626.64	18.022
626.97	18.830
627.30	17.844
627.63	18.005
627.96	19.219
628.29	18.132
628.62	18.304
628.95	17.616
629.28	17.332
629.61	18.098
629.94	17.908
630.26	17.712
630.59	17.444
630.92	17.489
631.25	19.052
631.58	19.021
631.91	16.963
632.24	17.195
632.57	17.268
632.90	17.352
633.23	18.061
633.56	17.245
633.89	16.426
634.22	18.815
634.55	18.163
634.88	17.208
635.20	17.653
635.53	17.853
635.86	17.985
636.19	18.770
636.52	17.616
636.85	17.365
637.18	18.191
637.51	18.602
637.83	17.054
638.16	16.820
638.49	15.493
638.82	16.911
639.15	16.724
639.48	18.591
639.81	17.667
640.13	17.550
640.46	16.364
640.79	15.564
641.12	16.398
641.45	17.189
641.77	20.282
642.10	16.404
642.43	19.415
642.76	17.480
643.09	17.260
643.41	14.426
643.74	17.241
644.07	16.138
644.40	17.539
644.73	17.707
645.05	14.831
645.38	16.835
645.71	15.836
646.04	16.499
646.36	16.058
646.69	15.798
647.02	16.514
647.35	17.710
647.67	16.908
648.00	16.401
648.33	17.568
648.66	15.692
648.98	16.463
649.31	16.238
649.64	16.999
649.96	16.313
650.29	14.047
650.62	15.842
650.94	15.315
651.27	14.820
651.60	17.690
651.92	15.957
652.25	15.919
652.58	15.543
652.90	15.116
653.23	16.901
653.56	14.551
653.88	16.854
654.21	16.338
654.54	17.341
654.86	16.431
655.19	14.178
655.52	17.558
655.84	18.584
656.17	21.181
656.49	29.615
656.82	31.764
657.15	24.639
657.47	18.573
657.80	13.588
658.13	10.491
658.45	13.754
658.78	16.155
659.10	14.918
659.43	14.183
659.75	13.214
660.08	12.381
660.41	12.324
660.73	12.429
661.06	12.041
661.38	14.514
661.71	13.103
662.03	15.873
662.36	15.206
662.68	12.758
663.01	14.336
663.33	13.422
663.66	16.484
663.98	15.577
664.31	14.447
664.63	12.331
664.96	14.882
665.28	11.978
665.61	16.434
665.93	15.179
666.26	14.875
666.58	12.915
666.91	16.636
667.23	16.190
667.56	13.412
667.88	13.600
668.21	12.109
668.53	11.390
668.86	13.163
669.18	14.257
669.50	13.519
669.83	11.800
670.15	12.992
670.48	13.690
670.80	13.384
671.13	12.665
671.45	11.417
671.77	12.806
672.10	12.167
672.42	15.049
672.75	11.521
673.07	12.239
673.39	14.330
673.72	15.268
674.04	14.310
674.37	11.986
674.69	13.404
675.01	12.000
675.34	11.641
675.66	14.232
675.98	14.179
676.31	14.062
676.63	16.160
676.95	15.709
677.28	12.298
677.60	11.220
677.92	12.092
678.25	14.260
678.57	14.947
678.89	14.164
679.22	12.718
679.54	12.479
679.86	10.169
680.18	12.106
680.51	12.893
680.83	13.093
681.15	14.310
681.48	12.608
681.80	11.744
682.12	10.839
682.44	13.523
682.77	11.879
683.09	13.447
683.41	13.178
683.73	11.575
684.06	12.177
684.38	9.839
684.70	15.440
685.02	13.253
685.34	10.815
685.67	11.514
685.99	12.730
686.31	10.610
686.63	10.742
686.96	11.356
687.28	10.749
687.60	11.448
687.92	10.932
688.24	12.855
688.56	10.517
688.89	11.434
689.21	12.524
689.53	10.000
689.85	11.045
690.17	12.963
690.49	7.968
690.82	9.505
691.14	8.097
691.46	11.472
691.78	12.155
692.10	9.541
692.42	11.250
692.74	10.708
693.06	7.963
693.39	12.713
693.71	9.586
694.03	9.480
694.35	12.000
694.67	13.963
694.99	10.000
695.31	10.375
695.63	9.307
695.95	10.145
696.27	9.670
696.59	10.841
696.91	12.387
697.23	10.769
697.56	8.758
697.88	10.038
698.20	12.618
698.52	10.606
698.84	9.979
699.16	11.020
699.48	8.996
699.80	10.426
700.12	8.297
700.44	10.138
700.76	9.501
701.08	10.412
701.40	9.067
701.72	9.204
702.04	9.091
702.36	7.330
702.68	10.758
703.00	7.579
703.32	6.158
703.64	7.824
703.96	10.501
704.28	9.091
704.60	9.620
704.91	7.143
705.23	10.411
705.55	10.585
705.87	6.970
706.19	10.429
706.51	3.012
706.83	6.628
707.15	8.466
707.47	6.308
707.79	8.734
708.11	8.051
708.43	8.172
708.74	6.920
709.06	6.497
709.38	8.685
709.70	9.926
710.02	7.752
710.34	7.447
710.66	6.425
710.98	8.470
711.29	6.044
711.61	6.780
711.93	6.268
712.25	4.865
712.57	6.785
712.89	5.882
713.20	5.621
713.52	6.647
713.84	5.571
714.16	8.158
714.48	4.897
714.80	11.169
715.11	7.874
715.43	4.775
715.75	6.316
716.07	5.249
716.39	5.738
716.70	5.120
717.02	5.246
717.34	4.181
717.66	2.685
717.97	2.740
718.29	4.124
718.61	5.921
718.93	2.589
719.24	5.590
719.56	5.215
719.88	4.805
720.20	5.484
720.51	4.348
720.83	3.438
721.15	4.934
721.46	-0.342
721.78	3.000
722.10	2.589
722.42	4.362
722.73	3.548
723.05	0.702
723.37	3.819
723.68	7.168
724.00	6.137
724.32	0.352
724.63	2.797
724.95	4.255
725.27	4.181
725.58	2.120
725.90	5.517
726.22	2.821
726.53	3.571
726.85	4.403
727.16	6.042
727.48	4.281
727.80	2.649
728.11	1.060
728.43	6.397
728.74	3.010
729.06	1.987
729.38	2.597
729.69	4.698
730.01	5.060
730.32	-1.818
730.64	2.201
730.96	0.621
731.27	10.335
731.59	5.220
731.90	4.416
732.22	2.865
732.53	1.657
732.85	4.286
733.16	4.399
733.48	0.305
733.80	4.178
734.11	4.558
734.43	6.486
734.74	8.861
735.06	6.533
735.37	4.595
735.69	3.784
736.00	2.260
736.32	8.086
736.63	4.444
736.95	3.736
737.26	5.455
737.58	1.212
737.89	6.471
738.21	0.000
738.52	0.656
738.83	5.461
739.15	3.191
739.46	2.721
739.78	2.454
740.09	5.444
740.41	5.831
740.72	2.000
741.04	2.913
741.35	3.509
741.66	4.314
741.98	1.230
742.29	-0.837
742.61	0.439
742.92	0.769
743.23	2.527
743.55	-1.163
743.86	2.400
744.18	-1.240
744.49	-1.266
744.80	0.823
745.12	-2.110
745.43	0.407
745.74	-3.448
746.06	-5.085
746.37	3.376
746.68	0.813
747.00	-0.833
747.31	-3.004
747.62	5.769
747.94	0.810
748.25	-1.606
748.56	-6.939
748.88	-2.137
749.19	2.586
749.50	-3.030
749.82	1.205
750.13	2.847
750.44	0.000
750.75	3.385
751.07	5.846
751.38	5.047
751.69	5.112
752.01	-0.971
752.32	-1.307
752.63	-0.340
752.94	-0.692
753.26	-1.859
753.57	-1.111
753.88	-2.996
754.19	3.215
754.51	0.000
754.82	4.823
755.13	4.590
755.44	4.096
755.75	1.645
756.07	6.269
756.38	1.887
756.69	5.723
757.00	0.831
757.31	2.459
757.63	1.790
757.94	5.399
758.25	6.546
758.56	5.447
758.87	2.955
759.18	5.333
759.50	3.683
759.81	2.521
760.12	8.086
760.43	3.646
760.74	5.172
761.05	3.500
761.36	2.651
761.67	2.284
761.99	0.811
762.30	3.049
762.61	0.990
762.92	-2.612
763.23	-1.498
763.54	2.518
763.85	0.344
764.16	0.673
764.47	-0.704
764.78	4.473
765.10	5.279
765.41	5.641
765.72	0.000
766.03	4.237
766.34	-1.881
766.65	-3.833
766.96	-2.789
767.27	-6.912
767.58	-6.965
767.89	-0.481
768.20	-4.695
768.51	-6.944
768.82	0.803
769.13	-1.515
769.44	-2.308
769.75	2.527
770.06	-1.538
770.37	-0.394
770.68	-3.830
770.99	-6.073
771.30	0.000
771.61	-1.141
771.92	-2.222
772.23	-0.810
772.54	-6.481
772.85	0.000
773.16	-4.286
773.47	-10.053
773.78	-8.108
774.09	-6.250
774.39	-2.500
774.70	-4.918
775.01	-12.195
775.32	-17.647
775.63	-12.270
775.94	-17.834
776.25	-14.839
776.56	-7.692
776.87	-10.204
777.18	-14.483
777.48	-14.685
777.79	-16.216
778.10	-21.324
778.41	-13.889
778.72	-8.966
779.03	-3.704
779.34	-11.515
779.65	-7.254
779.95	-9.444
780.26	-9.659
780.57	-11.613
780.88	-7.971
781.19	-9.032
781.50	-5.882
781.80	-4.839
782.11	-5.291
782.42	-9.596
782.73	-13.772
783.04	-8.939
783.34	-10.909
783.65	-17.647
783.96	-7.453
784.27	-7.738
784.57	-9.934
784.88	-11.429
785.19	-16.535
785.50	-10.236
785.81	-12.030
786.11	-13.077
786.42	-13.669
786.73	-17.266
787.04	-14.286
787.34	-16.393
787.65	-12.800
787.96	-12.687
788.26	-5.594
788.57	-10.490
788.88	-14.474
789.19	-5.229
789.49	-7.534
789.80	-12.766
790.11	-13.386
790.41	-18.750
790.72	-18.644
791.03	-27.184
791.33	-18.261
791.64	-18.421
791.95	-28.571
792.25	-21.905
792.56	-22.321
792.87	-29.167
793.17	-24.107
793.48	-28.125
793.79	-49.398
794.09	-33.028
794.40	-33.028
794.70	-13.605
795.01	-14.286
795.32	-15.068
795.62	-14.789
795.93	-23.485
796.23	-12.295
796.54	-21.429
796.85	-24.468
797.15	-35.870
797.46	-50.685
797.76	-42.500
798.07	-21.739
798.37	-39.175
798.68	-38.961
798.99	-34.483
799.29	-32.584
799.60	-32.979
799.90	-38.554
800.21	-55.385
800.51	-52.239
800.82	-58.824
801.12	-56.164
801.43	-51.471
801.73	-77.966
802.04	-43.939
802.34	-61.667
802.65	-37.288
802.95	-41.791
803.26	-62.712
803.56	-42.466
803.87	-31.429
804.17	-38.356
804.48	-73.684
804.78	-37.500
805.09	-77.586
805.39	-35.135
805.70	-61.972
806.00	-25.610
806.30	-38.554
806.61	-57.534
806.91	-30.769
807.22	-30.000
807.52	-42.529
807.83	-41.667
808.13	-26.506
808.43	-30.337
808.74	-33.750
809.04	-47.059
809.35	-34.667
809.65	-42.857
809.95	-49.315
810.26	-71.930
810.56	-63.793
810.86	-27.941
811.17	-70.175
811.47	-70.492
811.77	-84.444
812.08	-52.542
812.38	-46.667
812.69	-56.897
812.99	-69.811
813.29	-107.692
813.59	-56.000
813.90	-50.877
814.20	-67.273
814.50	-26.761
814.81	-34.615
815.11	-54.098
815.41	-41.791
815.72	-62.069
816.02	-62.500
816.32	-66.667
816.62	-72.727
816.93	-93.333
817.23	-57.407
817.53	-51.064
817.84	-66.667
818.14	-85.294
818.44	-65.306
818.74	-73.333
819.04	-115.385
819.35	-120.000
819.65	-153.846
819.95	-62.264
820.25	-93.333
820.56	-88.095
820.86	-128.125
821.16	-71.795
821.46	-72.093
821.76	-94.000
822.07	-57.143
822.37	-89.130
822.67	-89.362
822.97	-121.622
823.27	-90.000
823.57	-40.816
823.88	-71.111
824.18	-87.500
824.48	-110.000
824.78	-136.000
825.08	-93.939
825.38	-62.222
825.69	-74.468
825.99	-83.333
826.29	-148.571
826.59	-97.436
826.89	-90.698
827.19	-62.000
827.49	-100.000
827.79	-54.167
828.09	-124.324
828.39	-143.333
828.70	-78.049
829.00	-88.372
829.30	-157.143
829.60	-100.000
829.90	-65.217
830.20	-131.429
830.50	-137.931
830.80	-266.667
831.10	-169.231
831.40	-111.765
831.70	-171.429
832.00	-74.194
832.30	-270.588
832.60	-150.000
832.90	-415.385
833.20	-210.526
833.50	-155.000
833.80	-221.053
834.10	-214.286
834.40	-83.333
834.70	-103.125
835.00	-105.714
835.30	-105.882
835.60	-146.667
835.90	-160.000
836.20	-222.727
836.50	-132.000
836.80	-115.152
837.10	-96.296
837.40	-144.444
837.70	-293.750
838.00	-135.714
838.30	-208.696
838.60	-124.138
838.90	-250.000
839.19	-204.348
839.49	-391.667
839.79	-156.522
840.09	-275.000
840.39	-200.000
840.69	-96.774
840.99	-164.286
841.29	-240.000
841.59	-226.316
841.88	-89.744
842.18	-169.231
842.48	-460.000
842.78	-170.000
843.08	-93.333
843.38	-100.000
843.68	-244.444
843.97	-73.529
844.27	-225.000
844.57	-200.000
844.87	-450.000
845.17	-260.000
845.47	-142.857
845.76	-161.905
846.06	-522.222
846.36	-258.824
846.66	-119.231
846.96	-313.333
847.25	-247.059
847.55	-173.913
847.85	-195.000
848.15	-229.412
848.44	-436.364
848.74	-204.762
849.04	-187.500
849.34	-231.250
849.63	-169.565
849.93	2300.000
850.23	-260.000
850.53	-103.846
850.82	-390.909
851.12	-140.909
851.42	-336.364
851.71	-184.615
852.01	-185.000
852.31	-330.769
852.61	-210.526
852.90	-275.000
853.20	-211.111
853.50	-588.889
853.79	-200.000
854.09	-204.545
854.39	-400.000
854.68	-109.677
854.98	-153.846
855.28	-205.556
855.57	-139.286
855.87	-164.000
856.17	-163.636
856.46	-125.926
856.76	-205.556
857.05	-191.304
857.35	-137.500
857.65	-269.231
857.94	-204.762
858.24	-88.889
858.53	-152.174
858.83	-229.412
859.13	-247.059
859.42	-241.176
859.72	-242.857
860.01	-230.000
860.31	-577.778
860.60	-420.000
860.90	-293.333
861.20	-244.444
861.49	-223.077
861.79	-103.333
862.08	-323.077
862.38	-109.375
862.67	-188.235
862.97	-206.250
863.26	-533.333
863.56	-480.000
863.85	-381.818
864.15	-227.778
864.44	-1466.667
864.74	-257.143
865.03	-262.500
865.33	-400.000
865.62	-148.387
865.92	-131.818
866.21	-139.130
866.51	-257.143
866.80	-800.000
867.10	-333.333
867.39	-258.333
867.69	4600.000
867.98	-571.429
868.27	-223.529
868.57	-5500.000
868.86	-450.000
869.16	-195.238
869.45	-158.333
869.75	-309.091
870.04	-600.000
870.33	-350.000
870.63	-685.714
870.92	-925.000
871.22	-562.500
871.51	-381.818
871.80	-1733.333
872.10	-2100.000
>>>>>End Processed Spectral Data<<<<<
