SpectraSuite Data File
++++++++++++++++++++++++++++++++++++
Date: Thu May 14 14:40:58 PDT 2015
User: schluterlab
Dark Spectrum Present: Yes
Reference Spectrum Present: Yes
Number of Sampled Component Spectra: 1
Spectrometers: USB2E3373
Integration Time (usec): 3000 (USB2E3373)
Spectra Averaged: 3 (USB2E3373)
Boxcar Smoothing: 0 (USB2E3373)
Correct for Electrical Dark: No (USB2E3373)
Strobe/Lamp Enabled: No (USB2E3373)
Correct for Detector Non-linearity: No (USB2E3373)
Correct for Stray Light: No (USB2E3373)
Number of Pixels in Processed Spectrum: 2048
>>>>>Begin Processed Spectral Data<<<<<
178.53	0.000
178.91	-142.857
179.29	-1000.000
179.67	-100.000
180.04	71.429
180.42	-120.000
180.80	-20.000
181.18	800.000
181.56	1800.000
181.94	-200.000
182.31	25.000
182.69	-333.333
183.07	650.000
183.45	100.000
183.83	116.667
184.20	366.667
184.58	-300.000
184.96	100.000
185.34	122.222
185.72	400.000
186.09	11.111
186.47	-350.000
186.85	-20.000
187.23	77.778
187.61	400.000
187.98	-200.000
188.36	-375.000
188.74	75.000
189.12	1000.000
189.49	62.500
189.87	50.000
190.25	88.889
190.63	180.000
191.00	22.222
191.38	0.000
191.76	275.000
192.14	200.000
192.51	-900.000
192.89	350.000
193.27	0.000
193.65	185.714
194.02	-300.000
194.40	242.857
194.78	-14.286
195.15	0.000
195.53	154.545
195.91	0.000
196.29	225.000
196.66	76.923
197.04	-200.000
197.42	71.429
197.79	400.000
198.17	100.000
198.55	142.857
198.92	100.000
199.30	137.500
199.68	145.455
200.05	78.571
200.43	450.000
200.81	-14.286
201.18	0.000
201.56	77.778
201.94	0.000
202.31	-0.000
202.69	144.444
203.07	-700.000
203.44	44.444
203.82	75.000
204.19	83.333
204.57	133.333
204.95	175.000
205.32	1100.000
205.70	-400.000
206.08	233.333
206.45	150.000
206.83	-100.000
207.20	250.000
207.58	140.000
207.96	250.000
208.33	316.667
208.71	-58.333
209.08	266.667
209.46	0.000
209.84	-33.333
210.21	-550.000
210.59	-250.000
210.96	400.000
211.34	300.000
211.71	137.500
212.09	800.000
212.46	0.000
212.84	100.000
213.22	60.000
213.59	300.000
213.97	190.000
214.34	366.667
214.72	-166.667
215.09	450.000
215.47	0.000
215.84	-57.143
216.22	-300.000
216.59	320.000
216.97	80.000
217.34	100.000
217.72	225.000
218.09	200.000
218.47	225.000
218.84	0.000
219.22	-300.000
219.59	58.824
219.97	65.000
220.34	-350.000
220.72	0.000
221.09	138.462
221.47	133.333
221.84	100.000
222.22	42.857
222.59	0.000
222.97	175.000
223.34	140.000
223.72	500.000
224.09	125.000
224.46	25.000
224.84	200.000
225.21	157.143
225.59	175.000
225.96	200.000
226.34	69.231
226.71	-133.333
227.08	500.000
227.46	40.000
227.83	250.000
228.21	63.158
228.58	-75.000
228.95	-200.000
229.33	91.667
229.70	40.000
230.08	152.632
230.45	-60.000
230.82	300.000
231.20	135.714
231.57	100.000
231.95	27.273
232.32	200.000
232.69	105.000
233.07	75.000
233.44	76.471
233.81	140.000
234.19	100.000
234.56	50.000
234.93	48.276
235.31	36.842
235.68	72.222
236.05	10.000
236.43	80.769
236.80	112.000
237.17	33.333
237.55	69.697
237.92	70.000
238.29	61.290
238.67	11.364
239.04	44.444
239.41	40.476
239.79	34.783
240.16	31.481
240.53	30.435
240.91	25.490
241.28	31.148
241.65	43.284
242.02	31.081
242.40	15.385
242.77	32.000
243.14	26.829
243.51	15.789
243.89	7.692
244.26	40.594
244.63	27.451
245.00	28.972
245.38	20.175
245.75	9.735
246.12	19.048
246.49	17.054
246.87	26.429
247.24	27.152
247.61	26.974
247.98	24.161
248.36	17.901
248.73	14.724
249.10	18.033
249.47	26.368
249.84	24.607
250.22	19.171
250.59	20.000
250.96	25.455
251.33	16.837
251.70	21.368
252.08	21.667
252.45	21.721
252.82	21.488
253.19	16.797
253.56	19.011
253.94	18.462
254.31	19.697
254.68	19.930
255.05	21.173
255.42	19.388
255.79	13.592
256.16	19.536
256.54	14.570
256.91	19.672
257.28	20.000
257.65	16.879
258.02	15.929
258.39	16.809
258.76	24.159
259.14	20.977
259.51	19.308
259.88	18.697
260.25	19.444
260.62	17.534
260.99	22.951
261.36	19.839
261.73	17.507
262.10	17.308
262.47	18.767
262.85	20.960
263.22	15.325
263.59	12.895
263.96	16.368
264.33	14.578
264.70	21.235
265.07	18.616
265.44	20.408
265.81	16.667
266.18	18.821
266.55	18.080
266.92	19.590
267.29	18.381
267.66	18.625
268.03	18.996
268.40	20.251
268.77	14.806
269.14	17.181
269.51	19.298
269.88	15.369
270.25	15.694
270.62	17.722
270.99	21.818
271.36	19.604
271.73	18.468
272.10	19.238
272.47	18.036
272.84	17.269
273.21	16.834
273.58	19.355
273.95	15.577
274.32	14.639
274.69	16.828
275.06	16.300
275.43	16.081
275.80	17.989
276.17	15.185
276.54	17.164
276.91	15.742
277.28	18.445
277.65	17.953
278.02	17.647
278.39	17.391
278.76	15.290
279.13	16.844
279.50	17.869
279.87	16.816
280.23	12.148
280.60	16.102
280.97	17.434
281.34	16.638
281.71	17.090
282.08	14.452
282.45	15.876
282.82	16.327
283.19	14.701
283.56	14.590
283.92	16.366
284.29	16.904
284.66	16.092
285.03	12.500
285.40	17.002
285.77	16.099
286.14	17.405
286.51	17.199
286.87	15.798
287.24	16.717
287.61	16.741
287.98	15.559
288.35	16.864
288.72	15.533
289.08	16.545
289.45	14.497
289.82	17.169
290.19	15.230
290.56	15.493
290.93	14.408
291.29	16.116
291.66	14.601
292.03	13.161
292.40	15.918
292.77	13.477
293.13	15.968
293.50	13.403
293.87	14.228
294.24	15.067
294.60	14.791
294.97	13.691
295.34	14.853
295.71	13.745
296.08	13.049
296.44	11.887
296.81	13.520
297.18	13.200
297.55	11.675
297.91	12.811
298.28	13.152
298.65	14.625
299.02	11.806
299.38	13.387
299.75	14.720
300.12	14.352
300.48	14.055
300.85	13.161
301.22	14.206
301.59	12.329
301.95	12.994
302.32	14.667
302.69	13.143
303.05	13.711
303.42	13.525
303.79	13.438
304.15	13.249
304.52	11.522
304.89	14.450
305.25	13.147
305.62	12.853
305.99	13.196
306.35	12.097
306.72	13.961
307.09	12.995
307.45	13.147
307.82	12.513
308.19	13.017
308.55	14.368
308.92	12.950
309.29	14.176
309.65	12.963
310.02	12.970
310.38	12.697
310.75	13.204
311.12	15.244
311.48	13.783
311.85	14.055
312.22	13.757
312.58	13.709
312.95	13.862
313.31	13.369
313.68	14.744
314.05	15.357
314.41	14.936
314.78	14.441
315.14	15.517
315.51	14.312
315.87	14.761
316.24	16.256
316.61	16.163
316.97	15.475
317.34	14.991
317.70	17.118
318.07	15.697
318.43	16.837
318.80	16.639
319.16	15.794
319.53	15.938
319.89	15.425
320.26	16.904
320.62	16.755
320.99	16.528
321.35	16.821
321.72	16.372
322.08	16.952
322.45	17.525
322.81	17.599
323.18	17.434
323.54	16.983
323.91	17.171
324.27	17.212
324.64	19.228
325.00	16.418
325.37	18.182
325.73	18.099
326.10	17.924
326.46	18.485
326.83	19.295
327.19	17.480
327.56	19.684
327.92	18.647
328.29	18.306
328.65	17.672
329.01	18.866
329.38	19.377
329.74	19.264
330.11	18.836
330.47	18.955
330.84	18.346
331.20	20.250
331.56	18.371
331.93	19.582
332.29	19.153
332.66	18.355
333.02	19.598
333.38	19.379
333.75	19.276
334.11	18.766
334.48	18.399
334.84	20.221
335.20	20.151
335.57	20.236
335.93	18.760
336.29	18.802
336.66	18.923
337.02	18.980
337.38	18.963
337.75	19.256
338.11	18.503
338.47	20.265
338.84	18.613
339.20	17.944
339.56	18.863
339.93	20.443
340.29	18.680
340.65	18.167
341.02	21.548
341.38	19.968
341.74	19.048
342.11	19.308
342.47	18.348
342.83	19.485
343.20	20.278
343.56	20.048
343.92	20.256
344.28	19.453
344.65	20.078
345.01	19.579
345.37	19.440
345.73	18.862
346.10	20.281
346.46	18.908
346.82	19.476
347.19	20.168
347.55	20.410
347.91	19.762
348.27	19.196
348.63	20.183
349.00	18.195
349.36	19.703
349.72	19.643
350.08	20.357
350.45	18.935
350.81	19.985
351.17	19.098
351.53	19.712
351.89	20.121
352.26	20.149
352.62	20.224
352.98	19.389
353.34	18.223
353.70	20.570
354.07	20.566
354.43	19.362
354.79	18.998
355.15	20.015
355.51	21.345
355.87	21.167
356.24	20.837
356.60	19.438
356.96	19.422
357.32	20.297
357.68	20.132
358.04	20.060
358.40	20.373
358.77	19.810
359.13	20.827
359.49	19.182
359.85	20.740
360.21	20.086
360.57	20.818
360.93	20.592
361.29	21.684
361.66	21.144
362.02	20.946
362.38	21.082
362.74	20.251
363.10	21.252
363.46	21.676
363.82	19.886
364.18	21.393
364.54	21.093
364.90	21.940
365.26	20.897
365.62	21.267
365.98	20.762
366.35	21.007
366.71	22.789
367.07	20.230
367.43	21.602
367.79	22.628
368.15	22.140
368.51	22.801
368.87	21.816
369.23	20.600
369.59	22.199
369.95	22.380
370.31	23.025
370.67	22.283
371.03	23.269
371.39	22.498
371.75	22.696
372.11	22.493
372.47	22.410
372.83	24.149
373.19	22.081
373.55	22.629
373.91	22.836
374.27	23.545
374.63	23.816
374.99	22.215
375.35	24.026
375.71	23.806
376.07	23.434
376.42	24.811
376.78	24.736
377.14	24.017
377.50	24.162
377.86	23.892
378.22	24.132
378.58	24.554
378.94	24.883
379.30	24.429
379.66	24.633
380.02	24.639
380.38	24.827
380.74	25.239
381.09	25.958
381.45	25.966
381.81	26.464
382.17	26.485
382.53	26.784
382.89	26.129
383.25	27.022
383.61	26.447
383.97	26.737
384.32	28.230
384.68	27.378
385.04	27.993
385.40	28.285
385.76	28.605
386.12	28.007
386.48	29.176
386.83	28.963
387.19	27.984
387.55	28.932
387.91	29.053
388.27	28.580
388.62	29.038
388.98	28.708
389.34	30.878
389.70	30.331
390.06	30.610
390.42	30.663
390.77	30.765
391.13	30.340
391.49	31.099
391.85	30.909
392.20	31.732
392.56	31.719
392.92	30.534
393.28	31.675
393.64	31.508
393.99	31.784
394.35	32.886
394.71	32.515
395.07	31.916
395.42	31.468
395.78	33.516
396.14	32.145
396.50	32.363
396.85	32.320
397.21	33.136
397.57	32.568
397.92	33.734
398.28	32.265
398.64	33.524
399.00	32.304
399.35	34.188
399.71	32.826
400.07	34.026
400.42	34.459
400.78	33.738
401.14	34.661
401.49	33.769
401.85	34.593
402.21	34.762
402.57	35.915
402.92	36.052
403.28	34.660
403.63	34.785
403.99	35.333
404.35	34.451
404.70	35.524
405.06	35.489
405.42	35.773
405.77	35.605
406.13	35.440
406.49	35.642
406.84	35.956
407.20	35.048
407.55	36.099
407.91	36.329
408.27	36.749
408.62	37.638
408.98	36.274
409.34	36.305
409.69	37.206
410.05	37.632
410.40	37.413
410.76	37.185
411.11	37.639
411.47	37.224
411.83	37.390
412.18	38.614
412.54	38.411
412.89	38.300
413.25	38.600
413.60	37.679
413.96	39.044
414.31	37.734
414.67	37.030
415.03	38.462
415.38	39.344
415.74	38.546
416.09	39.482
416.45	38.948
416.80	38.923
417.16	39.719
417.51	39.290
417.87	39.362
418.22	38.623
418.58	40.458
418.93	39.115
419.29	39.519
419.64	40.516
420.00	40.653
420.35	40.651
420.71	40.322
421.06	40.541
421.42	40.310
421.77	40.442
422.12	40.962
422.48	40.758
422.83	42.004
423.19	41.008
423.54	41.482
423.90	41.414
424.25	41.227
424.61	42.365
424.96	41.461
425.31	41.879
425.67	41.224
426.02	41.671
426.38	42.078
426.73	41.574
427.09	43.310
427.44	42.600
427.79	42.952
428.15	41.438
428.50	43.146
428.85	42.078
429.21	42.766
429.56	43.139
429.92	43.047
430.27	43.133
430.62	43.918
430.98	44.515
431.33	43.157
431.68	42.385
432.04	44.134
432.39	43.439
432.74	43.779
433.10	45.160
433.45	43.423
433.80	44.206
434.16	43.698
434.51	44.964
434.86	45.494
435.22	46.121
435.57	46.050
435.92	45.465
436.28	45.677
436.63	46.095
436.98	44.552
437.34	46.505
437.69	45.955
438.04	45.426
438.39	46.180
438.75	45.600
439.10	46.089
439.45	46.451
439.81	46.384
440.16	45.362
440.51	46.600
440.86	45.803
441.22	47.213
441.57	46.855
441.92	46.557
442.27	47.273
442.63	48.137
442.98	47.972
443.33	48.290
443.68	47.869
444.03	48.636
444.39	46.047
444.74	48.800
445.09	47.542
445.44	47.682
445.79	47.701
446.15	48.201
446.50	48.010
446.85	47.276
447.20	48.066
447.55	48.745
447.91	47.696
448.26	48.467
448.61	48.300
448.96	50.161
449.31	48.834
449.66	48.584
450.02	49.103
450.37	49.334
450.72	49.785
451.07	49.146
451.42	49.336
451.77	49.361
452.12	50.000
452.47	49.970
452.83	49.831
453.18	49.095
453.53	49.914
453.88	49.807
454.23	50.452
454.58	50.725
454.93	49.757
455.28	51.475
455.63	50.483
455.98	50.838
456.34	51.001
456.69	50.558
457.04	51.537
457.39	49.723
457.74	51.622
458.09	50.082
458.44	50.377
458.79	50.542
459.14	50.079
459.49	51.330
459.84	51.679
460.19	49.972
460.54	52.470
460.89	51.932
461.24	51.609
461.59	51.633
461.94	52.481
462.29	51.960
462.64	51.901
462.99	52.480
463.34	52.109
463.69	51.055
464.04	53.307
464.39	52.242
464.74	51.653
465.09	53.230
465.44	52.092
465.79	53.887
466.14	52.163
466.49	52.263
466.84	53.058
467.19	54.104
467.54	51.763
467.89	52.356
468.24	53.740
468.59	52.345
468.94	52.855
469.29	53.269
469.64	53.846
469.99	53.537
470.34	53.713
470.68	54.614
471.03	55.206
471.38	54.480
471.73	54.031
472.08	54.759
472.43	54.786
472.78	54.975
473.13	55.815
473.48	54.502
473.83	55.252
474.17	55.100
474.52	55.683
474.87	55.592
475.22	55.606
475.57	55.244
475.92	55.450
476.27	55.644
476.61	55.088
476.96	54.640
477.31	56.089
477.66	57.293
478.01	55.058
478.36	55.035
478.70	55.369
479.05	55.675
479.40	56.515
479.75	55.668
480.10	55.708
480.45	56.016
480.79	55.510
481.14	55.515
481.49	55.657
481.84	56.005
482.19	56.817
482.53	55.706
482.88	56.225
483.23	56.025
483.58	56.987
483.92	56.250
484.27	56.012
484.62	55.569
484.97	55.871
485.31	55.157
485.66	53.470
486.01	52.521
486.36	54.278
486.70	55.861
487.05	56.220
487.40	55.816
487.75	55.827
488.09	55.875
488.44	54.840
488.79	55.649
489.13	56.445
489.48	55.728
489.83	56.258
490.17	56.258
490.52	55.829
490.87	57.149
491.22	57.799
491.56	57.295
491.91	57.915
492.26	57.334
492.60	57.237
492.95	56.604
493.30	59.121
493.64	57.424
493.99	57.632
494.34	57.666
494.68	57.088
495.03	57.665
495.37	59.299
495.72	58.322
496.07	58.633
496.41	57.400
496.76	58.549
497.11	58.514
497.45	57.877
497.80	59.351
498.14	57.868
498.49	58.640
498.84	59.095
499.18	58.255
499.53	59.552
499.87	59.341
500.22	58.682
500.56	58.525
500.91	60.137
501.26	60.455
501.60	59.346
501.95	59.531
502.29	59.280
502.64	60.035
502.98	58.585
503.33	60.000
503.67	59.747
504.02	60.201
504.36	61.081
504.71	60.864
505.06	60.346
505.40	60.832
505.75	60.291
506.09	61.418
506.44	62.906
506.78	61.147
507.13	61.272
507.47	60.872
507.82	61.269
508.16	61.520
508.51	61.041
508.85	62.447
509.19	62.293
509.54	61.960
509.88	60.903
510.23	62.797
510.57	63.412
510.92	62.893
511.26	63.011
511.61	61.613
511.95	63.153
512.30	63.860
512.64	61.769
512.98	64.332
513.33	64.062
513.67	64.049
514.02	64.793
514.36	64.501
514.70	65.208
515.05	65.433
515.39	65.197
515.74	65.748
516.08	64.818
516.42	65.882
516.77	65.037
517.11	64.518
517.46	65.589
517.80	67.290
518.14	66.975
518.49	66.703
518.83	64.981
519.17	65.320
519.52	66.405
519.86	66.579
520.20	67.093
520.55	66.922
520.89	66.610
521.23	67.448
521.58	66.836
521.92	67.989
522.26	66.896
522.61	68.924
522.95	67.013
523.29	68.218
523.64	67.601
523.98	69.595
524.32	69.054
524.66	68.924
525.01	67.610
525.35	67.375
525.69	69.258
526.04	67.279
526.38	67.816
526.72	68.743
527.06	69.443
527.41	68.222
527.75	68.884
528.09	68.890
528.43	68.028
528.78	70.000
529.12	70.011
529.46	69.252
529.80	69.165
530.15	69.217
530.49	69.692
530.83	68.654
531.17	70.430
531.51	68.893
531.86	69.832
532.20	71.646
532.54	70.197
532.88	69.091
533.22	69.181
533.57	69.648
533.91	68.967
534.25	69.757
534.59	70.575
534.93	69.213
535.27	70.423
535.62	69.983
535.96	70.889
536.30	69.918
536.64	70.991
536.98	71.156
537.32	70.741
537.66	70.680
538.01	68.399
538.35	71.255
538.69	70.312
539.03	70.938
539.37	69.965
539.71	70.991
540.05	71.103
540.39	69.866
540.73	70.006
541.07	70.693
541.42	68.636
541.76	69.217
542.10	70.808
542.44	69.793
542.78	70.316
543.12	69.011
543.46	70.085
543.80	67.806
544.14	68.941
544.48	69.858
544.82	70.437
545.16	70.244
545.50	70.102
545.84	70.484
546.18	72.469
546.52	71.911
546.86	71.509
547.20	71.056
547.54	69.101
547.88	70.464
548.22	70.994
548.56	70.860
548.90	71.164
549.24	71.672
549.58	71.293
549.92	71.046
550.26	70.421
550.60	71.219
550.94	71.087
551.28	71.881
551.62	72.372
551.96	70.032
552.30	70.937
552.64	70.691
552.98	71.865
553.32	72.476
553.66	71.961
554.00	71.438
554.34	71.171
554.68	70.949
555.02	71.551
555.36	72.387
555.69	71.429
556.03	71.059
556.37	72.340
556.71	72.923
557.05	71.310
557.39	73.324
557.73	71.863
558.07	72.517
558.41	73.355
558.75	72.346
559.08	74.391
559.42	71.468
559.76	71.031
560.10	71.601
560.44	71.834
560.78	71.875
561.12	71.860
561.45	72.628
561.79	71.978
562.13	71.781
562.47	70.715
562.81	71.772
563.15	71.528
563.48	71.659
563.82	71.403
564.16	71.654
564.50	70.977
564.84	70.796
565.17	70.882
565.51	70.081
565.85	71.140
566.19	70.680
566.52	71.094
566.86	70.289
567.20	69.549
567.54	70.844
567.88	71.560
568.21	70.899
568.55	70.552
568.89	69.905
569.23	69.793
569.56	69.363
569.90	68.567
570.24	68.904
570.57	67.447
570.91	67.851
571.25	67.052
571.59	67.492
571.92	66.205
572.26	66.358
572.60	66.476
572.93	66.769
573.27	67.182
573.61	66.067
573.95	66.521
574.28	65.545
574.62	66.166
574.96	65.924
575.29	65.191
575.63	65.442
575.97	65.868
576.30	65.310
576.64	64.806
576.98	65.854
577.31	65.988
577.65	65.807
577.98	65.776
578.32	64.957
578.66	65.511
578.99	65.226
579.33	66.118
579.67	65.707
580.00	65.048
580.34	65.532
580.67	65.600
581.01	65.643
581.35	65.673
581.68	64.827
582.02	64.967
582.35	66.360
582.69	66.045
583.02	66.212
583.36	66.133
583.70	65.917
584.03	65.347
584.37	65.786
584.70	65.183
585.04	64.404
585.37	65.864
585.71	65.523
586.04	65.720
586.38	66.179
586.72	66.232
587.05	65.669
587.39	65.844
587.72	66.220
588.06	66.296
588.39	66.642
588.73	66.270
589.06	67.438
589.40	67.148
589.73	67.159
590.07	67.275
590.40	66.768
590.73	68.116
591.07	68.280
591.40	67.768
591.74	68.283
592.07	67.763
592.41	67.271
592.74	66.454
593.08	67.580
593.41	67.483
593.75	67.356
594.08	67.404
594.41	68.782
594.75	66.622
595.08	66.824
595.42	67.370
595.75	67.129
596.09	67.503
596.42	67.825
596.75	68.198
597.09	67.677
597.42	68.097
597.75	66.837
598.09	68.056
598.42	68.677
598.76	66.450
599.09	67.569
599.42	65.404
599.76	67.580
600.09	67.768
600.42	66.700
600.76	67.470
601.09	65.549
601.42	67.182
601.76	67.000
602.09	67.477
602.42	68.121
602.76	67.048
603.09	68.172
603.42	67.305
603.76	67.336
604.09	67.566
604.42	68.147
604.76	66.705
605.09	67.531
605.42	68.102
605.75	67.692
606.09	66.816
606.42	66.764
606.75	67.429
607.09	66.551
607.42	66.513
607.75	67.175
608.08	68.469
608.42	67.513
608.75	68.284
609.08	67.275
609.41	68.108
609.75	68.527
610.08	68.646
610.41	67.715
610.74	67.395
611.07	68.917
611.41	68.834
611.74	69.376
612.07	69.752
612.40	69.772
612.73	70.513
613.07	70.122
613.40	68.816
613.73	69.042
614.06	69.136
614.39	67.881
614.72	67.928
615.06	68.094
615.39	69.019
615.72	68.104
616.05	68.528
616.38	69.425
616.71	68.704
617.05	68.424
617.38	68.165
617.71	69.816
618.04	69.401
618.37	71.038
618.70	71.380
619.03	70.311
619.36	71.023
619.69	70.211
620.03	70.433
620.36	71.104
620.69	70.944
621.02	71.325
621.35	72.932
621.68	74.187
622.01	71.032
622.34	72.106
622.67	71.959
623.00	70.513
623.33	72.926
623.66	73.087
623.99	70.902
624.32	72.450
624.65	72.265
624.99	73.017
625.32	71.914
625.65	71.881
625.98	69.898
626.31	72.431
626.64	71.868
626.97	72.843
627.30	71.906
627.63	71.943
627.96	73.048
628.29	72.062
628.62	73.468
628.95	77.213
629.28	74.087
629.61	74.663
629.94	72.636
630.26	73.475
630.59	73.748
630.92	75.152
631.25	74.508
631.58	78.060
631.91	76.101
632.24	76.369
632.57	75.142
632.90	78.335
633.23	78.061
633.56	75.612
633.89	75.207
634.22	76.299
634.55	76.827
634.88	76.407
635.20	78.149
635.53	79.548
635.86	77.573
636.19	75.504
636.52	76.793
636.85	75.179
637.18	76.403
637.51	77.527
637.83	77.409
638.16	77.880
638.49	77.582
638.82	75.648
639.15	78.580
639.48	79.099
639.81	75.982
640.13	76.914
640.46	76.970
640.79	76.716
641.12	76.522
641.45	79.172
641.77	81.900
642.10	78.084
642.43	77.261
642.76	77.913
643.09	79.315
643.41	77.731
643.74	78.345
644.07	79.862
644.40	80.764
644.73	80.116
645.05	79.589
645.38	80.144
645.71	77.126
646.04	77.762
646.36	78.394
646.69	82.209
647.02	81.651
647.35	80.000
647.67	83.575
648.00	81.369
648.33	82.583
648.66	78.887
648.98	79.184
649.31	78.078
649.64	77.424
649.96	76.790
650.29	77.191
650.62	77.086
650.94	79.279
651.27	76.647
651.60	76.316
651.92	78.267
652.25	74.096
652.58	76.341
652.90	77.907
653.23	77.183
653.56	78.031
653.88	76.826
654.21	77.183
654.54	77.312
654.86	79.320
655.19	72.020
655.52	69.992
655.84	63.309
656.17	75.783
656.49	100.042
656.82	100.008
657.15	100.000
657.47	75.651
657.80	49.712
658.13	39.530
658.45	51.281
658.78	61.907
659.10	60.328
659.43	60.203
659.75	61.208
660.08	61.961
660.41	64.020
660.73	67.845
661.06	75.477
661.38	75.758
661.71	78.793
662.03	79.718
662.36	78.891
662.68	83.114
663.01	79.646
663.33	82.420
663.66	82.784
663.98	81.731
664.31	82.176
664.63	80.154
664.96	79.310
665.28	79.129
665.61	80.594
665.93	78.571
666.26	77.240
666.58	78.598
666.91	79.813
667.23	80.952
667.56	82.840
667.88	83.200
668.21	81.836
668.53	78.378
668.86	80.157
669.18	81.059
669.50	79.722
669.83	79.200
670.15	80.906
670.48	81.944
670.80	78.011
671.13	78.450
671.45	78.937
671.77	80.226
672.10	77.000
672.42	75.243
672.75	76.498
673.07	73.582
673.39	75.655
673.72	78.859
674.04	79.138
674.37	77.996
674.69	78.131
675.01	81.143
675.34	77.099
675.66	75.843
675.98	77.799
676.31	79.297
676.63	80.989
676.95	79.119
677.28	80.040
677.60	78.346
677.92	79.271
678.25	79.890
678.57	78.648
678.89	75.085
679.22	76.307
679.54	72.821
679.86	77.288
680.18	74.793
680.51	73.270
680.83	75.450
681.15	75.345
681.48	77.375
681.80	77.893
682.12	79.371
682.44	72.955
682.77	77.128
683.09	77.273
683.41	77.132
683.73	75.142
684.06	76.015
684.38	72.451
684.70	77.917
685.02	74.010
685.34	74.376
685.67	72.555
685.99	72.853
686.31	69.913
686.63	75.355
686.96	73.817
687.28	73.290
687.60	73.569
687.92	72.990
688.24	73.623
688.56	72.069
688.89	72.595
689.21	76.321
689.53	75.490
689.85	80.473
690.17	73.333
690.49	74.303
690.82	74.653
691.14	77.733
691.46	73.996
691.78	74.586
692.10	75.963
692.42	72.857
692.74	72.414
693.06	71.111
693.39	75.522
693.71	74.248
694.03	75.836
694.35	72.571
694.67	73.306
694.99	75.745
695.31	77.263
695.63	78.571
695.95	76.190
696.27	75.385
696.59	79.425
696.91	73.874
697.23	76.923
697.56	77.189
697.88	74.242
698.20	73.070
698.52	75.568
698.84	76.091
699.16	73.469
699.48	73.013
699.80	74.468
700.12	72.707
700.44	72.581
700.76	77.435
701.08	78.935
701.40	80.570
701.72	71.891
702.04	85.294
702.36	79.058
702.68	74.083
703.00	73.594
703.32	77.094
703.64	76.039
703.96	74.224
704.28	75.430
704.60	76.203
704.91	73.724
705.23	78.630
705.55	76.045
705.87	80.000
706.19	82.515
706.51	78.313
706.83	81.844
707.15	76.190
707.47	71.963
707.79	72.926
708.11	69.915
708.43	70.968
708.74	70.759
709.06	76.566
709.38	73.005
709.70	73.449
710.02	72.610
710.34	74.202
710.66	78.771
710.98	75.137
711.29	73.626
711.61	82.486
711.93	76.638
712.25	76.757
712.57	74.631
712.89	78.529
713.20	73.964
713.52	73.410
713.84	79.387
714.16	73.947
714.48	71.392
714.80	77.403
715.11	77.428
715.43	74.005
715.75	74.211
716.07	73.481
716.39	76.503
716.70	74.398
717.02	78.689
717.34	78.049
717.66	73.154
717.97	75.342
718.29	78.351
718.61	73.355
718.93	77.023
719.24	74.534
719.56	75.767
719.88	72.072
720.20	77.097
720.51	74.845
720.83	71.563
721.15	70.724
721.46	76.370
721.78	78.333
722.10	69.256
722.42	72.148
722.73	71.935
723.05	77.193
723.37	74.306
723.68	74.552
724.00	81.227
724.32	76.056
724.63	75.524
724.95	78.723
725.27	74.216
725.58	75.972
725.90	74.828
726.22	73.354
726.53	73.701
726.85	72.642
727.16	71.903
727.48	76.453
727.80	74.503
728.11	71.025
728.43	72.727
728.74	72.241
729.06	75.828
729.38	75.974
729.69	73.154
730.01	68.750
730.32	70.000
730.64	73.899
730.96	70.497
731.27	72.626
731.59	73.077
731.90	69.870
732.22	65.104
732.53	67.127
732.85	70.000
733.16	68.035
733.48	71.646
733.80	68.524
734.11	65.812
734.43	67.568
734.74	70.633
735.06	68.342
735.37	69.730
735.69	65.676
736.00	70.904
736.32	67.385
736.63	66.944
736.95	70.690
737.26	73.636
737.58	70.000
737.89	70.588
738.21	66.055
738.52	71.475
738.83	73.038
739.15	73.050
739.46	68.367
739.78	70.859
740.09	69.914
740.41	68.513
740.72	73.000
741.04	73.139
741.35	73.333
741.66	73.725
741.98	77.049
742.29	81.172
742.61	76.754
742.92	70.000
743.23	70.397
743.55	77.132
743.86	75.200
744.18	77.273
744.49	72.152
744.80	74.074
745.12	75.527
745.43	80.894
745.74	78.879
746.06	73.305
746.37	79.747
746.68	76.423
747.00	73.750
747.31	80.687
747.62	76.538
747.94	76.518
748.25	74.699
748.56	73.469
748.88	70.085
749.19	75.862
749.50	82.684
749.82	77.510
750.13	76.868
750.44	71.333
750.75	69.846
751.07	67.077
751.38	69.716
751.69	69.649
752.01	69.256
752.32	70.915
752.63	72.449
752.94	71.280
753.26	68.401
753.57	72.222
753.88	70.787
754.19	69.453
754.51	71.383
754.82	68.489
755.13	66.557
755.44	73.720
755.75	69.408
756.07	70.149
756.38	69.811
756.69	70.783
757.00	62.881
757.31	65.847
757.63	64.450
757.94	60.329
758.25	64.334
758.56	64.706
758.87	60.682
759.18	66.400
759.50	65.722
759.81	62.185
760.12	65.499
760.43	63.281
760.74	66.995
761.05	65.250
761.36	64.578
761.67	62.944
761.99	67.297
762.30	64.329
762.61	66.007
762.92	66.418
763.23	68.914
763.54	65.108
763.85	64.948
764.16	68.013
764.47	66.197
764.78	69.968
765.10	63.930
765.41	63.846
765.72	63.492
766.03	64.407
766.34	63.950
766.65	64.808
766.96	69.721
767.27	73.733
767.58	74.129
767.89	75.481
768.20	65.728
768.51	74.537
768.82	67.871
769.13	68.182
769.44	67.308
769.75	65.704
770.06	66.923
770.37	71.260
770.68	69.362
770.99	63.563
771.30	72.963
771.61	68.441
771.92	66.296
772.23	69.636
772.54	72.222
772.85	70.507
773.16	68.571
773.47	70.370
773.78	72.432
774.09	84.091
774.39	65.500
774.70	67.760
775.01	70.122
775.32	61.765
775.63	74.233
775.94	61.783
776.25	77.419
776.56	75.000
776.87	66.667
777.18	64.138
777.48	82.517
777.79	66.216
778.10	71.324
778.41	80.556
778.72	71.034
779.03	75.309
779.34	71.515
779.65	65.285
779.95	68.333
780.26	70.455
780.57	72.258
780.88	78.986
781.19	70.968
781.50	71.176
781.80	74.194
782.11	69.312
782.42	60.101
782.73	69.461
783.04	67.039
783.34	63.636
783.65	62.092
783.96	67.702
784.27	60.714
784.57	74.834
784.88	70.000
785.19	71.654
785.50	69.291
785.81	60.150
786.11	76.154
786.42	53.237
786.73	69.065
787.04	69.925
787.34	74.590
787.65	76.800
787.96	76.119
788.26	69.930
788.57	80.420
788.88	65.132
789.19	68.627
789.49	67.808
789.80	65.248
790.11	79.528
790.41	70.312
790.72	71.186
791.03	70.874
791.33	57.391
791.64	65.789
791.95	66.071
792.25	67.619
792.56	72.321
792.87	71.875
793.17	71.429
793.48	67.708
793.79	81.928
794.09	64.220
794.40	72.477
794.70	62.585
795.01	61.039
795.32	69.178
795.62	66.197
795.93	66.667
796.23	65.574
796.54	75.893
796.85	65.957
797.15	66.304
797.46	90.411
797.76	80.000
798.07	70.652
798.37	60.825
798.68	89.610
798.99	70.115
799.29	70.787
799.60	68.085
799.90	68.675
800.21	86.154
800.51	80.597
800.82	75.000
801.12	42.466
801.43	92.647
801.73	77.966
802.04	83.333
802.34	90.000
802.65	108.475
802.95	86.567
803.26	77.966
803.56	72.603
803.87	78.571
804.17	72.603
804.48	68.421
804.78	77.778
805.09	70.690
805.39	75.676
805.70	61.972
806.00	62.195
806.30	62.651
806.61	79.452
806.91	67.308
807.22	74.444
807.52	66.667
807.83	98.611
808.13	65.060
808.43	67.416
808.74	65.000
809.04	57.353
809.35	74.667
809.65	74.286
809.95	67.123
810.26	73.684
810.56	84.483
810.86	76.471
811.17	61.404
811.47	70.492
811.77	91.111
812.08	74.576
812.38	68.333
812.69	79.310
812.99	62.264
813.29	84.615
813.59	84.000
813.90	82.456
814.20	81.818
814.50	87.324
814.81	57.692
815.11	85.246
815.41	68.657
815.72	70.690
816.02	62.500
816.32	84.444
816.62	95.455
816.93	66.667
817.23	88.889
817.53	61.702
817.84	71.429
818.14	88.235
818.44	75.510
818.74	84.444
819.04	82.051
819.35	77.143
819.65	111.538
819.95	64.151
820.25	86.667
820.56	78.571
820.86	109.375
821.16	115.385
821.46	62.791
821.76	68.000
822.07	46.429
822.37	76.087
822.67	55.319
822.97	78.378
823.27	62.500
823.57	79.592
823.88	73.333
824.18	85.000
824.48	86.667
824.78	116.000
825.08	106.061
825.38	80.000
825.69	72.340
825.99	75.000
826.29	71.429
826.59	74.359
826.89	44.186
827.19	68.000
827.49	91.176
827.79	93.750
828.09	45.946
828.39	93.333
828.70	114.634
829.00	79.070
829.30	103.571
829.60	102.941
829.90	86.957
830.20	74.286
830.50	65.517
830.80	150.000
831.10	134.615
831.40	100.000
831.70	166.667
832.00	109.677
832.30	123.529
832.60	104.167
832.90	146.154
833.20	194.737
833.50	150.000
833.80	89.474
834.10	104.762
834.40	108.333
834.70	78.125
835.00	48.571
835.30	55.882
835.60	83.333
835.90	120.000
836.20	95.455
836.50	92.000
836.80	60.606
837.10	70.370
837.40	88.889
837.70	150.000
838.00	92.857
838.30	78.261
838.60	44.828
838.90	185.714
839.19	78.261
839.49	166.667
839.79	113.043
840.09	62.500
840.39	65.000
840.69	58.065
840.99	53.571
841.29	133.333
841.59	105.263
841.88	76.923
842.18	80.769
842.48	200.000
842.78	100.000
843.08	80.000
843.38	67.742
843.68	55.556
843.97	82.353
844.27	112.500
844.57	78.947
844.87	140.000
845.17	193.333
845.47	138.095
845.76	114.286
846.06	222.222
846.36	100.000
846.66	100.000
846.96	126.667
847.25	117.647
847.55	60.870
847.85	70.000
848.15	176.471
848.44	81.818
848.74	119.048
849.04	37.500
849.34	93.750
849.63	78.261
849.93	-1000.000
850.23	160.000
850.53	69.231
850.82	145.455
851.12	118.182
851.42	118.182
851.71	176.923
852.01	45.000
852.31	184.615
852.61	126.316
852.90	133.333
853.20	111.111
853.50	166.667
853.79	90.476
854.09	36.364
854.39	75.000
854.68	83.871
854.98	92.308
855.28	127.778
855.57	71.429
855.87	96.000
856.17	113.636
856.46	100.000
856.76	127.778
857.05	86.957
857.35	45.833
857.65	184.615
857.94	90.476
858.24	96.296
858.53	130.435
858.83	105.882
859.13	82.353
859.42	94.118
859.72	178.571
860.01	80.000
860.31	111.111
860.60	120.000
860.90	93.333
861.20	88.889
861.49	123.077
861.79	93.333
862.08	92.308
862.38	68.750
862.67	147.059
862.97	112.500
863.26	88.889
863.56	130.000
863.85	90.909
864.15	111.111
864.44	400.000
864.74	142.857
865.03	56.250
865.33	10.000
865.62	45.161
865.92	118.182
866.21	91.304
866.51	71.429
866.80	300.000
867.10	-8.333
867.39	33.333
867.69	-500.000
867.98	242.857
868.27	123.529
868.57	800.000
868.86	140.000
869.16	52.381
869.45	66.667
869.75	172.727
870.04	185.714
870.33	83.333
870.63	-114.286
870.92	250.000
871.22	25.000
871.51	163.636
871.80	300.000
872.10	150.000
>>>>>End Processed Spectral Data<<<<<
