SpectraSuite Data File
++++++++++++++++++++++++++++++++++++
Date: Thu May 14 15:01:04 PDT 2015
User: schluterlab
Dark Spectrum Present: Yes
Reference Spectrum Present: Yes
Number of Sampled Component Spectra: 1
Spectrometers: USB2E3373
Integration Time (usec): 3000 (USB2E3373)
Spectra Averaged: 3 (USB2E3373)
Boxcar Smoothing: 0 (USB2E3373)
Correct for Electrical Dark: No (USB2E3373)
Strobe/Lamp Enabled: No (USB2E3373)
Correct for Detector Non-linearity: No (USB2E3373)
Correct for Stray Light: No (USB2E3373)
Number of Pixels in Processed Spectrum: 2048
>>>>>Begin Processed Spectral Data<<<<<
178.53	0.000
178.91	285.714
179.29	-2900.000
179.67	-3000.000
180.04	257.143
180.42	220.000
180.80	480.000
181.18	-2300.000
181.56	-1100.000
181.94	650.000
182.31	-375.000
182.69	633.333
183.07	-1050.000
183.45	625.000
183.83	-383.333
184.20	-666.667
184.58	1900.000
184.96	-600.000
185.34	-200.000
185.72	-480.000
186.09	377.778
186.47	1500.000
186.85	620.000
187.23	-288.889
187.61	-2600.000
187.98	480.000
188.36	650.000
188.74	-500.000
189.12	-666.667
189.49	-68.750
189.87	-287.500
190.25	-233.333
190.63	-340.000
191.00	-266.667
191.38	0.000
191.76	-550.000
192.14	-316.667
192.51	1000.000
192.89	-250.000
193.27	0.000
193.65	-228.571
194.02	-3400.000
194.40	-228.571
194.78	371.429
195.15	0.000
195.53	-172.727
195.91	0.000
196.29	-175.000
196.66	-130.769
197.04	-1800.000
197.42	-200.000
197.79	-1300.000
198.17	-300.000
198.55	-242.857
198.92	-188.889
199.30	-212.500
199.68	-181.818
200.05	-85.714
200.43	-1250.000
200.81	428.571
201.18	0.000
201.56	377.778
201.94	0.000
202.31	1033.333
202.69	-211.111
203.07	2100.000
203.44	-200.000
203.82	-675.000
204.19	-183.333
204.57	-516.667
204.95	-325.000
205.32	-3300.000
205.70	500.000
206.08	-416.667
206.45	-300.000
206.83	480.000
207.20	-333.333
207.58	-640.000
207.96	-500.000
208.33	-233.333
208.71	166.667
209.08	-166.667
209.46	0.000
209.84	466.667
210.21	1600.000
210.59	1250.000
210.96	933.333
211.34	-375.000
211.71	-200.000
212.09	-2600.000
212.46	0.000
212.84	1250.000
213.22	-480.000
213.59	-625.000
213.97	-210.000
214.34	-800.000
214.72	333.333
215.09	-525.000
215.47	0.000
215.84	314.286
216.22	1400.000
216.59	-460.000
216.97	-300.000
217.34	-400.000
217.72	-212.500
218.09	-700.000
218.47	-725.000
218.84	0.000
219.22	500.000
219.59	-94.118
219.97	-75.000
220.34	1800.000
220.72	-277.778
221.09	-84.615
221.47	-366.667
221.84	-100.000
222.22	-357.143
222.59	0.000
222.97	-162.500
223.34	-620.000
223.72	-1800.000
224.09	-475.000
224.46	-500.000
224.84	-360.000
225.21	-328.571
225.59	-675.000
225.96	-525.000
226.34	-107.692
226.71	416.667
227.08	-800.000
227.46	-73.333
227.83	-800.000
228.21	-89.474
228.58	450.000
228.95	1350.000
229.33	-133.333
229.70	-190.000
230.08	-94.737
230.45	240.000
230.82	-833.333
231.20	-157.143
231.57	-125.000
231.95	-200.000
232.32	-181.818
232.69	-55.000
233.07	-500.000
233.44	-76.471
233.81	-130.000
234.19	-122.222
234.56	-68.182
234.93	-20.690
235.31	-78.947
235.68	-66.667
236.05	-165.000
236.43	-23.077
236.80	-20.000
237.17	-48.148
237.55	-30.303
237.92	-130.000
238.29	-35.484
238.67	-20.455
239.04	-19.444
239.41	-26.190
239.79	-10.870
240.16	-16.667
240.53	-17.391
240.91	-25.490
241.28	-19.672
241.65	7.463
242.02	4.054
242.40	-7.692
242.77	-1.333
243.14	-4.878
243.51	-7.895
243.89	7.692
244.26	3.960
244.63	9.804
245.00	8.411
245.38	9.649
245.75	0.885
246.12	11.111
246.49	17.829
246.87	19.286
247.24	14.570
247.61	15.789
247.98	16.779
248.36	19.136
248.73	14.724
249.10	16.940
249.47	19.403
249.84	23.560
250.22	12.953
250.59	16.667
250.96	23.636
251.33	15.816
251.70	17.949
252.08	17.083
252.45	23.770
252.82	19.835
253.19	22.266
253.56	22.053
253.94	21.538
254.31	19.697
254.68	26.573
255.05	26.384
255.42	21.088
255.79	19.417
256.16	21.192
256.54	18.543
256.91	25.246
257.28	21.639
257.65	23.248
258.02	22.419
258.39	24.786
258.76	24.771
259.14	23.563
259.51	23.919
259.88	25.212
260.25	23.889
260.62	24.384
260.99	24.863
261.36	24.129
261.73	24.138
262.10	26.099
262.47	24.665
262.85	25.758
263.22	23.377
263.59	21.316
263.96	27.366
264.33	24.297
264.70	25.679
265.07	23.866
265.44	27.438
265.81	25.000
266.18	28.345
266.55	27.009
266.92	24.829
267.29	28.665
267.66	25.055
268.03	27.511
268.40	24.843
268.77	25.740
269.14	24.009
269.51	24.781
269.88	26.434
270.25	25.553
270.62	28.059
270.99	25.657
271.36	28.317
271.73	26.130
272.10	25.852
272.47	27.054
272.84	24.699
273.21	25.651
273.58	28.226
273.95	23.846
274.32	24.144
274.69	22.437
275.06	26.923
275.43	23.105
275.80	23.986
276.17	21.667
276.54	26.493
276.91	26.476
277.28	28.029
277.65	24.057
278.02	25.000
278.39	25.000
278.76	22.847
279.13	24.468
279.50	25.258
279.87	26.834
280.23	22.535
280.60	24.576
280.97	24.671
281.34	23.260
281.71	26.396
282.08	26.246
282.45	26.678
282.82	22.292
283.19	24.394
283.56	24.098
283.92	27.177
284.29	25.750
284.66	26.765
285.03	21.314
285.40	24.575
285.77	24.768
286.14	25.038
286.51	24.962
286.87	24.329
287.24	25.151
287.61	24.215
287.98	25.831
288.35	27.071
288.72	23.077
289.08	26.208
289.45	25.296
289.82	23.795
290.19	24.856
290.56	23.521
290.93	25.820
291.29	23.829
291.66	22.176
292.03	22.659
292.40	24.354
292.77	22.507
293.13	22.733
293.50	22.470
293.87	22.416
294.24	24.000
294.60	23.135
294.97	21.745
295.34	23.431
295.71	21.816
296.08	22.222
296.44	20.588
296.81	23.143
297.18	21.171
297.55	23.231
297.91	22.301
298.28	20.853
298.65	20.333
299.02	22.314
299.38	22.540
299.75	20.678
300.12	19.560
300.48	22.465
300.85	21.597
301.22	22.260
301.59	21.005
301.95	21.017
302.32	20.778
302.69	21.687
303.05	23.504
303.42	21.729
303.79	22.500
304.15	21.872
304.52	20.613
304.89	20.524
305.25	21.843
305.62	22.048
305.99	21.649
306.35	21.573
306.72	23.371
307.09	22.843
307.45	22.567
307.82	21.292
308.19	22.805
308.55	23.433
308.92	22.201
309.29	23.467
309.65	22.807
310.02	23.069
310.38	22.933
310.75	24.951
311.12	24.161
311.48	22.385
311.85	23.552
312.22	24.573
312.58	23.756
312.95	23.996
313.31	24.390
313.68	25.275
314.05	25.203
314.41	25.046
314.78	24.977
315.14	24.682
315.51	23.915
315.87	25.653
316.24	25.571
316.61	25.933
316.97	24.706
317.34	25.485
317.70	27.424
318.07	26.896
318.43	26.190
318.80	27.341
319.16	26.266
319.53	26.050
319.89	27.607
320.26	26.690
320.62	26.241
320.99	26.316
321.35	28.004
321.72	28.186
322.08	27.683
322.45	27.823
322.81	28.791
323.18	27.876
323.54	28.534
323.91	29.626
324.27	27.883
324.64	30.479
325.00	29.187
325.37	30.958
325.73	31.405
326.10	29.927
326.46	31.759
326.83	31.625
327.19	31.496
327.56	33.123
327.92	31.629
328.29	32.177
328.65	32.077
329.01	31.557
329.38	33.530
329.74	35.017
330.11	35.017
330.47	35.805
330.84	34.022
331.20	35.417
331.56	35.182
331.93	35.816
332.29	35.763
332.66	36.213
333.02	36.013
333.38	35.822
333.75	35.859
334.11	36.614
334.48	37.129
334.84	36.194
335.20	36.356
335.57	36.931
335.93	35.950
336.29	35.275
336.66	34.399
337.02	36.622
337.38	36.310
337.75	35.372
338.11	37.258
338.47	36.063
338.84	35.702
339.20	36.394
339.56	35.750
339.93	36.371
340.29	35.829
340.65	36.415
341.02	37.111
341.38	37.591
341.74	36.239
342.11	37.490
342.47	36.140
342.83	37.520
343.20	37.776
343.56	36.247
343.92	38.431
344.28	36.562
344.65	38.062
345.01	36.349
345.37	37.170
345.73	36.633
346.10	37.598
346.46	37.896
346.82	36.854
347.19	36.898
347.55	35.736
347.91	36.850
348.27	37.329
348.63	36.329
349.00	38.852
349.36	37.546
349.72	37.798
350.08	37.444
350.45	37.871
350.81	37.783
351.17	36.917
351.53	38.893
351.89	38.193
352.26	38.060
352.62	38.284
352.98	39.160
353.34	38.312
353.70	38.675
354.07	38.748
354.43	38.724
354.79	39.192
355.15	37.822
355.51	39.401
355.87	38.519
356.24	38.023
356.60	39.024
356.96	39.733
357.32	38.736
357.68	39.019
358.04	38.922
358.40	38.582
358.77	39.474
359.13	39.217
359.49	39.703
359.85	39.376
360.21	39.240
360.57	40.345
360.93	39.633
361.29	40.772
361.66	40.043
362.02	41.058
362.38	40.337
362.74	41.341
363.10	41.678
363.46	41.620
363.82	40.838
364.18	41.379
364.54	41.563
364.90	42.274
365.26	41.793
365.62	41.733
365.98	40.980
366.35	41.678
366.71	43.265
367.07	42.693
367.43	43.861
367.79	42.535
368.15	42.408
368.51	42.422
368.87	43.109
369.23	42.667
369.59	44.604
369.95	42.055
370.31	43.214
370.67	44.360
371.03	42.659
371.39	43.519
371.75	43.673
372.11	44.038
372.47	44.753
372.83	44.437
373.19	45.030
373.55	45.867
373.91	44.922
374.27	45.213
374.63	47.294
374.99	44.297
375.35	46.234
375.71	46.516
376.07	45.836
376.42	46.285
376.78	46.240
377.14	46.475
377.50	46.932
377.86	45.998
378.22	47.904
378.58	47.087
378.94	48.181
379.30	46.573
379.66	48.560
380.02	48.990
380.38	50.518
380.74	48.958
381.09	48.897
381.45	47.898
381.81	50.176
382.17	50.059
382.53	50.175
382.89	48.646
383.25	50.410
383.61	51.562
383.97	50.236
384.32	51.495
384.68	49.304
385.04	51.764
385.40	50.972
385.76	52.052
386.12	52.124
386.48	50.824
386.83	51.967
387.19	51.970
387.55	52.171
387.91	52.568
388.27	52.252
388.62	51.947
388.98	53.525
389.34	53.506
389.70	53.748
390.06	54.470
390.42	53.072
390.77	54.064
391.13	53.580
391.49	53.684
391.85	53.636
392.20	54.152
392.56	53.928
392.92	54.526
393.28	53.676
393.64	54.525
393.99	56.014
394.35	55.900
394.71	55.808
395.07	54.551
395.42	53.969
395.78	55.698
396.14	55.140
396.50	56.591
396.85	55.397
397.21	55.207
397.57	55.065
397.92	55.956
398.28	54.861
398.64	54.119
399.00	54.398
399.35	55.340
399.71	56.793
400.07	56.092
400.42	56.927
400.78	55.498
401.14	55.948
401.49	55.259
401.85	56.860
402.21	55.794
402.57	57.218
402.92	56.265
403.28	55.796
403.63	56.623
403.99	56.591
404.35	55.202
404.70	56.544
405.06	55.652
405.42	57.553
405.77	56.598
406.13	57.266
406.49	56.475
406.84	56.787
407.20	56.959
407.55	57.299
407.91	57.260
408.27	55.241
408.62	56.428
408.98	57.284
409.34	57.243
409.69	57.108
410.05	57.327
410.40	57.599
410.76	57.039
411.11	58.387
411.47	56.450
411.83	57.260
412.18	57.771
412.54	57.617
412.89	57.974
413.25	57.111
413.60	56.577
413.96	57.751
414.31	56.147
414.67	56.768
415.03	57.415
415.38	59.584
415.74	57.483
416.09	57.989
416.45	56.606
416.80	57.772
417.16	57.663
417.51	58.717
417.87	57.695
418.22	56.108
418.58	58.240
418.93	57.567
419.29	57.645
419.64	57.863
420.00	58.279
420.35	58.282
420.71	57.151
421.06	55.894
421.42	58.888
421.77	57.243
422.12	58.140
422.48	59.447
422.83	59.255
423.19	58.886
423.54	59.790
423.90	58.421
424.25	60.213
424.61	57.692
424.96	59.528
425.31	58.811
425.67	59.206
426.02	59.823
426.38	60.735
426.73	59.431
427.09	59.746
427.44	59.148
427.79	58.762
428.15	59.247
428.50	59.494
428.85	58.611
429.21	59.787
429.56	60.020
429.92	59.951
430.27	59.470
430.62	59.697
430.98	59.124
431.33	59.384
431.68	60.057
432.04	60.589
432.39	60.043
432.74	59.760
433.10	60.790
433.45	59.420
433.80	60.247
434.16	59.814
434.51	61.511
434.86	62.378
435.22	61.690
435.57	60.672
435.92	61.436
436.28	60.694
436.63	61.606
436.98	60.655
437.34	61.499
437.69	60.870
438.04	59.598
438.39	60.885
438.75	61.206
439.10	61.628
439.45	61.151
439.81	60.565
440.16	60.483
440.51	61.594
440.86	61.534
441.22	61.308
441.57	61.688
441.92	60.572
442.27	61.717
442.63	61.103
442.98	61.846
443.33	61.178
443.68	60.654
444.03	61.994
444.39	60.841
444.74	61.358
445.09	61.429
445.44	60.432
445.79	61.351
446.15	61.202
446.50	60.620
446.85	61.333
447.20	61.460
447.55	61.140
447.91	60.366
448.26	60.782
448.61	61.211
448.96	61.803
449.31	59.809
449.66	60.458
450.02	60.918
450.37	61.108
450.72	62.002
451.07	61.162
451.42	61.294
451.77	61.479
452.12	63.318
452.47	61.200
452.83	62.500
453.18	61.938
453.53	60.827
453.88	60.133
454.23	61.017
454.58	61.579
454.93	60.316
455.28	62.432
455.63	60.489
455.98	61.006
456.34	61.425
456.69	62.022
457.04	62.825
457.39	60.255
457.74	62.136
458.09	61.120
458.44	61.530
458.79	59.722
459.14	59.622
459.49	61.064
459.84	60.913
460.19	60.466
460.54	62.578
460.89	62.096
461.24	61.034
461.59	61.815
461.94	60.924
462.29	61.198
462.64	60.772
462.99	61.205
463.34	60.999
463.69	59.437
464.04	60.978
464.39	60.258
464.74	58.723
465.09	60.323
465.44	60.515
465.79	60.709
466.14	58.989
466.49	61.053
466.84	60.992
467.19	60.173
467.54	60.928
467.89	58.333
468.24	59.778
468.59	60.452
468.94	59.907
469.29	60.108
469.64	60.203
469.99	60.548
470.34	60.149
470.68	59.604
471.03	59.725
471.38	60.301
471.73	59.233
472.08	60.470
472.43	60.265
472.78	59.005
473.13	60.177
473.48	60.121
473.83	61.230
474.17	58.968
474.52	60.734
474.87	58.859
475.22	60.169
475.57	58.879
475.92	58.935
476.27	59.425
476.61	56.957
476.96	59.750
477.31	58.564
477.66	61.333
478.01	58.414
478.36	58.724
478.70	60.197
479.05	60.174
479.40	60.168
479.75	58.694
480.10	59.877
480.45	58.387
480.79	59.002
481.14	59.053
481.49	59.973
481.84	59.487
482.19	59.742
482.53	59.860
482.88	60.124
483.23	58.826
483.58	58.384
483.92	57.225
484.27	58.213
484.62	57.426
484.97	57.154
485.31	57.269
485.66	53.983
486.01	54.811
486.36	57.600
486.70	60.790
487.05	61.747
487.40	59.786
487.75	57.888
488.09	58.890
488.44	56.504
488.79	57.133
489.13	56.662
489.48	56.000
489.83	56.901
490.17	57.351
490.52	57.102
490.87	57.741
491.22	58.146
491.56	57.082
491.91	57.479
492.26	58.157
492.60	57.193
492.95	56.033
493.30	58.270
493.64	57.249
493.99	56.711
494.34	56.228
494.68	56.360
495.03	58.238
495.37	57.656
495.72	55.692
496.07	56.354
496.41	55.770
496.76	57.465
497.11	58.089
497.45	56.064
497.80	56.553
498.14	56.327
498.49	57.031
498.84	57.495
499.18	56.590
499.53	57.578
499.87	55.868
500.22	55.966
500.56	57.040
500.91	56.247
501.26	56.591
501.60	55.457
501.95	56.665
502.29	57.130
502.64	57.018
502.98	55.867
503.33	56.544
503.67	55.648
504.02	56.305
504.36	57.015
504.71	56.408
505.06	55.935
505.40	55.759
505.75	56.421
506.09	55.525
506.44	57.428
506.78	57.294
507.13	56.385
507.47	56.561
507.82	55.303
508.16	56.358
508.51	54.665
508.85	56.353
509.19	55.329
509.54	56.676
509.88	56.095
510.23	56.581
510.57	56.839
510.92	56.942
511.26	55.604
511.61	55.287
511.95	55.393
512.30	56.475
512.64	55.722
512.98	55.828
513.33	55.444
513.67	56.808
514.02	56.055
514.36	56.061
514.70	56.927
515.05	56.361
515.39	55.696
515.74	57.529
516.08	55.732
516.42	56.881
516.77	56.204
517.11	55.699
517.46	56.893
517.80	56.868
518.14	58.324
518.49	57.104
518.83	55.881
519.17	55.250
519.52	55.503
519.86	55.649
520.20	55.804
520.55	55.093
520.89	55.856
521.23	56.561
521.58	56.441
521.92	55.751
522.26	55.498
522.61	56.481
522.95	55.882
523.29	56.322
523.64	55.213
523.98	55.676
524.32	57.364
524.66	57.371
525.01	56.002
525.35	56.519
525.69	55.916
526.04	54.650
526.38	56.322
526.72	56.171
527.06	56.833
527.41	55.685
527.75	57.898
528.09	55.962
528.43	55.477
528.78	54.104
529.12	55.791
529.46	55.256
529.80	56.350
530.15	55.652
530.49	55.813
530.83	54.545
531.17	54.540
531.51	55.355
531.86	56.190
532.20	55.793
532.54	54.997
532.88	55.333
533.22	54.567
533.57	54.414
533.91	54.882
534.25	54.438
534.59	54.713
534.93	55.461
535.27	54.479
535.62	55.429
535.96	53.980
536.30	55.817
536.64	54.955
536.98	55.535
537.32	54.444
537.66	54.710
538.01	55.831
538.35	53.959
538.69	53.966
539.03	54.323
539.37	53.239
539.71	54.174
540.05	53.477
540.39	53.056
540.73	54.766
541.07	54.077
541.42	53.396
541.76	53.144
542.10	54.825
542.44	53.898
542.78	53.589
543.12	53.993
543.46	53.663
543.80	53.058
544.14	53.142
544.48	54.078
544.82	54.099
545.16	54.323
545.50	54.044
545.84	53.399
546.18	53.765
546.52	53.248
546.86	52.138
547.20	54.008
547.54	52.871
547.88	51.959
548.22	53.099
548.56	53.130
548.90	54.030
549.24	53.435
549.58	52.808
549.92	52.232
550.26	53.074
550.60	52.010
550.94	52.199
551.28	51.815
551.62	52.493
551.96	52.233
552.30	52.390
552.64	52.956
552.98	53.337
553.32	53.569
553.66	53.312
554.00	53.846
554.34	52.896
554.68	51.065
555.02	52.300
555.36	53.123
555.69	51.441
556.03	50.820
556.37	53.317
556.71	52.188
557.05	50.543
557.39	51.958
557.73	52.972
558.07	52.053
558.41	52.027
558.75	52.062
559.08	52.610
559.42	51.783
559.76	52.103
560.10	52.445
560.44	52.836
560.78	52.312
561.12	52.525
561.45	52.616
561.79	52.137
562.13	52.372
562.47	50.493
562.81	52.089
563.15	51.894
563.48	52.393
563.82	51.270
564.16	51.181
564.50	51.311
564.84	51.327
565.17	51.353
565.51	50.058
565.85	51.366
566.19	50.806
566.52	51.258
566.86	51.160
567.20	49.048
567.54	50.876
567.88	52.396
568.21	50.791
568.55	50.791
568.89	50.704
569.23	49.852
569.56	49.863
569.90	50.356
570.24	51.265
570.57	50.609
570.91	49.663
571.25	49.783
571.59	49.930
571.92	49.254
572.26	49.762
572.60	48.731
572.93	49.207
573.27	48.946
573.61	48.650
573.95	49.162
574.28	49.544
574.62	49.568
574.96	48.412
575.29	48.579
575.63	48.857
575.97	48.766
576.30	48.261
576.64	48.580
576.98	48.451
577.31	48.949
577.65	49.360
577.98	48.400
578.32	48.814
578.66	48.624
578.99	48.781
579.33	48.155
579.67	47.711
580.00	47.449
580.34	47.644
580.67	46.977
581.01	48.204
581.35	48.023
581.68	48.429
582.02	48.371
582.35	50.000
582.69	48.854
583.02	49.056
583.36	48.141
583.70	48.216
584.03	47.012
584.37	46.951
584.70	46.797
585.04	47.431
585.37	47.106
585.71	47.659
586.04	47.930
586.38	48.329
586.72	47.255
587.05	48.043
587.39	48.990
587.72	49.019
588.06	47.897
588.39	47.548
588.73	48.254
589.06	48.081
589.40	48.156
589.73	47.237
590.07	47.812
590.40	48.276
590.73	47.720
591.07	47.990
591.40	47.784
591.74	47.854
592.07	47.300
592.41	47.200
592.74	47.000
593.08	48.376
593.41	48.294
593.75	48.161
594.08	48.955
594.41	48.173
594.75	46.961
595.08	48.082
595.42	47.922
595.75	46.755
596.09	47.882
596.42	47.761
596.75	47.626
597.09	46.949
597.42	47.318
597.75	47.824
598.09	47.778
598.42	47.567
598.76	46.542
599.09	46.956
599.42	47.368
599.76	46.319
600.09	47.247
600.42	47.514
600.76	47.391
601.09	46.565
601.42	46.893
601.76	46.897
602.09	46.497
602.42	46.347
602.76	46.679
603.09	46.806
603.42	47.471
603.76	47.357
604.09	48.048
604.42	48.183
604.76	45.434
605.09	47.068
605.42	46.930
605.75	46.731
606.09	47.294
606.42	46.552
606.75	46.814
607.09	45.968
607.42	46.551
607.75	47.128
608.08	47.198
608.42	46.151
608.75	47.430
609.08	46.095
609.41	46.361
609.75	46.339
610.08	47.537
610.41	46.984
610.74	45.882
611.07	47.336
611.41	47.578
611.74	46.420
612.07	46.891
612.40	46.293
612.73	46.993
613.07	46.797
613.40	46.920
613.73	47.376
614.06	47.988
614.39	46.453
614.72	45.997
615.06	46.439
615.39	45.094
615.72	46.919
616.05	47.159
616.38	47.124
616.71	45.977
617.05	46.113
617.38	46.228
617.71	46.328
618.04	46.627
618.37	47.650
618.70	47.624
619.03	46.655
619.36	47.596
619.69	46.829
620.03	46.390
620.36	46.871
620.69	46.021
621.02	46.194
621.35	48.911
621.68	46.276
622.01	46.263
622.34	48.047
622.67	46.598
623.00	45.749
623.33	47.379
623.66	46.628
623.99	46.610
624.32	48.148
624.65	45.560
624.99	46.619
625.32	46.897
625.65	47.539
625.98	45.153
626.31	45.571
626.64	46.960
626.97	46.287
627.30	44.723
627.63	47.037
627.96	46.246
628.29	46.770
628.62	44.920
628.95	47.152
629.28	46.644
629.61	46.380
629.94	47.197
630.26	46.102
630.59	46.028
630.92	45.022
631.25	46.691
631.58	49.247
631.91	46.954
632.24	46.302
632.57	44.497
632.90	46.841
633.23	46.531
633.56	45.714
633.89	45.661
634.22	47.193
634.55	47.495
634.88	48.485
635.20	46.502
635.53	47.458
635.86	46.262
636.19	47.614
636.52	49.051
636.85	45.352
637.18	45.114
637.51	44.624
637.83	47.508
638.16	47.811
638.49	46.948
638.82	45.998
639.15	46.621
639.48	48.268
639.81	46.074
640.13	47.468
640.46	43.515
640.79	45.588
641.12	48.199
641.45	46.173
641.77	47.368
642.10	46.325
642.43	45.612
642.76	46.883
643.09	45.342
643.41	46.779
643.74	47.172
644.07	47.724
644.40	46.959
644.73	47.896
645.05	47.283
645.38	49.496
645.71	47.947
646.04	48.350
646.36	45.109
646.69	46.933
647.02	47.554
647.35	47.481
647.67	49.919
648.00	46.338
648.33	47.147
648.66	46.790
648.98	46.122
649.31	46.008
649.64	46.348
649.96	44.562
650.29	43.533
650.62	45.686
650.94	46.396
651.27	42.066
651.60	46.637
651.92	45.441
652.25	44.428
652.58	45.805
652.90	45.930
653.23	45.211
653.56	46.077
653.88	46.489
654.21	44.507
654.54	45.809
654.86	45.609
655.19	44.542
655.52	45.970
655.84	46.796
656.17	54.644
656.49	75.664
656.82	81.454
657.15	62.349
657.47	46.832
657.80	34.360
658.13	26.240
658.45	33.765
658.78	40.008
659.10	37.963
659.43	36.445
659.75	35.752
660.08	34.678
660.41	35.897
660.73	37.628
661.06	41.850
661.38	40.829
661.71	42.586
662.03	43.034
662.36	44.902
662.68	44.653
663.01	45.487
663.33	45.180
663.66	44.139
663.98	45.962
664.31	46.341
664.63	45.665
664.96	44.283
665.28	42.831
665.61	44.755
665.93	45.714
666.26	42.294
666.58	43.727
666.91	43.925
667.23	42.857
667.56	44.773
667.88	44.200
668.21	41.211
668.53	43.050
668.86	44.008
669.18	43.585
669.50	45.129
669.83	44.600
670.15	46.260
670.48	45.040
670.80	44.742
671.13	42.911
671.45	43.898
671.77	47.269
672.10	42.000
672.42	44.175
672.75	44.547
673.07	42.836
673.39	41.602
673.72	46.141
674.04	41.897
674.37	43.828
674.69	44.621
675.01	43.619
675.34	41.412
675.66	41.011
675.98	44.963
676.31	43.164
676.63	42.015
676.95	44.253
677.28	44.960
677.60	43.110
677.92	44.914
678.25	44.424
678.57	44.128
678.89	42.491
679.22	39.199
679.54	42.564
679.86	43.051
680.18	44.444
680.51	43.396
680.83	43.372
681.15	43.793
681.48	42.832
681.80	44.905
682.12	42.657
682.44	42.070
682.77	40.603
683.09	42.045
683.41	41.473
683.73	41.556
684.06	41.513
684.38	41.324
684.70	44.704
685.02	42.685
685.34	43.760
685.67	40.536
685.99	42.485
686.31	39.680
686.63	42.654
686.96	40.536
687.28	41.042
687.60	40.236
687.92	38.264
688.24	41.235
688.56	39.483
688.89	42.468
689.21	43.444
689.53	44.118
689.85	41.420
690.17	40.556
690.49	43.028
690.82	41.584
691.14	43.522
691.46	41.683
691.78	43.094
692.10	42.385
692.42	39.821
692.74	41.379
693.06	38.148
693.39	41.746
693.71	39.286
694.03	42.379
694.35	40.762
694.67	38.193
694.99	42.979
695.31	41.280
695.63	40.476
695.95	41.408
696.27	40.879
696.59	44.027
696.91	39.865
697.23	42.857
697.56	40.122
697.88	42.614
698.20	42.750
698.52	42.235
698.84	43.659
699.16	42.041
699.48	38.703
699.80	38.298
700.12	40.830
700.44	40.323
700.76	37.530
701.08	39.952
701.40	44.560
701.72	40.050
702.04	44.385
702.36	34.293
702.68	40.342
703.00	40.342
703.32	37.931
703.64	41.076
703.96	40.334
704.28	35.627
704.60	41.519
704.91	39.541
705.23	37.260
705.55	39.554
705.87	43.030
706.19	41.411
706.51	37.048
706.83	38.040
707.15	40.741
707.47	39.486
707.79	37.336
708.11	35.805
708.43	39.140
708.74	36.607
709.06	35.963
709.38	42.723
709.70	38.710
710.02	40.827
710.34	38.830
710.66	37.709
710.98	38.798
711.29	37.363
711.61	40.395
711.93	38.177
712.25	36.486
712.57	41.003
712.89	37.941
713.20	35.503
713.52	40.751
713.84	38.440
714.16	40.263
714.48	40.979
714.80	42.338
715.11	40.682
715.43	36.340
715.75	39.737
716.07	37.845
716.39	40.437
716.70	33.735
717.02	39.672
717.34	40.070
717.66	36.577
717.97	33.562
718.29	42.268
718.61	36.184
718.93	40.453
719.24	38.509
719.56	39.264
719.88	39.339
720.20	36.452
720.51	34.161
720.83	37.500
721.15	38.816
721.46	35.274
721.78	37.667
722.10	36.246
722.42	38.255
722.73	37.097
723.05	36.140
723.37	39.931
723.68	42.294
724.00	36.823
724.32	33.099
724.63	37.413
724.95	39.716
725.27	37.631
725.58	38.163
725.90	35.862
726.22	37.304
726.53	39.286
726.85	40.252
727.16	31.722
727.48	37.920
727.80	38.079
728.11	36.042
728.43	36.364
728.74	38.462
729.06	36.755
729.38	32.468
729.69	38.591
730.01	33.333
730.32	38.485
730.64	38.679
730.96	34.161
731.27	40.223
731.59	36.813
731.90	34.286
732.22	37.240
732.53	34.254
732.85	37.714
733.16	36.364
733.48	36.280
733.80	34.819
734.11	39.031
734.43	38.919
734.74	38.228
735.06	35.176
735.37	38.108
735.69	34.324
736.00	33.333
736.32	35.310
736.63	32.778
736.95	33.046
737.26	38.182
737.58	35.455
737.89	38.824
738.21	33.028
738.52	33.770
738.83	36.519
739.15	33.688
739.46	34.014
739.78	34.663
740.09	32.951
740.41	37.318
740.72	37.000
741.04	35.275
741.35	34.035
741.66	36.863
741.98	31.967
742.29	32.636
742.61	38.158
742.92	34.231
743.23	34.657
743.55	36.047
743.86	32.800
744.18	31.405
744.49	29.536
744.80	34.156
745.12	34.599
745.43	34.146
745.74	34.483
746.06	33.475
746.37	39.662
746.68	33.740
747.00	33.750
747.31	31.330
747.62	35.769
747.94	34.413
748.25	31.727
748.56	32.245
748.88	33.333
749.19	37.069
749.50	35.498
749.82	36.948
750.13	32.740
750.44	35.333
750.75	31.692
751.07	33.846
751.38	39.117
751.69	36.422
752.01	31.392
752.32	36.275
752.63	34.014
752.94	32.872
753.26	30.112
753.57	33.333
753.88	36.704
754.19	36.977
754.51	32.154
754.82	32.476
755.13	34.098
755.44	38.225
755.75	37.500
756.07	35.522
756.38	32.704
756.69	38.554
757.00	31.302
757.31	32.787
757.63	34.527
757.94	33.803
758.25	34.989
758.56	32.898
758.87	32.045
759.18	32.533
759.50	33.428
759.81	34.454
760.12	36.119
760.43	40.625
760.74	34.483
761.05	33.500
761.36	34.217
761.67	33.503
761.99	34.595
762.30	30.793
762.61	31.023
762.92	34.328
763.23	37.079
763.54	31.655
763.85	34.021
764.16	33.333
764.47	34.155
764.78	36.102
765.10	35.484
765.41	35.128
765.72	30.423
766.03	32.486
766.34	32.288
766.65	27.875
766.96	36.255
767.27	35.023
767.58	29.353
767.89	32.212
768.20	33.803
768.51	33.796
768.82	34.538
769.13	29.545
769.44	30.769
769.75	31.769
770.06	30.385
770.37	35.827
770.68	29.787
770.99	27.530
771.30	38.148
771.61	34.221
771.92	28.889
772.23	29.150
772.54	25.000
772.85	36.406
773.16	34.762
773.47	29.630
773.78	28.649
774.09	29.545
774.39	33.500
774.70	36.612
775.01	28.049
775.32	24.118
775.63	30.675
775.94	25.478
776.25	24.516
776.56	24.359
776.87	28.571
777.18	24.828
777.48	22.378
777.79	23.649
778.10	24.265
778.41	28.472
778.72	32.414
779.03	27.160
779.34	27.879
779.65	30.052
779.95	26.111
780.26	22.727
780.57	29.032
780.88	34.783
781.19	30.323
781.50	28.235
781.80	28.495
782.11	24.868
782.42	24.747
782.73	23.952
783.04	25.698
783.34	21.212
783.65	21.569
783.96	22.981
784.27	23.214
784.57	31.126
784.88	24.286
785.19	24.409
785.50	21.260
785.81	25.564
786.11	20.769
786.42	20.144
786.73	21.583
787.04	25.564
787.34	26.230
787.65	30.400
787.96	25.373
788.26	32.168
788.57	25.175
788.88	25.000
789.19	30.719
789.49	19.178
789.80	24.113
790.11	18.110
790.41	20.313
790.72	24.576
791.03	11.650
791.33	26.957
791.64	22.807
791.95	17.857
792.25	32.381
792.56	25.000
792.87	18.750
793.17	20.536
793.48	17.708
793.79	10.843
794.09	21.101
794.40	14.679
794.70	24.490
795.01	12.338
795.32	19.178
795.62	25.352
795.93	23.485
796.23	26.230
796.54	19.643
796.85	23.404
797.15	10.870
797.46	4.110
797.76	11.250
798.07	10.870
798.37	14.433
798.68	5.195
798.99	13.793
799.29	14.607
799.60	22.340
799.90	19.277
800.21	13.846
800.51	2.985
800.82	10.294
801.12	-9.589
801.43	2.941
801.73	0.000
802.04	6.061
802.34	-1.667
802.65	3.390
802.95	4.478
803.26	5.085
803.56	5.479
803.87	11.429
804.17	10.959
804.48	-17.544
804.78	5.556
805.09	-6.897
805.39	8.108
805.70	-8.451
806.00	7.317
806.30	18.072
806.61	8.219
806.91	18.269
807.22	12.222
807.52	-3.448
807.83	13.889
808.13	13.253
808.43	3.371
808.74	6.250
809.04	-7.353
809.35	12.000
809.65	12.857
809.95	5.479
810.26	-3.509
810.56	17.241
810.86	14.706
811.17	-3.509
811.47	-16.393
811.77	-20.000
812.08	1.695
812.38	1.667
812.69	-5.172
812.99	-3.774
813.29	-28.205
813.59	16.000
813.90	-7.018
814.20	0.000
814.50	21.127
814.81	15.385
815.11	-11.475
815.41	2.985
815.72	3.448
816.02	10.714
816.32	-6.667
816.62	4.545
816.93	-20.000
817.23	3.704
817.53	-2.128
817.84	2.381
818.14	-23.529
818.44	-12.245
818.74	-13.333
819.04	-10.256
819.35	-25.714
819.65	-65.385
819.95	-5.660
820.25	-20.000
820.56	-9.524
820.86	-9.375
821.16	-20.513
821.46	-20.930
821.76	-28.000
822.07	-14.286
822.37	-6.522
822.67	-36.170
822.97	-43.243
823.27	-27.500
823.57	6.122
823.88	2.222
824.18	10.000
824.48	-20.000
824.78	-28.000
825.08	-39.394
825.38	4.444
825.69	-19.149
825.99	-22.222
826.29	-60.000
826.59	-15.385
826.89	-25.581
827.19	-12.000
827.49	-26.471
827.79	0.000
828.09	-32.432
828.39	-36.667
828.70	-12.195
829.00	-11.628
829.30	-50.000
829.60	-41.176
829.90	0.000
830.20	5.714
830.50	-48.276
830.80	-61.111
831.10	-65.385
831.40	-50.000
831.70	-76.190
832.00	3.226
832.30	-147.059
832.60	-70.833
832.90	-161.538
833.20	-52.632
833.50	-80.000
833.80	-100.000
834.10	-123.810
834.40	-25.000
834.70	46.875
835.00	-57.143
835.30	-47.059
835.60	-50.000
835.90	-12.000
836.20	-100.000
836.50	-60.000
836.80	-51.515
837.10	-59.259
837.40	-51.852
837.70	-118.750
838.00	-50.000
838.30	-52.174
838.60	-6.897
838.90	-135.714
839.19	-104.348
839.49	-233.333
839.79	-52.174
840.09	-137.500
840.39	-70.000
840.69	-32.258
840.99	-64.286
841.29	-113.333
841.59	-142.105
841.88	0.000
842.18	-65.385
842.48	-170.000
842.78	-65.000
843.08	-6.667
843.38	-12.903
843.68	-166.667
843.97	-14.706
844.27	-118.750
844.57	-78.947
844.87	-220.000
845.17	-180.000
845.47	-47.619
845.76	-66.667
846.06	-166.667
846.36	-105.882
846.66	-61.538
846.96	-86.667
847.25	-100.000
847.55	-34.783
847.85	-70.000
848.15	-94.118
848.44	-136.364
848.74	-52.381
849.04	-91.667
849.34	-125.000
849.63	-86.957
849.93	1200.000
850.23	-73.333
850.53	-19.231
850.82	-145.455
851.12	-13.636
851.42	-163.636
851.71	-130.769
852.01	-110.000
852.31	-61.538
852.61	-100.000
852.90	-50.000
853.20	-61.111
853.50	-200.000
853.79	-133.333
854.09	-95.455
854.39	-175.000
854.68	-9.677
854.98	-38.462
855.28	-72.222
855.57	-42.857
855.87	-36.000
856.17	-81.818
856.46	-25.926
856.76	-72.222
857.05	-69.565
857.35	-70.833
857.65	-176.923
857.94	-61.905
858.24	-51.852
858.53	-26.087
858.83	-41.176
859.13	-94.118
859.42	-58.824
859.72	-100.000
860.01	-75.000
860.31	-122.222
860.60	-150.000
860.90	-106.667
861.20	-83.333
861.49	-123.077
861.79	-36.667
862.08	-146.154
862.38	-28.125
862.67	-111.765
862.97	-112.500
863.26	-277.778
863.56	-140.000
863.85	-145.455
864.15	-72.222
864.44	-433.333
864.74	-157.143
865.03	-168.750
865.33	-200.000
865.62	-51.613
865.92	-31.818
866.21	-73.913
866.51	-100.000
866.80	-320.000
867.10	-166.667
867.39	-225.000
867.69	2800.000
867.98	-157.143
868.27	-23.529
868.57	-2900.000
868.86	-270.000
869.16	-100.000
869.45	-66.667
869.75	-136.364
870.04	-271.429
870.33	-133.333
870.63	-314.286
870.92	-575.000
871.22	-412.500
871.51	-263.636
871.80	-900.000
872.10	-1100.000
>>>>>End Processed Spectral Data<<<<<
