SpectraSuite Data File
++++++++++++++++++++++++++++++++++++
Date: Thu May 14 14:51:30 PDT 2015
User: schluterlab
Dark Spectrum Present: Yes
Reference Spectrum Present: Yes
Number of Sampled Component Spectra: 1
Spectrometers: USB2E3373
Integration Time (usec): 3000 (USB2E3373)
Spectra Averaged: 3 (USB2E3373)
Boxcar Smoothing: 0 (USB2E3373)
Correct for Electrical Dark: No (USB2E3373)
Strobe/Lamp Enabled: No (USB2E3373)
Correct for Detector Non-linearity: No (USB2E3373)
Correct for Stray Light: No (USB2E3373)
Number of Pixels in Processed Spectrum: 2048
>>>>>Begin Processed Spectral Data<<<<<
178.53	0.000
178.91	200.000
179.29	-2500.000
179.67	-900.000
180.04	150.000
180.42	140.000
180.80	40.000
181.18	-700.000
181.56	-700.000
181.94	175.000
182.31	-250.000
182.69	266.667
183.07	150.000
183.45	300.000
183.83	-100.000
184.20	-200.000
184.58	500.000
184.96	-225.000
185.34	-66.667
185.72	60.000
186.09	144.444
186.47	450.000
186.85	400.000
187.23	-133.333
187.61	-1800.000
187.98	120.000
188.36	200.000
188.74	-25.000
189.12	-133.333
189.49	0.000
189.87	-212.500
190.25	-11.111
190.63	-20.000
191.00	-111.111
191.38	0.000
191.76	-75.000
192.14	-216.667
192.51	500.000
192.89	-50.000
193.27	0.000
193.65	-85.714
194.02	-900.000
194.40	-128.571
194.78	114.286
195.15	0.000
195.53	-36.364
195.91	0.000
196.29	-300.000
196.66	-92.308
197.04	-1800.000
197.42	-157.143
197.79	-300.000
198.17	12.500
198.55	-157.143
198.92	-88.889
199.30	-262.500
199.68	-36.364
200.05	-78.571
200.43	-500.000
200.81	142.857
201.18	0.000
201.56	244.444
201.94	0.000
202.31	666.667
202.69	-44.444
203.07	800.000
203.44	-33.333
203.82	-450.000
204.19	-16.667
204.57	-83.333
204.95	-137.500
205.32	-1800.000
205.70	200.000
206.08	-116.667
206.45	-50.000
206.83	420.000
207.20	-133.333
207.58	-200.000
207.96	-266.667
208.33	-33.333
208.71	83.333
209.08	-16.667
209.46	0.000
209.84	366.667
210.21	50.000
210.59	450.000
210.96	333.333
211.34	-50.000
211.71	-162.500
212.09	-700.000
212.46	0.000
212.84	900.000
213.22	-260.000
213.59	-225.000
213.97	-130.000
214.34	-366.667
214.72	200.000
215.09	-325.000
215.47	0.000
215.84	171.429
216.22	1250.000
216.59	-360.000
216.97	-140.000
217.34	-250.000
217.72	-150.000
218.09	-425.000
218.47	-350.000
218.84	0.000
219.22	140.000
219.59	-11.765
219.97	10.000
220.34	750.000
220.72	-122.222
221.09	-15.385
221.47	-300.000
221.84	-50.000
222.22	-200.000
222.59	0.000
222.97	37.500
223.34	-220.000
223.72	-900.000
224.09	25.000
224.46	-50.000
224.84	40.000
225.21	-157.143
225.59	-400.000
225.96	-100.000
226.34	0.000
226.71	300.000
227.08	-350.000
227.46	-80.000
227.83	-325.000
228.21	5.263
228.58	187.500
228.95	600.000
229.33	-100.000
229.70	-140.000
230.08	15.789
230.45	140.000
230.82	-133.333
231.20	-42.857
231.57	-25.000
231.95	-63.636
232.32	0.000
232.69	35.000
233.07	-375.000
233.44	17.647
233.81	-60.000
234.19	38.889
234.56	-22.727
234.93	3.448
235.31	-73.684
235.68	-100.000
236.05	-75.000
236.43	3.846
236.80	20.000
237.17	3.704
237.55	9.091
237.92	-130.000
238.29	-45.161
238.67	0.000
239.04	13.889
239.41	-16.667
239.79	-6.522
240.16	-5.556
240.53	-13.043
240.91	-13.725
241.28	-11.475
241.65	14.925
242.02	6.757
242.40	-4.615
242.77	4.000
243.14	0.000
243.51	-2.632
243.89	1.282
244.26	1.980
244.63	0.000
245.00	6.542
245.38	0.877
245.75	-4.425
246.12	7.143
246.49	2.326
246.87	5.000
247.24	5.960
247.61	12.500
247.98	8.725
248.36	6.173
248.73	3.067
249.10	8.743
249.47	11.443
249.84	12.565
250.22	6.218
250.59	9.444
250.96	13.182
251.33	4.592
251.70	10.256
252.08	10.000
252.45	9.016
252.82	4.545
253.19	7.031
253.56	10.266
253.94	6.154
254.31	12.121
254.68	11.888
255.05	12.704
255.42	7.483
255.79	8.414
256.16	10.265
256.54	8.940
256.91	12.459
257.28	10.164
257.65	7.006
258.02	7.965
258.39	7.977
258.76	10.703
259.14	12.356
259.51	10.663
259.88	10.198
260.25	8.889
260.62	11.781
260.99	14.208
261.36	14.745
261.73	9.814
262.10	10.440
262.47	12.332
262.85	13.131
263.22	7.792
263.59	6.316
263.96	10.997
264.33	7.161
264.70	12.099
265.07	11.217
265.44	14.512
265.81	10.417
266.18	15.873
266.55	11.161
266.92	10.023
267.29	14.442
267.66	11.308
268.03	9.389
268.40	10.647
268.77	8.884
269.14	7.709
269.51	11.404
269.88	12.500
270.25	12.877
270.62	11.181
270.99	11.919
271.36	12.673
271.73	12.770
272.10	13.226
272.47	11.222
272.84	10.040
273.21	11.222
273.58	10.685
273.95	10.192
274.32	10.456
274.69	9.865
275.06	11.172
275.43	9.612
275.80	12.169
276.17	10.556
276.54	11.381
276.91	10.555
277.28	10.669
277.65	10.233
278.02	11.397
278.39	11.051
278.76	10.193
279.13	10.284
279.50	11.168
279.87	11.270
280.23	9.507
280.60	11.356
280.97	12.171
281.34	9.508
281.71	11.337
282.08	11.628
282.45	9.002
282.82	10.989
283.19	8.401
283.56	10.984
283.92	12.162
284.29	12.006
284.66	11.823
285.03	8.814
285.40	10.665
285.77	10.217
286.14	10.687
286.51	10.959
286.87	9.953
287.24	11.898
287.61	10.015
287.98	10.423
288.35	9.467
288.72	10.947
289.08	10.835
289.45	9.763
289.82	8.133
290.19	10.489
290.56	9.296
290.93	9.415
291.29	10.193
291.66	9.504
292.03	9.634
292.40	9.524
292.77	9.299
293.13	9.743
293.50	10.250
293.87	8.859
294.24	10.133
294.60	10.114
294.97	7.383
295.34	10.755
295.71	7.945
296.08	8.269
296.44	7.966
296.81	9.257
297.18	7.846
297.55	6.604
297.91	8.778
298.28	7.820
298.65	8.442
299.02	8.264
299.38	9.611
299.75	8.061
300.12	8.796
300.48	7.719
300.85	8.549
301.22	10.179
301.59	7.078
301.95	8.136
302.32	9.333
302.69	8.434
303.05	8.052
303.42	7.761
303.79	8.646
304.15	7.781
304.52	8.351
304.89	8.168
305.25	9.006
305.62	8.046
305.99	9.175
306.35	7.056
306.72	8.893
307.09	7.513
307.45	8.696
307.82	7.669
308.19	7.568
308.55	8.679
308.92	7.595
309.29	8.812
309.65	6.920
310.02	7.327
310.38	7.579
310.75	8.544
311.12	8.245
311.48	7.331
311.85	6.553
312.22	9.108
312.58	7.606
312.95	6.883
313.31	9.304
313.68	9.432
314.05	8.220
314.41	9.107
314.78	8.447
315.14	8.348
315.51	8.033
315.87	8.101
316.24	8.493
316.61	9.059
316.97	7.783
317.34	7.760
317.70	8.210
318.07	7.672
318.43	8.078
318.80	9.532
319.16	7.554
319.53	6.170
319.89	7.274
320.26	7.473
320.62	7.713
320.99	8.310
321.35	7.579
321.72	8.651
322.08	7.665
322.45	8.491
322.81	7.762
323.18	7.434
323.54	7.586
323.91	8.452
324.27	8.176
324.64	8.984
325.00	8.541
325.37	8.518
325.73	8.264
326.10	8.110
326.46	9.039
326.83	8.247
327.19	8.661
327.56	9.249
327.92	8.104
328.29	8.871
328.65	8.040
329.01	8.037
329.38	9.099
329.74	8.390
330.11	9.075
330.47	9.183
330.84	8.613
331.20	9.417
331.56	9.185
331.93	9.372
332.29	8.729
332.66	9.136
333.02	7.705
333.38	8.473
333.75	8.418
334.11	8.757
334.48	9.158
334.84	9.261
335.20	7.641
335.57	9.106
335.93	9.256
336.29	8.486
336.66	8.326
337.02	8.445
337.38	9.609
337.75	8.182
338.11	8.579
338.47	8.933
338.84	8.714
339.20	8.088
339.56	9.308
339.93	8.539
340.29	8.615
340.65	8.354
341.02	9.816
341.38	8.812
341.74	7.748
342.11	8.769
342.47	7.705
342.83	8.776
343.20	9.321
343.56	9.222
343.92	8.327
344.28	9.062
344.65	8.837
345.01	9.204
345.37	8.942
345.73	8.418
346.10	8.892
346.46	8.544
346.82	8.914
347.19	8.480
347.55	8.725
347.91	8.544
348.27	8.877
348.63	8.606
349.00	7.979
349.36	8.104
349.72	7.738
350.08	8.544
350.45	7.681
350.81	8.220
351.17	8.496
351.53	9.401
351.89	8.352
352.26	7.612
352.62	7.239
352.98	8.092
353.34	8.514
353.70	7.319
354.07	8.644
354.43	8.200
354.79	8.003
355.15	8.756
355.51	8.772
355.87	7.853
356.24	8.137
356.60	8.056
356.96	8.080
357.32	7.435
357.68	7.906
358.04	8.009
358.40	7.388
358.77	8.772
359.13	6.942
359.49	7.138
359.85	8.194
360.21	7.819
360.57	7.968
360.93	7.969
361.29	8.421
361.66	7.603
362.02	8.768
362.38	8.363
362.74	7.751
363.10	7.634
363.46	7.687
363.82	7.812
364.18	7.178
364.54	8.160
364.90	7.559
365.26	8.207
365.62	8.400
365.98	7.760
366.35	7.852
366.71	7.279
367.07	8.051
367.43	8.339
367.79	8.162
368.15	8.294
368.51	7.713
368.87	8.752
369.23	7.733
369.59	7.650
369.95	8.722
370.31	8.170
370.67	7.978
371.03	7.964
371.39	8.193
371.75	7.840
372.11	8.062
372.47	7.989
372.83	8.770
373.19	7.738
373.55	7.046
373.91	7.362
374.27	8.409
374.63	7.848
374.99	8.024
375.35	8.766
375.71	7.806
376.07	8.586
376.42	8.501
376.78	8.825
377.14	8.110
377.50	7.843
377.86	8.867
378.22	7.964
378.58	8.323
378.94	8.392
379.30	8.377
379.66	8.054
380.02	8.309
380.38	7.488
380.74	8.901
381.09	8.304
381.45	7.784
381.81	8.724
382.17	9.145
382.53	8.363
382.89	8.973
383.25	8.089
383.61	7.986
383.97	7.479
384.32	8.433
384.68	6.961
385.04	8.907
385.40	8.191
385.76	8.617
386.12	8.079
386.48	9.353
386.83	8.403
387.19	7.879
387.55	7.688
387.91	7.820
388.27	8.083
388.62	8.477
388.98	8.178
389.34	8.368
389.70	8.135
390.06	8.822
390.42	8.735
390.77	8.910
391.13	8.744
391.49	8.696
391.85	8.545
392.20	9.015
392.56	9.628
392.92	8.724
393.28	9.232
393.64	8.324
393.99	8.600
394.35	9.346
394.71	9.940
395.07	7.844
395.42	8.852
395.78	9.324
396.14	8.972
396.50	8.551
396.85	8.766
397.21	9.349
397.57	8.422
397.92	8.706
398.28	8.474
398.64	8.124
399.00	8.482
399.35	8.848
399.71	8.533
400.07	8.871
400.42	9.371
400.78	8.507
401.14	8.993
401.49	8.414
401.85	8.198
402.21	9.038
402.57	8.509
402.92	9.397
403.28	7.845
403.63	7.637
403.99	8.135
404.35	8.414
404.70	9.065
405.06	7.935
405.42	9.075
405.77	8.561
406.13	8.914
406.49	9.122
406.84	8.753
407.20	8.944
407.55	8.480
407.91	8.360
408.27	8.716
408.62	8.959
408.98	9.170
409.34	8.035
409.69	9.271
410.05	8.968
410.40	9.223
410.76	8.188
411.11	9.293
411.47	9.459
411.83	9.289
412.18	8.735
412.54	8.951
412.89	9.255
413.25	9.763
413.60	7.926
413.96	9.033
414.31	8.782
414.67	9.243
415.03	8.738
415.38	9.016
415.74	8.430
416.09	9.130
416.45	8.328
416.80	8.262
417.16	8.557
417.51	9.963
417.87	8.645
418.22	8.802
418.58	8.612
418.93	9.430
419.29	9.001
419.64	8.523
420.00	8.961
420.35	9.208
420.71	8.960
421.06	8.741
421.42	8.888
421.77	8.562
422.12	9.144
422.48	8.909
422.83	9.748
423.19	9.337
423.54	8.850
423.90	9.277
424.25	9.120
424.61	8.324
424.96	8.896
425.31	9.713
425.67	8.696
426.02	9.242
426.38	8.381
426.73	8.650
427.09	9.285
427.44	9.448
427.79	8.845
428.15	8.333
428.50	9.157
428.85	8.783
429.21	9.681
429.56	8.687
429.92	9.140
430.27	8.867
430.62	8.745
430.98	9.395
431.33	9.189
431.68	8.669
432.04	9.142
432.39	9.106
432.74	9.018
433.10	9.302
433.45	8.640
433.80	9.335
434.16	8.936
434.51	9.198
434.86	9.446
435.22	9.405
435.57	9.847
435.92	9.071
436.28	8.874
436.63	8.465
436.98	9.179
437.34	9.414
437.69	8.916
438.04	9.413
438.39	8.501
438.75	9.076
439.10	10.042
439.45	10.006
439.81	8.870
440.16	9.491
440.51	9.309
440.86	8.560
441.22	9.325
441.57	8.962
441.92	9.554
442.27	9.293
442.63	9.339
442.98	9.819
443.33	9.258
443.68	9.663
444.03	9.737
444.39	10.032
444.74	10.056
445.09	9.123
445.44	9.273
445.79	10.345
446.15	9.404
446.50	8.941
446.85	9.874
447.20	9.623
447.55	9.257
447.91	9.215
448.26	9.197
448.61	8.767
448.96	9.871
449.31	9.385
449.66	8.606
450.02	9.335
450.37	10.336
450.72	8.719
451.07	9.567
451.42	8.608
451.77	8.616
452.12	9.029
452.47	9.031
452.83	8.953
453.18	9.574
453.53	8.558
453.88	9.608
454.23	9.548
454.58	9.518
454.93	8.859
455.28	9.392
455.63	9.608
455.98	8.939
456.34	9.305
456.69	9.230
457.04	8.806
457.39	9.035
457.74	9.172
458.09	9.006
458.44	9.375
458.79	10.005
459.14	9.911
459.49	8.942
459.84	9.654
460.19	8.828
460.54	9.256
460.89	9.052
461.24	9.195
461.59	9.076
461.94	8.956
462.29	9.630
462.64	9.475
462.99	9.353
463.34	9.669
463.69	8.675
464.04	9.783
464.39	9.137
464.74	9.464
465.09	9.458
465.44	9.764
465.79	9.201
466.14	8.859
466.49	9.158
466.84	9.421
467.19	9.422
467.54	8.696
467.89	9.425
468.24	9.529
468.59	8.917
468.94	8.392
469.29	8.638
469.64	8.709
469.99	9.178
470.34	8.911
470.68	9.159
471.03	9.692
471.38	9.287
471.73	8.322
472.08	9.137
472.43	9.392
472.78	9.257
473.13	8.913
473.48	9.486
473.83	9.808
474.17	9.613
474.52	9.561
474.87	9.413
475.22	9.014
475.57	9.450
475.92	9.408
476.27	9.798
476.61	8.982
476.96	8.811
477.31	9.455
477.66	9.024
478.01	8.948
478.36	9.422
478.70	9.015
479.05	9.969
479.40	9.773
479.75	9.894
480.10	9.237
480.45	9.936
480.79	10.023
481.14	9.605
481.49	9.314
481.84	9.617
482.19	9.333
482.53	10.407
482.88	9.925
483.23	9.249
483.58	8.952
483.92	8.821
484.27	9.060
484.62	9.406
484.97	9.759
485.31	9.468
485.66	9.236
486.01	9.086
486.36	9.169
486.70	9.907
487.05	9.945
487.40	9.450
487.75	10.102
488.09	9.975
488.44	10.142
488.79	9.916
489.13	9.124
489.48	9.126
489.83	9.014
490.17	8.910
490.52	9.483
490.87	8.672
491.22	9.749
491.56	8.959
491.91	9.289
492.26	9.433
492.60	9.445
492.95	9.829
493.30	9.144
493.64	9.593
493.99	9.649
494.34	9.146
494.68	9.465
495.03	9.559
495.37	9.454
495.72	9.297
496.07	9.509
496.41	9.309
496.76	9.758
497.11	9.214
497.45	9.668
497.80	9.418
498.14	9.116
498.49	9.329
498.84	9.689
499.18	10.031
499.53	9.552
499.87	9.231
500.22	9.394
500.56	9.762
500.91	9.382
501.26	10.136
501.60	9.324
501.95	9.075
502.29	9.609
502.64	9.445
502.98	9.707
503.33	9.546
503.67	8.984
504.02	9.457
504.36	9.830
504.71	9.325
505.06	9.504
505.40	9.324
505.75	9.335
506.09	9.346
506.44	9.656
506.78	9.862
507.13	9.129
507.47	9.616
507.82	9.280
508.16	8.939
508.51	8.626
508.85	8.928
509.19	9.474
509.54	10.183
509.88	9.325
510.23	9.956
510.57	10.246
510.92	9.482
511.26	8.658
511.61	9.271
511.95	10.054
512.30	9.847
512.64	9.345
512.98	9.855
513.33	9.627
513.67	9.689
514.02	9.913
514.36	9.974
514.70	10.052
515.05	9.385
515.39	9.396
515.74	10.021
516.08	10.037
516.42	9.367
516.77	9.779
517.11	9.283
517.46	9.279
517.80	9.514
518.14	10.120
518.49	9.707
518.83	10.697
519.17	9.370
519.52	10.010
519.86	10.296
520.20	9.585
520.55	9.967
520.89	9.797
521.23	9.994
521.58	9.548
521.92	9.632
522.26	9.679
522.61	10.301
522.95	9.516
523.29	10.000
523.64	9.585
523.98	9.698
524.32	10.258
524.66	9.562
525.01	10.079
525.35	9.650
525.69	9.803
526.04	9.070
526.38	9.080
526.72	9.689
527.06	9.736
527.41	9.913
527.75	11.045
528.09	9.799
528.43	9.769
528.78	8.960
529.12	9.346
529.46	10.343
529.80	10.126
530.15	9.855
530.49	9.193
530.83	10.094
531.17	9.737
531.51	10.048
531.86	10.397
532.20	10.000
532.54	10.413
532.88	9.818
533.22	10.018
533.57	10.791
533.91	10.157
534.25	10.288
534.59	10.287
534.93	9.791
535.27	9.915
535.62	10.233
535.96	10.285
536.30	9.753
536.64	9.610
536.98	10.640
537.32	10.123
537.66	10.917
538.01	9.728
538.35	9.622
538.69	10.096
539.03	10.730
539.37	10.424
539.71	10.330
540.05	9.952
540.39	9.597
540.73	10.443
541.07	11.159
541.42	9.451
541.76	9.253
542.10	9.831
542.44	9.196
542.78	10.584
543.12	10.191
543.46	10.623
543.80	9.772
544.14	10.592
544.48	10.934
544.82	10.353
545.16	10.376
545.50	10.725
545.84	10.472
546.18	10.864
546.52	10.510
546.86	9.937
547.20	9.669
547.54	10.549
547.88	10.006
548.22	10.468
548.56	10.240
548.90	10.627
549.24	10.760
549.58	9.842
549.92	10.587
550.26	10.421
550.60	10.657
550.94	10.479
551.28	10.165
551.62	10.512
551.96	10.874
552.30	11.090
552.64	10.952
552.98	11.042
553.32	9.518
553.66	10.096
554.00	11.160
554.34	10.425
554.68	10.652
555.02	10.250
555.36	10.782
555.69	10.698
556.03	10.404
556.37	10.826
556.71	10.019
557.05	10.671
557.39	10.484
557.73	10.106
558.07	9.801
558.41	10.963
558.75	10.007
559.08	11.413
559.42	9.945
559.76	11.669
560.10	11.186
560.44	10.686
560.78	10.688
561.12	10.406
561.45	11.375
561.79	10.867
562.13	11.522
562.47	9.679
562.81	10.759
563.15	10.227
563.48	10.255
563.82	11.427
564.16	10.176
564.50	10.846
564.84	10.560
565.17	10.941
565.51	10.299
565.85	11.045
566.19	10.081
566.52	10.474
566.86	10.922
567.20	10.223
567.54	10.196
567.88	10.449
568.21	10.721
568.55	10.887
568.89	11.076
569.23	10.984
569.56	10.785
569.90	11.262
570.24	10.725
570.57	10.969
570.91	10.808
571.25	10.703
571.59	10.827
571.92	10.928
572.26	11.091
572.60	10.920
572.93	10.687
573.27	10.874
573.61	10.588
573.95	10.876
574.28	10.652
574.62	10.732
574.96	10.719
575.29	10.817
575.63	10.973
575.97	10.874
576.30	10.609
576.64	10.618
576.98	10.729
577.31	10.753
577.65	10.957
577.98	10.712
578.32	10.756
578.66	10.667
578.99	10.915
579.33	10.894
579.67	10.607
580.00	10.766
580.34	10.842
580.67	10.944
581.01	10.796
581.35	10.734
581.68	10.648
582.02	11.140
582.35	11.033
582.69	11.410
583.02	10.914
583.36	10.885
583.70	10.975
584.03	11.015
584.37	10.738
584.70	11.027
585.04	10.904
585.37	10.627
585.71	10.939
586.04	10.810
586.38	10.933
586.72	10.629
587.05	10.565
587.39	10.870
587.72	10.766
588.06	10.759
588.39	11.078
588.73	10.952
589.06	11.230
589.40	11.063
589.73	11.183
590.07	10.942
590.40	11.089
590.73	10.746
591.07	10.908
591.40	10.420
591.74	10.652
592.07	11.328
592.41	10.844
592.74	10.614
593.08	11.019
593.41	11.549
593.75	10.920
594.08	10.603
594.41	11.282
594.75	10.428
595.08	10.532
595.42	11.071
595.75	10.785
596.09	11.081
596.42	10.928
596.75	11.270
597.09	10.909
597.42	11.323
597.75	10.780
598.09	10.675
598.42	11.138
598.76	11.043
599.09	10.929
599.42	10.660
599.76	10.697
600.09	10.544
600.42	10.844
600.76	11.229
601.09	10.720
601.42	10.745
601.76	10.793
602.09	10.972
602.42	10.796
602.76	10.849
603.09	10.793
603.42	11.127
603.76	10.359
604.09	11.143
604.42	11.009
604.76	10.578
605.09	10.850
605.42	10.885
605.75	10.846
606.09	10.190
606.42	10.215
606.75	10.682
607.09	10.330
607.42	11.368
607.75	10.746
608.08	10.734
608.42	10.560
608.75	11.194
609.08	10.611
609.41	10.675
609.75	10.402
610.08	10.950
610.41	10.365
610.74	10.630
611.07	10.524
611.41	11.435
611.74	10.901
612.07	10.192
612.40	10.409
612.73	11.198
613.07	10.562
613.40	10.780
613.73	10.448
614.06	11.433
614.39	10.690
614.72	10.383
615.06	10.106
615.39	10.778
615.72	10.284
616.05	9.908
616.38	10.949
616.71	11.285
617.05	10.011
617.38	11.343
617.71	10.529
618.04	11.117
618.37	11.202
618.70	10.860
619.03	10.633
619.36	10.419
619.69	10.186
620.03	10.923
620.36	10.123
620.69	9.315
621.02	10.039
621.35	10.740
621.68	11.352
622.01	10.391
622.34	9.763
622.67	10.103
623.00	9.379
623.33	10.153
623.66	10.311
623.99	8.887
624.32	11.371
624.65	10.553
624.99	10.793
625.32	11.561
625.65	10.722
625.98	9.763
626.31	10.560
626.64	10.549
626.97	9.677
627.30	9.188
627.63	10.503
627.96	11.036
628.29	10.272
628.62	9.404
628.95	11.306
629.28	9.261
629.61	10.522
629.94	9.456
630.26	10.763
630.59	8.895
630.92	9.177
631.25	10.197
631.58	10.358
631.91	10.028
632.24	10.183
632.57	10.247
632.90	9.228
633.23	8.980
633.56	9.286
633.89	9.504
634.22	9.667
634.55	10.125
634.88	8.874
635.20	10.441
635.53	9.944
635.86	10.618
636.19	10.710
636.52	10.338
636.85	9.499
637.18	9.979
637.51	9.140
637.83	11.185
638.16	10.253
638.49	10.446
638.82	9.132
639.15	8.477
639.48	10.393
639.81	10.162
640.13	11.307
640.46	8.121
640.79	7.843
641.12	8.944
641.45	9.536
641.77	8.986
642.10	8.661
642.43	9.840
642.76	9.214
643.09	8.082
643.41	7.983
643.74	10.897
644.07	10.897
644.40	8.345
644.73	8.128
645.05	9.545
645.38	8.058
645.71	9.384
646.04	11.478
646.36	7.153
646.69	8.129
647.02	9.633
647.35	10.840
647.67	10.628
648.00	9.076
648.33	9.760
648.66	10.271
648.98	10.340
649.31	11.096
649.64	9.960
649.96	9.814
650.29	8.623
650.62	10.325
650.94	8.859
651.27	7.485
651.60	9.064
651.92	9.726
652.25	9.551
652.58	11.004
652.90	9.012
653.23	10.423
653.56	9.558
653.88	12.781
654.21	8.310
654.54	8.092
654.86	8.924
655.19	7.905
655.52	10.056
655.84	10.467
656.17	12.512
656.49	17.842
656.82	20.090
657.15	15.643
657.47	11.704
657.80	8.830
658.13	6.954
658.45	9.133
658.78	11.096
659.10	10.492
659.43	10.652
659.75	9.809
660.08	9.916
660.41	8.685
660.73	6.613
661.06	9.545
661.38	8.453
661.71	9.828
662.03	9.524
662.36	10.555
662.68	9.006
663.01	10.265
663.33	9.074
663.66	10.989
663.98	9.808
664.31	9.006
664.63	7.322
664.96	7.985
665.28	7.985
665.61	11.713
665.93	8.929
666.26	8.423
666.58	6.273
666.91	8.598
667.23	10.667
667.56	8.284
667.88	9.000
668.21	9.570
668.53	7.722
668.86	10.413
669.18	5.906
669.50	8.549
669.83	8.000
670.15	9.055
670.48	10.714
670.80	9.751
671.13	8.129
671.45	9.252
671.77	10.169
672.10	10.333
672.42	7.120
672.75	7.220
673.07	9.254
673.39	8.166
673.72	8.221
674.04	10.862
674.37	9.123
674.69	10.053
675.01	8.000
675.34	8.969
675.66	8.427
675.98	8.769
676.31	9.375
676.63	10.837
676.95	8.429
677.28	9.476
677.60	9.055
677.92	6.526
678.25	9.141
678.57	9.609
678.89	10.068
679.22	7.840
679.54	7.863
679.86	6.271
680.18	8.955
680.51	9.434
680.83	9.165
681.15	8.448
681.48	11.744
681.80	10.190
682.12	8.217
682.44	8.180
682.77	7.979
683.09	10.606
683.41	7.946
683.73	9.108
684.06	8.856
684.38	6.977
684.70	9.156
685.02	8.950
685.34	8.652
685.67	8.044
685.99	7.669
686.31	7.558
686.63	7.583
686.96	8.202
687.28	10.423
687.60	6.902
687.92	7.235
688.24	9.015
688.56	7.586
688.89	8.711
689.21	7.828
689.53	8.039
689.85	9.467
690.17	7.778
690.49	8.964
690.82	7.525
691.14	5.061
691.46	8.031
691.78	12.155
692.10	7.156
692.42	5.893
692.74	9.074
693.06	5.926
693.39	7.021
693.71	9.023
694.03	10.223
694.35	8.952
694.67	6.776
694.99	8.298
695.31	7.506
695.63	7.792
695.95	8.489
696.27	7.033
696.59	9.292
696.91	9.685
697.23	9.011
697.56	6.314
697.88	6.818
698.20	9.605
698.52	11.932
698.84	7.692
699.16	10.816
699.48	7.322
699.80	7.234
700.12	6.987
700.44	5.530
700.76	9.026
701.08	7.506
701.40	8.290
701.72	9.950
702.04	5.882
702.36	8.377
702.68	5.134
703.00	6.112
703.32	5.665
703.64	9.291
703.96	6.921
704.28	7.617
704.60	7.848
704.91	5.867
705.23	7.397
705.55	7.242
705.87	9.091
706.19	10.123
706.51	5.723
706.83	5.187
707.15	7.407
707.47	7.243
707.79	9.389
708.11	3.602
708.43	7.742
708.74	8.036
709.06	6.729
709.38	8.920
709.70	9.181
710.02	6.977
710.34	10.106
710.66	2.793
710.98	5.464
711.29	2.473
711.61	5.367
711.93	5.983
712.25	8.108
712.57	10.029
712.89	6.176
713.20	5.621
713.52	7.514
713.84	5.571
714.16	7.368
714.48	4.897
714.80	8.831
715.11	8.924
715.43	6.101
715.75	7.632
716.07	3.591
716.39	11.202
716.70	5.422
717.02	7.541
717.34	5.226
717.66	9.060
717.97	5.137
718.29	6.186
718.61	5.263
718.93	5.825
719.24	8.696
719.56	4.601
719.88	5.706
720.20	9.032
720.51	7.143
720.83	6.875
721.15	3.947
721.46	2.740
721.78	5.000
722.10	5.178
722.42	3.691
722.73	6.774
723.05	8.421
723.37	8.681
723.68	7.168
724.00	2.888
724.32	5.282
724.63	8.042
724.95	9.220
725.27	1.394
725.58	2.473
725.90	8.621
726.22	7.837
726.53	6.818
726.85	11.006
727.16	9.063
727.48	10.398
727.80	7.285
728.11	6.360
728.43	7.071
728.74	6.355
729.06	4.305
729.38	5.195
729.69	7.047
730.01	6.250
730.32	1.818
730.64	6.604
730.96	6.211
731.27	9.497
731.59	7.143
731.90	6.234
732.22	4.687
732.53	2.762
732.85	6.000
733.16	8.504
733.48	5.183
733.80	5.571
734.11	4.274
734.43	7.027
734.74	8.101
735.06	6.533
735.37	8.108
735.69	4.595
736.00	7.627
736.32	6.469
736.63	9.722
736.95	6.322
737.26	6.970
737.58	3.333
737.89	9.412
738.21	3.670
738.52	7.869
738.83	7.167
739.15	6.738
739.46	7.483
739.78	6.135
740.09	5.158
740.41	7.872
740.72	6.000
741.04	5.502
741.35	4.211
741.66	7.843
741.98	9.016
742.29	4.603
742.61	7.895
742.92	4.615
743.23	8.664
743.55	7.364
743.86	8.800
744.18	2.479
744.49	3.376
744.80	9.877
745.12	7.173
745.43	4.065
745.74	4.310
746.06	5.932
746.37	8.861
746.68	7.724
747.00	6.250
747.31	0.000
747.62	8.077
747.94	7.287
748.25	3.213
748.56	4.082
748.88	7.265
749.19	10.345
749.50	1.299
749.82	7.631
750.13	9.253
750.44	0.333
750.75	7.385
751.07	8.000
751.38	9.464
751.69	8.307
752.01	2.913
752.32	4.575
752.63	9.524
752.94	4.844
753.26	4.089
753.57	8.889
753.88	6.742
754.19	6.752
754.51	2.572
754.82	3.215
755.13	9.508
755.44	4.096
755.75	5.921
756.07	8.358
756.38	5.346
756.69	8.735
757.00	7.479
757.31	6.011
757.63	4.859
757.94	6.573
758.25	6.998
758.56	8.279
758.87	7.500
759.18	6.667
759.50	7.082
759.81	9.244
760.12	7.008
760.43	6.250
760.74	8.374
761.05	7.750
761.36	6.024
761.67	6.091
761.99	7.297
762.30	5.793
762.61	5.611
762.92	5.224
763.23	10.112
763.54	8.273
763.85	5.498
764.16	8.418
764.47	8.099
764.78	7.668
765.10	4.692
765.41	10.000
765.72	3.704
766.03	8.757
766.34	5.956
766.65	3.136
766.96	5.976
767.27	0.922
767.58	0.995
767.89	8.173
768.20	6.103
768.51	12.037
768.82	4.819
769.13	5.303
769.44	-1.538
769.75	10.108
770.06	5.769
770.37	11.417
770.68	-1.277
770.99	3.644
771.30	9.630
771.61	4.563
771.92	1.852
772.23	9.717
772.54	0.926
772.85	10.599
773.16	9.048
773.47	0.000
773.78	1.081
774.09	5.682
774.39	8.500
774.70	6.011
775.01	2.439
775.32	0.000
775.63	4.294
775.94	-1.274
776.25	6.452
776.56	5.128
776.87	3.401
777.18	2.069
777.48	2.098
777.79	0.676
778.10	-4.412
778.41	0.694
778.72	-0.690
779.03	4.321
779.34	2.424
779.65	7.772
779.95	7.222
780.26	4.545
780.57	4.516
780.88	6.522
781.19	4.516
781.50	12.353
781.80	6.452
782.11	3.175
782.42	3.535
782.73	3.593
783.04	8.380
783.34	0.606
783.65	1.961
783.96	6.832
784.27	0.595
784.57	-0.662
784.88	1.429
785.19	0.787
785.50	11.811
785.81	3.759
786.11	0.769
786.42	-2.878
786.73	0.000
787.04	8.271
787.34	4.098
787.65	1.600
787.96	0.746
788.26	14.685
788.57	6.993
788.88	7.895
789.19	3.268
789.49	-2.055
789.80	-2.128
790.11	3.150
790.41	-0.781
790.72	6.780
791.03	-10.680
791.33	4.348
791.64	0.877
791.95	7.143
792.25	-2.857
792.56	4.464
792.87	0.000
793.17	2.679
793.48	3.125
793.79	-15.663
794.09	-3.670
794.40	-0.917
794.70	6.803
795.01	1.299
795.32	5.479
795.62	0.704
795.93	4.545
796.23	8.197
796.54	-3.571
796.85	4.255
797.15	4.348
797.46	-8.219
797.76	1.250
798.07	3.261
798.37	-13.402
798.68	-2.597
798.99	9.195
799.29	-2.247
799.60	1.064
799.90	-12.048
800.21	-7.692
800.51	-4.478
800.82	-11.765
801.12	-16.438
801.43	-19.118
801.73	-13.559
802.04	0.000
802.34	-8.333
802.65	-3.390
802.95	-1.493
803.26	0.000
803.56	5.479
803.87	-4.286
804.17	4.110
804.48	-22.807
804.78	8.333
805.09	-22.414
805.39	-4.054
805.70	-12.676
806.00	13.415
806.30	-8.434
806.61	-8.219
806.91	0.000
807.22	3.333
807.52	-8.046
807.83	11.111
808.13	-7.229
808.43	-1.124
808.74	-5.000
809.04	-10.294
809.35	-12.000
809.65	-17.143
809.95	0.000
810.26	-29.825
810.56	-3.448
810.86	8.824
811.17	-15.789
811.47	-27.869
811.77	-44.444
812.08	-16.949
812.38	6.667
812.69	-12.069
812.99	-11.321
813.29	-33.333
813.59	-6.000
813.90	3.509
814.20	-18.182
814.50	5.634
814.81	-5.128
815.11	-3.279
815.41	-2.985
815.72	8.621
816.02	-1.786
816.32	-11.111
816.62	-11.364
816.93	-20.000
817.23	-3.704
817.53	-19.149
817.84	-4.762
818.14	-14.706
818.44	-4.082
818.74	2.222
819.04	-56.410
819.35	-57.143
819.65	-57.692
819.95	-13.208
820.25	-22.222
820.56	-21.429
820.86	-18.750
821.16	-20.513
821.46	-11.628
821.76	-22.000
822.07	-7.143
822.37	-2.174
822.67	-6.383
822.97	-32.432
823.27	-7.500
823.57	18.367
823.88	11.111
824.18	12.500
824.48	-6.667
824.78	4.000
825.08	-30.303
825.38	4.444
825.69	6.383
825.99	-2.778
826.29	-42.857
826.59	-15.385
826.89	-23.256
827.19	-16.000
827.49	-20.588
827.79	-2.083
828.09	-29.730
828.39	-26.667
828.70	-9.756
829.00	-30.233
829.30	-57.143
829.60	-11.765
829.90	-4.348
830.20	-31.429
830.50	-37.931
830.80	-88.889
831.10	-42.308
831.40	-23.529
831.70	-66.667
832.00	0.000
832.30	-105.882
832.60	-33.333
832.90	-146.154
833.20	-57.895
833.50	-90.000
833.80	-100.000
834.10	-109.524
834.40	2.778
834.70	-3.125
835.00	-45.714
835.30	-11.765
835.60	-23.333
835.90	-16.000
836.20	-54.545
836.50	-16.000
836.80	-36.364
837.10	-11.111
837.40	0.000
837.70	-93.750
838.00	-21.429
838.30	-69.565
838.60	-13.793
838.90	-100.000
839.19	-69.565
839.49	-125.000
839.79	-17.391
840.09	-81.250
840.39	-60.000
840.69	6.452
840.99	-28.571
841.29	-53.333
841.59	-73.684
841.88	-20.513
842.18	-42.308
842.48	-210.000
842.78	-40.000
843.08	-33.333
843.38	22.581
843.68	-122.222
843.97	-2.941
844.27	-37.500
844.57	-68.421
844.87	-110.000
845.17	-60.000
845.47	-9.524
845.76	-33.333
846.06	-166.667
846.36	-88.235
846.66	-7.692
846.96	-33.333
847.25	-5.882
847.55	30.435
847.85	-40.000
848.15	-5.882
848.44	-45.455
848.74	-38.095
849.04	-29.167
849.34	-43.750
849.63	-4.348
849.93	1050.000
850.23	-40.000
850.53	15.385
850.82	-36.364
851.12	-27.273
851.42	-145.455
851.71	-38.462
852.01	-45.000
852.31	-46.154
852.61	-84.211
852.90	-33.333
853.20	-50.000
853.50	-211.111
853.79	-23.810
854.09	-63.636
854.39	-125.000
854.68	-29.032
854.98	-53.846
855.28	5.556
855.57	-39.286
855.87	-12.000
856.17	-68.182
856.46	-3.704
856.76	-66.667
857.05	-73.913
857.35	-87.500
857.65	-138.462
857.94	14.286
858.24	-7.407
858.53	4.348
858.83	-47.059
859.13	-35.294
859.42	-47.059
859.72	-21.429
860.01	-30.000
860.31	-122.222
860.60	-90.000
860.90	-33.333
861.20	-22.222
861.49	-100.000
861.79	-13.333
862.08	-123.077
862.38	15.625
862.67	-5.882
862.97	-56.250
863.26	-111.111
863.56	-120.000
863.85	-90.909
864.15	-16.667
864.44	-533.333
864.74	-21.429
865.03	-25.000
865.33	-180.000
865.62	-25.806
865.92	-13.636
866.21	39.130
866.51	28.571
866.80	-20.000
867.10	-41.667
867.39	-91.667
867.69	2100.000
867.98	-228.571
868.27	-82.353
868.57	-2900.000
868.86	-190.000
869.16	-47.619
869.45	12.500
869.75	-36.364
870.04	-28.571
870.33	-16.667
870.63	-228.571
870.92	-25.000
871.22	-287.500
871.51	-54.545
871.80	-466.667
872.10	-750.000
>>>>>End Processed Spectral Data<<<<<
