SpectraSuite Data File
++++++++++++++++++++++++++++++++++++
Date: Thu May 14 15:19:17 PDT 2015
User: schluterlab
Dark Spectrum Present: Yes
Reference Spectrum Present: Yes
Number of Sampled Component Spectra: 1
Spectrometers: USB2E3373
Integration Time (usec): 3000 (USB2E3373)
Spectra Averaged: 3 (USB2E3373)
Boxcar Smoothing: 0 (USB2E3373)
Correct for Electrical Dark: No (USB2E3373)
Strobe/Lamp Enabled: No (USB2E3373)
Correct for Detector Non-linearity: No (USB2E3373)
Correct for Stray Light: No (USB2E3373)
Number of Pixels in Processed Spectrum: 2048
>>>>>Begin Processed Spectral Data<<<<<
178.53	0.000
178.91	571.429
179.29	-4600.000
179.67	-4300.000
180.04	450.000
180.42	420.000
180.80	900.000
181.18	-4100.000
181.56	-3100.000
181.94	950.000
182.31	-1000.000
182.69	1333.333
183.07	-2050.000
183.45	1075.000
183.83	-683.333
184.20	-1166.667
184.58	4300.000
184.96	-950.000
185.34	-422.222
185.72	-740.000
186.09	544.444
186.47	2200.000
186.85	980.000
187.23	-577.778
187.61	-4700.000
187.98	840.000
188.36	1150.000
188.74	-1150.000
189.12	-1500.000
189.49	-206.250
189.87	-487.500
190.25	-444.444
190.63	-860.000
191.00	-555.556
191.38	0.000
191.76	-950.000
192.14	-750.000
192.51	1950.000
192.89	-516.667
193.27	0.000
193.65	-557.143
194.02	-4800.000
194.40	-528.571
194.78	557.143
195.15	0.000
195.53	-318.182
195.91	0.000
196.29	-875.000
196.66	-307.692
197.04	-4100.000
197.42	-614.286
197.79	-2050.000
198.17	-562.500
198.55	-671.429
198.92	-411.111
199.30	-550.000
199.68	-309.091
200.05	-257.143
200.43	-2100.000
200.81	671.429
201.18	0.000
201.56	522.222
201.94	0.000
202.31	1733.333
202.69	-600.000
203.07	3600.000
203.44	-455.556
203.82	-1200.000
204.19	-333.333
204.57	-616.667
204.95	-475.000
205.32	-4900.000
205.70	1125.000
206.08	-616.667
206.45	-616.667
206.83	980.000
207.20	-666.667
207.58	-960.000
207.96	-750.000
208.33	-500.000
208.71	316.667
209.08	-500.000
209.46	0.000
209.84	750.000
210.21	2000.000
210.59	1700.000
210.96	1633.333
211.34	-900.000
211.71	-587.500
212.09	-4100.000
212.46	0.000
212.84	2600.000
213.22	-1040.000
213.59	-900.000
213.97	-360.000
214.34	-1466.667
214.72	750.000
215.09	-950.000
215.47	0.000
215.84	685.714
216.22	2400.000
216.59	-880.000
216.97	-740.000
217.34	-950.000
217.72	-362.500
218.09	-1150.000
218.47	-1100.000
218.84	0.000
219.22	860.000
219.59	-258.824
219.97	-175.000
220.34	2000.000
220.72	-377.778
221.09	-246.154
221.47	-1266.667
221.84	-410.000
222.22	-685.714
222.59	0.000
222.97	-425.000
223.34	-880.000
223.72	-4200.000
224.09	-1000.000
224.46	-1025.000
224.84	-600.000
225.21	-528.571
225.59	-1025.000
225.96	-1025.000
226.34	-92.308
226.71	850.000
227.08	-1850.000
227.46	-226.667
227.83	-900.000
228.21	-178.947
228.58	550.000
228.95	2150.000
229.33	-241.667
229.70	-460.000
230.08	-157.895
230.45	490.000
230.82	-1400.000
231.20	-200.000
231.57	-300.000
231.95	-372.727
232.32	-409.091
232.69	-165.000
233.07	-1025.000
233.44	-217.647
233.81	-280.000
234.19	-150.000
234.56	-136.364
234.93	-110.345
235.31	-178.947
235.68	-183.333
236.05	-190.000
236.43	-111.538
236.80	-100.000
237.17	-114.815
237.55	-75.758
237.92	-350.000
238.29	-67.742
238.67	-61.364
239.04	-63.889
239.41	-66.667
239.79	-52.174
240.16	-33.333
240.53	-56.522
240.91	-39.216
241.28	-37.705
241.65	-11.940
242.02	0.000
242.40	-23.077
242.77	-12.000
243.14	-18.293
243.51	-22.368
243.89	-15.385
244.26	4.950
244.63	0.980
245.00	10.280
245.38	0.000
245.75	3.540
246.12	11.111
246.49	9.302
246.87	14.286
247.24	21.192
247.61	14.474
247.98	22.148
248.36	14.815
248.73	19.018
249.10	18.033
249.47	20.896
249.84	29.843
250.22	26.943
250.59	26.667
250.96	25.455
251.33	23.469
251.70	23.504
252.08	27.917
252.45	29.098
252.82	25.207
253.19	26.562
253.56	30.418
253.94	23.846
254.31	35.606
254.68	34.965
255.05	32.248
255.42	28.571
255.79	30.421
256.16	31.126
256.54	28.808
256.91	36.066
257.28	30.164
257.65	31.529
258.02	29.794
258.39	27.635
258.76	39.755
259.14	35.632
259.51	30.259
259.88	31.728
260.25	34.722
260.62	32.877
260.99	36.612
261.36	32.708
261.73	34.748
262.10	38.187
262.47	35.925
262.85	34.596
263.22	34.545
263.59	31.579
263.96	37.852
264.33	36.317
264.70	35.556
265.07	35.800
265.44	40.136
265.81	35.417
266.18	38.776
266.55	35.937
266.92	35.991
267.29	38.731
267.66	39.690
268.03	37.991
268.40	37.578
268.77	38.724
269.14	34.141
269.51	35.307
269.88	37.910
270.25	36.419
270.62	38.397
270.99	37.172
271.36	38.218
271.73	36.935
272.10	37.876
272.47	37.675
272.84	38.554
273.21	35.671
273.58	37.702
273.95	35.000
274.32	34.791
274.69	35.203
275.06	36.630
275.43	35.120
275.80	34.392
276.17	36.481
276.54	38.433
276.91	34.347
277.28	37.071
277.65	37.522
278.02	34.743
278.39	39.855
278.76	35.677
279.13	37.411
279.50	38.316
279.87	35.957
280.23	32.394
280.60	38.644
280.97	35.691
281.34	35.144
281.71	36.717
282.08	35.050
282.45	36.661
282.82	33.752
283.19	35.541
283.56	36.393
283.92	35.886
284.29	35.387
284.66	36.453
285.03	31.891
285.40	36.012
285.77	37.616
286.14	35.725
286.51	35.312
286.87	33.491
287.24	36.446
287.61	35.575
287.98	33.837
288.35	35.355
288.72	34.467
289.08	33.675
289.45	33.876
289.82	34.488
290.19	33.046
290.56	32.817
290.93	32.953
291.29	35.262
291.66	32.231
292.03	29.308
292.40	31.837
292.77	29.784
293.13	31.800
293.50	31.143
293.87	30.201
294.24	31.200
294.60	30.594
294.97	30.872
295.34	29.321
295.71	29.382
296.08	28.811
296.44	29.902
296.81	31.669
297.18	29.265
297.55	29.481
297.91	27.521
298.28	28.791
298.65	28.300
299.02	27.037
299.38	28.032
299.75	27.103
300.12	27.199
300.48	28.571
300.85	28.459
301.22	27.181
301.59	27.283
301.95	27.458
302.32	27.000
302.69	28.916
303.05	28.400
303.42	28.492
303.79	27.292
304.15	26.604
304.52	27.907
304.89	25.969
305.25	26.708
305.62	26.541
305.99	25.876
306.35	27.520
306.72	28.232
307.09	25.685
307.45	27.122
307.82	26.640
308.19	25.328
308.55	26.133
308.92	25.901
309.29	26.916
309.65	25.828
310.02	26.733
310.38	25.886
310.75	26.117
311.12	27.517
311.48	27.370
311.85	25.451
312.22	24.763
312.58	27.418
312.95	25.430
313.31	25.023
313.68	25.641
314.05	27.010
314.41	27.413
314.78	26.885
315.14	25.953
315.51	25.485
315.87	25.473
316.24	26.484
316.61	26.998
316.97	26.606
317.34	26.896
317.70	26.201
318.07	26.190
318.43	26.871
318.80	26.505
319.16	26.953
319.53	25.536
319.89	25.855
320.26	24.644
320.62	25.000
320.99	25.577
321.35	25.323
321.72	25.767
322.08	24.707
322.45	25.565
322.81	24.819
323.18	27.080
323.54	26.121
323.91	26.690
324.27	25.129
324.64	26.196
325.00	25.041
325.37	26.863
325.73	25.868
326.10	25.629
326.46	26.547
326.83	27.222
327.19	26.142
327.56	26.008
327.92	25.885
328.29	25.645
328.65	25.544
329.01	25.719
329.38	25.442
329.74	26.199
330.11	25.171
330.47	24.853
330.84	26.270
331.20	25.417
331.56	25.043
331.93	25.774
332.29	25.085
332.66	24.336
333.02	25.628
333.38	23.826
333.75	26.010
334.11	26.188
334.48	25.413
334.84	25.064
335.20	24.937
335.57	25.042
335.93	24.298
336.29	25.042
336.66	24.643
337.02	24.916
337.38	25.255
337.75	22.893
338.11	24.643
338.47	24.979
338.84	24.112
339.20	24.937
339.56	24.300
339.93	24.138
340.29	24.074
340.65	24.331
341.02	24.262
341.38	24.737
341.74	24.697
342.11	24.457
342.47	23.272
342.83	25.201
343.20	24.693
343.56	24.699
343.92	24.740
344.28	23.594
344.65	24.109
345.01	23.947
345.37	23.406
345.73	22.603
346.10	24.805
346.46	23.339
346.82	24.270
347.19	24.217
347.55	24.052
347.91	23.477
348.27	22.534
348.63	23.001
349.00	22.744
349.36	24.461
349.72	23.512
350.08	23.997
350.45	23.346
350.81	23.454
351.17	22.331
351.53	24.488
351.89	22.551
352.26	22.537
352.62	23.134
352.98	24.122
353.34	22.853
353.70	23.112
354.07	23.621
354.43	24.298
354.79	23.037
355.15	22.443
355.51	23.538
355.87	23.261
356.24	23.270
356.60	22.469
356.96	23.351
357.32	22.974
357.68	22.694
358.04	22.156
358.40	22.537
358.77	23.977
359.13	22.378
359.49	21.561
359.85	23.423
360.21	24.175
360.57	22.613
360.93	23.484
361.29	23.158
361.66	21.941
362.02	22.547
362.38	22.417
362.74	22.067
363.10	22.008
363.46	22.645
363.82	22.372
364.18	22.871
364.54	23.098
364.90	23.077
365.26	22.483
365.62	22.467
365.98	22.941
366.35	22.617
366.71	22.653
367.07	23.342
367.43	22.784
367.79	22.960
368.15	22.207
368.51	23.139
368.87	21.946
369.23	22.400
369.59	22.746
369.95	22.583
370.31	23.093
370.67	22.283
371.03	22.091
371.39	22.230
371.75	22.215
372.11	22.764
372.47	22.072
372.83	22.709
373.19	21.881
373.55	21.883
373.91	21.677
374.27	21.928
374.63	23.072
374.99	23.210
375.35	22.013
375.71	22.387
376.07	21.756
376.42	22.796
376.78	22.188
377.14	21.709
377.50	21.126
377.86	22.906
378.22	22.515
378.58	22.473
378.94	21.420
379.30	22.027
379.66	22.986
380.02	21.466
380.38	22.638
380.74	22.592
381.09	22.822
381.45	21.932
381.81	23.302
382.17	22.922
382.53	22.105
382.89	21.953
383.25	22.978
383.61	22.512
383.97	21.614
384.32	22.727
384.68	20.882
385.04	22.267
385.40	22.687
385.76	23.388
386.12	21.364
386.48	22.471
386.83	22.288
387.19	21.611
387.55	21.890
387.91	22.260
388.27	22.460
388.62	21.535
388.98	21.263
389.34	21.862
389.70	22.894
390.06	21.788
390.42	21.988
390.77	22.095
391.13	21.772
391.49	22.222
391.85	22.121
392.20	21.590
392.56	21.914
392.92	21.756
393.28	21.780
393.64	21.676
393.99	22.487
394.35	21.729
394.71	22.096
395.07	21.796
395.42	22.216
395.78	22.060
396.14	21.212
396.50	21.259
396.85	22.242
397.21	21.716
397.57	21.201
397.92	21.420
398.28	20.804
398.64	20.595
399.00	20.942
399.35	21.099
399.71	21.141
400.07	21.224
400.42	21.013
400.78	20.949
401.14	22.026
401.49	21.660
401.85	21.105
402.21	20.915
402.57	21.948
402.92	20.804
403.28	21.194
403.63	20.465
403.99	21.021
404.35	20.352
404.70	20.623
405.06	20.652
405.42	21.487
405.77	21.756
406.13	20.854
406.49	21.171
406.84	20.332
407.20	19.564
407.55	20.291
407.91	20.302
408.27	20.495
408.62	21.117
408.98	20.023
409.34	19.707
409.69	20.581
410.05	20.692
410.40	20.766
410.76	20.303
411.11	20.397
411.47	21.007
411.83	21.105
412.18	20.482
412.54	20.451
412.89	20.664
413.25	20.260
413.60	20.735
413.96	21.387
414.31	19.887
414.67	20.453
415.03	19.815
415.38	20.744
415.74	20.342
416.09	20.173
416.45	18.910
416.80	18.972
417.16	19.668
417.51	21.046
417.87	20.172
418.22	20.659
418.58	19.517
418.93	20.489
419.29	20.654
419.64	19.268
420.00	19.585
420.35	20.494
420.71	20.563
421.06	20.529
421.42	20.929
421.77	20.355
422.12	20.772
422.48	20.328
422.83	20.701
423.19	20.637
423.54	20.188
423.90	20.596
424.25	21.333
424.61	20.838
424.96	20.264
425.31	20.435
425.67	20.612
426.02	20.753
426.38	19.690
426.73	20.089
427.09	21.050
427.44	19.061
427.79	19.624
428.15	19.806
428.50	19.831
428.85	19.977
429.21	20.638
429.56	20.385
429.92	19.902
430.27	20.819
430.62	20.860
430.98	20.315
431.33	19.941
431.68	20.354
432.04	21.026
432.39	20.193
432.74	20.148
433.10	20.443
433.45	19.677
433.80	20.118
434.16	20.764
434.51	20.812
434.86	21.227
435.22	21.307
435.57	21.226
435.92	20.312
436.28	20.990
436.63	20.699
436.98	19.968
437.34	20.688
437.69	19.703
438.04	21.047
438.39	20.448
438.75	19.978
439.10	21.406
439.45	20.458
439.81	20.395
440.16	20.858
440.51	20.178
440.86	19.789
441.22	21.008
441.57	20.493
441.92	21.048
442.27	21.010
442.63	21.361
442.98	21.131
443.33	20.884
443.68	22.002
444.03	22.201
444.39	21.128
444.74	21.337
445.09	21.186
445.44	21.128
445.79	21.264
446.15	21.531
446.50	20.930
446.85	21.595
447.20	21.035
447.55	21.130
447.91	21.152
448.26	21.195
448.61	20.829
448.96	21.781
449.31	20.520
449.66	20.425
450.02	21.044
450.37	20.511
450.72	20.936
451.07	21.412
451.42	21.144
451.77	20.789
452.12	21.388
452.47	19.964
452.83	21.284
453.18	20.957
453.53	20.505
453.88	20.872
454.23	21.017
454.58	21.822
454.93	20.024
455.28	21.011
455.63	21.035
455.98	21.229
456.34	20.259
456.69	20.223
457.04	20.981
457.39	20.843
457.74	21.756
458.09	20.483
458.44	21.121
458.79	20.732
459.14	21.709
459.49	21.222
459.84	21.511
460.19	21.044
460.54	22.147
460.89	21.705
461.24	20.632
461.59	21.527
461.94	20.023
462.29	21.501
462.64	21.002
462.99	20.402
463.34	20.766
463.69	21.043
464.04	21.679
464.39	20.908
464.74	20.239
465.09	20.819
465.44	21.996
465.79	22.158
466.14	21.157
466.49	22.053
466.84	21.543
467.19	20.983
467.54	21.328
467.89	20.575
468.24	21.219
468.59	20.556
468.94	19.347
469.29	19.436
469.64	20.216
469.99	20.459
470.34	20.483
470.68	20.437
471.03	21.415
471.38	19.948
471.73	20.091
472.08	21.066
472.43	20.590
472.78	21.033
473.13	19.848
473.48	20.785
473.83	20.894
474.17	20.750
474.52	21.347
474.87	21.318
475.22	20.732
475.57	20.457
475.92	20.906
476.27	20.714
476.61	20.768
476.96	20.386
477.31	20.594
477.66	21.511
478.01	20.336
478.36	21.436
478.70	21.330
479.05	21.575
479.40	21.224
479.75	20.941
480.10	21.080
480.45	20.602
480.79	21.678
481.14	20.910
481.49	20.672
481.84	21.192
482.19	21.505
482.53	21.906
482.88	21.444
483.23	21.387
483.58	21.004
483.92	20.878
484.27	21.084
484.62	20.957
484.97	21.345
485.31	20.169
485.66	20.443
486.01	21.865
486.36	23.450
486.70	25.080
487.05	25.753
487.40	24.309
487.75	23.257
488.09	22.063
488.44	21.578
488.79	21.113
489.13	20.710
489.48	20.350
489.83	20.684
490.17	20.373
490.52	20.197
490.87	20.770
491.22	21.317
491.56	20.520
491.91	20.584
492.26	20.987
492.60	20.507
492.95	20.140
493.30	20.708
493.64	20.675
493.99	19.868
494.34	19.730
494.68	19.743
495.03	20.837
495.37	21.172
495.72	20.227
496.07	20.552
496.41	20.463
496.76	20.183
497.11	21.062
497.45	20.414
497.80	21.413
498.14	20.181
498.49	19.991
498.84	20.612
499.18	21.008
499.53	20.404
499.87	20.791
500.22	20.125
500.56	20.333
500.91	21.098
501.26	21.045
501.60	19.620
501.95	20.408
502.29	20.491
502.64	21.294
502.98	20.535
503.33	20.994
503.67	20.410
504.02	20.884
504.36	21.314
504.71	20.533
505.06	20.691
505.40	20.612
505.75	20.355
506.09	21.593
506.44	20.334
506.78	20.459
507.13	21.116
507.47	20.748
507.82	20.312
508.16	19.981
508.51	19.409
508.85	20.737
509.19	19.991
509.54	20.125
509.88	19.913
510.23	20.204
510.57	20.493
510.92	19.836
511.26	19.817
511.61	19.845
511.95	19.863
512.30	20.630
512.64	18.991
512.98	20.110
513.33	21.069
513.67	20.143
514.02	19.980
514.36	19.591
514.70	20.052
515.05	20.334
515.39	19.055
515.74	20.308
516.08	19.334
516.42	20.722
516.77	20.242
517.11	19.340
517.46	20.255
517.80	19.882
518.14	20.892
518.49	19.848
518.83	20.117
519.17	18.955
519.52	19.392
519.86	20.222
520.20	19.702
520.55	19.660
520.89	19.257
521.23	19.710
521.58	19.040
521.92	19.150
522.26	18.729
522.61	19.387
522.95	18.858
523.29	18.506
523.64	19.563
523.98	19.681
524.32	20.172
524.66	19.067
525.01	19.479
525.35	19.127
525.69	19.084
526.04	18.370
526.38	19.885
526.72	18.339
527.06	19.296
527.41	18.542
527.75	19.002
528.09	19.421
528.43	18.236
528.78	18.092
529.12	19.037
529.46	18.325
529.80	19.336
530.15	18.609
530.49	18.861
530.83	18.772
531.17	18.817
531.51	19.134
531.86	18.450
532.20	19.085
532.54	19.808
532.88	18.364
533.22	18.385
533.57	18.407
533.91	18.743
534.25	19.616
534.59	19.023
534.93	19.355
535.27	18.479
535.62	19.613
535.96	19.698
536.30	18.978
536.64	19.219
536.98	18.819
537.32	18.951
537.66	18.964
538.01	18.187
538.35	18.575
538.69	18.149
539.03	19.007
539.37	18.905
539.71	18.859
540.05	18.525
540.39	18.460
540.73	18.336
541.07	19.681
541.42	18.547
541.76	18.031
542.10	18.577
542.44	17.418
542.78	19.465
543.12	18.057
543.46	17.766
543.80	18.106
544.14	18.552
544.48	19.444
544.82	18.372
545.16	18.485
545.50	18.754
545.84	17.697
546.18	20.000
546.52	18.408
546.86	18.239
547.20	18.384
547.54	19.226
547.88	18.083
548.22	18.889
548.56	18.841
548.90	18.388
549.24	19.818
549.58	19.117
549.92	18.495
550.26	18.900
550.60	19.017
550.94	18.111
551.28	18.680
551.62	18.733
551.96	18.900
552.30	19.503
552.64	19.726
552.98	19.089
553.32	18.778
553.66	18.650
554.00	18.916
554.34	18.018
554.68	18.657
555.02	19.645
555.36	19.527
555.69	18.514
556.03	18.916
556.37	20.463
556.71	18.136
557.05	19.042
557.39	19.111
557.73	18.692
558.07	17.483
558.41	18.937
558.75	18.796
559.08	18.163
559.42	18.381
559.76	18.521
560.10	19.089
560.44	18.799
560.78	19.625
561.12	19.581
561.45	19.830
561.79	20.085
562.13	19.840
562.47	18.187
562.81	19.177
563.15	19.697
563.48	19.018
563.82	19.226
564.16	19.200
564.50	18.832
564.84	19.764
565.17	19.882
565.51	19.275
565.85	18.824
566.19	19.585
566.52	20.480
566.86	19.128
567.20	19.848
567.54	18.853
567.88	21.101
568.21	20.702
568.55	20.863
568.89	21.925
569.23	21.631
569.56	21.493
569.90	22.238
570.24	22.192
570.57	22.514
570.91	22.352
571.25	22.216
571.59	22.878
571.92	23.108
572.26	22.657
572.60	22.987
572.93	22.766
573.27	22.534
573.61	22.340
573.95	23.161
574.28	22.588
574.62	22.874
574.96	22.651
575.29	22.450
575.63	22.800
575.97	23.090
576.30	22.576
576.64	22.357
576.98	23.007
577.31	22.755
577.65	23.380
577.98	23.343
578.32	23.331
578.66	23.407
578.99	23.408
579.33	23.099
579.67	22.756
580.00	22.927
580.34	22.513
580.67	22.529
581.01	22.826
581.35	22.657
581.68	23.549
582.02	23.599
582.35	24.334
582.69	24.239
583.02	24.295
583.36	23.722
583.70	23.290
584.03	22.942
584.37	22.315
584.70	22.445
585.04	22.739
585.37	22.846
585.71	23.258
586.04	23.910
586.38	23.445
586.72	22.913
587.05	23.356
587.39	24.134
587.72	23.971
588.06	24.275
588.39	24.222
588.73	23.201
589.06	23.166
589.40	23.540
589.73	23.233
590.07	23.574
590.40	23.022
590.73	22.623
591.07	23.008
591.40	21.928
591.74	22.337
592.07	22.493
592.41	22.555
592.74	22.826
593.08	23.758
593.41	24.118
593.75	24.080
594.08	24.174
594.41	24.135
594.75	23.813
595.08	23.217
595.42	23.669
595.75	24.023
596.09	23.755
596.42	23.898
596.75	23.543
597.09	23.838
597.42	22.765
597.75	22.736
598.09	22.659
598.42	23.361
598.76	22.239
599.09	23.033
599.42	23.667
599.76	23.836
600.09	24.091
600.42	23.524
600.76	23.646
601.09	23.133
601.42	23.996
601.76	23.586
602.09	23.553
602.42	22.392
602.76	23.100
603.09	23.385
603.42	23.844
603.76	23.221
604.09	24.308
604.42	23.853
604.76	23.288
605.09	23.335
605.42	22.847
605.75	22.769
606.09	23.703
606.42	22.838
606.75	23.201
607.09	23.233
607.42	23.314
607.75	23.173
608.08	22.810
608.42	23.136
608.75	23.549
609.08	23.217
609.41	22.673
609.75	22.321
610.08	23.395
610.41	22.642
610.74	22.269
611.07	22.691
611.41	23.184
611.74	22.910
612.07	22.160
612.40	21.578
612.73	22.641
613.07	21.711
613.40	22.281
613.73	22.051
614.06	22.424
614.39	22.352
614.72	22.271
615.06	21.848
615.39	22.281
615.72	22.844
616.05	22.875
616.38	22.250
616.71	21.996
617.05	21.619
617.38	21.883
617.71	22.192
618.04	22.828
618.37	22.077
618.70	22.511
619.03	21.744
619.36	20.838
619.69	21.525
620.03	20.778
620.36	20.920
620.69	20.790
621.02	21.522
621.35	21.045
621.68	20.824
622.01	20.427
622.34	19.665
622.67	20.893
623.00	19.096
623.33	21.102
623.66	21.206
623.99	21.198
624.32	21.572
624.65	19.949
624.99	21.001
625.32	21.816
625.65	21.106
625.98	20.068
626.31	20.128
626.64	20.586
626.97	19.430
627.30	19.058
627.63	19.880
627.96	20.420
628.29	19.222
628.62	18.556
628.95	18.493
629.28	17.757
629.61	18.939
629.94	17.657
630.26	18.898
630.59	19.085
630.92	18.355
631.25	19.141
631.58	19.209
631.91	19.400
632.24	17.867
632.57	18.786
632.90	17.854
633.23	18.367
633.56	16.122
633.89	17.459
634.22	17.775
634.55	17.328
634.88	16.667
635.20	17.976
635.53	16.723
635.86	17.768
636.19	17.497
636.52	17.722
636.85	15.935
637.18	17.152
637.51	17.419
637.83	18.605
638.16	16.820
638.49	15.258
638.82	17.475
639.15	16.724
639.48	18.245
639.81	19.400
640.13	16.372
640.46	15.636
640.79	15.196
641.12	15.404
641.45	15.935
641.77	18.100
642.10	14.698
642.43	15.559
642.76	17.751
643.09	14.110
643.41	14.846
643.74	13.793
644.07	17.517
644.40	13.861
644.73	14.224
645.05	14.391
645.38	15.252
645.71	14.516
646.04	17.360
646.36	14.015
646.69	12.883
647.02	14.985
647.35	14.504
647.67	13.366
648.00	15.287
648.33	15.916
648.66	15.121
648.98	16.190
649.31	17.050
649.64	17.795
649.96	17.109
650.29	14.604
650.62	16.973
650.94	12.312
651.27	13.323
651.60	14.620
651.92	16.869
652.25	15.051
652.58	14.856
652.90	14.244
653.23	15.634
653.56	16.548
653.88	17.135
654.21	15.915
654.54	14.162
654.86	16.856
655.19	16.562
655.52	23.543
655.84	29.165
656.17	33.642
656.49	47.042
656.82	50.089
657.15	38.839
657.47	29.302
657.80	21.264
658.13	15.851
658.45	19.915
658.78	22.836
659.10	20.913
659.43	19.120
659.75	17.795
660.08	14.678
660.41	13.482
660.73	13.455
661.06	12.335
661.38	12.919
661.71	12.241
662.03	12.875
662.36	13.953
662.68	10.882
663.01	13.451
663.33	13.611
663.66	14.652
663.98	11.538
664.31	12.946
664.63	10.597
664.96	13.249
665.28	13.430
665.61	14.336
665.93	11.250
666.26	13.620
666.58	11.070
666.91	12.710
667.23	11.810
667.56	12.821
667.88	10.800
668.21	9.375
668.53	9.459
668.86	14.145
669.18	10.998
669.50	12.922
669.83	10.600
670.15	15.157
670.48	11.111
670.80	11.090
671.13	9.641
671.45	12.008
671.77	14.124
672.10	16.000
672.42	15.534
672.75	13.671
673.07	15.672
673.39	14.638
673.72	15.772
674.04	12.586
674.37	13.953
674.69	14.638
675.01	12.381
675.34	10.878
675.66	10.300
675.98	14.366
676.31	13.672
676.63	13.878
676.95	13.027
677.28	12.097
677.60	9.843
677.92	12.284
678.25	14.077
678.57	13.879
678.89	16.041
679.22	12.544
679.54	14.017
679.86	14.068
680.18	14.760
680.51	13.522
680.83	15.057
681.15	12.931
681.48	15.544
681.80	13.644
682.12	13.112
682.44	14.524
682.77	12.589
683.09	13.636
683.41	13.178
683.73	12.903
684.06	11.993
684.38	11.628
684.70	18.133
685.02	15.491
685.34	13.977
685.67	14.038
685.99	15.491
686.31	13.081
686.63	16.272
686.96	16.877
687.28	15.309
687.60	13.131
687.92	12.701
688.24	15.359
688.56	14.483
688.89	10.708
689.21	14.286
689.53	11.961
689.85	12.426
690.17	14.259
690.49	11.355
690.82	12.475
691.14	13.765
691.46	14.340
691.78	13.812
692.10	10.642
692.42	13.393
692.74	13.793
693.06	11.296
693.39	13.662
693.71	12.594
694.03	12.454
694.35	13.143
694.67	12.526
694.99	11.277
695.31	11.479
695.63	11.472
695.95	12.008
696.27	10.989
696.59	12.611
696.91	10.360
697.23	14.286
697.56	11.202
697.88	12.311
698.20	12.429
698.52	15.530
698.84	15.177
699.16	14.490
699.48	11.715
699.80	10.851
700.12	10.699
700.44	11.060
700.76	11.876
701.08	9.685
701.40	8.549
701.72	10.945
702.04	12.834
702.36	7.068
702.68	10.758
703.00	10.024
703.32	9.852
703.64	13.203
703.96	11.217
704.28	10.565
704.60	11.139
704.91	11.224
705.23	9.315
705.55	7.521
705.87	9.697
706.19	3.988
706.51	3.916
706.83	7.781
707.15	12.169
707.47	12.150
707.79	11.135
708.11	9.534
708.43	11.183
708.74	11.607
709.06	13.225
709.38	11.033
709.70	12.407
710.02	8.786
710.34	6.649
710.66	6.425
710.98	7.650
711.29	5.769
711.61	9.887
711.93	9.402
712.25	9.730
712.57	10.324
712.89	10.000
713.20	6.213
713.52	8.960
713.84	8.357
714.16	11.053
714.48	11.082
714.80	13.766
715.11	9.974
715.43	12.732
715.75	11.316
716.07	7.735
716.39	8.743
716.70	7.229
717.02	8.525
717.34	2.439
717.66	5.705
717.97	2.397
718.29	5.498
718.61	3.947
718.93	7.120
719.24	7.764
719.56	6.442
719.88	6.607
720.20	5.806
720.51	7.143
720.83	7.500
721.15	6.579
721.46	5.137
721.78	5.667
722.10	4.207
722.42	3.691
722.73	5.484
723.05	6.316
723.37	8.333
723.68	5.735
724.00	9.025
724.32	5.986
724.63	5.944
724.95	8.156
725.27	5.923
725.58	4.240
725.90	11.379
726.22	8.464
726.53	9.740
726.85	9.434
727.16	7.553
727.48	9.786
727.80	4.967
728.11	5.300
728.43	8.418
728.74	8.361
729.06	6.291
729.38	9.416
729.69	7.383
730.01	8.333
730.32	8.182
730.64	9.119
730.96	6.211
731.27	13.128
731.59	10.440
731.90	9.610
732.22	8.594
732.53	6.354
732.85	6.857
733.16	9.971
733.48	5.488
733.80	8.635
734.11	10.541
734.43	14.054
734.74	15.696
735.06	7.789
735.37	10.811
735.69	10.000
736.00	11.582
736.32	9.434
736.63	7.778
736.95	7.759
737.26	12.121
737.58	6.061
737.89	12.353
738.21	8.869
738.52	7.213
738.83	11.263
739.15	2.482
739.46	7.483
739.78	9.816
740.09	10.888
740.41	11.662
740.72	8.000
741.04	5.825
741.35	8.421
741.66	2.353
741.98	7.377
742.29	2.929
742.61	3.947
742.92	0.769
743.23	7.942
743.55	5.039
743.86	5.600
744.18	2.066
744.49	-3.376
744.80	5.350
745.12	2.110
745.43	5.285
745.74	3.017
746.06	1.695
746.37	4.219
746.68	6.504
747.00	5.833
747.31	4.292
747.62	7.308
747.94	4.858
748.25	4.819
748.56	4.082
748.88	0.427
749.19	5.603
749.50	-0.433
749.82	6.426
750.13	9.964
750.44	3.333
750.75	9.538
751.07	8.615
751.38	10.095
751.69	8.626
752.01	6.472
752.32	11.438
752.63	7.483
752.94	6.920
753.26	2.230
753.57	4.815
753.88	3.745
754.19	9.003
754.51	5.466
754.82	11.897
755.13	7.869
755.44	6.143
755.75	9.539
756.07	9.851
756.38	9.119
756.69	9.337
757.00	9.141
757.31	11.202
757.63	9.974
757.94	12.676
758.25	14.447
758.56	11.983
758.87	9.773
759.18	11.200
759.50	14.448
759.81	12.325
760.12	14.016
760.43	13.021
760.74	12.315
761.05	9.000
761.36	12.048
761.67	10.406
761.99	11.622
762.30	10.366
762.61	5.611
762.92	4.478
763.23	8.240
763.54	9.712
763.85	9.278
764.16	8.418
764.47	10.563
764.78	10.863
765.10	12.317
765.41	12.051
765.72	14.286
766.03	13.277
766.34	9.404
766.65	2.439
766.96	4.382
767.27	2.765
767.58	-4.975
767.89	1.442
768.20	1.878
768.51	0.463
768.82	9.639
769.13	7.955
769.44	7.308
769.75	10.108
770.06	6.154
770.37	7.874
770.68	5.106
770.99	6.073
771.30	11.111
771.61	6.844
771.92	9.259
772.23	4.049
772.54	-1.389
772.85	8.295
773.16	7.143
773.47	-1.587
773.78	-7.568
774.09	4.545
774.39	4.000
774.70	-2.732
775.01	-11.585
775.32	-5.294
775.63	-3.681
775.94	-8.917
776.25	-8.387
776.56	-4.487
776.87	-4.082
777.18	-6.897
777.48	-7.692
777.79	-11.486
778.10	-13.235
778.41	-0.694
778.72	-5.517
779.03	-8.642
779.34	-3.636
779.65	-1.036
779.95	0.000
780.26	-4.545
780.57	-5.806
780.88	-1.449
781.19	0.000
781.50	4.118
781.80	2.151
782.11	0.000
782.42	-2.020
782.73	-4.790
783.04	0.000
783.34	-8.485
783.65	-11.111
783.96	-3.106
784.27	2.976
784.57	0.662
784.88	-10.714
785.19	-15.748
785.50	-13.386
785.81	-10.526
786.11	-3.077
786.42	-7.194
786.73	-3.597
787.04	-10.526
787.34	-10.656
787.65	-14.400
787.96	-6.716
788.26	-3.497
788.57	-1.399
788.88	-9.868
789.19	0.000
789.49	-11.644
789.80	-10.638
790.11	-7.874
790.41	-14.062
790.72	-18.644
791.03	-34.951
791.33	-12.174
791.64	-15.789
791.95	-23.214
792.25	-15.238
792.56	-20.536
792.87	-30.208
793.17	-6.250
793.48	-19.792
793.79	-32.530
794.09	-18.349
794.40	-12.844
794.70	-4.762
795.01	-10.390
795.32	-4.110
795.62	-0.704
795.93	-11.364
796.23	-13.115
796.54	-15.179
796.85	-27.660
797.15	-29.348
797.46	-38.356
797.76	-36.250
798.07	-18.478
798.37	-28.866
798.68	-32.468
798.99	-29.885
799.29	-30.337
799.60	-17.021
799.90	-27.711
800.21	-46.154
800.51	-46.269
800.82	-47.059
801.12	-68.493
801.43	-54.412
801.73	-72.881
802.04	-40.909
802.34	-66.667
802.65	-61.017
802.95	-46.269
803.26	-50.847
803.56	-43.836
803.87	-44.286
804.17	-39.726
804.48	-61.404
804.78	-36.111
805.09	-65.517
805.39	-41.892
805.70	-38.028
806.00	-26.829
806.30	-31.325
806.61	-35.616
806.91	-18.269
807.22	-26.667
807.52	-32.184
807.83	-16.667
808.13	-21.687
808.43	-20.225
808.74	-42.500
809.04	-58.824
809.35	-22.667
809.65	-38.571
809.95	-30.137
810.26	-59.649
810.56	-48.276
810.86	-27.941
811.17	-35.088
811.47	-57.377
811.77	-62.222
812.08	-49.153
812.38	-33.333
812.69	-50.000
812.99	-62.264
813.29	-123.077
813.59	-50.000
813.90	-40.351
814.20	-58.182
814.50	-25.352
814.81	-25.641
815.11	-45.902
815.41	-44.776
815.72	-39.655
816.02	-48.214
816.32	-68.889
816.62	-84.091
816.93	-80.000
817.23	-51.852
817.53	-61.702
817.84	-69.048
818.14	-97.059
818.44	-61.224
818.74	-71.111
819.04	-107.692
819.35	-97.143
819.65	-165.385
819.95	-47.170
820.25	-60.000
820.56	-80.952
820.86	-137.500
821.16	-84.615
821.46	-102.326
821.76	-78.000
822.07	-51.786
822.37	-58.696
822.67	-63.830
822.97	-110.811
823.27	-77.500
823.57	-61.224
823.88	-66.667
824.18	-70.000
824.48	-130.000
824.78	-152.000
825.08	-118.182
825.38	-55.556
825.69	-51.064
825.99	-94.444
826.29	-151.429
826.59	-94.872
826.89	-100.000
827.19	-86.000
827.49	-85.294
827.79	-52.083
828.09	-113.514
828.39	-156.667
828.70	-70.732
829.00	-74.419
829.30	-103.571
829.60	-64.706
829.90	-67.391
830.20	-108.571
830.50	-127.586
830.80	-216.667
831.10	-157.692
831.40	-111.765
831.70	-171.429
832.00	-96.774
832.30	-329.412
832.60	-179.167
832.90	-384.615
833.20	-226.316
833.50	-225.000
833.80	-221.053
834.10	-242.857
834.40	-94.444
834.70	-90.625
835.00	-105.714
835.30	-88.235
835.60	-133.333
835.90	-148.000
836.20	-222.727
836.50	-124.000
836.80	-130.303
837.10	-162.963
837.40	-148.148
837.70	-250.000
838.00	-107.143
838.30	-204.348
838.60	-151.724
838.90	-321.429
839.19	-182.609
839.49	-391.667
839.79	-143.478
840.09	-262.500
840.39	-210.000
840.69	-74.194
840.99	-153.571
841.29	-266.667
841.59	-231.579
841.88	-74.359
842.18	-150.000
842.48	-460.000
842.78	-200.000
843.08	-106.667
843.38	-103.226
843.68	-188.889
843.97	-100.000
844.27	-256.250
844.57	-263.158
844.87	-460.000
845.17	-260.000
845.47	-109.524
845.76	-176.190
846.06	-455.556
846.36	-252.941
846.66	-176.923
846.96	-286.667
847.25	-182.353
847.55	-134.783
847.85	-125.000
848.15	-188.235
848.44	-390.909
848.74	-180.952
849.04	-166.667
849.34	-225.000
849.63	-139.130
849.93	2450.000
850.23	-260.000
850.53	-126.923
850.82	-427.273
851.12	-150.000
851.42	-381.818
851.71	-215.385
852.01	-210.000
852.31	-276.923
852.61	-189.474
852.90	-391.667
853.20	-200.000
853.50	-477.778
853.79	-180.952
854.09	-181.818
854.39	-441.667
854.68	-112.903
854.98	-165.385
855.28	-211.111
855.57	-135.714
855.87	-128.000
856.17	-177.273
856.46	-144.444
856.76	-216.667
857.05	-182.609
857.35	-195.833
857.65	-323.077
857.94	-204.762
858.24	-125.926
858.53	-147.826
858.83	-188.235
859.13	-264.706
859.42	-211.765
859.72	-278.571
860.01	-210.000
860.31	-455.556
860.60	-330.000
860.90	-213.333
861.20	-172.222
861.49	-284.615
861.79	-113.333
862.08	-376.923
862.38	-100.000
862.67	-182.353
862.97	-287.500
863.26	-455.556
863.56	-310.000
863.85	-372.727
864.15	-233.333
864.44	-1200.000
864.74	-285.714
865.03	-231.250
865.33	-440.000
865.62	-116.129
865.92	-154.545
866.21	-130.435
866.51	-264.286
866.80	-740.000
867.10	-358.333
867.39	-325.000
867.69	4700.000
867.98	-385.714
868.27	-211.765
868.57	-5200.000
868.86	-440.000
869.16	-200.000
869.45	-154.167
869.75	-309.091
870.04	-557.143
870.33	-250.000
870.63	-642.857
870.92	-975.000
871.22	-612.500
871.51	-400.000
871.80	-1500.000
872.10	-1950.000
>>>>>End Processed Spectral Data<<<<<
