SpectraSuite Data File
++++++++++++++++++++++++++++++++++++
Date: Thu May 14 14:39:16 PDT 2015
User: schluterlab
Dark Spectrum Present: Yes
Reference Spectrum Present: Yes
Number of Sampled Component Spectra: 1
Spectrometers: USB2E3373
Integration Time (usec): 3000 (USB2E3373)
Spectra Averaged: 3 (USB2E3373)
Boxcar Smoothing: 0 (USB2E3373)
Correct for Electrical Dark: No (USB2E3373)
Strobe/Lamp Enabled: No (USB2E3373)
Correct for Detector Non-linearity: No (USB2E3373)
Correct for Stray Light: No (USB2E3373)
Number of Pixels in Processed Spectrum: 2048
>>>>>Begin Processed Spectral Data<<<<<
178.53	0.000
178.91	-157.143
179.29	-300.000
179.67	800.000
180.04	-50.000
180.42	-170.000
180.80	-80.000
181.18	1600.000
181.56	1400.000
181.94	-275.000
182.31	375.000
182.69	-66.667
183.07	650.000
183.45	-150.000
183.83	233.333
184.20	500.000
184.58	-1700.000
184.96	275.000
185.34	177.778
185.72	480.000
186.09	-44.444
186.47	-650.000
186.85	-20.000
187.23	0.000
187.61	500.000
187.98	-240.000
188.36	-250.000
188.74	200.000
189.12	400.000
189.49	81.250
189.87	250.000
190.25	188.889
190.63	240.000
191.00	11.111
191.38	0.000
191.76	300.000
192.14	283.333
192.51	-400.000
192.89	300.000
193.27	0.000
193.65	128.571
194.02	500.000
194.40	185.714
194.78	-142.857
195.15	0.000
195.53	145.455
195.91	0.000
196.29	400.000
196.66	76.923
197.04	600.000
197.42	285.714
197.79	500.000
198.17	62.500
198.55	228.571
198.92	155.556
199.30	112.500
199.68	190.909
200.05	178.571
200.43	800.000
200.81	-57.143
201.18	0.000
201.56	-55.556
201.94	0.000
202.31	-200.000
202.69	88.889
203.07	-1800.000
203.44	66.667
203.82	625.000
204.19	166.667
204.57	166.667
204.95	100.000
205.32	1700.000
205.70	-300.000
206.08	200.000
206.45	250.000
206.83	-140.000
207.20	383.333
207.58	20.000
207.96	183.333
208.33	116.667
208.71	-75.000
209.08	266.667
209.46	0.000
209.84	-216.667
210.21	-500.000
210.59	-450.000
210.96	-400.000
211.34	450.000
211.71	200.000
212.09	-100.000
212.46	0.000
212.84	-200.000
213.22	20.000
213.59	575.000
213.97	120.000
214.34	400.000
214.72	-50.000
215.09	150.000
215.47	0.000
215.84	-128.571
216.22	250.000
216.59	300.000
216.97	220.000
217.34	400.000
217.72	212.500
218.09	425.000
218.47	500.000
218.84	0.000
219.22	-360.000
219.59	76.471
219.97	120.000
220.34	-550.000
220.72	100.000
221.09	153.846
221.47	300.000
221.84	150.000
222.22	0.000
222.59	0.000
222.97	250.000
223.34	40.000
223.72	800.000
224.09	275.000
224.46	375.000
224.84	320.000
225.21	142.857
225.59	275.000
225.96	175.000
226.34	80.769
226.71	66.667
227.08	600.000
227.46	0.000
227.83	375.000
228.21	94.737
228.58	-162.500
228.95	-400.000
229.33	183.333
229.70	180.000
230.08	121.053
230.45	10.000
230.82	533.333
231.20	78.571
231.57	116.667
231.95	136.364
232.32	154.545
232.69	125.000
233.07	475.000
233.44	64.706
233.81	130.000
234.19	105.556
234.56	100.000
234.93	96.552
235.31	126.316
235.68	122.222
236.05	85.000
236.43	119.231
236.80	124.000
237.17	96.296
237.55	78.788
237.92	110.000
238.29	77.419
238.67	56.818
239.04	72.222
239.41	59.524
239.79	56.522
240.16	55.556
240.53	63.043
240.91	64.706
241.28	67.213
241.65	61.194
242.02	72.973
242.40	60.000
242.77	69.333
243.14	47.561
243.51	46.053
243.89	47.436
244.26	57.426
244.63	47.059
245.00	57.944
245.38	50.877
245.75	42.478
246.12	49.206
246.49	42.636
246.87	47.857
247.24	45.033
247.61	52.632
247.98	49.664
248.36	46.296
248.73	44.172
249.10	47.541
249.47	45.274
249.84	51.832
250.22	44.560
250.59	44.444
250.96	47.273
251.33	46.429
251.70	49.145
252.08	47.917
252.45	41.803
252.82	47.521
253.19	42.187
253.56	43.726
253.94	45.385
254.31	45.455
254.68	47.203
255.05	48.534
255.42	39.116
255.79	39.159
256.16	41.722
256.54	43.377
256.91	45.574
257.28	45.246
257.65	44.586
258.02	41.888
258.39	41.880
258.76	47.706
259.14	47.126
259.51	44.380
259.88	44.193
260.25	45.000
260.62	42.740
260.99	46.995
261.36	45.308
261.73	45.093
262.10	44.231
262.47	46.113
262.85	48.485
263.22	41.558
263.59	41.842
263.96	42.199
264.33	44.501
264.70	44.444
265.07	45.823
265.44	44.218
265.81	43.519
266.18	44.218
266.55	43.750
266.92	40.547
267.29	45.295
267.66	44.568
268.03	46.070
268.40	41.962
268.77	46.697
269.14	43.172
269.51	44.737
269.88	43.238
270.25	41.247
270.62	45.992
270.99	44.848
271.36	41.782
271.73	42.829
272.10	44.289
272.47	44.890
272.84	43.173
273.21	41.683
273.58	43.750
273.95	41.346
274.32	40.304
274.69	39.845
275.06	41.941
275.43	42.144
275.80	42.504
276.17	42.407
276.54	41.604
276.91	41.145
277.28	42.495
277.65	41.293
278.02	40.257
278.39	41.848
278.76	40.773
279.13	42.908
279.50	42.268
279.87	38.819
280.23	36.796
280.60	42.034
280.97	40.954
281.34	42.105
281.71	43.993
282.08	39.867
282.45	40.426
282.82	40.345
283.19	41.195
283.56	38.852
283.92	41.141
284.29	41.706
284.66	40.887
285.03	39.263
285.40	41.422
285.77	40.402
286.14	41.069
286.51	38.204
286.87	40.126
287.24	40.211
287.61	37.070
287.98	38.822
288.35	39.053
288.72	38.462
289.08	38.507
289.45	36.391
289.82	38.855
290.19	37.356
290.56	36.338
290.93	38.231
291.29	37.052
291.66	36.501
292.03	35.414
292.40	35.918
292.77	35.849
293.13	35.318
293.50	33.246
293.87	34.631
294.24	35.067
294.60	34.513
294.97	33.423
295.34	34.443
295.71	33.544
296.08	31.395
296.44	33.824
296.81	34.592
297.18	32.877
297.55	31.132
297.91	33.215
298.28	31.517
298.65	31.629
299.02	31.405
299.38	30.664
299.75	30.374
300.12	30.671
300.48	31.682
300.85	30.146
301.22	31.655
301.59	30.594
301.95	30.734
302.32	31.889
302.69	29.901
303.05	31.447
303.42	29.601
303.79	30.625
304.15	30.705
304.52	29.175
304.89	29.529
305.25	29.917
305.62	29.154
305.99	29.175
306.35	30.645
306.72	29.162
307.09	28.934
307.45	30.538
307.82	29.566
308.19	29.566
308.55	28.544
308.92	28.140
309.29	28.831
309.65	29.045
310.02	28.218
310.38	28.642
310.75	30.485
311.12	28.955
311.48	29.326
311.85	29.250
312.22	28.273
312.58	27.418
312.95	28.011
313.31	27.191
313.68	28.938
314.05	28.997
314.41	29.235
314.78	29.155
315.14	27.858
315.51	30.194
315.87	29.253
316.24	29.863
316.61	29.130
316.97	27.511
317.34	26.720
317.70	28.559
318.07	27.337
318.43	28.231
318.80	28.679
319.16	27.983
319.53	26.307
319.89	27.432
320.26	28.826
320.62	27.660
320.99	28.809
321.35	28.189
321.72	28.465
322.08	29.306
322.45	29.901
322.81	29.603
323.18	28.938
323.54	28.534
323.91	28.826
324.27	28.313
324.64	28.631
325.00	27.861
325.37	28.256
325.73	28.595
326.10	28.143
326.46	29.560
326.83	29.464
327.19	27.638
327.56	29.012
327.92	27.537
328.29	27.984
328.65	27.387
329.01	28.596
329.38	28.307
329.74	28.682
330.11	28.596
330.47	28.728
330.84	28.596
331.20	29.083
331.56	28.943
331.93	27.866
332.29	30.085
332.66	29.568
333.02	29.229
333.38	27.936
333.75	27.862
334.11	29.191
334.48	28.795
334.84	28.887
335.20	27.624
335.57	28.246
335.93	28.347
336.29	27.121
336.66	28.427
337.02	28.595
337.38	27.466
337.75	28.347
338.11	28.427
338.47	28.371
338.84	28.003
339.20	27.296
339.56	27.595
339.93	26.929
340.29	26.892
340.65	26.521
341.02	26.975
341.38	28.052
341.74	28.491
342.11	27.514
342.47	26.450
342.83	26.892
343.20	27.555
343.56	27.907
343.92	27.062
344.28	28.125
344.65	26.822
345.01	28.081
345.37	27.760
345.73	26.422
346.10	27.847
346.46	27.532
346.82	27.940
347.19	27.502
347.55	27.314
347.91	27.786
348.27	26.935
348.63	27.037
349.00	25.951
349.36	27.509
349.72	27.232
350.08	27.043
350.45	26.540
350.81	26.697
351.17	27.143
351.53	28.052
351.89	27.183
352.26	26.493
352.62	26.493
352.98	26.336
353.34	25.915
353.70	26.194
354.07	26.453
354.43	26.044
354.79	26.028
355.15	26.711
355.51	26.096
355.87	25.355
356.24	27.300
356.60	25.499
356.96	26.464
357.32	25.651
357.68	26.720
358.04	25.225
358.40	24.851
358.77	26.096
359.13	25.406
359.49	25.502
359.85	26.178
360.21	24.964
360.57	25.844
360.93	24.894
361.29	25.614
361.66	25.127
362.02	26.792
362.38	26.072
362.74	25.908
363.10	26.754
363.46	26.177
363.82	25.497
364.18	25.968
364.54	24.066
364.90	25.418
365.26	24.966
365.62	25.533
365.98	24.234
366.35	25.503
366.71	25.782
367.07	25.440
367.43	25.148
367.79	26.012
368.15	25.886
368.51	24.899
368.87	24.820
369.23	24.467
369.59	25.000
369.95	25.558
370.31	25.996
370.67	25.928
371.03	24.861
371.39	24.715
371.75	25.860
372.11	25.745
372.47	24.238
372.83	25.524
373.19	25.083
373.55	24.593
373.91	24.676
374.27	24.386
374.63	24.019
374.99	25.729
375.35	25.844
375.71	24.968
376.07	25.242
376.42	24.496
376.78	24.674
377.14	25.140
377.50	25.553
377.86	25.185
378.22	25.749
378.58	25.446
378.94	25.235
379.30	24.956
379.66	25.456
380.02	24.466
380.38	24.942
380.74	24.620
381.09	25.029
381.45	25.739
381.81	26.230
382.17	25.178
382.53	24.269
382.89	24.379
383.25	24.736
383.61	25.116
383.97	24.735
384.32	25.897
384.68	24.884
385.04	25.448
385.40	25.575
385.76	25.791
386.12	25.494
386.48	25.647
386.83	25.566
387.19	24.971
387.55	24.941
387.91	24.715
388.27	25.520
388.62	24.570
388.98	24.647
389.34	25.516
389.70	25.857
390.06	25.044
390.42	25.181
390.77	26.069
391.13	24.824
391.49	25.302
391.85	25.939
392.20	25.741
392.56	25.576
392.92	24.537
393.28	24.931
393.64	24.469
393.99	26.031
394.35	25.584
394.71	24.970
395.07	24.671
395.42	25.128
395.78	25.594
396.14	25.253
396.50	26.188
396.85	25.343
397.21	25.444
397.57	24.794
397.92	26.289
398.28	24.498
398.64	24.886
399.00	24.921
399.35	24.869
399.71	24.891
400.07	26.277
400.42	25.553
400.78	25.405
401.14	25.157
401.49	24.901
401.85	25.000
402.21	25.492
402.57	25.587
402.92	25.709
403.28	24.297
403.63	24.821
403.99	24.406
404.35	24.673
404.70	24.986
405.06	24.891
405.42	25.644
405.77	24.973
406.13	24.095
406.49	24.944
406.84	25.319
407.20	24.203
407.55	24.470
407.91	24.827
408.27	24.441
408.62	24.956
408.98	25.131
409.34	23.754
409.69	25.216
410.05	24.912
410.40	25.696
410.76	24.958
411.11	25.774
411.47	25.000
411.83	25.632
412.18	25.241
412.54	24.956
412.89	24.389
413.25	24.549
413.60	24.411
413.96	24.942
414.31	24.986
414.67	24.747
415.03	24.308
415.38	24.527
415.74	24.252
416.09	25.787
416.45	24.609
416.80	24.051
417.16	25.096
417.51	24.720
417.87	23.544
418.22	25.090
418.58	24.102
418.93	25.437
419.29	24.414
419.64	23.890
420.00	24.748
420.35	24.930
420.71	24.698
421.06	25.129
421.42	25.115
421.77	24.179
422.12	24.683
422.48	24.731
422.83	25.246
423.19	24.881
423.54	24.945
423.90	24.517
424.25	25.227
424.61	24.684
424.96	23.888
425.31	24.469
425.67	24.477
426.02	24.958
426.38	25.488
426.73	24.219
427.09	25.317
427.44	24.522
427.79	24.268
428.15	24.486
428.50	23.933
428.85	24.225
429.21	24.787
429.56	24.186
429.92	24.423
430.27	24.096
430.62	23.986
430.98	24.791
431.33	24.585
431.68	23.803
432.04	24.886
432.39	24.371
432.74	25.114
433.10	25.203
433.45	24.080
433.80	24.249
434.16	24.432
434.51	24.306
434.86	25.081
435.22	25.133
435.57	25.236
435.92	24.763
436.28	25.370
436.63	25.341
436.98	24.369
437.34	25.705
437.69	25.261
438.04	24.960
438.39	25.043
438.75	24.571
439.10	25.106
439.45	25.154
439.81	24.633
440.16	24.021
440.51	24.805
440.86	24.236
441.22	24.866
441.57	25.105
441.92	24.636
442.27	24.596
442.63	24.093
442.98	25.454
443.33	25.039
443.68	25.025
444.03	25.212
444.39	24.965
444.74	24.860
445.09	23.568
445.44	24.447
445.79	24.330
446.15	25.231
446.50	25.220
446.85	24.854
447.20	24.758
447.55	24.843
447.91	24.031
448.26	24.260
448.61	24.283
448.96	26.180
449.31	24.284
449.66	24.183
450.02	24.789
450.37	25.306
450.72	24.435
451.07	24.658
451.42	24.783
451.77	24.236
452.12	25.339
452.47	24.302
452.83	25.845
453.18	24.577
453.53	24.469
453.88	24.682
454.23	24.972
454.58	25.305
454.93	25.910
455.28	25.166
455.63	24.616
455.98	24.469
456.34	23.793
456.69	24.397
457.04	25.177
457.39	25.333
457.74	24.832
458.09	24.327
458.44	24.838
458.79	24.652
459.14	24.908
459.49	25.354
459.84	24.187
460.19	24.320
460.54	25.270
460.89	24.881
461.24	25.000
461.59	25.235
461.94	24.073
462.29	25.420
462.64	25.830
462.99	25.361
463.34	25.049
463.69	24.619
464.04	25.459
464.39	26.345
464.74	25.428
465.09	24.164
465.44	25.000
465.79	24.326
466.14	24.805
466.49	24.842
466.84	25.014
467.19	24.740
467.54	24.736
467.89	24.713
468.24	24.875
468.59	24.783
468.94	24.301
469.29	24.115
469.64	24.031
469.99	24.156
470.34	25.124
470.68	25.359
471.03	25.409
471.38	24.591
471.73	24.187
472.08	25.952
472.43	24.744
472.78	25.189
473.13	24.147
473.48	25.136
473.83	24.782
474.17	24.502
474.52	24.474
474.87	24.862
475.22	24.901
475.57	24.247
475.92	25.436
476.27	24.388
476.61	24.714
476.96	24.818
477.31	24.950
477.66	25.236
478.01	24.809
478.36	24.128
478.70	24.778
479.05	25.051
479.40	25.370
479.75	24.784
480.10	23.543
480.45	24.430
480.79	25.624
481.14	24.862
481.49	24.080
481.84	25.413
482.19	24.473
482.53	25.055
482.88	24.856
483.23	24.366
483.58	24.978
483.92	23.803
484.27	24.767
484.62	24.216
484.97	24.417
485.31	23.654
485.66	23.224
486.01	22.401
486.36	22.991
486.70	23.876
487.05	24.861
487.40	24.518
487.75	24.962
488.09	25.416
488.44	25.000
488.79	25.261
489.13	25.091
489.48	23.728
489.83	24.588
490.17	24.382
490.52	24.343
490.87	24.831
491.22	24.263
491.56	25.171
491.91	24.684
492.26	24.535
492.60	25.098
492.95	24.704
493.30	23.935
493.64	24.704
493.99	24.737
494.34	24.956
494.68	24.497
495.03	24.670
495.37	25.877
495.72	24.671
496.07	25.110
496.41	24.453
496.76	24.854
497.11	24.756
497.45	24.558
497.80	24.389
498.14	24.354
498.49	24.265
498.84	25.366
499.18	24.561
499.53	25.067
499.87	25.055
500.22	24.132
500.56	24.247
500.91	25.080
501.26	24.636
501.60	24.304
501.95	24.837
502.29	24.221
502.64	24.749
502.98	24.202
503.33	25.054
503.67	23.375
504.02	24.037
504.36	24.531
504.71	24.667
505.06	25.148
505.40	24.589
505.75	24.818
506.09	24.401
506.44	25.023
506.78	25.000
507.13	25.127
507.47	25.059
507.82	24.716
508.16	24.904
508.51	23.957
508.85	24.421
509.19	24.870
509.54	25.120
509.88	24.672
510.23	24.964
510.57	24.553
510.92	25.109
511.26	24.772
511.61	23.612
511.95	23.719
512.30	25.603
512.64	24.738
512.98	25.263
513.33	25.504
513.67	24.579
514.02	24.834
514.36	25.217
514.70	25.677
515.05	25.756
515.39	25.249
515.74	26.087
516.08	25.251
516.42	26.478
516.77	24.816
517.11	24.910
517.46	25.769
517.80	25.067
518.14	25.082
518.49	25.542
518.83	25.173
519.17	24.125
519.52	25.314
519.86	25.607
520.20	25.453
520.55	24.754
520.89	24.268
521.23	25.405
521.58	25.254
521.92	25.326
522.26	25.544
522.61	25.463
522.95	25.606
523.29	25.517
523.64	25.617
523.98	26.184
524.32	25.903
524.66	25.327
525.01	24.745
525.35	24.296
525.69	25.174
526.04	25.431
526.38	25.287
526.72	26.125
527.06	25.865
527.41	25.598
527.75	25.713
528.09	24.852
528.43	24.808
528.78	24.451
529.12	25.631
529.46	24.845
529.80	25.286
530.15	25.275
530.49	26.097
530.83	26.151
531.17	25.388
531.51	24.729
531.86	25.781
532.20	26.280
532.54	25.314
532.88	24.909
533.22	25.869
533.57	25.447
533.91	23.962
534.25	25.438
534.59	25.690
534.93	25.523
535.27	25.070
535.62	25.753
535.96	25.276
536.30	25.676
536.64	25.586
536.98	25.461
537.32	26.049
537.66	25.764
538.01	25.438
538.35	25.335
538.69	25.240
539.03	25.567
539.37	25.088
539.71	25.225
540.05	25.300
540.39	24.756
540.73	25.197
541.07	25.567
541.42	25.753
541.76	24.437
542.10	25.030
542.44	24.604
542.78	25.182
543.12	24.970
543.46	25.458
543.80	25.060
544.14	25.434
544.48	25.887
544.82	25.793
545.16	25.760
545.50	24.566
545.84	25.536
546.18	25.802
546.52	25.605
546.86	25.786
547.20	26.081
547.54	26.030
547.88	25.618
548.22	24.795
548.56	25.571
548.90	25.254
549.24	25.289
549.58	26.120
549.92	25.765
550.26	25.437
550.60	25.654
550.94	25.097
551.28	25.281
551.62	25.539
551.96	24.660
552.30	26.004
552.64	25.451
552.98	25.203
553.32	25.466
553.66	24.823
554.00	25.977
554.34	25.740
554.68	25.500
555.02	25.756
555.36	26.233
555.69	24.728
556.03	24.464
556.37	24.531
556.71	25.301
557.05	24.984
557.39	26.543
557.73	25.561
558.07	25.497
558.41	25.648
558.75	24.746
559.08	26.026
559.42	25.857
559.76	26.730
560.10	25.184
560.44	25.726
560.78	25.812
561.12	25.185
561.45	25.122
561.79	25.214
562.13	26.063
562.47	25.524
562.81	25.316
563.15	25.379
563.48	25.730
563.82	24.667
564.16	24.955
564.50	24.613
564.84	25.723
565.17	25.588
565.51	23.820
565.85	25.653
566.19	25.058
566.52	24.693
566.86	25.014
567.20	24.089
567.54	24.110
567.88	25.178
568.21	24.753
568.55	23.837
568.89	25.057
569.23	24.715
569.56	24.736
569.90	23.806
570.24	23.811
570.57	24.022
570.91	23.515
571.25	23.720
571.59	24.130
571.92	23.827
572.26	24.060
572.60	24.024
572.93	24.325
573.27	24.529
573.61	23.637
573.95	23.962
574.28	23.803
574.62	23.647
574.96	23.313
575.29	23.948
575.63	24.001
575.97	23.784
576.30	23.513
576.64	23.264
576.98	23.918
577.31	23.850
577.65	23.525
577.98	23.513
578.32	23.423
578.66	23.596
578.99	23.592
579.33	24.211
579.67	24.071
580.00	23.623
580.34	23.909
580.67	23.477
581.01	23.475
581.35	23.125
581.68	23.070
582.02	22.801
582.35	23.874
582.69	23.640
583.02	24.332
583.36	24.502
583.70	24.494
584.03	24.502
584.37	23.945
584.70	23.765
585.04	23.111
585.37	22.890
585.71	23.085
586.04	23.118
586.38	23.538
586.72	23.389
587.05	23.612
587.39	23.760
587.72	24.067
588.06	23.767
588.39	23.774
588.73	24.021
589.06	23.871
589.40	24.831
589.73	24.197
590.07	24.237
590.40	24.544
590.73	24.885
591.07	24.721
591.40	24.145
591.74	23.887
592.07	24.239
592.41	23.935
592.74	23.607
593.08	24.013
593.41	24.059
593.75	23.420
594.08	24.023
594.41	23.750
594.75	23.779
595.08	24.226
595.42	24.156
595.75	24.023
596.09	24.568
596.42	24.507
596.75	25.087
597.09	24.970
597.42	23.758
597.75	24.304
598.09	24.127
598.42	24.166
598.76	23.347
599.09	23.211
599.42	23.098
599.76	23.374
600.09	23.724
600.42	24.391
600.76	23.712
601.09	23.399
601.42	23.481
601.76	24.069
602.09	23.731
602.42	23.664
602.76	24.244
603.09	23.935
603.42	24.747
603.76	23.256
604.09	24.450
604.42	24.404
604.76	23.896
605.09	24.731
605.42	24.442
605.75	23.462
606.09	23.218
606.42	23.459
606.75	23.576
607.09	23.579
607.42	24.046
607.75	23.603
608.08	24.586
608.42	24.184
608.75	23.922
609.08	24.109
609.41	24.746
609.75	24.241
610.08	24.934
610.41	23.874
610.74	23.571
611.07	24.201
611.41	23.991
611.74	24.527
612.07	23.843
612.40	24.430
612.73	24.352
613.07	24.352
613.40	24.447
613.73	23.881
614.06	24.141
614.39	24.004
614.72	23.920
615.06	23.628
615.39	23.441
615.72	24.171
616.05	23.895
616.38	24.672
616.71	24.765
617.05	23.802
617.38	24.505
617.71	24.028
618.04	24.069
618.37	24.208
618.70	24.604
619.03	23.955
619.36	25.031
619.69	24.856
620.03	25.173
620.36	24.233
620.69	23.936
621.02	24.934
621.35	25.399
621.68	26.103
622.01	25.196
622.34	24.059
622.67	24.467
623.00	23.077
623.33	24.220
623.66	24.514
623.99	24.621
624.32	24.626
624.65	23.552
624.99	24.837
625.32	24.886
625.65	23.871
625.98	24.542
626.31	25.372
626.64	26.007
626.97	24.681
627.30	24.298
627.63	24.681
627.96	25.450
628.29	24.280
628.62	26.196
628.95	25.241
629.28	25.064
629.61	24.158
629.94	24.519
630.26	25.763
630.59	24.784
630.92	24.242
631.25	25.850
631.58	24.482
631.91	25.679
632.24	24.880
632.57	25.522
632.90	24.373
633.23	26.735
633.56	25.306
633.89	25.413
634.22	25.884
634.55	25.157
634.88	26.948
635.20	27.126
635.53	25.311
635.86	25.894
636.19	25.981
636.52	23.629
636.85	23.596
637.18	25.156
637.51	25.914
637.83	26.800
638.16	25.806
638.49	25.939
638.82	25.028
639.15	23.482
639.48	26.097
639.81	24.134
640.13	25.677
640.46	25.939
640.79	23.039
641.12	26.335
641.45	26.349
641.77	28.241
642.10	25.328
642.43	27.793
642.76	24.661
643.09	26.438
643.41	24.230
643.74	26.483
644.07	27.310
644.40	25.460
644.73	24.093
645.05	27.019
645.38	26.906
645.71	25.953
646.04	26.399
646.36	25.255
646.69	26.840
647.02	25.841
647.35	27.939
647.67	27.375
648.00	27.707
648.33	26.426
648.66	26.676
648.98	23.673
649.31	24.899
649.64	25.631
649.96	25.464
650.29	23.783
650.62	25.035
650.94	26.877
651.27	25.449
651.60	26.023
651.92	24.772
652.25	25.181
652.58	25.309
652.90	23.837
653.23	25.211
653.56	24.822
653.88	26.264
654.21	25.634
654.54	24.566
654.86	26.487
655.19	22.710
655.52	23.703
655.84	19.750
656.17	23.768
656.49	34.759
656.82	40.290
657.15	32.949
657.47	25.341
657.80	19.389
658.13	15.766
658.45	20.842
658.78	25.532
659.10	25.480
659.43	26.092
659.75	25.578
660.08	25.770
660.41	25.641
660.73	25.428
661.06	25.844
661.38	25.359
661.71	26.724
662.03	26.984
662.36	28.623
662.68	29.456
663.01	26.195
663.33	26.465
663.66	29.121
663.98	26.538
664.31	26.266
664.63	25.434
664.96	25.590
665.28	23.049
665.61	28.671
665.93	25.000
666.26	26.523
666.58	23.063
666.91	27.290
667.23	27.048
667.56	27.613
667.88	28.000
668.21	25.000
668.53	23.552
668.86	27.308
669.18	26.273
669.50	27.634
669.83	24.600
670.15	24.803
670.48	27.381
670.80	24.474
671.13	24.575
671.45	27.165
671.77	27.307
672.10	23.000
672.42	22.654
672.75	24.117
673.07	23.881
673.39	24.499
673.72	27.349
674.04	28.103
674.37	27.370
674.69	28.219
675.01	25.333
675.34	26.145
675.66	24.345
675.98	27.612
676.31	26.563
676.63	27.567
676.95	28.352
677.28	24.798
677.60	22.638
677.92	24.376
678.25	25.046
678.57	26.157
678.89	27.645
679.22	24.913
679.54	25.812
679.86	22.712
680.18	26.202
680.51	25.943
680.83	24.877
681.15	25.862
681.48	27.461
681.80	26.770
682.12	25.350
682.44	24.541
682.77	24.468
683.09	25.947
683.41	25.388
683.73	24.478
684.06	25.277
684.38	22.898
684.70	26.750
685.02	26.506
685.34	24.626
685.67	24.606
685.99	24.233
686.31	21.366
686.63	24.171
686.96	25.079
687.28	23.453
687.60	24.411
687.92	22.508
688.24	25.209
688.56	25.862
688.89	23.412
689.21	24.070
689.53	22.549
689.85	22.288
690.17	24.074
690.49	25.100
690.82	24.554
691.14	24.696
691.46	24.665
691.78	24.862
692.10	23.670
692.42	23.214
692.74	23.775
693.06	22.407
693.39	27.704
693.71	26.316
694.03	26.208
694.35	24.952
694.67	25.873
694.99	25.532
695.31	26.490
695.63	25.541
695.95	26.501
696.27	24.615
696.59	25.442
696.91	24.324
697.23	25.714
697.56	22.403
697.88	22.348
698.20	24.294
698.52	28.788
698.84	24.116
699.16	26.531
699.48	23.640
699.80	23.617
700.12	24.017
700.44	25.346
700.76	26.366
701.08	28.814
701.40	27.202
701.72	25.871
702.04	28.075
702.36	23.298
702.68	25.672
703.00	25.917
703.32	23.153
703.64	27.873
703.96	28.162
704.28	27.027
704.60	27.342
704.91	23.469
705.23	23.014
705.55	25.905
705.87	29.091
706.19	26.687
706.51	26.205
706.83	25.072
707.15	23.810
707.47	24.766
707.79	23.362
708.11	23.941
708.43	20.645
708.74	21.429
709.06	22.970
709.38	27.230
709.70	26.303
710.02	22.997
710.34	26.330
710.66	26.536
710.98	26.776
711.29	26.099
711.61	26.554
711.93	24.786
712.25	25.676
712.57	26.254
712.89	25.000
713.20	23.373
713.52	23.988
713.84	25.905
714.16	25.789
714.48	25.515
714.80	25.974
715.11	24.409
715.43	23.607
715.75	27.368
716.07	25.138
716.39	25.683
716.70	25.904
717.02	27.213
717.34	24.739
717.66	23.154
717.97	27.740
718.29	23.368
718.61	25.000
718.93	24.272
719.24	27.329
719.56	25.153
719.88	24.024
720.20	26.129
720.51	25.776
720.83	24.375
721.15	25.329
721.46	20.205
721.78	22.333
722.10	24.919
722.42	23.826
722.73	27.097
723.05	25.263
723.37	26.389
723.68	28.315
724.00	23.105
724.32	22.183
724.63	27.273
724.95	26.950
725.27	23.693
725.58	25.442
725.90	30.690
726.22	23.197
726.53	24.026
726.85	24.528
727.16	27.190
727.48	29.358
727.80	25.166
728.11	22.968
728.43	27.946
728.74	23.746
729.06	27.152
729.38	27.597
729.69	27.852
730.01	25.893
730.32	24.545
730.64	27.673
730.96	25.776
731.27	24.860
731.59	28.022
731.90	23.636
732.22	22.917
732.53	21.547
732.85	26.857
733.16	24.927
733.48	24.390
733.80	23.955
734.11	25.071
734.43	25.676
734.74	22.532
735.06	24.623
735.37	25.405
735.69	22.703
736.00	24.294
736.32	22.911
736.63	26.667
736.95	24.713
737.26	24.242
737.58	21.818
737.89	28.824
738.21	21.407
738.52	25.246
738.83	25.597
739.15	25.887
739.46	25.850
739.78	26.380
740.09	22.350
740.41	26.239
740.72	24.000
741.04	22.006
741.35	27.018
741.66	23.922
741.98	26.230
742.29	24.686
742.61	25.439
742.92	25.385
743.23	27.076
743.55	24.419
743.86	27.600
744.18	21.074
744.49	23.629
744.80	26.749
745.12	27.004
745.43	30.894
745.74	24.138
746.06	25.424
746.37	33.333
746.68	32.114
747.00	28.750
747.31	28.326
747.62	25.769
747.94	25.911
748.25	24.498
748.56	27.347
748.88	28.632
749.19	27.155
749.50	21.212
749.82	24.498
750.13	26.335
750.44	24.000
750.75	25.231
751.07	24.615
751.38	25.552
751.69	26.518
752.01	24.919
752.32	23.203
752.63	28.231
752.94	22.491
753.26	22.677
753.57	24.444
753.88	25.468
754.19	26.045
754.51	25.723
754.82	27.010
755.13	24.918
755.44	23.208
755.75	23.684
756.07	23.881
756.38	21.698
756.69	23.494
757.00	21.607
757.31	20.492
757.63	22.251
757.94	19.484
758.25	21.896
758.56	22.440
758.87	22.273
759.18	26.400
759.50	26.912
759.81	22.969
760.12	24.259
760.43	21.094
760.74	22.906
761.05	23.500
761.36	22.651
761.67	22.589
761.99	22.432
762.30	23.171
762.61	25.083
762.92	23.881
763.23	25.094
763.54	23.022
763.85	23.711
764.16	24.916
764.47	24.648
764.78	25.240
765.10	22.874
765.41	25.641
765.72	20.899
766.03	23.164
766.34	21.317
766.65	22.648
766.96	26.693
767.27	21.659
767.58	19.403
767.89	29.808
768.20	26.761
768.51	24.537
768.82	27.711
769.13	23.864
769.44	18.077
769.75	24.910
770.06	22.308
770.37	31.890
770.68	22.553
770.99	21.862
771.30	30.000
771.61	23.574
771.92	22.963
772.23	26.721
772.54	22.685
772.85	31.797
773.16	30.000
773.47	22.222
773.78	15.676
774.09	28.977
774.39	27.000
774.70	25.137
775.01	26.829
775.32	25.294
775.63	29.448
775.94	26.752
776.25	25.806
776.56	30.128
776.87	28.571
777.18	27.586
777.48	34.266
777.79	27.027
778.10	25.000
778.41	34.722
778.72	29.655
779.03	19.136
779.34	32.727
779.65	27.979
779.95	30.556
780.26	27.273
780.57	27.742
780.88	28.986
781.19	32.903
781.50	32.353
781.80	27.957
782.11	26.455
782.42	22.222
782.73	26.347
783.04	21.788
783.34	23.030
783.65	26.797
783.96	23.602
784.27	23.810
784.57	26.490
784.88	27.143
785.19	30.709
785.50	25.984
785.81	24.060
786.11	30.769
786.42	23.022
786.73	25.899
787.04	31.579
787.34	35.246
787.65	28.000
787.96	35.075
788.26	30.070
788.57	36.364
788.88	22.368
789.19	31.373
789.49	27.397
789.80	30.496
790.11	31.496
790.41	30.469
790.72	28.814
791.03	25.243
791.33	30.435
791.64	35.088
791.95	22.321
792.25	40.952
792.56	28.571
792.87	21.875
793.17	32.143
793.48	30.208
793.79	13.253
794.09	32.110
794.40	26.606
794.70	25.850
795.01	21.429
795.32	31.507
795.62	28.169
795.93	31.061
796.23	24.590
796.54	32.143
796.85	40.426
797.15	41.304
797.46	24.658
797.76	30.000
798.07	15.217
798.37	28.866
798.68	24.675
798.99	22.989
799.29	30.337
799.60	28.723
799.90	33.735
800.21	26.154
800.51	37.313
800.82	29.412
801.12	39.726
801.43	30.882
801.73	38.983
802.04	36.364
802.34	23.333
802.65	44.068
802.95	29.851
803.26	54.237
803.56	20.548
803.87	32.857
804.17	43.836
804.48	10.526
804.78	38.889
805.09	25.862
805.39	25.676
805.70	16.901
806.00	50.000
806.30	37.349
806.61	41.096
806.91	36.538
807.22	34.444
807.52	25.287
807.83	43.056
808.13	39.759
808.43	31.461
808.74	32.500
809.04	23.529
809.35	21.333
809.65	32.857
809.95	50.685
810.26	5.263
810.56	36.207
810.86	57.353
811.17	31.579
811.47	29.508
811.77	15.556
812.08	37.288
812.38	35.000
812.69	34.483
812.99	49.057
813.29	35.897
813.59	76.000
813.90	36.842
814.20	41.818
814.50	42.254
814.81	29.487
815.11	31.148
815.41	37.313
815.72	43.103
816.02	42.857
816.32	68.889
816.62	45.455
816.93	31.111
817.23	48.148
817.53	53.191
817.84	52.381
818.14	58.824
818.44	51.020
818.74	44.444
819.04	28.205
819.35	37.143
819.65	65.385
819.95	52.830
820.25	57.778
820.56	50.000
820.86	40.625
821.16	38.462
821.46	44.186
821.76	30.000
822.07	44.643
822.37	52.174
822.67	48.936
822.97	29.730
823.27	42.500
823.57	57.143
823.88	51.111
824.18	65.000
824.48	70.000
824.78	56.000
825.08	54.545
825.38	46.667
825.69	59.574
825.99	77.778
826.29	14.286
826.59	35.897
826.89	34.884
827.19	48.000
827.49	58.824
827.79	58.333
828.09	37.838
828.39	70.000
828.70	43.902
829.00	46.512
829.30	57.143
829.60	41.176
829.90	34.783
830.20	71.429
830.50	44.828
830.80	66.667
831.10	53.846
831.40	58.824
831.70	95.238
832.00	103.226
832.30	29.412
832.60	62.500
832.90	84.615
833.20	78.947
833.50	65.000
833.80	68.421
834.10	4.762
834.40	47.222
834.70	78.125
835.00	28.571
835.30	67.647
835.60	50.000
835.90	96.000
836.20	54.545
836.50	48.000
836.80	48.485
837.10	62.963
837.40	70.370
837.70	62.500
838.00	57.143
838.30	60.870
838.60	55.172
838.90	100.000
839.19	26.087
839.49	41.667
839.79	95.652
840.09	75.000
840.39	80.000
840.69	74.194
840.99	75.000
841.29	86.667
841.59	52.632
841.88	64.103
842.18	30.769
842.48	160.000
842.78	40.000
843.08	63.333
843.38	61.290
843.68	72.222
843.97	70.588
844.27	175.000
844.57	126.316
844.87	90.000
845.17	113.333
845.47	100.000
845.76	38.095
846.06	144.444
846.36	105.882
846.66	107.692
846.96	153.333
847.25	58.824
847.55	73.913
847.85	120.000
848.15	129.412
848.44	81.818
848.74	104.762
849.04	37.500
849.34	62.500
849.63	60.870
849.93	-500.000
850.23	66.667
850.53	80.769
850.82	136.364
851.12	95.455
851.42	127.273
851.71	153.846
852.01	25.000
852.31	23.077
852.61	57.895
852.90	150.000
853.20	83.333
853.50	55.556
853.79	57.143
854.09	27.273
854.39	58.333
854.68	38.710
854.98	76.923
855.28	133.333
855.57	53.571
855.87	32.000
856.17	59.091
856.46	77.778
856.76	50.000
857.05	30.435
857.35	75.000
857.65	61.538
857.94	80.952
858.24	66.667
858.53	65.217
858.83	129.412
859.13	129.412
859.42	123.529
859.72	142.857
860.01	85.000
860.31	100.000
860.60	60.000
860.90	46.667
861.20	94.444
861.49	192.308
861.79	80.000
862.08	100.000
862.38	62.500
862.67	129.412
862.97	75.000
863.26	88.889
863.56	150.000
863.85	145.455
864.15	61.111
864.44	233.333
864.74	114.286
865.03	87.500
865.33	70.000
865.62	38.710
865.92	118.182
866.21	104.348
866.51	128.571
866.80	160.000
867.10	125.000
867.39	66.667
867.69	400.000
867.98	214.286
868.27	47.059
868.57	300.000
868.86	-10.000
869.16	33.333
869.45	50.000
869.75	181.818
870.04	171.429
870.33	100.000
870.63	85.714
870.92	350.000
871.22	112.500
871.51	9.091
871.80	0.000
872.10	700.000
>>>>>End Processed Spectral Data<<<<<
