SpectraSuite Data File
++++++++++++++++++++++++++++++++++++
Date: Thu May 14 15:02:37 PDT 2015
User: schluterlab
Dark Spectrum Present: Yes
Reference Spectrum Present: Yes
Number of Sampled Component Spectra: 1
Spectrometers: USB2E3373
Integration Time (usec): 3000 (USB2E3373)
Spectra Averaged: 3 (USB2E3373)
Boxcar Smoothing: 0 (USB2E3373)
Correct for Electrical Dark: No (USB2E3373)
Strobe/Lamp Enabled: No (USB2E3373)
Correct for Detector Non-linearity: No (USB2E3373)
Correct for Stray Light: No (USB2E3373)
Number of Pixels in Processed Spectrum: 2048
>>>>>Begin Processed Spectral Data<<<<<
178.53	0.000
178.91	385.714
179.29	-3300.000
179.67	-2500.000
180.04	271.429
180.42	170.000
180.80	440.000
181.18	-2600.000
181.56	-1800.000
181.94	525.000
182.31	-725.000
182.69	700.000
183.07	-1250.000
183.45	775.000
183.83	-233.333
184.20	-1066.667
184.58	2900.000
184.96	-1000.000
185.34	-300.000
185.72	-380.000
186.09	422.222
186.47	1600.000
186.85	460.000
187.23	-211.111
187.61	-2600.000
187.98	500.000
188.36	725.000
188.74	-675.000
189.12	-566.667
189.49	-168.750
189.87	-250.000
190.25	-233.333
190.63	-480.000
191.00	-355.556
191.38	0.000
191.76	-675.000
192.14	-283.333
192.51	1200.000
192.89	-300.000
193.27	0.000
193.65	-285.714
194.02	-3100.000
194.40	-314.286
194.78	557.143
195.15	0.000
195.53	-163.636
195.91	0.000
196.29	-325.000
196.66	-215.385
197.04	-3100.000
197.42	-371.429
197.79	-850.000
198.17	-225.000
198.55	-314.286
198.92	-200.000
199.30	-400.000
199.68	-181.818
200.05	-128.571
200.43	-1150.000
200.81	442.857
201.18	0.000
201.56	388.889
201.94	0.000
202.31	966.667
202.69	-266.667
203.07	800.000
203.44	-188.889
203.82	-550.000
204.19	-166.667
204.57	-416.667
204.95	-350.000
205.32	-2100.000
205.70	625.000
206.08	-283.333
206.45	-416.667
206.83	600.000
207.20	-350.000
207.58	-740.000
207.96	-300.000
208.33	-333.333
208.71	200.000
209.08	-183.333
209.46	0.000
209.84	616.667
210.21	1150.000
210.59	1550.000
210.96	900.000
211.34	-525.000
211.71	-275.000
212.09	-3200.000
212.46	0.000
212.84	1700.000
213.22	-600.000
213.59	-750.000
213.97	-250.000
214.34	-633.333
214.72	450.000
215.09	-525.000
215.47	0.000
215.84	271.429
216.22	1550.000
216.59	-640.000
216.97	-540.000
217.34	-475.000
217.72	-200.000
218.09	-825.000
218.47	-675.000
218.84	0.000
219.22	240.000
219.59	-117.647
219.97	-80.000
220.34	1250.000
220.72	-222.222
221.09	-61.538
221.47	-766.667
221.84	-140.000
222.22	-328.571
222.59	0.000
222.97	-325.000
223.34	-500.000
223.72	-1800.000
224.09	-850.000
224.46	-875.000
224.84	-520.000
225.21	-357.143
225.59	-750.000
225.96	-725.000
226.34	-88.462
226.71	550.000
227.08	-950.000
227.46	-46.667
227.83	-650.000
228.21	-84.211
228.58	262.500
228.95	1200.000
229.33	-191.667
229.70	-230.000
230.08	-42.105
230.45	300.000
230.82	-833.333
231.20	-142.857
231.57	-133.333
231.95	-118.182
232.32	-118.182
232.69	-55.000
233.07	-550.000
233.44	-129.412
233.81	-160.000
234.19	-105.556
234.56	-95.455
234.93	-37.931
235.31	-68.421
235.68	-94.444
236.05	-145.000
236.43	-19.231
236.80	-60.000
237.17	-55.556
237.55	-48.485
237.92	-230.000
238.29	-48.387
238.67	-22.727
239.04	-47.222
239.41	-64.286
239.79	-23.913
240.16	-25.926
240.53	-34.783
240.91	-60.784
241.28	-14.754
241.65	-13.433
242.02	-10.811
242.40	-24.615
242.77	-17.333
243.14	-18.293
243.51	-28.947
243.89	-7.692
244.26	1.980
244.63	-3.922
245.00	-2.804
245.38	-3.509
245.75	-19.469
246.12	-2.381
246.49	0.000
246.87	3.571
247.24	9.934
247.61	6.579
247.98	7.383
248.36	1.235
248.73	-1.840
249.10	6.011
249.47	8.458
249.84	13.613
250.22	2.073
250.59	1.667
250.96	8.182
251.33	0.510
251.70	11.966
252.08	4.167
252.45	7.377
252.82	7.851
253.19	6.641
253.56	9.886
253.94	6.538
254.31	9.848
254.68	13.287
255.05	10.749
255.42	9.184
255.79	5.502
256.16	9.603
256.54	9.934
256.91	9.180
257.28	13.115
257.65	6.051
258.02	7.080
258.39	10.256
258.76	11.927
259.14	10.632
259.51	9.798
259.88	3.399
260.25	11.389
260.62	10.411
260.99	11.202
261.36	9.651
261.73	11.141
262.10	10.989
262.47	8.311
262.85	12.626
263.22	10.390
263.59	8.421
263.96	10.230
264.33	8.184
264.70	9.877
265.07	12.411
265.44	15.873
265.81	9.954
266.18	10.658
266.55	11.384
266.92	8.428
267.29	10.941
267.66	10.200
268.03	10.480
268.40	10.647
268.77	7.745
269.14	8.811
269.51	11.184
269.88	14.344
270.25	12.676
270.62	11.392
270.99	11.313
271.36	12.871
271.73	12.181
272.10	12.024
272.47	11.824
272.84	11.847
273.21	11.022
273.58	12.702
273.95	8.846
274.32	8.745
274.69	9.865
275.06	11.722
275.43	9.612
275.80	12.698
276.17	12.037
276.54	11.007
276.91	9.123
277.28	10.127
277.65	12.029
278.02	12.316
278.39	11.051
278.76	10.369
279.13	10.816
279.50	12.199
279.87	10.376
280.23	9.859
280.60	12.034
280.97	11.020
281.34	10.866
281.71	12.690
282.08	11.130
282.45	12.439
282.82	10.989
283.19	10.985
283.56	12.295
283.92	12.312
284.29	15.798
284.66	10.181
285.03	10.256
285.40	12.365
285.77	10.372
286.14	12.061
286.51	12.329
286.87	12.006
287.24	12.801
287.61	13.004
287.98	12.840
288.35	11.095
288.72	12.278
289.08	12.006
289.45	10.799
289.82	11.145
290.19	13.218
290.56	13.944
290.93	13.980
291.29	12.397
291.66	12.397
292.03	11.805
292.40	14.150
292.77	12.129
293.13	13.667
293.50	11.958
293.87	11.544
294.24	13.333
294.60	13.401
294.97	11.946
295.34	15.493
295.71	13.745
296.08	11.499
296.44	12.868
296.81	13.642
297.18	12.951
297.55	13.679
297.91	12.456
298.28	13.152
298.65	13.317
299.02	12.751
299.38	14.874
299.75	13.902
300.12	12.384
300.48	14.862
300.85	14.623
301.22	14.430
301.59	13.242
301.95	14.576
302.32	14.889
302.69	14.567
303.05	15.778
303.42	14.523
303.79	14.583
304.15	15.037
304.52	14.693
304.89	14.869
305.25	15.424
305.62	13.898
305.99	15.464
306.35	13.911
306.72	14.581
307.09	14.822
307.45	15.942
307.82	14.834
308.19	14.329
308.55	16.683
308.92	15.774
309.29	14.847
309.65	15.302
310.02	15.743
310.38	15.354
310.75	16.117
311.12	16.299
311.48	15.934
311.85	16.239
312.22	16.129
312.58	17.746
312.95	16.157
313.31	16.893
313.68	16.300
314.05	17.254
314.41	16.302
314.78	18.347
315.14	16.152
315.51	16.990
315.87	17.732
316.24	17.443
316.61	17.407
316.97	16.380
317.34	16.578
317.70	19.039
318.07	18.871
318.43	18.027
318.80	19.314
319.16	17.339
319.53	16.281
319.89	18.054
320.26	17.705
320.62	16.933
320.99	18.467
321.35	17.652
321.72	19.256
322.08	18.305
322.45	18.067
322.81	18.953
323.18	19.115
323.54	20.345
323.91	20.907
324.27	20.052
324.64	21.327
325.00	20.232
325.37	21.704
325.73	22.231
326.10	22.060
326.46	22.883
326.83	24.420
327.19	23.150
327.56	23.953
327.92	23.997
328.29	24.355
328.65	24.874
329.01	23.942
329.38	26.285
329.74	26.370
330.11	26.541
330.47	25.864
330.84	27.132
331.20	26.667
331.56	26.170
331.93	27.615
332.29	27.542
332.66	27.243
333.02	26.884
333.38	26.762
333.75	29.545
334.11	28.941
334.48	28.960
334.84	29.312
335.20	27.372
335.57	29.680
335.93	29.669
336.29	27.704
336.66	29.184
337.02	29.097
337.38	29.252
337.75	28.595
338.11	30.362
338.47	29.859
338.84	29.103
339.20	29.065
339.56	28.748
339.93	29.557
340.29	28.744
340.65	29.116
341.02	29.130
341.38	30.396
341.74	29.459
342.11	29.445
342.47	28.832
342.83	30.515
343.20	29.926
343.56	29.671
343.92	29.303
344.28	28.906
344.65	29.690
345.01	29.797
345.37	30.793
345.73	29.462
346.10	28.237
346.46	30.380
346.82	29.663
347.19	29.565
347.55	29.818
347.91	29.569
348.27	28.832
348.63	30.769
349.00	29.008
349.36	29.888
349.72	29.985
350.08	29.495
350.45	29.278
350.81	30.090
351.17	28.647
351.53	30.250
351.89	29.841
352.26	30.224
352.62	30.000
352.98	30.153
353.34	28.977
353.70	29.276
354.07	30.402
354.43	29.233
354.79	30.142
355.15	28.477
355.51	30.044
355.87	30.217
356.24	30.418
356.60	30.673
356.96	30.541
357.32	29.888
357.68	30.015
358.04	29.416
358.40	28.881
358.77	29.825
359.13	29.985
359.49	29.740
359.85	31.037
360.21	30.129
360.57	30.438
360.93	29.408
361.29	30.526
361.66	30.702
362.02	30.759
362.38	30.429
362.74	31.285
363.10	30.124
363.46	31.163
363.82	30.327
364.18	30.753
364.54	31.051
364.90	31.237
365.26	30.828
365.62	31.000
365.98	31.995
366.35	31.409
366.71	30.680
367.07	31.597
367.43	30.269
367.79	31.652
368.15	31.572
368.51	31.461
368.87	31.679
369.23	31.400
369.59	33.675
369.95	32.116
370.31	32.343
370.67	31.224
371.03	33.033
371.39	32.438
371.75	31.706
372.11	30.894
372.47	32.092
372.83	32.134
373.19	33.022
373.55	32.995
373.91	31.220
374.27	32.859
374.63	32.679
374.99	32.095
375.35	32.857
375.71	33.484
376.07	33.054
376.42	33.060
376.78	33.188
377.14	33.250
377.50	33.966
377.86	33.559
378.22	33.892
378.58	35.731
378.94	33.392
379.30	33.743
379.66	34.156
380.02	33.872
380.38	35.829
380.74	34.254
381.09	35.482
381.45	35.398
381.81	34.485
382.17	35.451
382.53	36.023
382.89	35.948
383.25	36.108
383.61	35.880
383.97	35.571
384.32	37.081
384.68	35.673
385.04	36.900
385.40	37.655
385.76	37.163
386.12	36.984
386.48	36.941
386.83	37.545
387.19	36.848
387.55	37.265
387.91	37.842
388.27	37.644
388.62	37.056
388.98	36.999
389.34	39.187
389.70	38.698
390.06	37.359
390.42	37.831
390.77	37.508
391.13	38.263
391.49	38.768
391.85	38.606
392.20	38.553
392.56	38.452
392.92	38.004
393.28	39.138
393.64	38.715
393.99	38.931
394.35	40.362
394.71	39.222
395.07	38.383
395.42	38.435
395.78	40.037
396.14	39.988
396.50	39.430
396.85	38.939
397.21	38.935
397.57	39.753
397.92	39.519
398.28	38.892
398.64	39.645
399.00	38.639
399.35	39.634
399.71	39.293
400.07	39.360
400.42	39.814
400.78	39.931
401.14	39.271
401.49	39.454
401.85	40.116
402.21	40.093
402.57	40.845
402.92	39.243
403.28	38.700
403.63	40.036
403.99	39.430
404.35	39.568
404.70	39.887
405.06	39.130
405.42	39.930
405.77	39.313
406.13	39.870
406.49	40.090
406.84	39.834
407.20	39.743
407.55	39.370
407.91	40.541
408.27	39.635
408.62	39.907
408.98	39.234
409.34	39.296
409.69	41.286
410.05	40.563
410.40	39.965
410.76	39.372
411.11	41.672
411.47	40.356
411.83	40.564
412.18	40.723
412.54	40.368
412.89	40.338
413.25	39.560
413.60	39.977
413.96	41.783
414.31	39.603
414.67	40.191
415.03	40.062
415.38	39.281
415.74	40.195
416.09	41.024
416.45	40.639
416.80	39.229
417.16	39.400
417.51	40.473
417.87	41.202
418.22	40.539
418.58	39.777
418.93	40.105
419.29	40.999
419.64	40.276
420.00	40.831
420.35	40.595
420.71	41.183
421.06	40.368
421.42	40.195
421.77	39.203
422.12	39.323
422.48	40.348
422.83	41.895
423.19	40.796
423.54	41.538
423.90	40.144
424.25	40.960
424.61	40.987
424.96	41.076
425.31	41.242
425.67	41.331
426.02	41.339
426.38	40.528
426.73	41.518
427.09	40.715
427.44	39.924
427.79	41.902
428.15	41.096
428.50	41.461
428.85	40.528
429.21	41.011
429.56	39.882
429.92	41.327
430.27	41.687
430.62	40.743
430.98	41.367
431.33	41.838
431.68	41.092
432.04	41.646
432.39	41.243
432.74	40.982
433.10	41.103
433.45	41.416
433.80	41.094
434.16	41.012
434.51	42.086
434.86	43.105
435.22	42.349
435.57	42.040
435.92	41.068
436.28	41.240
436.63	41.780
436.98	41.922
437.34	41.488
437.69	41.772
438.04	41.512
438.39	41.356
438.75	41.837
439.10	42.125
439.45	42.538
439.81	41.525
440.16	40.643
440.51	41.750
440.86	41.301
441.22	41.104
441.57	41.614
441.92	41.562
442.27	42.727
442.63	41.927
442.98	42.476
443.33	41.662
443.68	42.121
444.03	42.944
444.39	41.933
444.74	42.624
445.09	41.967
445.44	42.993
445.79	42.912
446.15	42.395
446.50	40.982
446.85	42.412
447.20	42.166
447.55	42.992
447.91	42.775
448.26	41.438
448.61	42.827
448.96	43.401
449.31	40.668
449.66	42.320
450.02	42.036
450.37	42.195
450.72	41.550
451.07	42.654
451.42	42.577
451.77	42.246
452.12	43.002
452.47	41.771
452.83	43.131
453.18	40.864
453.53	41.815
453.88	40.972
454.23	43.503
454.58	42.426
454.93	42.233
455.28	43.829
455.63	42.808
455.98	42.402
456.34	42.344
456.69	42.622
457.04	43.144
457.39	42.406
457.74	43.121
458.09	41.955
458.44	43.427
458.79	42.445
459.14	42.003
459.49	43.463
459.84	42.812
460.19	42.921
460.54	44.123
460.89	43.145
461.24	42.471
461.59	43.664
461.94	41.643
462.29	43.673
462.64	42.969
462.99	43.503
463.34	43.738
463.69	43.318
464.04	42.690
464.39	42.265
464.74	42.018
465.09	42.272
465.44	43.187
465.79	43.786
466.14	42.835
466.49	43.211
466.84	43.416
467.19	42.775
467.54	41.716
467.89	41.897
468.24	42.770
468.59	41.517
468.94	42.832
469.29	42.651
469.64	42.594
469.99	43.595
470.34	43.502
470.68	43.404
471.03	42.829
471.38	44.081
471.73	42.198
472.08	42.005
472.43	43.046
472.78	42.947
473.13	43.489
473.48	42.417
473.83	44.109
474.17	42.966
474.52	44.378
474.87	43.023
475.22	43.099
475.57	42.991
475.92	43.156
476.27	43.344
476.61	42.108
476.96	42.805
477.31	43.416
477.66	44.229
478.01	43.315
478.36	42.373
478.70	43.596
479.05	43.967
479.40	44.176
479.75	42.123
480.10	43.344
480.45	43.163
480.79	44.354
481.14	43.015
481.49	43.026
481.84	43.211
482.19	43.914
482.53	43.813
482.88	44.174
483.23	43.442
483.58	43.537
483.92	42.376
484.27	43.057
484.62	42.987
484.97	42.807
485.31	41.922
485.66	39.157
486.01	39.501
486.36	40.686
486.70	43.577
487.05	44.889
487.40	43.859
487.75	43.511
488.09	42.378
488.44	42.170
488.79	41.720
489.13	41.673
489.48	42.214
489.83	42.938
490.17	42.973
490.52	42.077
490.87	42.724
491.22	43.501
491.56	44.070
491.91	44.047
492.26	44.050
492.60	42.763
492.95	42.870
493.30	43.792
493.64	43.057
493.99	43.026
494.34	43.336
494.68	43.426
495.03	44.009
495.37	43.941
495.72	43.220
496.07	42.901
496.41	43.672
496.76	43.369
497.11	44.544
497.45	43.591
497.80	43.314
498.14	42.993
498.49	43.382
498.84	43.327
499.18	42.825
499.53	43.408
499.87	42.593
500.22	42.476
500.56	42.915
500.91	44.073
501.26	44.318
501.60	42.908
501.95	43.161
502.29	43.967
502.64	44.075
502.98	42.105
503.33	42.333
503.67	43.088
504.02	42.732
504.36	44.102
504.71	43.041
505.06	43.156
505.40	43.190
505.75	43.124
506.09	43.048
506.44	44.150
506.78	44.266
507.13	44.076
507.47	43.439
507.82	43.419
508.16	43.069
508.51	42.944
508.85	43.694
509.19	44.339
509.54	45.101
509.88	43.322
510.23	43.371
510.57	43.499
510.92	44.751
511.26	43.771
511.61	42.395
511.95	43.729
512.30	43.968
512.64	43.428
512.98	44.072
513.33	44.405
513.67	43.294
514.02	44.813
514.36	44.348
514.70	44.531
515.05	44.369
515.39	44.147
515.74	45.175
516.08	43.317
516.42	44.270
516.77	44.322
517.11	42.909
517.46	43.425
517.80	45.644
518.14	44.723
518.49	44.360
518.83	43.268
519.17	44.319
519.52	42.872
519.86	44.192
520.20	44.409
520.55	43.812
520.89	45.383
521.23	43.216
521.58	44.689
521.92	44.193
522.26	44.559
522.61	45.023
522.95	44.637
523.29	44.713
523.64	44.002
523.98	45.465
524.32	46.533
524.66	44.849
525.01	43.998
525.35	44.055
525.69	43.968
526.04	44.030
526.38	43.621
526.72	43.137
527.06	45.279
527.41	45.598
527.75	44.596
528.09	44.215
528.43	44.287
528.78	43.931
529.12	43.234
529.46	43.002
529.80	44.508
530.15	43.710
530.49	44.009
530.83	44.510
531.17	44.385
531.51	43.742
531.86	44.531
532.20	45.427
532.54	43.986
532.88	44.121
533.22	44.255
533.57	43.681
533.91	44.220
534.25	43.075
534.59	44.023
534.93	42.784
535.27	44.732
535.62	44.400
535.96	44.567
536.30	43.655
536.64	45.886
536.98	44.588
537.32	45.123
537.66	44.978
538.01	42.477
538.35	43.240
538.69	42.728
539.03	44.758
539.37	43.640
539.71	43.183
540.05	43.705
540.39	42.910
540.73	42.805
541.07	42.857
541.42	43.473
541.76	42.645
542.10	43.124
542.44	43.301
542.78	43.248
543.12	43.206
543.46	43.040
543.80	42.986
544.14	42.729
544.48	44.444
544.82	44.524
545.16	45.081
545.50	43.259
545.84	43.539
546.18	44.938
546.52	43.949
546.86	43.082
547.20	43.448
547.54	42.572
547.88	42.556
548.22	41.930
548.56	42.247
548.90	43.642
549.24	42.553
549.58	41.956
549.92	42.538
550.26	43.689
550.60	43.012
550.94	43.532
551.28	42.838
551.62	43.598
551.96	42.395
552.30	43.531
552.64	43.124
552.98	42.732
553.32	42.958
553.66	42.444
554.00	43.253
554.34	44.080
554.68	41.963
555.02	43.298
555.36	43.655
555.69	41.192
556.03	42.686
556.37	43.304
556.71	43.373
557.05	41.470
557.39	42.734
557.73	43.527
558.07	43.974
558.41	43.455
558.75	42.326
559.08	44.120
559.42	42.661
559.76	42.605
560.10	43.068
560.44	42.942
560.78	42.625
561.12	43.103
561.45	43.187
561.79	42.369
562.13	43.068
562.47	42.047
562.81	43.291
563.15	42.424
563.48	42.573
563.82	42.624
564.16	41.611
564.50	43.147
564.84	42.065
565.17	42.059
565.51	42.060
565.85	41.865
566.19	41.417
566.52	40.784
566.86	42.275
567.20	40.837
567.54	41.636
567.88	41.539
568.21	41.749
568.55	41.583
568.89	41.943
569.23	40.769
569.56	40.680
569.90	40.235
570.24	40.236
570.57	40.507
570.91	39.314
571.25	39.051
571.59	39.633
571.92	39.019
572.26	39.227
572.60	39.176
572.93	39.994
573.27	38.494
573.61	38.751
573.95	38.650
574.28	38.332
574.62	38.654
574.96	38.222
575.29	38.136
575.63	38.554
575.97	38.635
576.30	38.737
576.64	38.392
576.98	37.973
577.31	38.349
577.65	38.403
577.98	37.877
578.32	37.783
578.66	37.787
578.99	38.521
579.33	38.217
579.67	37.738
580.00	37.671
580.34	38.002
580.67	37.599
581.01	37.430
581.35	37.386
581.68	36.948
582.02	38.160
582.35	37.817
582.69	38.146
583.02	38.311
583.36	38.365
583.70	38.650
584.03	37.749
584.37	37.744
584.70	37.286
585.04	37.084
585.37	37.274
585.71	36.936
586.04	37.384
586.38	37.558
586.72	37.528
587.05	37.913
587.39	37.696
587.72	38.062
588.06	38.080
588.39	37.765
588.73	37.513
589.06	38.431
589.40	38.230
589.73	38.785
590.07	38.660
590.40	38.438
590.73	38.565
591.07	38.608
591.40	37.947
591.74	38.315
592.07	38.205
592.41	37.421
592.74	37.664
593.08	37.452
593.41	38.087
593.75	38.305
594.08	38.382
594.41	37.660
594.75	37.363
595.08	37.315
595.42	37.727
595.75	38.005
596.09	38.428
596.42	38.696
596.75	38.595
597.09	38.303
597.42	37.863
597.75	38.534
598.09	38.095
598.42	38.440
598.76	38.097
599.09	38.056
599.42	37.278
599.76	37.306
600.09	37.905
600.42	37.504
600.76	37.517
601.09	37.803
601.42	37.007
601.76	37.517
602.09	37.312
602.42	37.332
602.76	37.417
603.09	38.106
603.42	38.186
603.76	37.491
604.09	38.361
604.42	38.092
604.76	37.519
605.09	37.814
605.42	37.759
605.75	37.846
606.09	37.962
606.42	36.775
606.75	37.031
607.09	37.020
607.42	37.264
607.75	37.476
608.08	37.609
608.42	37.001
608.75	37.604
609.08	37.564
609.41	37.936
609.75	37.545
610.08	38.742
610.41	37.681
610.74	36.387
611.07	38.410
611.41	38.700
611.74	38.522
612.07	38.429
612.40	38.070
612.73	37.995
613.07	39.560
613.40	36.959
613.73	38.421
614.06	38.126
614.39	38.192
614.72	37.991
615.06	38.017
615.39	37.506
615.72	37.962
616.05	38.417
616.38	38.900
616.71	37.931
617.05	37.753
617.38	37.935
617.71	38.067
618.04	38.316
618.37	39.016
618.70	38.575
619.03	38.889
619.36	39.457
619.69	38.501
620.03	39.109
620.36	38.344
620.69	38.125
621.02	39.370
621.35	38.679
621.68	40.853
622.01	39.431
622.34	37.936
622.67	38.625
623.00	37.854
623.33	38.952
623.66	40.143
623.99	38.381
624.32	38.012
624.65	38.095
624.99	39.012
625.32	39.451
625.65	39.447
625.98	38.576
626.31	39.192
626.64	39.341
626.97	40.060
627.30	39.636
627.63	40.510
627.96	39.865
628.29	40.156
628.62	39.127
628.95	40.140
629.28	40.187
629.61	41.414
629.94	39.331
630.26	39.576
630.59	40.155
630.92	38.701
631.25	42.308
631.58	41.808
631.91	39.831
632.24	41.306
632.57	40.797
632.90	41.224
633.23	40.510
633.56	40.510
633.89	40.909
634.22	41.372
634.55	41.754
634.88	40.152
635.20	41.873
635.53	42.034
635.86	42.579
636.19	41.782
636.52	41.034
636.85	40.143
637.18	40.644
637.51	40.968
637.83	40.532
638.16	41.359
638.49	40.023
638.82	41.488
639.15	39.061
639.48	43.418
639.81	40.762
640.13	40.518
640.46	38.545
640.79	40.931
641.12	41.739
641.45	41.154
641.77	44.031
642.10	41.732
642.43	42.952
642.76	41.870
643.09	39.863
643.41	39.916
643.74	40.414
644.07	43.172
644.40	41.867
644.73	40.493
645.05	43.319
645.38	42.878
645.71	42.229
646.04	44.333
646.36	40.876
646.69	41.258
647.02	44.037
647.35	42.443
647.67	42.029
648.00	43.631
648.33	43.544
648.66	41.940
648.98	40.680
649.31	42.490
649.64	40.903
649.96	39.655
650.29	38.665
650.62	39.180
650.94	40.691
651.27	38.922
651.60	40.936
651.92	41.793
652.25	40.810
652.58	38.514
652.90	38.663
653.23	41.408
653.56	38.516
653.88	41.292
654.21	39.155
654.54	40.173
654.86	38.385
655.19	41.154
655.52	39.585
655.84	36.149
656.17	41.030
656.49	57.236
656.82	62.552
657.15	48.914
657.47	38.080
657.80	27.863
658.13	21.915
658.45	28.421
658.78	33.698
659.10	32.974
659.43	31.388
659.75	31.050
660.08	29.916
660.41	32.837
660.73	34.778
661.06	35.830
661.38	38.596
661.71	40.345
662.03	40.564
662.36	42.755
662.68	42.214
663.01	41.062
663.33	42.155
663.66	44.139
663.98	43.269
664.31	41.651
664.63	42.004
664.96	41.742
665.28	40.472
665.61	43.007
665.93	38.571
666.26	43.190
666.58	40.959
666.91	41.308
667.23	42.286
667.56	39.645
667.88	41.600
668.21	38.477
668.53	40.734
668.86	43.026
669.18	40.530
669.50	42.346
669.83	40.800
670.15	41.142
670.48	42.460
670.80	39.579
671.13	40.454
671.45	39.567
671.77	42.750
672.10	37.667
672.42	38.997
672.75	39.017
673.07	37.612
673.39	38.059
673.72	39.262
674.04	37.586
674.37	40.250
674.69	41.093
675.01	41.714
675.34	40.076
675.66	39.326
675.98	41.418
676.31	42.188
676.63	41.065
676.95	42.720
677.28	40.726
677.60	37.992
677.92	42.994
678.25	38.574
678.57	39.502
678.89	37.372
679.22	39.373
679.54	39.829
679.86	38.305
680.18	39.469
680.51	39.623
680.83	40.262
681.15	40.000
681.48	39.378
681.80	39.378
682.12	38.986
682.44	39.733
682.77	41.844
683.09	39.015
683.41	41.667
683.73	40.228
684.06	38.561
684.38	37.567
684.70	39.138
685.02	36.489
685.34	37.937
685.67	36.593
685.99	36.503
686.31	35.465
686.63	36.493
686.96	36.435
687.28	39.088
687.60	36.027
687.92	37.138
688.24	38.230
688.56	33.966
688.89	39.201
689.21	39.335
689.53	35.686
689.85	36.489
690.17	38.889
690.49	38.247
690.82	38.812
691.14	37.652
691.46	40.918
691.78	38.674
692.10	42.202
692.42	36.071
692.74	36.298
693.06	35.556
693.39	38.520
693.71	36.090
694.03	37.361
694.35	38.667
694.67	37.372
694.99	37.872
695.31	39.514
695.63	37.879
695.95	37.267
696.27	37.582
696.59	39.602
696.91	38.964
697.23	40.440
697.56	36.660
697.88	36.364
698.20	35.970
698.52	37.879
698.84	38.462
699.16	39.184
699.48	37.029
699.80	38.936
700.12	37.773
700.44	36.866
700.76	37.767
701.08	41.162
701.40	40.155
701.72	38.557
702.04	36.898
702.36	35.602
702.68	37.653
703.00	34.963
703.32	38.424
703.64	38.875
703.96	36.754
704.28	35.381
704.60	38.734
704.91	35.459
705.23	37.534
705.55	36.490
705.87	39.394
706.19	38.344
706.51	37.048
706.83	38.040
707.15	37.566
707.47	37.150
707.79	34.716
708.11	34.534
708.43	35.269
708.74	35.045
709.06	34.571
709.38	36.385
709.70	37.965
710.02	35.917
710.34	40.160
710.66	36.872
710.98	36.339
711.29	35.714
711.61	36.158
711.93	35.613
712.25	37.838
712.57	39.528
712.89	39.118
713.20	35.799
713.52	40.462
713.84	36.490
714.16	35.526
714.48	36.856
714.80	38.701
715.11	33.071
715.43	36.074
715.75	35.789
716.07	34.807
716.39	35.246
716.70	37.651
717.02	36.066
717.34	34.843
717.66	37.248
717.97	32.877
718.29	32.646
718.61	33.224
718.93	34.951
719.24	33.230
719.56	37.730
719.88	34.535
720.20	35.484
720.51	38.509
720.83	33.125
721.15	35.855
721.46	28.767
721.78	33.667
722.10	32.686
722.42	34.899
722.73	34.839
723.05	35.439
723.37	34.375
723.68	35.484
724.00	32.491
724.32	30.634
724.63	35.315
724.95	41.844
725.27	34.146
725.58	35.336
725.90	36.207
726.22	32.915
726.53	32.468
726.85	37.107
727.16	31.420
727.48	34.862
727.80	32.450
728.11	32.509
728.43	37.710
728.74	34.448
729.06	35.762
729.38	36.364
729.69	30.537
730.01	30.952
730.32	32.424
730.64	31.132
730.96	32.919
731.27	34.078
731.59	34.615
731.90	32.727
732.22	33.073
732.53	27.348
732.85	34.571
733.16	32.551
733.48	31.707
733.80	30.641
734.11	30.484
734.43	32.973
734.74	37.722
735.06	32.412
735.37	36.216
735.69	33.243
736.00	33.898
736.32	32.345
736.63	32.222
736.95	34.195
737.26	33.030
737.58	31.515
737.89	32.941
738.21	28.135
738.52	34.098
738.83	33.106
739.15	34.752
739.46	36.054
739.78	30.675
740.09	32.092
740.41	32.945
740.72	34.667
741.04	36.246
741.35	32.281
741.66	32.549
741.98	31.557
742.29	27.197
742.61	33.333
742.92	34.231
743.23	37.545
743.55	32.946
743.86	31.600
744.18	28.099
744.49	29.114
744.80	33.745
745.12	36.287
745.43	34.146
745.74	30.172
746.06	31.356
746.37	35.443
746.68	37.805
747.00	30.417
747.31	31.760
747.62	32.308
747.94	31.174
748.25	33.735
748.56	30.204
748.88	28.632
749.19	35.776
749.50	30.736
749.82	40.161
750.13	33.808
750.44	31.667
750.75	33.231
751.07	33.538
751.38	30.599
751.69	31.949
752.01	29.450
752.32	32.026
752.63	32.313
752.94	27.336
753.26	31.970
753.57	28.889
753.88	36.704
754.19	34.727
754.51	33.762
754.82	33.762
755.13	31.803
755.44	33.106
755.75	33.224
756.07	32.239
756.38	29.245
756.69	35.843
757.00	27.424
757.31	29.781
757.63	31.969
757.94	27.700
758.25	30.474
758.56	29.847
758.87	30.682
759.18	32.533
759.50	30.028
759.81	28.291
760.12	32.345
760.43	32.812
760.74	32.266
761.05	33.000
761.36	30.120
761.67	29.695
761.99	31.081
762.30	31.098
762.61	28.383
762.92	29.851
763.23	33.333
763.54	30.216
763.85	34.364
764.16	32.997
764.47	30.986
764.78	34.185
765.10	32.551
765.41	33.333
765.72	29.630
766.03	28.531
766.34	28.840
766.65	24.042
766.96	31.873
767.27	33.180
767.58	24.876
767.89	28.846
768.20	26.761
768.51	31.944
768.82	30.924
769.13	31.061
769.44	26.154
769.75	28.159
770.06	27.308
770.37	31.496
770.68	27.234
770.99	20.648
771.30	38.519
771.61	29.658
771.92	28.519
772.23	30.364
772.54	25.926
772.85	33.180
773.16	32.857
773.47	20.635
773.78	25.946
774.09	31.250
774.39	35.000
774.70	31.694
775.01	28.049
775.32	20.000
775.63	30.061
775.94	21.019
776.25	28.387
776.56	25.000
776.87	29.932
777.18	24.828
777.48	25.874
777.79	25.000
778.10	18.382
778.41	33.333
778.72	28.276
779.03	26.543
779.34	24.848
779.65	28.497
779.95	27.222
780.26	27.841
780.57	22.581
780.88	31.884
781.19	26.452
781.50	27.059
781.80	29.032
782.11	24.868
782.42	21.212
782.73	23.353
783.04	25.140
783.34	19.394
783.65	16.993
783.96	21.739
784.27	23.810
784.57	29.139
784.88	25.000
785.19	22.047
785.50	24.409
785.81	21.805
786.11	26.154
786.42	21.583
786.73	18.705
787.04	33.083
787.34	27.049
787.65	32.800
787.96	22.388
788.26	23.077
788.57	25.874
788.88	15.789
789.19	22.222
789.49	16.438
789.80	23.404
790.11	17.323
790.41	20.313
790.72	21.186
791.03	16.505
791.33	20.000
791.64	22.807
791.95	16.071
792.25	22.857
792.56	18.750
792.87	4.167
793.17	12.500
793.48	11.458
793.79	-7.229
794.09	5.505
794.40	24.771
794.70	19.048
795.01	13.636
795.32	10.959
795.62	21.127
795.93	16.667
796.23	15.574
796.54	14.286
796.85	8.511
797.15	14.130
797.46	19.178
797.76	11.250
798.07	19.565
798.37	2.062
798.68	3.896
798.99	18.391
799.29	16.854
799.60	19.149
799.90	2.410
800.21	-1.538
800.51	2.985
800.82	10.294
801.12	-5.479
801.43	-11.765
801.73	-3.390
802.04	9.091
802.34	-5.000
802.65	-1.695
802.95	7.463
803.26	-5.085
803.56	0.000
803.87	15.714
804.17	10.959
804.48	-14.035
804.78	-12.500
805.09	8.621
805.39	18.919
805.70	0.000
806.00	12.195
806.30	12.048
806.61	15.068
806.91	11.538
807.22	15.556
807.52	-1.149
807.83	16.667
808.13	24.096
808.43	22.472
808.74	1.250
809.04	-4.412
809.35	9.333
809.65	-4.286
809.95	10.959
810.26	-28.070
810.56	-5.172
810.86	4.412
811.17	-3.509
811.47	0.000
811.77	-8.889
812.08	8.475
812.38	-1.667
812.69	-3.448
812.99	-5.660
813.29	-41.026
813.59	-24.000
813.90	5.263
814.20	-1.818
814.50	15.493
814.81	12.821
815.11	4.918
815.41	11.940
815.72	3.448
816.02	16.071
816.32	-13.333
816.62	-20.455
816.93	-8.889
817.23	7.407
817.53	-6.383
817.84	-14.286
818.14	-11.765
818.44	-6.122
818.74	0.000
819.04	-25.641
819.35	-25.714
819.65	-50.000
819.95	-7.547
820.25	15.556
820.56	-23.810
820.86	-25.000
821.16	-20.513
821.46	-39.535
821.76	-16.000
822.07	-16.071
822.37	-28.261
822.67	-19.149
822.97	-32.432
823.27	-15.000
823.57	6.122
823.88	-13.333
824.18	-15.000
824.48	-40.000
824.78	-28.000
825.08	-24.242
825.38	-4.444
825.69	0.000
825.99	-11.111
826.29	-40.000
826.59	-23.077
826.89	-9.302
827.19	-26.000
827.49	-41.176
827.79	6.250
828.09	-13.514
828.39	-56.667
828.70	-34.146
829.00	-41.860
829.30	-53.571
829.60	-38.235
829.90	-32.609
830.20	-28.571
830.50	-51.724
830.80	-66.667
831.10	-65.385
831.40	-23.529
831.70	-57.143
832.00	19.355
832.30	-170.588
832.60	-66.667
832.90	-169.231
833.20	-142.105
833.50	-100.000
833.80	-21.053
834.10	-80.952
834.40	11.111
834.70	-15.625
835.00	-57.143
835.30	-20.588
835.60	-53.333
835.90	-56.000
836.20	-90.909
836.50	-44.000
836.80	-66.667
837.10	-55.556
837.40	-37.037
837.70	-150.000
838.00	-25.000
838.30	-73.913
838.60	-27.586
838.90	-78.571
839.19	-113.043
839.49	-150.000
839.79	-60.870
840.09	-137.500
840.39	-90.000
840.69	-32.258
840.99	-67.857
841.29	-166.667
841.59	-131.579
841.88	-25.641
842.18	-57.692
842.48	-170.000
842.78	-50.000
843.08	-40.000
843.38	-41.935
843.68	-111.111
843.97	-8.824
844.27	-50.000
844.57	-115.789
844.87	-270.000
845.17	-100.000
845.47	-95.238
845.76	-52.381
846.06	-122.222
846.36	-141.176
846.66	-69.231
846.96	-140.000
847.25	-105.882
847.55	-13.043
847.85	-55.000
848.15	-64.706
848.44	-118.182
848.74	-76.190
849.04	-79.167
849.34	-125.000
849.63	-26.087
849.93	1050.000
850.23	-86.667
850.53	-38.462
850.82	-145.455
851.12	-59.091
851.42	-154.545
851.71	-69.231
852.01	-100.000
852.31	-115.385
852.61	-121.053
852.90	-133.333
853.20	-50.000
853.50	-322.222
853.79	-76.190
854.09	-63.636
854.39	-108.333
854.68	-29.032
854.98	-53.846
855.28	-38.889
855.57	-50.000
855.87	-36.000
856.17	-72.727
856.46	-25.926
856.76	-88.889
857.05	-73.913
857.35	-66.667
857.65	-153.846
857.94	-23.810
858.24	-37.037
858.53	-82.609
858.83	-100.000
859.13	-94.118
859.42	-141.176
859.72	-71.429
860.01	-105.000
860.31	-166.667
860.60	-130.000
860.90	-53.333
861.20	-138.889
861.49	-123.077
861.79	-70.000
862.08	-107.692
862.38	-46.875
862.67	-94.118
862.97	-100.000
863.26	-188.889
863.56	-210.000
863.85	-190.909
864.15	-127.778
864.44	-733.333
864.74	-157.143
865.03	-106.250
865.33	-310.000
865.62	-61.290
865.92	-95.455
866.21	-78.261
866.51	-121.429
866.80	-580.000
867.10	-141.667
867.39	-216.667
867.69	2300.000
867.98	-228.571
868.27	-117.647
868.57	-3400.000
868.86	-280.000
869.16	-85.714
869.45	-100.000
869.75	-200.000
870.04	-228.571
870.33	-133.333
870.63	-357.143
870.92	-625.000
871.22	-400.000
871.51	-245.455
871.80	-933.333
872.10	-1250.000
>>>>>End Processed Spectral Data<<<<<
