SpectraSuite Data File
++++++++++++++++++++++++++++++++++++
Date: Thu May 14 14:54:34 PDT 2015
User: schluterlab
Dark Spectrum Present: Yes
Reference Spectrum Present: Yes
Number of Sampled Component Spectra: 1
Spectrometers: USB2E3373
Integration Time (usec): 3000 (USB2E3373)
Spectra Averaged: 3 (USB2E3373)
Boxcar Smoothing: 0 (USB2E3373)
Correct for Electrical Dark: No (USB2E3373)
Strobe/Lamp Enabled: No (USB2E3373)
Correct for Detector Non-linearity: No (USB2E3373)
Correct for Stray Light: No (USB2E3373)
Number of Pixels in Processed Spectrum: 2048
>>>>>Begin Processed Spectral Data<<<<<
178.53	0.000
178.91	328.571
179.29	-2700.000
179.67	-1400.000
180.04	200.000
180.42	220.000
180.80	140.000
181.18	-1000.000
181.56	-500.000
181.94	450.000
182.31	-125.000
182.69	466.667
183.07	-850.000
183.45	525.000
183.83	-283.333
184.20	-333.333
184.58	1400.000
184.96	-175.000
185.34	-144.444
185.72	-260.000
186.09	277.778
186.47	700.000
186.85	420.000
187.23	-200.000
187.61	-2000.000
187.98	220.000
188.36	400.000
188.74	-175.000
189.12	-366.667
189.49	-50.000
189.87	-187.500
190.25	-111.111
190.63	-280.000
191.00	-188.889
191.38	0.000
191.76	-400.000
192.14	-333.333
192.51	950.000
192.89	-150.000
193.27	0.000
193.65	-171.429
194.02	-2500.000
194.40	-271.429
194.78	185.714
195.15	0.000
195.53	-118.182
195.91	0.000
196.29	-375.000
196.66	-30.769
197.04	-1600.000
197.42	-142.857
197.79	-600.000
198.17	-137.500
198.55	-285.714
198.92	-33.333
199.30	-200.000
199.68	-27.273
200.05	-21.429
200.43	-600.000
200.81	242.857
201.18	0.000
201.56	244.444
201.94	0.000
202.31	933.333
202.69	-233.333
203.07	1500.000
203.44	-77.778
203.82	-375.000
204.19	-175.000
204.57	-200.000
204.95	-150.000
205.32	-1500.000
205.70	350.000
206.08	-283.333
206.45	-266.667
206.83	480.000
207.20	-166.667
207.58	-440.000
207.96	-383.333
208.33	-150.000
208.71	158.333
209.08	-133.333
209.46	0.000
209.84	383.333
210.21	350.000
210.59	450.000
210.96	833.333
211.34	-225.000
211.71	-225.000
212.09	-1500.000
212.46	0.000
212.84	1150.000
213.22	-380.000
213.59	-325.000
213.97	-150.000
214.34	-633.333
214.72	400.000
215.09	-425.000
215.47	0.000
215.84	228.571
216.22	950.000
216.59	-200.000
216.97	-240.000
217.34	-375.000
217.72	-100.000
218.09	-275.000
218.47	-525.000
218.84	0.000
219.22	140.000
219.59	-76.471
219.97	-35.000
220.34	1000.000
220.72	-177.778
221.09	-61.538
221.47	-300.000
221.84	-150.000
222.22	-185.714
222.59	0.000
222.97	-162.500
223.34	-500.000
223.72	-1300.000
224.09	-325.000
224.46	-225.000
224.84	-240.000
225.21	-242.857
225.59	-550.000
225.96	-250.000
226.34	-15.385
226.71	316.667
227.08	-850.000
227.46	-80.000
227.83	-475.000
228.21	15.789
228.58	200.000
228.95	450.000
229.33	-25.000
229.70	-80.000
230.08	5.263
230.45	200.000
230.82	-433.333
231.20	-42.857
231.57	-50.000
231.95	-63.636
232.32	-100.000
232.69	-30.000
233.07	-250.000
233.44	-94.118
233.81	-120.000
234.19	5.556
234.56	-27.273
234.93	-20.690
235.31	-52.632
235.68	-50.000
236.05	-95.000
236.43	15.385
236.80	40.000
237.17	-11.111
237.55	3.030
237.92	-80.000
238.29	-9.677
238.67	-22.727
239.04	-22.222
239.41	-11.905
239.79	-8.696
240.16	7.407
240.53	-8.696
240.91	-25.490
241.28	-11.475
241.65	11.940
242.02	17.568
242.40	4.615
242.77	-2.667
243.14	-6.098
243.51	-1.316
243.89	-2.564
244.26	13.861
244.63	12.745
245.00	7.477
245.38	7.895
245.75	-5.310
246.12	19.048
246.49	14.729
246.87	17.857
247.24	12.583
247.61	15.132
247.98	12.081
248.36	12.346
248.73	11.043
249.10	14.754
249.47	21.393
249.84	18.325
250.22	17.098
250.59	16.667
250.96	12.273
251.33	16.837
251.70	20.085
252.08	17.083
252.45	19.672
252.82	14.463
253.19	17.969
253.56	17.110
253.94	16.538
254.31	17.803
254.68	21.329
255.05	19.218
255.42	17.347
255.79	15.210
256.16	18.543
256.54	16.556
256.91	20.984
257.28	15.082
257.65	16.242
258.02	19.174
258.39	19.088
258.76	22.324
259.14	22.126
259.51	16.427
259.88	19.263
260.25	20.556
260.62	19.452
260.99	21.311
261.36	22.252
261.73	19.098
262.10	20.055
262.47	22.252
262.85	20.707
263.22	18.442
263.59	15.526
263.96	20.460
264.33	17.903
264.70	22.222
265.07	21.480
265.44	20.408
265.81	17.593
266.18	21.769
266.55	20.759
266.92	20.957
267.29	22.976
267.66	20.177
268.03	20.524
268.40	21.294
268.77	17.312
269.14	18.502
269.51	17.105
269.88	20.082
270.25	23.944
270.62	21.308
270.99	21.414
271.36	18.812
271.73	18.861
272.10	19.439
272.47	20.641
272.84	19.478
273.21	18.637
273.58	21.976
273.95	20.000
274.32	19.582
274.69	20.309
275.06	20.147
275.43	17.560
275.80	18.695
276.17	19.259
276.54	17.724
276.91	18.605
277.28	18.083
277.65	19.928
278.02	19.118
278.39	22.464
278.76	21.265
279.13	20.390
279.50	19.416
279.87	20.572
280.23	16.725
280.60	19.322
280.97	22.697
281.34	19.015
281.71	21.658
282.08	20.100
282.45	18.003
282.82	18.838
283.19	19.063
283.56	17.869
283.92	18.619
284.29	21.801
284.66	18.719
285.03	17.788
285.40	19.320
285.77	19.350
286.14	20.000
286.51	18.569
286.87	19.115
287.24	20.331
287.61	18.685
287.98	19.335
288.35	16.420
288.72	17.604
289.08	20.498
289.45	17.899
289.82	16.265
290.19	16.810
290.56	19.577
290.93	17.404
291.29	17.355
291.66	18.595
292.03	15.739
292.40	19.048
292.77	16.846
293.13	17.321
293.50	16.557
293.87	15.302
294.24	17.067
294.60	18.078
294.97	15.302
295.34	15.749
295.71	14.880
296.08	14.987
296.44	14.828
296.81	15.469
297.18	16.438
297.55	14.623
297.91	15.540
298.28	16.114
298.65	15.339
299.02	14.994
299.38	15.332
299.75	14.369
300.12	13.657
300.48	15.092
300.85	15.636
301.22	15.436
301.59	14.726
301.95	13.559
302.32	14.444
302.69	14.239
303.05	15.125
303.42	14.523
303.79	15.208
304.15	14.616
304.52	14.799
304.89	15.183
305.25	14.907
305.62	14.107
305.99	13.505
306.35	14.516
306.72	14.891
307.09	14.112
307.45	15.217
307.82	14.934
308.19	14.228
308.55	14.561
308.92	14.606
309.29	14.847
309.65	12.963
310.02	13.564
310.38	13.287
310.75	14.951
311.12	14.286
311.48	13.978
311.85	14.435
312.22	14.421
312.58	14.742
312.95	13.098
313.31	13.550
313.68	15.201
314.05	15.537
314.41	14.572
314.78	14.078
315.14	14.882
315.51	14.681
315.87	14.671
316.24	14.521
316.61	14.831
316.97	14.570
317.34	14.286
317.70	15.109
318.07	14.727
318.43	14.456
318.80	15.635
319.16	13.820
319.53	15.253
319.89	14.110
320.26	15.480
320.62	15.071
320.99	14.497
321.35	13.771
321.72	15.349
322.08	13.165
322.45	14.544
322.81	14.982
323.18	15.044
323.54	14.741
323.91	15.214
324.27	13.855
324.64	15.533
325.00	14.345
325.37	14.742
325.73	15.950
326.10	15.896
326.46	16.205
326.83	15.612
327.19	15.039
327.56	15.020
327.92	15.421
328.29	14.597
328.65	15.327
329.01	16.159
329.38	14.490
329.74	14.812
330.11	15.582
330.47	16.007
330.84	14.384
331.20	15.417
331.56	16.291
331.93	16.234
332.29	16.271
332.66	15.698
333.02	16.080
333.38	15.688
333.75	14.646
334.11	15.930
334.48	16.007
334.84	15.888
335.20	15.029
335.57	16.610
335.93	16.116
336.29	14.725
336.66	16.569
337.02	16.221
337.38	15.561
337.75	14.793
338.11	14.971
338.47	15.633
338.84	14.298
339.20	16.091
339.56	14.168
339.93	14.450
340.29	15.700
340.65	14.112
341.02	15.642
341.38	16.492
341.74	14.124
342.11	15.768
342.47	14.376
342.83	16.023
343.20	15.617
343.56	14.755
343.92	14.732
344.28	14.766
344.65	15.116
345.01	15.133
345.37	14.619
345.73	15.511
346.10	15.757
346.46	15.190
346.82	15.506
347.19	15.737
347.55	15.023
347.91	14.933
348.27	14.264
348.63	15.385
349.00	15.138
349.36	15.539
349.72	14.732
350.08	15.676
350.45	14.601
350.81	15.762
351.17	15.639
351.53	14.026
351.89	15.869
352.26	14.925
352.62	15.746
352.98	14.046
353.34	14.787
353.70	15.177
354.07	15.425
354.43	14.579
354.79	14.585
355.15	15.011
355.51	16.447
355.87	15.557
356.24	15.133
356.60	15.521
356.96	14.678
357.32	15.167
357.68	15.300
358.04	14.746
358.40	14.328
358.77	14.839
359.13	15.362
359.49	14.796
359.85	16.171
360.21	14.778
360.57	14.573
360.93	14.951
361.29	14.877
361.66	14.772
362.02	16.562
362.38	16.304
362.74	14.944
363.10	16.300
363.46	14.958
363.82	15.412
364.18	15.693
364.54	15.076
364.90	15.452
365.26	14.897
365.62	16.067
365.98	15.112
366.35	16.040
366.71	15.374
367.07	14.750
367.43	15.430
367.79	16.058
368.15	16.321
368.51	15.359
368.87	16.199
369.23	15.400
369.59	16.735
369.95	15.145
370.31	16.745
370.67	15.337
371.03	15.997
371.39	15.312
371.75	16.713
372.11	15.921
372.47	15.166
372.83	16.688
373.19	15.477
373.55	15.379
373.91	15.542
374.27	15.783
374.63	16.982
374.99	16.512
375.35	16.818
375.71	15.613
376.07	16.010
376.42	16.499
376.78	16.408
377.14	15.783
377.50	15.370
377.86	17.365
378.22	15.868
378.58	16.944
378.94	16.432
379.30	16.520
379.66	16.578
380.02	17.253
380.38	16.532
380.74	16.000
381.09	16.492
381.45	17.216
381.81	17.506
382.17	17.458
382.53	17.310
382.89	16.874
383.25	17.116
383.61	15.741
383.97	16.961
384.32	17.703
384.68	17.169
385.04	17.872
385.40	18.562
385.76	18.230
386.12	18.013
386.48	18.059
386.83	18.355
387.19	18.019
387.55	17.547
387.91	17.751
388.27	18.360
388.62	17.526
388.98	17.936
389.34	17.737
389.70	18.884
390.06	18.058
390.42	18.133
390.77	19.205
391.13	18.310
391.49	18.237
391.85	17.697
392.20	18.327
392.56	18.488
392.92	18.866
393.28	17.800
393.64	18.883
393.99	18.942
394.35	19.159
394.71	18.623
395.07	18.204
395.42	18.275
395.78	19.317
396.14	20.083
396.50	18.290
396.85	18.605
397.21	18.876
397.57	19.258
397.92	19.301
398.28	19.283
398.64	18.650
399.00	18.743
399.35	18.586
399.71	19.511
400.07	19.652
400.42	19.674
400.78	18.171
401.14	19.636
401.49	19.159
401.85	19.360
402.21	18.946
402.57	20.188
402.92	19.031
403.28	19.028
403.63	17.780
403.99	19.240
404.35	19.159
404.70	20.000
405.06	19.239
405.42	19.848
405.77	19.684
406.13	19.935
406.49	19.651
406.84	19.557
407.20	19.508
407.55	19.685
407.91	18.793
408.27	20.554
408.62	20.303
408.98	19.849
409.34	18.827
409.69	20.025
410.05	19.812
410.40	20.360
410.76	20.079
411.11	20.339
411.47	19.840
411.83	20.106
412.18	20.723
412.54	20.036
412.89	20.955
413.25	20.542
413.60	20.333
413.96	20.280
414.31	19.943
414.67	20.274
415.03	19.692
415.38	20.366
415.74	19.731
416.09	20.481
416.45	19.912
416.80	20.869
417.16	20.754
417.51	20.548
417.87	20.601
418.22	20.120
418.58	20.322
418.93	21.304
419.29	20.838
419.64	20.168
420.00	20.237
420.35	21.112
420.71	20.735
421.06	20.357
421.42	20.356
421.77	20.571
422.12	21.247
422.48	20.533
422.83	21.468
423.19	20.637
423.54	21.128
423.90	20.928
424.25	21.120
424.61	21.240
424.96	20.868
425.31	21.709
425.67	20.827
426.02	21.804
426.38	21.584
426.73	21.261
427.09	22.145
427.44	20.972
427.79	20.951
428.15	20.719
428.50	21.966
428.85	19.805
429.21	22.074
429.56	21.076
429.92	21.278
430.27	21.687
430.62	21.397
430.98	22.528
431.33	21.212
431.68	21.312
432.04	21.788
432.39	21.800
432.74	22.489
433.10	21.850
433.45	21.293
433.80	21.567
434.16	22.262
434.51	22.251
434.86	22.150
435.22	22.795
435.57	23.054
435.92	23.094
436.28	23.038
436.63	22.774
436.98	22.115
437.34	22.492
437.69	21.959
438.04	21.576
438.39	22.286
438.75	22.413
439.10	23.044
439.45	22.918
439.81	22.825
440.16	22.520
440.51	22.798
440.86	21.234
441.22	22.347
441.57	22.379
441.92	22.696
442.27	22.828
442.63	22.553
442.98	23.639
443.33	22.777
443.68	23.687
444.03	24.130
444.39	23.902
444.74	23.073
445.09	23.011
445.44	22.339
445.79	23.276
446.15	22.662
446.50	22.997
446.85	23.833
447.20	23.694
447.55	24.163
447.91	23.246
448.26	23.309
448.61	23.007
448.96	24.034
449.31	23.860
449.66	23.312
450.02	23.576
450.37	24.294
450.72	23.789
451.07	23.918
451.42	24.148
451.77	23.569
452.12	23.476
452.47	23.529
452.83	23.818
453.18	23.526
453.53	22.688
453.88	24.572
454.23	24.011
454.58	23.854
454.93	23.180
455.28	23.841
455.63	24.957
455.98	25.140
456.34	24.558
456.69	24.456
457.04	24.409
457.39	23.503
457.74	24.049
458.09	23.668
458.44	25.269
458.79	22.898
459.14	24.017
459.49	24.675
459.84	24.397
460.19	23.654
460.54	24.872
460.89	24.722
461.24	24.310
461.59	24.848
461.94	23.046
462.29	25.196
462.64	24.019
462.99	23.729
463.34	24.724
463.69	24.033
464.04	24.625
464.39	23.711
464.74	24.002
465.09	23.875
465.44	24.303
465.79	24.749
466.14	24.440
466.49	24.789
466.84	24.959
467.19	24.740
467.54	23.796
467.89	24.253
468.24	24.266
468.59	24.493
468.94	24.068
469.29	24.055
469.64	24.221
469.99	25.303
470.34	25.062
470.68	24.812
471.03	25.475
471.38	24.460
471.73	25.098
472.08	25.635
472.43	24.684
472.78	25.378
473.13	25.095
473.48	25.438
473.83	25.653
474.17	25.850
474.52	24.895
474.87	25.305
475.22	25.465
475.57	25.182
475.92	25.286
476.27	25.399
476.61	25.026
476.96	24.192
477.31	24.950
477.66	25.971
478.01	25.572
478.36	25.274
478.70	25.665
479.05	25.102
479.40	25.518
479.75	26.177
480.10	25.107
480.45	25.433
480.79	25.125
481.14	25.000
481.49	25.625
481.84	25.283
482.19	25.032
482.53	25.842
482.88	26.230
483.23	25.611
483.58	25.852
483.92	25.355
484.27	25.318
484.62	25.330
484.97	26.361
485.31	25.378
485.66	23.548
486.01	23.527
486.36	24.261
486.70	25.947
487.05	26.367
487.40	25.911
487.75	25.573
488.09	25.303
488.44	24.877
488.79	25.700
489.13	25.018
489.48	24.932
489.83	25.191
490.17	25.071
490.52	25.000
490.87	25.761
491.22	26.256
491.56	25.683
491.91	26.254
492.26	25.833
492.60	26.017
492.95	25.450
493.30	25.325
493.64	26.763
493.99	26.140
494.34	25.697
494.68	25.953
495.03	26.388
495.37	25.788
495.72	26.168
496.07	25.986
496.41	25.268
496.76	26.439
497.11	25.945
497.45	25.982
497.80	26.299
498.14	25.669
498.49	25.781
498.84	26.325
499.18	26.451
499.53	26.278
499.87	26.330
500.22	25.735
500.56	26.316
500.91	26.819
501.26	26.636
501.60	26.513
501.95	26.140
502.29	27.117
502.64	25.973
502.98	25.884
503.33	26.307
503.67	26.079
504.02	25.657
504.36	27.122
504.71	27.285
505.06	26.739
505.40	26.463
505.75	26.867
506.09	26.565
506.44	27.437
506.78	26.468
507.13	26.694
507.47	27.049
507.82	27.083
508.16	27.390
508.51	26.957
508.85	27.256
509.19	27.665
509.54	27.666
509.88	26.809
510.23	28.120
510.57	28.130
510.92	27.818
511.26	27.465
511.61	27.233
511.95	27.282
512.30	28.311
512.64	27.136
512.98	27.564
513.33	28.125
513.67	28.047
514.02	27.798
514.36	27.263
514.70	28.021
515.05	28.519
515.39	28.136
515.74	28.738
516.08	27.839
516.42	30.037
516.77	28.444
517.11	28.932
517.46	28.473
517.80	29.717
518.14	28.672
518.49	28.905
518.83	29.271
519.17	29.079
519.52	29.298
519.86	29.937
520.20	28.647
520.55	29.189
520.89	29.448
521.23	28.867
521.58	30.847
521.92	29.405
522.26	30.011
522.61	29.745
522.95	29.585
523.29	29.943
523.64	29.709
523.98	30.633
524.32	30.544
524.66	30.791
525.01	30.294
525.35	29.351
525.69	29.930
526.04	29.506
526.38	30.230
526.72	29.815
527.06	30.440
527.41	30.087
527.75	30.998
528.09	29.811
528.43	29.189
528.78	29.480
529.12	30.562
529.46	29.455
529.80	30.892
530.15	30.957
530.49	30.961
530.83	30.106
531.17	29.211
531.51	30.265
531.86	29.627
532.20	31.159
532.54	30.221
532.88	29.758
533.22	30.171
533.57	29.890
533.91	30.752
534.25	29.508
534.59	31.092
534.93	29.711
535.27	30.197
535.62	30.984
535.96	31.203
536.30	29.965
536.64	31.291
536.98	30.689
537.32	31.852
537.66	30.381
538.01	29.970
538.35	30.329
538.69	30.469
539.03	31.024
539.37	29.976
539.71	30.390
540.05	29.736
540.39	29.768
540.73	29.447
541.07	30.656
541.42	29.533
541.76	30.071
542.10	30.881
542.44	29.354
542.78	31.630
543.12	30.989
543.46	29.548
543.80	29.616
544.14	29.803
544.48	29.433
544.82	31.478
545.16	30.650
545.50	30.138
545.84	30.312
546.18	30.926
546.52	30.892
546.86	30.000
547.20	31.170
547.54	29.900
547.88	29.837
548.22	30.351
548.56	30.837
548.90	30.746
549.24	31.003
549.58	31.356
549.92	30.804
550.26	31.909
550.60	29.292
550.94	30.466
551.28	30.957
551.62	31.806
551.96	30.097
552.30	31.612
552.64	30.554
552.98	30.193
553.32	31.704
553.66	30.225
554.00	31.148
554.34	30.438
554.68	31.181
555.02	30.486
555.36	31.558
555.69	30.301
556.03	30.265
556.37	30.663
556.71	31.072
557.05	30.607
557.39	31.520
557.73	31.770
558.07	30.331
558.41	30.365
558.75	30.967
559.08	31.106
559.42	30.453
559.76	31.750
560.10	31.078
560.44	31.926
560.78	31.000
561.12	30.911
561.45	31.387
561.79	31.074
562.13	31.978
562.47	29.778
562.81	30.253
563.15	31.376
563.48	31.386
563.82	30.472
564.16	31.314
564.50	31.228
564.84	30.737
565.17	30.882
565.51	29.517
565.85	30.879
566.19	30.012
566.52	29.491
566.86	31.353
567.20	29.473
567.54	30.112
567.88	30.938
568.21	30.138
568.55	31.079
568.89	31.049
569.23	30.123
569.56	30.012
569.90	29.473
570.24	29.713
570.57	29.442
570.91	29.210
571.25	28.840
571.59	28.890
571.92	29.371
572.26	29.010
572.60	28.447
572.93	28.945
573.27	28.772
573.61	28.745
573.95	28.089
574.28	28.101
574.62	28.627
574.96	28.297
575.29	27.803
575.63	27.720
575.97	28.719
576.30	27.831
576.64	28.275
576.98	27.813
577.31	28.143
577.65	27.961
577.98	28.163
578.32	27.671
578.66	27.855
578.99	28.077
579.33	28.590
579.67	28.490
580.00	28.186
580.34	27.661
580.67	28.089
581.01	28.321
581.35	27.723
581.68	27.826
582.02	27.752
582.35	28.445
582.69	28.789
583.02	28.051
583.36	28.035
583.70	28.357
584.03	28.126
584.37	28.413
584.70	27.873
585.04	27.528
585.37	27.994
585.71	27.465
586.04	28.380
586.38	28.366
586.72	28.378
587.05	28.524
587.39	28.646
587.72	28.278
588.06	28.603
588.39	27.981
588.73	28.016
589.06	28.442
589.40	28.703
589.73	28.824
590.07	28.382
590.40	28.837
590.73	28.526
591.07	29.077
591.40	28.188
591.74	27.981
592.07	29.963
592.41	28.312
592.74	28.612
593.08	29.490
593.41	28.988
593.75	28.477
594.08	29.294
594.41	28.782
594.75	28.662
595.08	28.331
595.42	28.929
595.75	28.899
596.09	29.482
596.42	30.168
596.75	29.101
597.09	28.404
597.42	29.241
597.75	28.538
598.09	28.968
598.42	28.790
598.76	29.003
599.09	29.299
599.42	27.925
599.76	28.722
600.09	28.595
600.42	28.929
600.76	28.831
601.09	28.443
601.42	28.150
601.76	28.690
602.09	28.878
602.42	27.953
602.76	28.524
603.09	28.965
603.42	29.191
603.76	28.224
604.09	29.560
604.42	28.771
604.76	28.082
605.09	29.238
605.42	29.904
605.75	27.962
606.09	28.742
606.42	28.238
606.75	27.886
607.09	28.379
607.42	29.672
607.75	28.644
608.08	28.019
608.42	29.141
608.75	29.022
609.08	28.650
609.41	29.202
609.75	29.375
610.08	28.672
610.41	28.632
610.74	29.034
611.07	29.529
611.41	28.789
611.74	29.192
612.07	30.435
612.40	28.422
612.73	30.073
613.07	28.460
613.40	29.355
613.73	29.225
614.06	30.079
614.39	29.106
614.72	29.355
615.06	28.730
615.39	28.081
615.72	30.095
616.05	29.529
616.38	29.364
616.71	29.519
617.05	28.541
617.38	29.160
617.71	29.482
618.04	28.602
618.37	29.672
618.70	30.373
619.03	29.630
619.36	29.531
619.69	29.532
620.03	30.069
620.36	29.141
620.69	29.673
621.02	30.184
621.35	30.697
621.68	31.020
622.01	30.463
622.34	30.195
622.67	29.897
623.00	29.960
623.33	30.524
623.66	30.545
623.99	28.966
624.32	31.709
624.65	30.116
624.99	31.599
625.32	30.699
625.65	29.670
625.98	30.576
626.31	29.766
626.64	30.403
626.97	30.983
627.30	30.676
627.63	30.458
627.96	32.132
628.29	31.128
628.62	30.814
628.95	30.850
629.28	30.926
629.61	31.902
629.94	29.958
630.26	31.017
630.59	30.138
630.92	29.264
631.25	31.843
631.58	32.203
631.91	31.209
632.24	30.451
632.57	30.930
632.90	30.692
633.23	33.980
633.56	31.327
633.89	30.888
634.22	32.121
634.55	32.255
634.88	31.385
635.20	32.723
635.53	33.785
635.86	31.419
636.19	32.025
636.52	32.489
636.85	31.767
637.18	31.497
637.51	31.935
637.83	33.223
638.16	33.756
638.49	32.160
638.82	31.229
639.15	31.157
639.48	32.794
639.81	30.947
640.13	33.216
640.46	30.424
640.79	32.843
641.12	31.801
641.45	31.870
641.77	35.430
642.10	32.546
642.43	31.782
642.76	32.249
643.09	32.192
643.41	32.353
643.74	32.690
644.07	36.000
644.40	32.956
644.73	30.044
645.05	33.186
645.38	33.813
645.71	34.604
646.04	33.142
646.36	31.971
646.69	33.282
647.02	33.945
647.35	34.046
647.67	33.011
648.00	32.643
648.33	32.583
648.66	33.238
648.98	32.653
649.31	30.717
649.64	32.404
649.96	31.963
650.29	30.737
650.62	31.683
650.94	33.183
651.27	29.940
651.60	31.140
651.92	33.891
652.25	32.706
652.58	31.912
652.90	31.541
653.23	33.803
653.56	31.812
653.88	33.567
654.21	31.549
654.54	29.913
654.86	32.578
655.19	29.862
655.52	31.923
655.84	29.346
656.17	34.159
656.49	46.804
656.82	50.411
657.15	38.635
657.47	29.446
657.80	21.688
658.13	16.826
658.45	22.001
658.78	26.587
659.10	25.550
659.43	25.434
659.75	25.091
660.08	24.538
660.41	24.731
660.73	27.366
661.06	29.809
661.38	29.187
661.71	32.931
662.03	32.804
662.36	32.558
662.68	33.208
663.01	31.858
663.33	34.026
663.66	33.333
663.98	32.692
664.31	32.645
664.63	31.792
664.96	34.483
665.28	31.034
665.61	31.643
665.93	29.643
666.26	31.900
666.58	32.288
666.91	33.458
667.23	34.286
667.56	33.531
667.88	33.800
668.21	31.641
668.53	32.239
668.86	31.631
669.18	32.587
669.50	30.616
669.83	31.000
670.15	33.661
670.48	34.921
670.80	32.887
671.13	32.325
671.45	32.283
671.77	35.593
672.10	29.833
672.42	30.744
672.75	31.951
673.07	29.254
673.39	28.814
673.72	31.711
674.04	32.414
674.37	33.095
674.69	33.157
675.01	32.571
675.34	34.351
675.66	29.963
675.98	32.090
676.31	33.984
676.63	33.080
676.95	32.567
677.28	32.661
677.60	29.921
677.92	29.559
678.25	32.724
678.57	30.961
678.89	31.058
679.22	28.746
679.54	30.085
679.86	29.322
680.18	32.670
680.51	30.660
680.83	29.133
681.15	28.966
681.48	30.915
681.80	31.088
682.12	29.371
682.44	31.052
682.77	30.851
683.09	33.144
683.41	32.171
683.73	32.068
684.06	30.443
684.38	30.233
684.70	28.905
685.02	32.874
685.34	31.448
685.67	27.129
685.99	29.601
686.31	27.907
686.63	29.542
686.96	28.233
687.28	27.524
687.60	28.788
687.92	29.100
688.24	30.384
688.56	29.828
688.89	30.127
689.21	30.333
689.53	29.608
689.85	29.586
690.17	28.148
690.49	32.271
690.82	28.911
691.14	29.352
691.46	30.402
691.78	31.860
692.10	27.890
692.42	27.321
692.74	30.853
693.06	27.963
693.39	30.171
693.71	28.759
694.03	28.625
694.35	28.381
694.67	27.310
694.99	29.362
695.31	29.581
695.63	33.117
695.95	30.228
696.27	29.451
696.59	30.088
696.91	31.982
697.23	32.088
697.56	29.124
697.88	31.250
698.20	29.755
698.52	30.492
698.84	31.393
699.16	31.633
699.48	29.289
699.80	29.149
700.12	31.878
700.44	26.728
700.76	29.929
701.08	31.961
701.40	31.088
701.72	30.100
702.04	30.481
702.36	30.366
702.68	28.606
703.00	28.606
703.32	27.586
703.64	29.095
703.96	30.549
704.28	26.290
704.60	29.620
704.91	28.827
705.23	30.959
705.55	30.362
705.87	31.818
706.19	29.448
706.51	28.313
706.83	31.412
707.15	27.778
707.47	26.402
707.79	28.384
708.11	24.364
708.43	26.667
708.74	25.223
709.06	27.378
709.38	29.577
709.70	32.258
710.02	29.199
710.34	30.851
710.66	29.609
710.98	26.776
711.29	26.374
711.61	29.944
711.93	31.054
712.25	26.757
712.57	30.973
712.89	27.941
713.20	29.882
713.52	31.214
713.84	27.298
714.16	30.000
714.48	28.608
714.80	29.351
715.11	27.559
715.43	28.647
715.75	29.211
716.07	25.967
716.39	27.869
716.70	28.012
717.02	25.902
717.34	26.829
717.66	27.852
717.97	22.260
718.29	26.117
718.61	29.276
718.93	25.566
719.24	27.329
719.56	30.982
719.88	27.027
720.20	29.032
720.51	28.571
720.83	30.313
721.15	29.934
721.46	26.712
721.78	30.333
722.10	23.948
722.42	25.503
722.73	27.742
723.05	30.877
723.37	30.903
723.68	31.900
724.00	31.408
724.32	27.465
724.63	25.524
724.95	26.596
725.27	25.784
725.58	27.562
725.90	29.655
726.22	28.213
726.53	27.922
726.85	29.245
727.16	27.795
727.48	29.969
727.80	26.159
728.11	21.555
728.43	31.987
728.74	28.763
729.06	22.517
729.38	28.247
729.69	28.859
730.01	26.786
730.32	25.152
730.64	27.044
730.96	23.602
731.27	29.050
731.59	26.648
731.90	23.377
732.22	29.167
732.53	23.757
732.85	27.429
733.16	26.979
733.48	27.134
733.80	27.019
734.11	27.920
734.43	29.459
734.74	28.354
735.06	25.126
735.37	27.838
735.69	28.108
736.00	25.989
736.32	23.181
736.63	27.500
736.95	28.161
737.26	27.879
737.58	23.636
737.89	28.235
738.21	23.853
738.52	27.541
738.83	25.939
739.15	24.468
739.46	26.531
739.78	27.607
740.09	26.074
740.41	27.114
740.72	24.000
741.04	28.803
741.35	26.316
741.66	27.843
741.98	26.639
742.29	30.544
742.61	31.579
742.92	27.692
743.23	26.354
743.55	25.581
743.86	24.800
744.18	22.314
744.49	25.738
744.80	27.984
745.12	25.738
745.43	24.797
745.74	24.569
746.06	27.542
746.37	28.692
746.68	34.553
747.00	27.917
747.31	26.609
747.62	25.385
747.94	21.862
748.25	22.892
748.56	24.082
748.88	24.786
749.19	29.741
749.50	25.541
749.82	32.530
750.13	27.758
750.44	23.333
750.75	23.692
751.07	26.769
751.38	27.760
751.69	30.351
752.01	23.948
752.32	27.451
752.63	28.571
752.94	25.260
753.26	25.651
753.57	26.296
753.88	19.476
754.19	24.437
754.51	23.151
754.82	24.116
755.13	28.525
755.44	23.891
755.75	27.632
756.07	26.567
756.38	27.358
756.69	30.120
757.00	26.039
757.31	25.137
757.63	23.785
757.94	23.944
758.25	27.088
758.56	26.797
758.87	23.182
759.18	23.733
759.50	25.779
759.81	27.171
760.12	25.067
760.43	27.083
760.74	27.340
761.05	26.500
761.36	24.337
761.67	23.350
761.99	24.595
762.30	24.085
762.61	23.432
762.92	24.627
763.23	24.719
763.54	24.101
763.85	27.148
764.16	25.253
764.47	25.352
764.78	23.003
765.10	24.340
765.41	25.641
765.72	23.810
766.03	22.034
766.34	17.868
766.65	21.951
766.96	22.709
767.27	30.876
767.58	21.393
767.89	30.288
768.20	26.761
768.51	23.148
768.82	25.703
769.13	28.030
769.44	17.692
769.75	27.076
770.06	25.769
770.37	29.134
770.68	19.149
770.99	22.267
771.30	31.852
771.61	19.392
771.92	22.222
772.23	25.911
772.54	18.981
772.85	28.571
773.16	22.381
773.47	20.635
773.78	17.838
774.09	25.568
774.39	25.500
774.70	25.137
775.01	21.341
775.32	13.529
775.63	22.699
775.94	10.191
776.25	23.871
776.56	32.692
776.87	26.531
777.18	26.207
777.48	16.783
777.79	20.946
778.10	22.059
778.41	19.444
778.72	23.448
779.03	24.074
779.34	21.212
779.65	20.725
779.95	22.222
780.26	18.182
780.57	20.645
780.88	23.188
781.19	26.452
781.50	28.235
781.80	29.032
782.11	20.106
782.42	17.172
782.73	14.371
783.04	17.877
783.34	12.121
783.65	16.993
783.96	24.224
784.27	20.238
784.57	18.543
784.88	22.857
785.19	14.961
785.50	22.835
785.81	18.797
786.11	23.846
786.42	13.669
786.73	15.827
787.04	19.549
787.34	20.492
787.65	19.200
787.96	23.134
788.26	22.378
788.57	17.483
788.88	16.447
789.19	21.569
789.49	14.384
789.80	19.858
790.11	21.260
790.41	17.969
790.72	27.966
791.03	8.738
791.33	18.261
791.64	22.807
791.95	9.821
792.25	13.333
792.56	19.643
792.87	17.708
793.17	20.536
793.48	16.667
793.79	6.024
794.09	14.679
794.40	14.679
794.70	15.646
795.01	18.831
795.32	17.808
795.62	21.127
795.93	18.182
796.23	25.410
796.54	10.714
796.85	15.957
797.15	15.217
797.46	15.068
797.76	-2.500
798.07	20.652
798.37	-1.031
798.68	18.182
798.99	12.644
799.29	4.494
799.60	18.085
799.90	10.843
800.21	-1.538
800.51	4.478
800.82	16.176
801.12	-9.589
801.43	5.882
801.73	-5.085
802.04	15.152
802.34	8.333
802.65	5.085
802.95	4.478
803.26	10.169
803.56	6.849
803.87	18.571
804.17	0.000
804.48	3.509
804.78	8.333
805.09	-8.621
805.39	21.622
805.70	5.634
806.00	13.415
806.30	2.410
806.61	17.808
806.91	7.692
807.22	15.556
807.52	10.345
807.83	27.778
808.13	14.458
808.43	11.236
808.74	11.250
809.04	8.824
809.35	4.000
809.65	-2.857
809.95	12.329
810.26	10.526
810.56	-1.724
810.86	-1.471
811.17	0.000
811.47	-14.754
811.77	-20.000
812.08	-8.475
812.38	-3.333
812.69	3.448
812.99	-5.660
813.29	-10.256
813.59	2.000
813.90	8.772
814.20	-3.636
814.50	15.493
814.81	17.949
815.11	16.393
815.41	0.000
815.72	13.793
816.02	5.357
816.32	15.556
816.62	13.636
816.93	11.111
817.23	11.111
817.53	0.000
817.84	9.524
818.14	8.824
818.44	-14.286
818.74	13.333
819.04	-23.077
819.35	-37.143
819.65	-57.692
819.95	7.547
820.25	-11.111
820.56	-11.905
820.86	-37.500
821.16	-12.821
821.46	-20.930
821.76	-18.000
822.07	-14.286
822.37	13.043
822.67	-6.383
822.97	-43.243
823.27	-15.000
823.57	18.367
823.88	-2.222
824.18	0.000
824.48	16.667
824.78	8.000
825.08	6.061
825.38	35.556
825.69	-21.277
825.99	0.000
826.29	-25.714
826.59	-2.564
826.89	-6.977
827.19	10.000
827.49	0.000
827.79	12.500
828.09	-18.919
828.39	-36.667
828.70	-26.829
829.00	4.651
829.30	-10.714
829.60	-5.882
829.90	-8.696
830.20	-34.286
830.50	-10.345
830.80	-72.222
831.10	-23.077
831.40	0.000
831.70	-28.571
832.00	-22.581
832.30	-111.765
832.60	20.833
832.90	-123.077
833.20	-52.632
833.50	-45.000
833.80	-68.421
834.10	-100.000
834.40	2.778
834.70	18.750
835.00	-48.571
835.30	-2.941
835.60	-30.000
835.90	-56.000
836.20	-77.273
836.50	0.000
836.80	-42.424
837.10	-14.815
837.40	-18.519
837.70	-68.750
838.00	-28.571
838.30	-82.609
838.60	-10.345
838.90	-64.286
839.19	-78.261
839.49	-66.667
839.79	-39.130
840.09	-93.750
840.39	-45.000
840.69	-19.355
840.99	-3.571
841.29	-26.667
841.59	21.053
841.88	10.256
842.18	-15.385
842.48	-140.000
842.78	-65.000
843.08	10.000
843.38	-16.129
843.68	-44.444
843.97	-23.529
844.27	-25.000
844.57	-42.105
844.87	-70.000
845.17	-120.000
845.47	-14.286
845.76	-61.905
846.06	-177.778
846.36	-47.059
846.66	-26.923
846.96	-66.667
847.25	-58.824
847.55	-13.043
847.85	-30.000
848.15	-5.882
848.44	-81.818
848.74	-4.762
849.04	-62.500
849.34	-81.250
849.63	-21.739
849.93	1050.000
850.23	-80.000
850.53	-11.538
850.82	-136.364
851.12	-4.545
851.42	-63.636
851.71	-53.846
852.01	-60.000
852.31	-115.385
852.61	-47.368
852.90	-91.667
853.20	-55.556
853.50	-211.111
853.79	-61.905
854.09	-50.000
854.39	-158.333
854.68	-9.677
854.98	-15.385
855.28	-61.111
855.57	-42.857
855.87	-48.000
856.17	-81.818
856.46	-29.630
856.76	-77.778
857.05	-17.391
857.35	-20.833
857.65	-61.538
857.94	-66.667
858.24	-18.519
858.53	-4.348
858.83	-5.882
859.13	-29.412
859.42	-70.588
859.72	-50.000
860.01	-30.000
860.31	-111.111
860.60	-110.000
860.90	-33.333
861.20	-38.889
861.49	-92.308
861.79	-20.000
862.08	-15.385
862.38	-25.000
862.67	5.882
862.97	-75.000
863.26	-166.667
863.56	20.000
863.85	-118.182
864.15	-50.000
864.44	-533.333
864.74	-128.571
865.03	-75.000
865.33	-200.000
865.62	-41.935
865.92	-22.727
866.21	-43.478
866.51	-57.143
866.80	-300.000
867.10	-66.667
867.39	-200.000
867.69	2500.000
867.98	-85.714
868.27	-41.176
868.57	-2000.000
868.86	-250.000
869.16	-4.762
869.45	-45.833
869.75	-27.273
870.04	-342.857
870.33	-108.333
870.63	-342.857
870.92	-275.000
871.22	-300.000
871.51	-172.727
871.80	-500.000
872.10	-900.000
>>>>>End Processed Spectral Data<<<<<
