SpectraSuite Data File
++++++++++++++++++++++++++++++++++++
Date: Thu May 14 14:45:42 PDT 2015
User: schluterlab
Dark Spectrum Present: Yes
Reference Spectrum Present: Yes
Number of Sampled Component Spectra: 1
Spectrometers: USB2E3373
Integration Time (usec): 3000 (USB2E3373)
Spectra Averaged: 3 (USB2E3373)
Boxcar Smoothing: 0 (USB2E3373)
Correct for Electrical Dark: No (USB2E3373)
Strobe/Lamp Enabled: No (USB2E3373)
Correct for Detector Non-linearity: No (USB2E3373)
Correct for Stray Light: No (USB2E3373)
Number of Pixels in Processed Spectrum: 2048
>>>>>Begin Processed Spectral Data<<<<<
178.53	0.000
178.91	-0.000
179.29	-600.000
179.67	300.000
180.04	100.000
180.42	90.000
180.80	-0.000
181.18	-400.000
181.56	100.000
181.94	300.000
182.31	-125.000
182.69	66.667
183.07	-200.000
183.45	-225.000
183.83	-16.667
184.20	100.000
184.58	300.000
184.96	-325.000
185.34	-33.333
185.72	-160.000
186.09	66.667
186.47	50.000
186.85	120.000
187.23	-88.889
187.61	-300.000
187.98	220.000
188.36	175.000
188.74	-50.000
189.12	66.667
189.49	25.000
189.87	-12.500
190.25	22.222
190.63	80.000
191.00	-44.444
191.38	0.000
191.76	-200.000
192.14	133.333
192.51	350.000
192.89	133.333
193.27	0.000
193.65	71.429
194.02	-900.000
194.40	-114.286
194.78	-14.286
195.15	0.000
195.53	36.364
195.91	0.000
196.29	-50.000
196.66	61.538
197.04	500.000
197.42	-42.857
197.79	50.000
198.17	62.500
198.55	0.000
198.92	122.222
199.30	-50.000
199.68	45.455
200.05	64.286
200.43	-350.000
200.81	71.429
201.18	0.000
201.56	200.000
201.94	0.000
202.31	300.000
202.69	22.222
203.07	-400.000
203.44	55.556
203.82	-175.000
204.19	-41.667
204.57	0.000
204.95	-12.500
205.32	-600.000
205.70	50.000
206.08	50.000
206.45	-50.000
206.83	140.000
207.20	33.333
207.58	-160.000
207.96	-133.333
208.33	-66.667
208.71	50.000
209.08	150.000
209.46	0.000
209.84	33.333
210.21	-100.000
210.59	-200.000
210.96	166.667
211.34	225.000
211.71	12.500
212.09	-200.000
212.46	0.000
212.84	400.000
213.22	-140.000
213.59	125.000
213.97	30.000
214.34	166.667
214.72	-83.333
215.09	-75.000
215.47	0.000
215.84	71.429
216.22	-50.000
216.59	180.000
216.97	-20.000
217.34	125.000
217.72	-12.500
218.09	-225.000
218.47	-225.000
218.84	0.000
219.22	-20.000
219.59	-5.882
219.97	65.000
220.34	600.000
220.72	22.222
221.09	61.538
221.47	100.000
221.84	-20.000
222.22	-128.571
222.59	0.000
222.97	175.000
223.34	-80.000
223.72	100.000
224.09	-50.000
224.46	-75.000
224.84	100.000
225.21	-14.286
225.59	-125.000
225.96	25.000
226.34	3.846
226.71	166.667
227.08	-350.000
227.46	13.333
227.83	0.000
228.21	31.579
228.58	-125.000
228.95	150.000
229.33	91.667
229.70	80.000
230.08	47.368
230.45	50.000
230.82	-33.333
231.20	28.571
231.57	0.000
231.95	-45.455
232.32	72.727
232.69	0.000
233.07	-200.000
233.44	23.529
233.81	60.000
234.19	38.889
234.56	31.818
234.93	41.379
235.31	21.053
235.68	66.667
236.05	-10.000
236.43	38.462
236.80	40.000
237.17	40.741
237.55	18.182
237.92	-40.000
238.29	6.452
238.67	0.000
239.04	-11.111
239.41	16.667
239.79	6.522
240.16	20.370
240.53	19.565
240.91	-13.725
241.28	3.279
241.65	19.403
242.02	22.973
242.40	9.231
242.77	4.000
243.14	7.317
243.51	5.263
243.89	7.692
244.26	22.772
244.63	15.686
245.00	15.888
245.38	10.526
245.75	-4.425
246.12	15.079
246.49	4.651
246.87	10.714
247.24	13.245
247.61	17.105
247.98	8.725
248.36	12.963
248.73	1.227
249.10	10.383
249.47	14.925
249.84	15.707
250.22	10.881
250.59	15.000
250.96	12.727
251.33	9.694
251.70	8.547
252.08	12.083
252.45	10.246
252.82	13.223
253.19	8.203
253.56	13.688
253.94	10.000
254.31	10.227
254.68	14.685
255.05	14.332
255.42	7.823
255.79	10.032
256.16	8.940
256.54	8.278
256.91	10.820
257.28	10.164
257.65	7.962
258.02	8.260
258.39	13.105
258.76	11.621
259.14	12.931
259.51	8.934
259.88	12.181
260.25	8.056
260.62	12.055
260.99	12.568
261.36	9.651
261.73	11.406
262.10	10.440
262.47	11.528
262.85	11.869
263.22	7.273
263.59	9.211
263.96	12.276
264.33	10.230
264.70	11.111
265.07	15.990
265.44	12.925
265.81	12.500
266.18	9.977
266.55	10.491
266.92	7.289
267.29	12.691
267.66	9.756
268.03	10.480
268.40	10.647
268.77	8.884
269.14	8.150
269.51	10.526
269.88	10.451
270.25	11.066
270.62	9.494
270.99	12.727
271.36	11.485
271.73	10.216
272.10	9.419
272.47	9.218
272.84	10.241
273.21	11.824
273.58	12.903
273.95	8.462
274.32	10.837
274.69	9.091
275.06	10.440
275.43	9.242
275.80	11.640
276.17	7.222
276.54	10.261
276.91	10.733
277.28	10.307
277.65	10.413
278.02	11.581
278.39	10.507
278.76	10.018
279.13	9.752
279.50	10.481
279.87	10.733
280.23	7.042
280.60	9.831
280.97	9.704
281.34	10.526
281.71	11.675
282.08	8.638
282.45	8.838
282.82	9.419
283.19	8.885
283.56	8.033
283.92	10.811
284.29	11.374
284.66	9.688
285.03	10.096
285.40	10.355
285.77	8.514
286.14	10.229
286.51	9.285
286.87	8.373
287.24	9.036
287.61	8.371
287.98	10.121
288.35	9.172
288.72	8.432
289.08	10.835
289.45	8.284
289.82	8.434
290.19	8.333
290.56	9.718
290.93	7.989
291.29	9.229
291.66	8.953
292.03	8.955
292.40	10.612
292.77	9.299
293.13	8.525
293.50	7.359
293.87	7.919
294.24	10.933
294.60	10.493
294.97	6.711
295.34	8.963
295.71	10.467
296.08	8.915
296.44	9.314
296.81	9.013
297.18	8.717
297.55	7.665
297.91	7.829
298.28	6.754
298.65	7.491
299.02	9.327
299.38	9.611
299.75	8.879
300.12	6.829
300.48	8.756
300.85	9.449
301.22	9.732
301.59	9.361
301.95	8.249
302.32	9.556
302.69	8.762
303.05	10.337
303.42	9.867
303.79	8.229
304.15	8.517
304.52	7.294
304.89	10.366
305.25	8.489
305.62	9.091
305.99	10.412
306.35	9.073
306.72	10.031
307.09	8.731
307.45	9.834
307.82	11.201
308.19	9.082
308.55	9.836
308.92	9.153
309.29	9.387
309.65	9.064
310.02	9.604
310.38	10.630
310.75	10.485
311.12	10.067
311.48	10.557
311.85	10.636
312.22	9.298
312.58	10.704
312.95	9.943
313.31	11.292
313.68	12.179
314.05	11.382
314.41	12.477
314.78	11.898
315.14	12.341
315.51	12.742
315.87	13.591
316.24	14.247
316.61	14.121
316.97	13.846
317.34	13.933
317.70	14.236
318.07	15.344
318.43	14.966
318.80	16.221
319.16	15.708
319.53	16.538
319.89	16.126
320.26	17.260
320.62	17.199
320.99	18.006
321.35	18.392
321.72	19.814
322.08	18.756
322.45	19.332
322.81	19.314
323.18	19.735
323.54	20.086
323.91	20.730
324.27	20.998
324.64	21.662
325.00	19.900
325.37	20.885
325.73	21.570
326.10	22.871
326.46	23.046
326.83	22.818
327.19	22.992
327.56	24.190
327.92	24.233
328.29	23.710
328.65	24.288
329.01	24.788
329.38	25.190
329.74	26.284
330.11	26.969
330.47	26.959
330.84	26.098
331.20	26.750
331.56	28.250
331.93	28.536
332.29	27.627
332.66	29.236
333.02	27.722
333.38	26.678
333.75	28.030
334.11	28.607
334.48	28.630
334.84	29.652
335.20	29.471
335.57	29.764
335.93	30.083
336.29	28.369
336.66	27.754
337.02	29.933
337.38	28.912
337.75	29.339
338.11	30.193
338.47	28.371
338.84	29.695
339.20	29.739
339.56	28.830
339.93	30.049
340.29	29.388
340.65	29.116
341.02	29.928
341.38	30.315
341.74	30.428
342.11	30.088
342.47	30.739
342.83	30.032
343.20	30.335
343.56	29.431
343.92	30.104
344.28	29.531
344.65	31.240
345.01	28.939
345.37	31.026
345.73	30.320
346.10	31.279
346.46	30.459
346.82	30.037
347.19	30.099
347.55	30.197
347.91	31.278
348.27	30.501
348.63	31.379
349.00	30.127
349.36	30.186
349.72	30.208
350.08	30.386
350.45	30.114
350.81	30.694
351.17	31.429
351.53	31.463
351.89	31.207
352.26	30.522
352.62	30.821
352.98	31.069
353.34	31.367
353.70	31.895
354.07	30.179
354.43	30.144
354.79	29.768
355.15	29.875
355.51	30.702
355.87	30.740
356.24	31.711
356.60	31.633
356.96	31.357
357.32	30.855
357.68	31.625
358.04	31.063
358.40	32.313
358.77	30.775
359.13	30.724
359.49	30.706
359.85	31.109
360.21	31.133
360.57	30.581
360.93	31.805
361.29	32.070
361.66	31.933
362.02	32.637
362.38	32.607
362.74	33.450
363.10	32.531
363.46	31.856
363.82	31.534
364.18	33.216
364.54	31.881
364.90	32.441
365.26	33.517
365.62	33.333
365.98	34.173
366.35	32.483
366.71	32.925
367.07	33.491
367.43	33.552
367.79	33.378
368.15	34.849
368.51	33.897
368.87	33.965
369.23	33.800
369.59	34.358
369.95	33.874
370.31	34.841
370.67	34.457
371.03	34.972
371.39	33.378
371.75	34.388
372.11	35.230
372.47	33.920
372.83	34.948
373.19	34.623
373.55	34.350
373.91	34.833
374.27	34.605
374.63	35.386
374.99	35.345
375.35	35.649
375.71	36.710
376.07	36.346
376.42	36.209
376.78	35.550
377.14	35.995
377.50	36.116
377.86	37.746
378.22	37.665
378.58	37.515
378.94	36.444
379.30	37.493
379.66	38.036
380.02	37.450
380.38	38.249
380.74	38.254
381.09	39.489
381.45	38.807
381.81	40.164
382.17	39.430
382.53	39.649
382.89	38.375
383.25	40.914
383.61	39.178
383.97	40.165
384.32	41.328
384.68	40.197
385.04	41.180
385.40	41.485
385.76	42.732
386.12	41.472
386.48	42.824
386.83	43.445
387.19	41.599
387.55	41.901
387.91	42.237
388.27	42.898
388.62	42.383
388.98	42.583
389.34	42.074
389.70	43.405
390.06	43.043
390.42	43.313
390.77	43.528
391.13	43.427
391.49	43.720
391.85	43.576
392.20	43.416
392.56	42.882
392.92	44.002
393.28	44.721
393.64	44.413
393.99	44.741
394.35	45.269
394.71	45.629
395.07	45.269
395.42	44.660
395.78	45.948
396.14	45.395
396.50	44.715
396.85	44.425
397.21	45.680
397.57	44.641
397.92	45.647
398.28	45.030
398.64	44.508
399.00	44.031
399.35	45.864
399.71	45.707
400.07	46.154
400.42	45.984
400.78	46.123
401.14	45.987
401.49	46.049
401.85	47.384
402.21	46.524
402.57	47.359
402.92	46.513
403.28	46.136
403.63	46.301
403.99	46.496
404.35	45.992
404.70	46.119
405.06	45.598
405.42	46.136
405.77	46.619
406.13	46.894
406.49	46.227
406.84	45.651
407.20	46.730
407.55	46.154
407.91	46.763
408.27	45.760
408.62	47.586
408.98	46.605
409.34	45.865
409.69	45.921
410.05	46.659
410.40	47.332
410.76	46.495
411.11	47.750
411.47	45.946
411.83	46.972
412.18	47.590
412.54	48.429
412.89	47.730
413.25	47.630
413.60	47.099
413.96	47.902
414.31	46.686
414.67	46.094
415.03	46.769
415.38	48.739
415.74	47.770
416.09	47.563
416.45	46.838
416.80	45.532
417.16	48.020
417.51	48.319
417.87	48.253
418.22	48.623
418.58	47.770
418.93	48.487
419.29	49.753
419.64	47.359
420.00	48.131
420.35	48.624
420.71	48.191
421.06	47.211
421.42	49.713
421.77	47.496
422.12	47.199
422.48	48.285
422.83	49.398
423.19	48.435
423.54	49.281
423.90	49.310
424.25	50.347
424.61	48.335
424.96	48.874
425.31	49.416
425.67	48.792
426.02	49.972
426.38	49.770
426.73	49.609
427.09	49.827
427.44	49.317
427.79	50.636
428.15	49.258
428.50	49.944
428.85	50.459
429.21	49.681
429.56	49.951
429.92	50.565
430.27	49.976
430.62	50.024
430.98	50.369
431.33	50.196
431.68	50.575
432.04	51.498
432.39	50.616
432.74	49.829
433.10	51.650
433.45	50.613
433.80	50.429
434.16	51.136
434.51	52.775
434.86	52.226
435.22	52.816
435.57	52.889
435.92	51.586
436.28	52.162
436.63	52.649
436.98	51.583
437.34	52.649
437.69	52.614
438.04	51.507
438.39	52.154
438.75	52.131
439.10	52.167
439.45	52.655
439.81	53.955
440.16	52.011
440.51	52.731
440.86	52.863
441.22	52.519
441.57	53.407
441.92	52.522
442.27	54.192
442.63	52.707
442.98	53.042
443.33	53.551
443.68	53.370
444.03	54.892
444.39	52.196
444.74	53.241
445.09	53.320
445.44	53.952
445.79	54.550
446.15	53.905
446.50	54.057
446.85	54.669
447.20	53.433
447.55	54.603
447.91	53.822
448.26	53.858
448.61	53.560
448.96	54.882
449.31	53.234
449.66	53.268
450.02	54.800
450.37	53.703
450.72	54.198
451.07	54.271
451.42	54.882
451.77	54.808
452.12	54.853
452.47	53.773
452.83	56.813
453.18	54.641
453.53	55.198
453.88	54.114
454.23	54.972
454.58	55.427
454.93	55.461
455.28	56.472
455.63	54.292
455.98	55.642
456.34	55.477
456.69	54.615
457.04	57.447
457.39	55.044
457.74	55.705
458.09	55.354
458.44	55.550
458.79	54.667
459.14	53.644
459.49	56.310
459.84	55.771
460.19	55.136
460.54	57.070
460.89	56.432
461.24	54.943
461.59	56.447
461.94	54.250
462.29	56.159
462.64	55.281
462.99	56.309
463.34	56.846
463.69	54.455
464.04	56.587
464.39	56.951
464.74	54.846
465.09	56.920
465.44	56.277
465.79	57.113
466.14	56.071
466.49	56.053
466.84	56.860
467.19	56.012
467.54	54.700
467.89	56.092
468.24	56.731
468.59	55.704
468.94	55.420
469.29	55.789
469.64	56.071
469.99	56.469
470.34	55.817
470.68	57.621
471.03	57.629
471.38	56.835
471.73	57.672
472.08	57.551
472.43	55.750
472.78	57.053
473.13	57.712
473.48	56.556
473.83	56.820
474.17	56.800
474.52	57.306
474.87	56.257
475.22	57.746
475.57	56.127
475.92	55.948
476.27	57.135
476.61	56.802
476.96	56.257
477.31	56.683
477.66	57.503
478.01	57.143
478.36	56.530
478.70	57.537
479.05	58.333
479.40	58.095
479.75	56.868
480.10	56.087
480.45	57.293
480.79	55.873
481.14	56.480
481.49	56.611
481.84	57.137
482.19	57.376
482.53	57.805
482.88	57.510
483.23	58.559
483.58	58.035
483.92	56.871
484.27	56.605
484.62	56.972
484.97	57.348
485.31	56.529
485.66	53.578
486.01	53.684
486.36	55.304
486.70	58.028
487.05	58.162
487.40	57.557
487.75	57.761
488.09	57.340
488.44	56.073
488.79	57.066
489.13	56.988
489.48	56.039
489.83	56.016
490.17	56.015
490.52	56.691
490.87	56.218
491.22	57.799
491.56	57.637
491.91	57.043
492.26	57.421
492.60	57.892
492.95	58.271
493.30	57.239
493.64	57.205
493.99	57.193
494.34	57.317
494.68	57.859
495.03	57.533
495.37	59.121
495.72	57.007
496.07	57.493
496.41	57.572
496.76	59.133
497.11	58.514
497.45	57.877
497.80	58.685
498.14	57.007
498.49	57.812
498.84	58.592
499.18	58.480
499.53	58.161
499.87	59.385
500.22	58.014
500.56	58.704
500.91	59.405
501.26	58.091
501.60	58.330
501.95	58.011
502.29	58.666
502.64	58.636
502.98	56.816
503.33	57.322
503.67	57.697
504.02	56.918
504.36	59.920
504.71	59.669
505.06	57.890
505.40	58.272
505.75	58.197
506.09	58.241
506.44	59.192
506.78	58.028
507.13	58.045
507.47	59.072
507.82	58.902
508.16	58.126
508.51	58.462
508.85	60.321
509.19	59.024
509.54	59.366
509.88	59.932
510.23	59.446
510.57	60.077
510.92	58.926
511.26	59.067
511.61	58.716
511.95	57.833
512.30	59.035
512.64	57.671
512.98	58.329
513.33	59.577
513.67	59.306
514.02	59.939
514.36	60.307
514.70	59.375
515.05	60.271
515.39	60.315
515.74	59.703
516.08	59.694
516.42	61.015
516.77	59.832
517.11	59.206
517.46	59.650
517.80	61.251
518.14	60.065
518.49	60.954
518.83	59.872
519.17	60.258
519.52	59.958
519.86	60.718
520.20	59.851
520.55	60.350
520.89	60.417
521.23	61.083
521.58	62.147
521.92	60.397
522.26	59.622
522.61	60.648
522.95	60.957
523.29	60.862
523.64	59.529
523.98	60.810
524.32	61.433
524.66	61.411
525.01	60.419
525.35	60.712
525.69	61.195
526.04	59.989
526.38	60.862
526.72	60.323
527.06	60.645
527.41	61.924
527.75	62.411
528.09	60.449
528.43	60.568
528.78	59.827
529.12	59.461
529.46	59.584
529.80	60.927
530.15	60.638
530.49	60.617
530.83	60.744
531.17	58.961
531.51	59.446
531.86	61.358
532.20	61.524
532.54	60.084
532.88	60.667
533.22	61.226
533.57	60.473
533.91	59.933
534.25	61.051
534.59	60.517
534.93	60.272
535.27	59.775
535.62	60.375
535.96	62.231
536.30	60.047
536.64	62.042
536.98	61.255
537.32	61.296
537.66	60.948
538.01	60.544
538.35	59.622
538.69	60.036
539.03	60.208
539.37	60.365
539.71	60.000
540.05	60.432
540.39	58.557
540.73	58.531
541.07	61.803
541.42	59.303
541.76	58.719
542.10	59.710
542.44	60.658
542.78	60.949
543.12	59.237
543.46	58.364
543.80	59.532
544.14	60.443
544.48	59.338
544.82	59.904
545.16	60.883
545.50	59.676
545.84	60.012
546.18	61.605
546.52	60.446
546.86	59.811
547.20	61.323
547.54	60.237
547.88	59.011
548.22	60.234
548.56	60.562
548.90	59.940
549.24	60.486
549.58	58.927
549.92	59.949
550.26	61.294
550.60	59.732
550.94	61.384
551.28	59.604
551.62	60.849
551.96	58.835
552.30	62.269
552.64	60.485
552.98	60.262
553.32	61.543
553.66	60.450
554.00	60.277
554.34	60.232
554.68	58.812
555.02	60.775
555.36	60.815
555.69	59.705
556.03	59.710
556.37	60.263
556.71	60.685
557.05	61.406
557.39	59.987
557.73	60.370
558.07	60.530
558.41	61.063
558.75	60.446
559.08	61.587
559.42	59.739
559.76	60.041
560.10	59.545
560.44	60.092
560.78	61.062
561.12	59.606
561.45	60.645
561.79	61.722
562.13	62.046
562.47	60.173
562.81	60.759
563.15	60.669
563.48	60.348
563.82	60.157
564.16	59.782
564.50	59.237
564.84	59.174
565.17	59.588
565.51	59.091
565.85	60.214
566.19	59.735
566.52	60.971
566.86	59.310
567.20	58.891
567.54	59.639
567.88	58.512
568.21	58.794
568.55	59.808
568.89	59.283
569.23	58.090
569.56	57.366
569.90	57.912
570.24	57.808
570.57	57.473
570.91	56.644
571.25	55.597
571.59	57.167
571.92	55.997
572.26	56.114
572.60	56.702
572.93	56.220
573.27	56.729
573.61	55.876
573.95	56.421
574.28	55.594
574.62	55.821
574.96	55.117
575.29	54.792
575.63	55.648
575.97	54.922
576.30	54.898
576.64	54.569
576.98	55.376
577.31	56.132
577.65	55.881
577.98	55.102
578.32	54.918
578.66	55.221
578.99	55.458
579.33	55.825
579.67	55.666
580.00	55.878
580.34	55.454
580.67	55.163
581.01	55.084
581.35	55.017
581.68	54.694
582.02	54.609
582.35	55.459
582.69	56.175
583.02	55.747
583.36	56.131
583.70	56.055
584.03	55.436
584.37	55.394
584.70	54.181
585.04	55.243
585.37	55.170
585.71	55.059
586.04	55.262
586.38	56.012
586.72	55.703
587.05	56.280
587.39	55.772
587.72	56.603
588.06	56.359
588.39	55.838
588.73	55.714
589.06	56.179
589.40	57.314
589.73	56.298
590.07	56.432
590.40	56.389
590.73	56.911
591.07	57.483
591.40	56.843
591.74	57.949
592.07	57.734
592.41	56.427
592.74	56.869
593.08	56.656
593.41	56.168
593.75	55.747
594.08	56.983
594.41	56.891
594.75	55.762
595.08	56.662
595.42	56.558
595.75	56.345
596.09	56.727
596.42	56.288
596.75	57.198
597.09	58.101
597.42	56.694
597.75	56.723
598.09	56.270
598.42	57.218
598.76	56.630
599.09	55.999
599.42	55.649
599.76	55.761
600.09	56.490
600.42	55.389
600.76	56.341
601.09	55.128
601.42	55.922
601.76	55.276
602.09	56.004
602.42	55.289
602.76	56.052
603.09	56.608
603.42	57.298
603.76	56.836
604.09	57.665
604.42	56.330
604.76	56.811
605.09	56.961
605.42	56.459
605.75	56.154
606.09	56.700
606.42	54.980
606.75	56.297
607.09	55.722
607.42	55.992
607.75	56.546
608.08	55.525
608.42	55.824
608.75	54.809
609.08	56.494
609.41	57.830
609.75	57.455
610.08	57.080
610.41	55.947
610.74	56.471
611.07	56.616
611.41	56.323
611.74	58.938
612.07	57.317
612.40	56.892
612.73	57.555
613.07	56.968
613.40	56.689
613.73	55.850
614.06	57.213
614.39	56.317
614.72	56.914
615.06	55.919
615.39	56.307
615.72	56.730
616.05	57.067
616.38	57.770
616.71	58.150
617.05	56.390
617.38	56.287
617.71	57.613
618.04	57.258
618.37	58.033
618.70	57.636
619.03	57.706
619.36	56.720
619.69	58.232
620.03	57.753
620.36	57.975
620.69	57.619
621.02	59.055
621.35	60.377
621.68	59.219
622.01	58.790
622.34	57.950
622.67	58.419
623.00	57.220
623.33	59.589
623.66	57.912
623.99	56.945
624.32	58.739
624.65	57.272
624.99	59.103
625.32	57.740
625.65	60.486
625.98	58.102
626.31	59.036
626.64	58.462
626.97	58.140
627.30	59.833
627.63	58.515
627.96	59.459
628.29	58.833
628.62	58.522
628.95	60.999
629.28	61.088
629.61	59.764
629.94	59.582
630.26	60.424
630.59	60.535
630.92	59.221
631.25	59.928
631.58	62.712
631.91	61.668
632.24	60.038
632.57	58.918
632.90	60.983
633.23	60.612
633.56	60.510
633.89	59.607
634.22	62.578
634.55	61.378
634.88	60.931
635.20	62.433
635.53	61.243
635.86	59.697
636.19	60.445
636.52	62.236
636.85	59.755
637.18	61.435
637.51	60.968
637.83	62.680
638.16	61.982
638.49	62.089
638.82	60.767
639.15	61.856
639.48	62.471
639.81	60.855
640.13	62.426
640.46	60.242
640.79	60.172
641.12	60.124
641.45	58.971
641.77	64.827
642.10	62.073
642.43	63.564
642.76	62.737
643.09	61.370
643.41	60.364
643.74	62.207
644.07	61.931
644.40	61.386
644.73	62.990
645.05	62.408
645.38	61.727
645.71	62.463
646.04	61.836
646.36	60.292
646.69	63.497
647.02	62.080
647.35	62.137
647.67	64.090
648.00	62.739
648.33	63.814
648.66	62.197
648.98	58.639
649.31	61.705
649.64	60.425
649.96	58.090
650.29	57.997
650.62	57.709
650.94	60.661
651.27	60.180
651.60	56.725
651.92	60.486
652.25	61.360
652.58	57.772
652.90	58.430
653.23	60.563
653.56	61.912
653.88	59.551
654.21	60.282
654.54	60.116
654.86	57.790
655.19	57.967
655.52	54.589
655.84	51.052
656.17	60.752
656.49	84.339
656.82	93.009
657.15	73.392
657.47	55.602
657.80	41.255
658.13	32.423
658.45	42.980
658.78	51.260
659.10	50.515
659.43	50.150
659.75	51.034
660.08	49.356
660.41	51.778
660.73	54.390
661.06	57.856
661.38	59.171
661.71	60.172
662.03	61.905
662.36	62.075
662.68	64.165
663.01	59.292
663.33	61.815
663.66	62.637
663.98	63.077
664.31	62.289
664.63	62.235
664.96	62.250
665.28	56.987
665.61	60.315
665.93	60.714
666.26	60.573
666.58	58.118
666.91	61.682
667.23	62.857
667.56	62.130
667.88	64.200
668.21	58.789
668.53	59.459
668.86	60.707
669.18	61.711
669.50	62.425
669.83	61.800
670.15	58.858
670.48	59.921
670.80	59.656
671.13	58.412
671.45	60.236
671.77	62.524
672.10	57.333
672.42	56.149
672.75	58.372
673.07	56.716
673.39	57.165
673.72	59.564
674.04	61.724
674.37	60.107
674.69	58.554
675.01	63.048
675.34	60.496
675.66	55.805
675.98	60.075
676.31	60.742
676.63	58.745
676.95	59.195
677.28	60.081
677.60	57.087
677.92	61.420
678.25	57.587
678.57	59.075
678.89	59.386
679.22	54.704
679.54	56.410
679.86	54.068
680.18	57.214
680.51	57.390
680.83	56.792
681.15	57.586
681.48	57.686
681.80	57.340
682.12	58.392
682.44	56.093
682.77	54.610
683.09	56.439
683.41	56.589
683.73	58.065
684.06	56.827
684.38	55.098
684.70	57.630
685.02	56.971
685.34	56.739
685.67	54.416
685.99	53.834
686.31	53.052
686.63	54.976
686.96	56.467
687.28	54.723
687.60	55.387
687.92	54.823
688.24	53.923
688.56	53.448
688.89	54.991
689.21	55.577
689.53	53.137
689.85	56.016
690.17	53.519
690.49	58.367
690.82	55.050
691.14	55.870
691.46	55.832
691.78	55.433
692.10	56.697
692.42	54.286
692.74	52.269
693.06	53.148
693.39	57.306
693.71	56.579
694.03	54.275
694.35	52.952
694.67	56.263
694.99	58.085
695.31	54.525
695.63	56.061
695.95	58.178
696.27	58.462
696.59	56.416
696.91	57.883
697.23	56.923
697.56	55.601
697.88	56.439
698.20	55.179
698.52	53.220
698.84	55.925
699.16	56.939
699.48	53.975
699.80	54.255
700.12	53.493
700.44	54.147
700.76	56.532
701.08	57.143
701.40	56.218
701.72	54.975
702.04	58.824
702.36	53.403
702.68	55.012
703.00	53.545
703.32	58.128
703.64	55.257
703.96	57.757
704.28	53.317
704.60	59.241
704.91	57.908
705.23	57.808
705.55	55.989
705.87	58.788
706.19	60.429
706.51	55.723
706.83	53.890
707.15	53.439
707.47	53.271
707.79	52.838
708.11	51.695
708.43	52.688
708.74	51.116
709.06	51.740
709.38	57.042
709.70	54.591
710.02	50.388
710.34	60.106
710.66	55.028
710.98	57.104
711.29	53.297
711.61	57.627
711.93	59.829
712.25	51.351
712.57	57.227
712.89	56.176
713.20	55.325
713.52	56.647
713.84	54.596
714.16	52.105
714.48	51.289
714.80	55.065
715.11	54.331
715.43	54.642
715.75	56.316
716.07	50.276
716.39	51.366
716.70	49.398
717.02	57.705
717.34	57.491
717.66	59.732
717.97	54.795
718.29	54.983
718.61	52.961
718.93	52.751
719.24	53.106
719.56	54.908
719.88	52.853
720.20	54.516
720.51	53.727
720.83	54.063
721.15	52.632
721.46	55.822
721.78	53.667
722.10	48.220
722.42	49.664
722.73	46.774
723.05	57.544
723.37	55.556
723.68	50.179
724.00	57.401
724.32	50.704
724.63	47.552
724.95	58.156
725.27	51.220
725.58	54.064
725.90	55.172
726.22	54.545
726.53	56.169
726.85	49.371
727.16	51.360
727.48	54.434
727.80	50.000
728.11	51.237
728.43	55.892
728.74	51.171
729.06	54.636
729.38	51.299
729.69	52.349
730.01	49.702
730.32	46.667
730.64	54.088
730.96	53.727
731.27	49.441
731.59	50.549
731.90	48.831
732.22	44.792
732.53	48.066
732.85	48.286
733.16	48.974
733.48	49.695
733.80	49.304
734.11	45.584
734.43	48.108
734.74	52.152
735.06	47.739
735.37	51.351
735.69	49.459
736.00	49.718
736.32	46.631
736.63	48.333
736.95	47.989
737.26	53.636
737.58	49.091
737.89	49.118
738.21	45.872
738.52	49.508
738.83	46.758
739.15	51.773
739.46	49.660
739.78	48.160
740.09	48.424
740.41	48.980
740.72	53.000
741.04	46.278
741.35	47.018
741.66	50.980
741.98	52.459
742.29	49.372
742.61	54.825
742.92	45.000
743.23	50.181
743.55	47.287
743.86	49.600
744.18	45.041
744.49	46.414
744.80	51.029
745.12	54.852
745.43	50.000
745.74	49.569
746.06	56.356
746.37	50.211
746.68	54.065
747.00	48.750
747.31	51.502
747.62	51.538
747.94	51.012
748.25	51.004
748.56	53.878
748.88	47.436
749.19	48.707
749.50	52.381
749.82	52.610
750.13	51.957
750.44	47.000
750.75	46.462
751.07	45.538
751.38	46.057
751.69	46.006
752.01	45.955
752.32	48.693
752.63	45.578
752.94	48.097
753.26	44.610
753.57	47.778
753.88	48.689
754.19	51.768
754.51	44.695
754.82	44.695
755.13	46.230
755.44	49.829
755.75	46.053
756.07	47.463
756.38	43.711
756.69	46.084
757.00	47.091
757.31	46.448
757.63	42.711
757.94	42.254
758.25	46.275
758.56	45.534
758.87	44.091
759.18	42.667
759.50	47.592
759.81	45.098
760.12	45.553
760.43	47.135
760.74	45.320
761.05	44.500
761.36	41.928
761.67	44.670
761.99	45.946
762.30	46.037
762.61	41.584
762.92	46.642
763.23	46.067
763.54	48.201
763.85	48.110
764.16	42.088
764.47	48.944
764.78	47.923
765.10	45.455
765.41	45.641
765.72	42.328
766.03	44.633
766.34	40.125
766.65	45.296
766.96	46.614
767.27	52.074
767.58	43.781
767.89	52.885
768.20	42.254
768.51	41.204
768.82	45.783
769.13	46.591
769.44	43.077
769.75	49.097
770.06	47.308
770.37	49.606
770.68	46.809
770.99	43.320
771.30	42.963
771.61	42.586
771.92	44.444
772.23	52.227
772.54	45.370
772.85	47.005
773.16	46.190
773.47	45.503
773.78	44.865
774.09	47.159
774.39	46.000
774.70	49.180
775.01	35.976
775.32	37.059
775.63	47.239
775.94	37.580
776.25	46.452
776.56	44.872
776.87	48.980
777.18	44.138
777.48	46.853
777.79	45.946
778.10	37.500
778.41	48.611
778.72	51.034
779.03	48.148
779.34	47.879
779.65	41.969
779.95	47.778
780.26	44.318
780.57	45.806
780.88	55.797
781.19	49.032
781.50	47.647
781.80	45.161
782.11	47.619
782.42	41.414
782.73	45.509
783.04	42.458
783.34	40.000
783.65	35.948
783.96	40.994
784.27	39.286
784.57	41.722
784.88	38.571
785.19	40.945
785.50	48.819
785.81	39.098
786.11	46.154
786.42	38.129
786.73	35.971
787.04	47.368
787.34	47.541
787.65	49.600
787.96	45.522
788.26	48.252
788.57	46.853
788.88	42.763
789.19	47.712
789.49	42.466
789.80	45.390
790.11	40.945
790.41	45.312
790.72	39.831
791.03	33.010
791.33	39.130
791.64	48.246
791.95	33.929
792.25	45.714
792.56	45.536
792.87	41.667
793.17	41.071
793.48	40.625
793.79	38.554
794.09	38.532
794.40	44.037
794.70	38.776
795.01	32.468
795.32	32.877
795.62	46.479
795.93	37.121
796.23	43.443
796.54	45.536
796.85	39.362
797.15	39.130
797.46	52.055
797.76	46.250
798.07	45.652
798.37	35.052
798.68	32.468
798.99	41.379
799.29	41.573
799.60	36.170
799.90	44.578
800.21	36.923
800.51	50.746
800.82	50.000
801.12	42.466
801.43	33.824
801.73	30.508
802.04	31.818
802.34	23.333
802.65	38.983
802.95	43.284
803.26	47.458
803.56	52.055
803.87	41.429
804.17	54.795
804.48	40.351
804.78	34.722
805.09	8.621
805.39	37.838
805.70	36.620
806.00	48.780
806.30	50.602
806.61	32.877
806.91	39.423
807.22	32.222
807.52	24.138
807.83	40.278
808.13	54.217
808.43	38.202
808.74	43.750
809.04	38.235
809.35	46.667
809.65	35.714
809.95	39.726
810.26	29.825
810.56	39.655
810.86	51.471
811.17	36.842
811.47	24.590
811.77	24.444
812.08	33.898
812.38	58.333
812.69	58.621
812.99	47.170
813.29	51.282
813.59	42.000
813.90	40.351
814.20	40.000
814.50	54.930
814.81	34.615
815.11	39.344
815.41	41.791
815.72	51.724
816.02	53.571
816.32	64.444
816.62	56.818
816.93	40.000
817.23	12.963
817.53	29.787
817.84	28.571
818.14	82.353
818.44	44.898
818.74	55.556
819.04	33.333
819.35	51.429
819.65	38.462
819.95	30.189
820.25	37.778
820.56	45.238
820.86	31.250
821.16	48.718
821.46	13.953
821.76	22.000
822.07	37.500
822.37	36.957
822.67	31.915
822.97	10.811
823.27	47.500
823.57	55.102
823.88	37.778
824.18	65.000
824.48	40.000
824.78	40.000
825.08	36.364
825.38	35.556
825.69	55.319
825.99	58.333
826.29	28.571
826.59	41.026
826.89	23.256
827.19	42.000
827.49	44.118
827.79	45.833
828.09	35.135
828.39	16.667
828.70	46.341
829.00	37.209
829.30	17.857
829.60	50.000
829.90	54.348
830.20	40.000
830.50	34.483
830.80	33.333
831.10	34.615
831.40	32.353
831.70	42.857
832.00	67.742
832.30	-64.706
832.60	29.167
832.90	-30.769
833.20	31.579
833.50	10.000
833.80	42.105
834.10	14.286
834.40	41.667
834.70	40.625
835.00	5.714
835.30	50.000
835.60	13.333
835.90	8.000
836.20	-40.909
836.50	36.000
836.80	27.273
837.10	33.333
837.40	22.222
837.70	-50.000
838.00	17.857
838.30	17.391
838.60	62.069
838.90	7.143
839.19	4.348
839.49	-66.667
839.79	4.348
840.09	-31.250
840.39	0.000
840.69	67.742
840.99	-10.714
841.29	20.000
841.59	5.263
841.88	53.846
842.18	26.923
842.48	-30.000
842.78	-10.000
843.08	46.667
843.38	32.258
843.68	27.778
843.97	44.118
844.27	31.250
844.57	10.526
844.87	-20.000
845.17	0.000
845.47	47.619
845.76	-14.286
846.06	44.444
846.36	11.765
846.66	15.385
846.96	20.000
847.25	100.000
847.55	39.130
847.85	-5.000
848.15	52.941
848.44	9.091
848.74	57.143
849.04	45.833
849.34	6.250
849.63	21.739
849.93	250.000
850.23	66.667
850.53	26.923
850.82	-72.727
851.12	77.273
851.42	-9.091
851.71	53.846
852.01	-5.000
852.31	23.077
852.61	-31.579
852.90	8.333
853.20	33.333
853.50	-44.444
853.79	-4.762
854.09	18.182
854.39	-58.333
854.68	41.935
854.98	34.615
855.28	66.667
855.57	39.286
855.87	24.000
856.17	27.273
856.46	37.037
856.76	55.556
857.05	13.043
857.35	-16.667
857.65	23.077
857.94	38.095
858.24	18.519
858.53	4.348
858.83	52.941
859.13	0.000
859.42	29.412
859.72	42.857
860.01	35.000
860.31	0.000
860.60	70.000
860.90	86.667
861.20	-33.333
861.49	30.769
861.79	16.667
862.08	-7.692
862.38	31.250
862.67	64.706
862.97	56.250
863.26	0.000
863.56	0.000
863.85	18.182
864.15	61.111
864.44	0.000
864.74	7.143
865.03	6.250
865.33	-40.000
865.62	9.677
865.92	77.273
866.21	34.783
866.51	42.857
866.80	-80.000
867.10	16.667
867.39	-41.667
867.69	300.000
867.98	142.857
868.27	17.647
868.57	-700.000
868.86	-10.000
869.16	47.619
869.45	58.333
869.75	0.000
870.04	-28.571
870.33	-66.667
870.63	-214.286
870.92	50.000
871.22	-125.000
871.51	9.091
871.80	-266.667
872.10	100.000
>>>>>End Processed Spectral Data<<<<<
