SpectraSuite Data File
++++++++++++++++++++++++++++++++++++
Date: Thu May 14 14:58:51 PDT 2015
User: schluterlab
Dark Spectrum Present: Yes
Reference Spectrum Present: Yes
Number of Sampled Component Spectra: 1
Spectrometers: USB2E3373
Integration Time (usec): 3000 (USB2E3373)
Spectra Averaged: 3 (USB2E3373)
Boxcar Smoothing: 0 (USB2E3373)
Correct for Electrical Dark: No (USB2E3373)
Strobe/Lamp Enabled: No (USB2E3373)
Correct for Detector Non-linearity: No (USB2E3373)
Correct for Stray Light: No (USB2E3373)
Number of Pixels in Processed Spectrum: 2048
>>>>>Begin Processed Spectral Data<<<<<
178.53	0.000
178.91	314.286
179.29	-2800.000
179.67	-2900.000
180.04	228.571
180.42	290.000
180.80	560.000
181.18	-2500.000
181.56	-1400.000
181.94	625.000
182.31	-450.000
182.69	500.000
183.07	-850.000
183.45	725.000
183.83	-333.333
184.20	-400.000
184.58	2400.000
184.96	-725.000
185.34	-188.889
185.72	-300.000
186.09	355.556
186.47	1100.000
186.85	560.000
187.23	-366.667
187.61	-2600.000
187.98	300.000
188.36	575.000
188.74	-500.000
189.12	-700.000
189.49	-100.000
189.87	-425.000
190.25	-200.000
190.63	-420.000
191.00	-355.556
191.38	0.000
191.76	-750.000
192.14	-350.000
192.51	1350.000
192.89	-233.333
193.27	0.000
193.65	-271.429
194.02	-3000.000
194.40	-185.714
194.78	342.857
195.15	0.000
195.53	-136.364
195.91	0.000
196.29	-400.000
196.66	-169.231
197.04	-2700.000
197.42	-242.857
197.79	-1250.000
198.17	-237.500
198.55	-342.857
198.92	-133.333
199.30	-325.000
199.68	-200.000
200.05	-107.143
200.43	-1150.000
200.81	414.286
201.18	0.000
201.56	344.444
201.94	0.000
202.31	766.667
202.69	-222.222
203.07	1800.000
203.44	-233.333
203.82	-450.000
204.19	-150.000
204.57	-416.667
204.95	-312.500
205.32	-3100.000
205.70	675.000
206.08	-316.667
206.45	-300.000
206.83	480.000
207.20	-300.000
207.58	-620.000
207.96	-583.333
208.33	-183.333
208.71	216.667
209.08	-150.000
209.46	0.000
209.84	383.333
210.21	850.000
210.59	1150.000
210.96	1100.000
211.34	-450.000
211.71	-187.500
212.09	-2000.000
212.46	0.000
212.84	1600.000
213.22	-340.000
213.59	-525.000
213.97	-190.000
214.34	-866.667
214.72	416.667
215.09	-775.000
215.47	0.000
215.84	357.143
216.22	1100.000
216.59	-280.000
216.97	-400.000
217.34	-625.000
217.72	-150.000
218.09	-600.000
218.47	-600.000
218.84	0.000
219.22	360.000
219.59	-100.000
219.97	-60.000
220.34	1100.000
220.72	-300.000
221.09	0.000
221.47	-833.333
221.84	-240.000
222.22	-271.429
222.59	0.000
222.97	-287.500
223.34	-460.000
223.72	-1600.000
224.09	-575.000
224.46	-650.000
224.84	-440.000
225.21	-242.857
225.59	-675.000
225.96	-700.000
226.34	-46.154
226.71	500.000
227.08	-1100.000
227.46	-120.000
227.83	-600.000
228.21	-63.158
228.58	325.000
228.95	1500.000
229.33	-133.333
229.70	-150.000
230.08	21.053
230.45	310.000
230.82	-566.667
231.20	-114.286
231.57	-125.000
231.95	-181.818
232.32	-218.182
232.69	-35.000
233.07	-375.000
233.44	-123.529
233.81	-190.000
234.19	-22.222
234.56	-77.273
234.93	-17.241
235.31	-57.895
235.68	-94.444
236.05	-120.000
236.43	-26.923
236.80	-40.000
237.17	-37.037
237.55	-72.727
237.92	-210.000
238.29	-45.161
238.67	-34.091
239.04	-22.222
239.41	-42.857
239.79	-10.870
240.16	-18.519
240.53	-21.739
240.91	-27.451
241.28	-14.754
241.65	5.970
242.02	1.351
242.40	-15.385
242.77	-6.667
243.14	-4.878
243.51	-14.474
243.89	-16.667
244.26	12.871
244.63	12.745
245.00	8.411
245.38	10.526
245.75	-2.655
246.12	16.667
246.49	7.752
246.87	13.571
247.24	17.881
247.61	15.789
247.98	17.450
248.36	16.049
248.73	11.043
249.10	20.219
249.47	16.915
249.84	25.131
250.22	13.472
250.59	17.778
250.96	21.818
251.33	17.347
251.70	22.650
252.08	23.750
252.45	19.262
252.82	19.421
253.19	18.750
253.56	23.954
253.94	19.615
254.31	20.076
254.68	25.175
255.05	26.059
255.42	20.408
255.79	19.741
256.16	20.530
256.54	19.536
256.91	26.230
257.28	20.328
257.65	22.293
258.02	23.894
258.39	21.368
258.76	24.159
259.14	25.287
259.51	22.190
259.88	22.946
260.25	24.444
260.62	25.205
260.99	24.590
261.36	24.397
261.73	22.812
262.10	24.451
262.47	24.665
262.85	25.758
263.22	23.377
263.59	21.053
263.96	25.831
264.33	21.228
264.70	27.160
265.07	26.492
265.44	28.118
265.81	24.074
266.18	25.624
266.55	22.321
266.92	23.918
267.29	24.289
267.66	24.612
268.03	24.236
268.40	24.426
268.77	23.462
269.14	22.247
269.51	24.342
269.88	28.279
270.25	24.547
270.62	28.059
270.99	25.657
271.36	25.941
271.73	28.487
272.10	24.850
272.47	25.050
272.84	23.494
273.21	25.451
273.58	27.419
273.95	23.654
274.32	24.715
274.69	24.178
275.06	25.275
275.43	23.290
275.80	25.044
276.17	22.593
276.54	23.507
276.91	23.971
277.28	24.593
277.65	25.135
278.02	23.897
278.39	25.000
278.76	23.374
279.13	25.532
279.50	23.883
279.87	25.045
280.23	22.711
280.60	26.271
280.97	25.164
281.34	23.599
281.71	25.212
282.08	22.425
282.45	22.750
282.82	21.350
283.19	21.971
283.56	24.262
283.92	26.126
284.29	25.118
284.66	24.795
285.03	22.756
285.40	22.102
285.77	23.220
286.14	23.817
286.51	24.658
286.87	24.487
287.24	23.343
287.61	22.272
287.98	23.112
288.35	24.408
288.72	23.373
289.08	23.280
289.45	23.225
289.82	22.139
290.19	22.989
290.56	22.676
290.93	20.542
291.29	23.554
291.66	23.416
292.03	20.624
292.40	23.537
292.77	21.563
293.13	20.568
293.50	20.631
293.87	21.745
294.24	21.600
294.60	20.228
294.97	19.329
295.34	20.743
295.71	18.411
296.08	18.992
296.44	20.221
296.81	20.463
297.18	19.801
297.55	18.278
297.91	17.556
298.28	18.128
298.65	17.598
299.02	16.529
299.38	19.908
299.75	18.107
300.12	18.634
300.48	19.585
300.85	18.335
301.22	16.555
301.59	19.178
301.95	17.966
302.32	18.667
302.69	17.634
303.05	18.172
303.42	18.625
303.79	18.125
304.15	17.560
304.52	18.182
304.89	19.162
305.25	17.184
305.62	16.719
305.99	18.660
306.35	17.339
306.72	19.648
307.09	17.056
307.45	17.391
307.82	17.760
308.19	17.154
308.55	17.068
308.92	17.137
309.29	16.284
309.65	16.472
310.02	17.327
310.38	18.209
310.75	18.350
311.12	18.984
311.48	16.911
311.85	17.284
312.22	16.888
312.58	16.995
312.95	16.444
313.31	17.977
313.68	16.850
314.05	17.164
314.41	17.213
314.78	16.712
315.14	16.606
315.51	17.636
315.87	18.002
316.24	17.352
316.61	17.496
316.97	17.919
317.34	16.578
317.70	17.642
318.07	16.314
318.43	17.347
318.80	18.980
319.16	17.339
319.53	15.081
319.89	17.090
320.26	19.217
320.62	17.908
320.99	18.560
321.35	17.283
321.72	19.256
322.08	15.600
322.45	16.802
322.81	17.599
323.18	17.168
323.54	16.379
323.91	16.370
324.27	16.867
324.64	18.052
325.00	16.750
325.37	17.199
325.73	16.694
326.10	17.762
326.46	18.322
326.83	19.215
327.19	17.402
327.56	18.103
327.92	17.152
328.29	17.742
328.65	17.253
329.01	17.090
329.38	17.270
329.74	17.038
330.11	18.664
330.47	17.523
330.84	18.002
331.20	18.250
331.56	17.418
331.93	17.741
332.29	16.949
332.66	17.691
333.02	17.420
333.38	16.527
333.75	17.761
334.11	17.515
334.48	16.667
334.84	18.182
335.20	17.464
335.57	17.960
335.93	18.099
336.29	15.724
336.66	17.241
337.02	16.304
337.38	16.327
337.75	17.107
338.11	17.494
338.47	17.370
338.84	15.905
339.20	16.175
339.56	15.404
339.93	17.816
340.29	16.506
340.65	15.977
341.02	17.318
341.38	16.572
341.74	16.465
342.11	17.056
342.47	15.965
342.83	16.908
343.20	16.844
343.56	16.199
343.92	15.773
344.28	17.031
344.65	17.364
345.01	16.459
345.37	16.563
345.73	15.588
346.10	17.551
346.46	15.744
346.82	17.978
347.19	16.960
347.55	16.464
347.91	16.345
348.27	16.085
348.63	16.984
349.00	16.107
349.36	16.952
349.72	16.295
350.08	16.642
350.45	15.589
350.81	15.460
351.17	16.917
351.53	17.210
351.89	17.616
352.26	15.746
352.62	16.418
352.98	16.641
353.34	15.758
353.70	15.871
354.07	16.021
354.43	15.869
354.79	15.183
355.15	16.630
355.51	16.374
355.87	15.557
356.24	15.589
356.60	15.373
356.96	16.531
357.32	16.059
357.68	15.959
358.04	15.943
358.40	15.970
358.77	16.374
359.13	15.362
359.49	14.796
359.85	15.301
360.21	16.714
360.57	15.075
360.93	15.585
361.29	15.719
361.66	16.437
362.02	15.866
362.38	15.952
362.74	15.642
363.10	16.506
363.46	15.928
363.82	15.057
364.18	16.186
364.54	15.975
364.90	16.722
365.26	15.586
365.62	15.800
365.98	16.678
366.35	15.570
366.71	15.918
367.07	15.088
367.43	15.824
367.79	15.992
368.15	16.254
368.51	17.185
368.87	16.199
369.23	16.000
369.59	16.393
369.95	15.281
370.31	16.678
370.67	16.025
371.03	15.789
371.39	14.708
371.75	15.750
372.11	15.108
372.47	15.437
372.83	16.099
373.19	15.877
373.55	14.770
373.91	14.860
374.27	16.171
374.63	15.968
374.99	16.645
375.35	16.623
375.71	16.323
376.07	16.075
376.42	16.121
376.78	16.035
377.14	15.596
377.50	15.686
377.86	16.071
378.22	15.449
378.58	16.290
378.94	15.669
379.30	16.696
379.66	15.638
380.02	16.215
380.38	15.956
380.74	16.958
381.09	14.750
381.45	16.364
381.81	16.335
382.17	16.330
382.53	16.140
382.89	15.519
383.25	15.944
383.61	16.204
383.97	15.194
384.32	16.507
384.68	16.125
385.04	16.426
385.40	16.794
385.76	16.882
386.12	16.457
386.48	16.647
386.83	16.448
387.19	16.165
387.55	16.080
387.91	15.925
388.27	15.820
388.62	16.151
388.98	15.849
389.34	16.500
389.70	16.676
390.06	16.933
390.42	15.904
390.77	16.857
391.13	16.197
391.49	16.063
391.85	15.818
392.20	16.607
392.56	16.598
392.92	17.176
393.28	16.971
393.64	16.257
393.99	17.490
394.35	17.114
394.71	17.605
395.07	15.629
395.42	16.048
395.78	16.880
396.14	17.588
396.50	16.746
396.85	15.385
397.21	16.272
397.57	16.372
397.92	15.808
398.28	16.404
398.64	16.304
399.00	16.178
399.35	16.754
399.71	16.467
400.07	16.564
400.42	16.414
400.78	16.782
401.14	16.050
401.49	17.226
401.85	17.093
402.21	17.207
402.57	17.136
402.92	16.844
403.28	17.272
403.63	15.752
403.99	16.390
404.35	15.975
404.70	16.544
405.06	16.141
405.42	16.335
405.77	16.848
406.13	16.802
406.49	16.892
406.84	16.510
407.20	16.490
407.55	15.809
407.91	16.719
408.27	16.137
408.62	17.161
408.98	16.773
409.34	14.956
409.69	16.131
410.05	17.233
410.40	17.401
410.76	16.826
411.11	17.066
411.47	16.093
411.83	17.284
412.18	16.807
412.54	15.945
412.89	16.938
413.25	16.535
413.60	16.485
413.96	16.725
414.31	16.884
414.67	16.816
415.03	16.000
415.38	16.204
415.74	16.799
416.09	16.903
416.45	16.969
416.80	16.340
417.16	16.539
417.51	16.127
417.87	15.941
418.22	16.647
418.58	16.047
418.93	17.637
419.29	15.660
419.64	16.206
420.00	16.439
420.35	16.676
420.71	16.657
421.06	16.159
421.42	16.284
421.77	15.832
422.12	16.279
422.48	16.129
422.83	16.703
423.19	16.021
423.54	16.593
423.90	16.455
424.25	16.640
424.61	15.557
424.96	16.584
425.31	17.251
425.67	16.103
426.02	17.156
426.38	16.131
426.73	16.406
427.09	16.609
427.44	16.548
427.79	16.971
428.15	15.868
428.50	16.011
428.85	15.499
429.21	16.702
429.56	16.732
429.92	15.921
430.27	17.398
430.62	16.805
430.98	16.429
431.33	16.031
431.68	15.757
432.04	17.318
432.39	17.140
432.74	15.982
433.10	17.090
433.45	15.552
433.80	16.577
434.16	16.890
434.51	16.238
434.86	17.372
435.22	17.322
435.57	17.807
435.92	16.194
436.28	15.586
436.63	16.548
436.98	16.801
437.34	16.460
437.69	15.575
438.04	15.759
438.39	16.887
438.75	15.772
439.10	16.860
439.45	16.825
439.81	16.215
440.16	15.925
440.51	16.722
440.86	16.120
441.22	16.452
441.57	17.138
441.92	17.216
442.27	16.364
442.63	17.238
442.98	16.649
443.33	16.518
443.68	17.096
444.03	17.404
444.39	17.707
444.74	17.152
445.09	17.283
445.44	17.861
445.79	17.002
446.15	16.701
446.50	15.917
446.85	17.267
447.20	17.456
447.55	16.946
447.91	15.864
448.26	16.121
448.61	16.153
448.96	17.221
449.31	16.490
449.66	15.959
450.02	16.930
450.37	17.315
450.72	16.200
451.07	16.743
451.42	16.522
451.77	15.731
452.12	16.930
452.47	16.518
452.83	17.399
453.18	17.104
453.53	16.140
453.88	15.903
454.23	17.175
454.58	16.541
454.93	16.808
455.28	16.918
455.63	16.941
455.98	17.263
456.34	16.843
456.69	17.460
457.04	16.430
457.39	16.408
457.74	17.002
458.09	16.474
458.44	17.188
458.79	16.864
459.14	16.675
459.49	16.752
459.84	16.684
460.19	16.768
460.54	16.468
460.89	17.470
461.24	16.322
461.59	18.041
461.94	15.916
462.29	16.965
462.64	16.113
462.99	16.573
463.34	16.223
463.69	17.644
464.04	17.899
464.39	17.321
464.74	16.762
465.09	17.013
465.44	17.221
465.79	17.134
466.14	16.102
466.49	17.158
466.84	16.804
467.19	17.572
467.54	15.981
467.89	16.264
468.24	17.064
468.59	16.097
468.94	16.317
469.29	15.837
469.64	16.338
469.99	15.743
470.34	17.636
470.68	16.541
471.03	17.878
471.38	15.827
471.73	16.125
472.08	17.640
472.43	16.556
472.78	17.128
473.13	16.182
473.48	17.764
473.83	17.005
474.17	17.351
474.52	17.318
474.87	17.220
475.22	17.352
475.57	16.771
475.92	17.173
476.27	16.880
476.61	16.303
476.96	16.997
477.31	17.178
477.66	17.366
478.01	16.929
478.36	16.351
478.70	16.897
479.05	17.536
479.40	17.177
479.75	17.339
480.10	17.148
480.45	16.727
480.79	17.007
481.14	17.509
481.49	16.901
481.84	17.493
482.19	17.806
482.53	17.796
482.88	17.147
483.23	17.297
483.58	16.900
483.92	16.401
484.27	16.765
484.62	16.873
484.97	16.952
485.31	16.508
485.66	15.717
486.01	17.304
486.36	17.878
486.70	18.706
487.05	18.463
487.40	17.785
487.75	17.150
488.09	16.878
488.44	16.184
488.79	16.796
489.13	16.582
489.48	16.660
489.83	16.579
490.17	16.727
490.52	16.831
490.87	16.709
491.22	17.201
491.56	17.449
491.91	17.052
492.26	16.703
492.60	17.665
492.95	17.552
493.30	16.764
493.64	16.951
493.99	17.237
494.34	17.378
494.68	17.345
495.03	17.269
495.37	17.355
495.72	17.098
496.07	17.309
496.41	16.774
496.76	17.014
497.11	17.367
497.45	17.609
497.80	17.637
498.14	16.916
498.49	17.050
498.84	17.276
499.18	17.499
499.53	17.713
499.87	17.319
500.22	16.518
500.56	17.094
500.91	17.208
501.26	17.364
501.60	16.438
501.95	17.325
502.29	17.552
502.64	17.534
502.98	16.782
503.33	16.847
503.67	17.052
504.02	16.550
504.36	17.784
504.71	17.317
505.06	17.508
505.40	17.048
505.75	17.395
506.09	17.541
506.44	17.595
506.78	17.982
507.13	17.105
507.47	17.385
507.82	17.045
508.16	16.683
508.51	16.925
508.85	17.100
509.19	18.001
509.54	17.819
509.88	17.339
510.23	17.630
510.57	18.125
510.92	17.562
511.26	17.027
511.61	17.045
511.95	17.374
512.30	17.085
512.64	16.892
512.98	16.808
513.33	16.935
513.67	17.644
514.02	17.220
514.36	17.698
514.70	17.500
515.05	16.893
515.39	17.375
515.74	17.975
516.08	16.799
516.42	19.048
516.77	17.718
517.11	17.483
517.46	18.187
517.80	18.332
518.14	17.900
518.49	17.950
518.83	17.722
519.17	17.286
519.52	16.876
519.86	17.740
520.20	17.412
520.55	17.744
520.89	17.905
521.23	17.644
521.58	17.345
521.92	17.960
522.26	16.781
522.61	17.940
522.95	17.762
523.29	17.529
523.64	17.265
523.98	18.026
524.32	18.682
524.66	17.416
525.01	16.988
525.35	17.289
525.69	17.749
526.04	17.968
526.38	17.011
526.72	17.416
527.06	18.651
527.41	18.134
527.75	17.755
528.09	17.946
528.43	17.999
528.78	18.035
529.12	17.661
529.46	17.369
529.80	17.792
530.15	17.507
530.49	16.785
530.83	18.005
531.17	17.145
531.51	17.509
531.86	18.870
532.20	17.439
532.54	18.552
532.88	17.394
533.22	18.091
533.57	17.773
533.91	17.901
534.25	18.315
534.59	18.218
534.93	17.091
535.27	18.254
535.62	18.818
535.96	18.361
536.30	17.509
536.64	18.318
536.98	18.573
537.32	17.654
537.66	17.842
538.01	16.858
538.35	18.514
538.69	17.849
539.03	18.455
539.37	17.668
539.71	18.078
540.05	18.885
540.39	17.054
540.73	17.365
541.07	17.842
541.42	17.247
541.76	17.497
542.10	17.672
542.44	17.052
542.78	17.944
543.12	17.640
543.46	18.010
543.80	17.506
544.14	17.115
544.48	17.494
544.82	18.013
545.16	17.829
545.50	17.795
545.84	16.963
546.18	18.827
546.52	17.389
546.86	17.296
547.20	18.639
547.54	18.602
547.88	17.119
548.22	17.602
548.56	17.613
548.90	17.552
549.24	18.784
549.58	17.161
549.92	17.730
550.26	17.799
550.60	18.060
550.94	17.723
551.28	17.360
551.62	17.453
551.96	18.252
552.30	17.973
552.64	18.295
552.98	17.467
553.32	19.164
553.66	17.814
554.00	18.600
554.34	17.954
554.68	16.720
555.02	18.068
555.36	18.672
555.69	17.617
556.03	18.159
556.37	18.523
556.71	18.516
557.05	18.275
557.39	17.983
557.73	18.296
558.07	17.550
558.41	19.003
558.75	17.782
559.08	18.093
559.42	17.764
559.76	18.385
560.10	18.352
560.44	18.272
560.78	18.188
561.12	18.534
561.45	18.431
561.79	18.742
562.13	19.224
562.47	18.434
562.81	18.101
563.15	18.182
563.48	17.713
563.82	18.017
564.16	18.474
564.50	18.355
564.84	18.289
565.17	18.059
565.51	17.894
565.85	17.696
566.19	18.548
566.52	17.379
566.86	17.997
567.20	18.434
567.54	17.685
567.88	18.349
568.21	18.182
568.55	18.465
568.89	18.520
569.23	18.758
569.56	18.757
569.90	18.603
570.24	18.078
570.57	18.602
570.91	17.636
571.25	18.311
571.59	18.536
571.92	18.284
572.26	18.052
572.60	18.455
572.93	17.562
573.27	17.674
573.61	17.840
573.95	17.990
574.28	18.033
574.62	18.008
574.96	17.887
575.29	17.647
575.63	17.533
575.97	17.413
576.30	17.543
576.64	17.490
576.98	17.494
577.31	17.871
577.65	18.035
577.98	17.790
578.32	17.889
578.66	18.112
578.99	17.530
579.33	17.719
579.67	17.158
580.00	17.172
580.34	17.365
580.67	17.454
581.01	17.590
581.35	17.495
581.68	17.941
582.02	18.127
582.35	18.168
582.69	17.927
583.02	17.679
583.36	17.355
583.70	17.019
584.03	17.015
584.37	16.909
584.70	17.384
585.04	17.670
585.37	17.742
585.71	17.605
586.04	17.878
586.38	17.711
586.72	17.448
587.05	16.705
587.39	17.527
587.72	17.751
588.06	17.747
588.39	17.550
588.73	17.196
589.06	16.930
589.40	17.425
589.73	17.481
590.07	17.739
590.40	18.357
590.73	17.462
591.07	17.870
591.40	17.263
591.74	17.011
592.07	17.702
592.41	17.074
592.74	17.465
593.08	17.898
593.41	18.723
593.75	18.075
594.08	17.782
594.41	17.724
594.75	17.204
595.08	17.867
595.42	17.468
595.75	17.662
596.09	17.858
596.42	17.019
596.75	17.059
597.09	18.263
597.42	17.362
597.75	17.758
598.09	17.738
598.42	17.732
598.76	16.966
599.09	17.480
599.42	17.499
599.76	17.630
600.09	17.417
600.42	18.318
600.76	17.768
601.09	17.723
601.42	17.233
601.76	17.310
602.09	17.405
602.42	16.758
602.76	16.790
603.09	16.924
603.42	17.738
603.76	17.583
604.09	18.062
604.42	17.798
604.76	17.960
605.09	17.471
605.42	17.424
605.75	17.385
606.09	17.059
606.42	17.256
606.75	17.429
607.09	17.051
607.42	17.726
607.75	17.429
608.08	17.601
608.42	17.775
608.75	17.786
609.08	16.851
609.41	17.292
609.75	17.009
610.08	17.678
610.41	17.587
610.74	17.899
611.07	17.229
611.41	17.758
611.74	17.968
612.07	17.719
612.40	17.443
612.73	17.506
613.07	17.897
613.40	17.180
613.73	16.851
614.06	17.861
614.39	17.687
614.72	16.836
615.06	17.806
615.39	17.158
615.72	16.872
616.05	17.970
616.38	17.911
616.71	17.085
617.05	17.412
617.38	17.764
617.71	17.711
618.04	17.539
618.37	18.033
618.70	17.930
619.03	17.981
619.36	16.893
619.69	17.168
620.03	17.075
620.36	17.914
620.69	17.767
621.02	17.848
621.35	17.925
621.68	18.077
622.01	18.149
622.34	18.410
622.67	17.869
623.00	16.262
623.33	18.779
623.66	17.834
623.99	16.590
624.32	18.259
624.65	16.795
624.99	17.815
625.32	19.203
625.65	17.397
625.98	17.559
626.31	16.726
626.64	17.582
626.97	18.155
627.30	16.932
627.63	17.479
627.96	19.219
628.29	18.132
628.62	16.877
628.95	17.178
629.28	16.398
629.61	18.350
629.94	17.155
630.26	18.136
630.59	16.494
630.92	18.442
631.25	16.905
631.58	19.209
631.91	17.526
632.24	17.867
632.57	17.078
632.90	17.151
633.23	17.959
633.56	17.143
633.89	16.942
634.22	18.295
634.55	18.163
634.88	16.775
635.20	19.160
635.53	19.209
635.86	18.635
636.19	19.512
636.52	18.038
636.85	18.590
637.18	17.048
637.51	16.667
637.83	18.715
638.16	18.433
638.49	17.254
638.82	17.024
639.15	18.099
639.48	18.822
639.81	17.783
640.13	18.139
640.46	17.091
640.79	17.157
641.12	18.385
641.45	17.817
641.77	20.154
642.10	17.585
642.43	18.750
642.76	17.886
643.09	17.123
643.41	16.807
643.74	17.793
644.07	18.897
644.40	16.549
644.73	17.997
645.05	16.740
645.38	18.849
645.71	17.155
646.04	19.656
646.36	18.248
646.69	17.638
647.02	17.584
647.35	18.321
647.67	18.357
648.00	18.153
648.33	18.168
648.66	17.832
648.98	17.687
649.31	18.674
649.64	16.866
649.96	16.578
650.29	15.994
650.62	17.680
650.94	18.018
651.27	15.868
651.60	17.836
651.92	17.021
652.25	17.511
652.58	18.019
652.90	17.006
653.23	18.592
653.56	18.260
653.88	16.854
654.21	17.324
654.54	17.630
654.86	17.280
655.19	17.817
655.52	19.473
655.84	20.523
656.17	24.336
656.49	32.799
656.82	34.377
657.15	24.851
657.47	17.691
657.80	12.638
658.13	9.278
658.45	11.655
658.78	13.479
659.10	12.670
659.43	12.926
659.75	11.796
660.08	11.933
660.41	12.572
660.73	13.455
661.06	14.097
661.38	17.703
661.71	16.897
662.03	17.460
662.36	19.320
662.68	18.949
663.01	17.699
663.33	19.282
663.66	17.216
663.98	15.962
664.31	16.510
664.63	17.726
664.96	19.056
665.28	14.338
665.61	19.755
665.93	15.357
666.26	18.638
666.58	15.129
666.91	19.065
667.23	17.333
667.56	18.540
667.88	16.800
668.21	13.672
668.53	13.514
668.86	17.878
669.18	16.904
669.50	16.103
669.83	15.400
670.15	14.764
670.48	19.841
670.80	17.973
671.13	16.824
671.45	16.339
671.77	19.586
672.10	16.167
672.42	17.152
672.75	16.129
673.07	18.955
673.39	15.716
673.72	15.436
674.04	17.586
674.37	16.458
674.69	19.224
675.01	15.810
675.34	16.603
675.66	16.667
675.98	16.231
676.31	16.797
676.63	19.202
676.95	19.349
677.28	16.734
677.60	13.976
677.92	16.315
678.25	15.722
678.57	17.972
678.89	17.577
679.22	16.551
679.54	15.385
679.86	15.763
680.18	16.418
680.51	17.767
680.83	16.694
681.15	17.069
681.48	18.135
681.80	19.171
682.12	16.259
682.44	17.863
682.77	16.312
683.09	14.205
683.41	14.147
683.73	18.216
684.06	17.159
684.38	16.458
684.70	15.799
685.02	17.900
685.34	15.474
685.67	15.457
685.99	18.865
686.31	14.680
686.63	15.324
686.96	17.035
687.28	15.961
687.60	15.320
687.92	16.399
688.24	15.359
688.56	13.276
688.89	16.697
689.21	16.830
689.53	13.725
689.85	14.201
690.17	14.815
690.49	16.534
690.82	15.050
691.14	15.587
691.46	18.356
691.78	15.470
692.10	16.330
692.42	15.714
692.74	14.519
693.06	13.333
693.39	18.786
693.71	14.474
694.03	18.030
694.35	14.476
694.67	15.606
694.99	15.745
695.31	12.583
695.63	14.286
695.95	17.184
696.27	15.604
696.59	16.150
696.91	12.838
697.23	18.901
697.56	15.479
697.88	14.394
698.20	16.008
698.52	17.424
698.84	15.800
699.16	18.163
699.48	17.155
699.80	15.957
700.12	15.939
700.44	15.899
700.76	14.014
701.08	17.918
701.40	15.026
701.72	17.164
702.04	15.775
702.36	13.874
702.68	14.914
703.00	15.403
703.32	15.764
703.64	14.181
703.96	15.990
704.28	14.005
704.60	18.481
704.91	14.031
705.23	16.438
705.55	14.485
705.87	16.970
706.19	17.178
706.51	11.747
706.83	12.680
707.15	14.286
707.47	15.888
707.79	13.974
708.11	13.559
708.43	14.409
708.74	10.714
709.06	12.993
709.38	15.258
709.70	19.355
710.02	16.537
710.34	16.223
710.66	13.966
710.98	15.027
711.29	14.286
711.61	14.689
711.93	15.954
712.25	12.973
712.57	15.044
712.89	16.176
713.20	16.568
713.52	13.006
713.84	16.713
714.16	17.632
714.48	15.464
714.80	17.143
715.11	14.436
715.43	16.446
715.75	8.947
716.07	13.536
716.39	16.940
716.70	11.446
717.02	17.377
717.34	12.544
717.66	16.107
717.97	15.068
718.29	14.777
718.61	9.539
718.93	11.650
719.24	16.770
719.56	14.110
719.88	10.811
720.20	13.871
720.51	13.975
720.83	12.500
721.15	14.803
721.46	11.986
721.78	17.000
722.10	9.385
722.42	12.081
722.73	12.581
723.05	12.982
723.37	15.278
723.68	16.129
724.00	14.440
724.32	8.803
724.63	12.238
724.95	12.766
725.27	11.847
725.58	10.601
725.90	16.897
726.22	13.480
726.53	12.662
726.85	14.151
727.16	14.199
727.48	15.596
727.80	13.907
728.11	11.661
728.43	15.152
728.74	11.706
729.06	16.225
729.38	16.234
729.69	17.114
730.01	13.988
730.32	11.515
730.64	14.151
730.96	8.075
731.27	15.922
731.59	12.637
731.90	14.286
732.22	11.979
732.53	11.050
732.85	12.000
733.16	13.490
733.48	11.890
733.80	11.978
734.11	16.524
734.43	16.216
734.74	16.203
735.06	14.322
735.37	11.081
735.69	16.757
736.00	15.537
736.32	13.747
736.63	15.278
736.95	14.080
737.26	12.121
737.58	13.030
737.89	12.647
738.21	8.257
738.52	11.475
738.83	11.263
739.15	13.475
739.46	11.905
739.78	15.337
740.09	10.602
740.41	13.411
740.72	11.000
741.04	11.003
741.35	14.386
741.66	12.549
741.98	15.164
742.29	13.808
742.61	16.228
742.92	14.615
743.23	14.079
743.55	11.240
743.86	12.000
744.18	7.025
744.49	15.190
744.80	15.638
745.12	11.814
745.43	15.447
745.74	11.638
746.06	8.051
746.37	11.392
746.68	10.976
747.00	10.000
747.31	17.167
747.62	12.692
747.94	12.955
748.25	8.835
748.56	8.571
748.88	5.983
749.19	10.345
749.50	10.823
749.82	15.261
750.13	18.861
750.44	13.000
750.75	14.462
751.07	12.923
751.38	11.041
751.69	13.738
752.01	16.828
752.32	15.359
752.63	13.265
752.94	11.765
753.26	11.896
753.57	11.852
753.88	11.236
754.19	17.363
754.51	13.826
754.82	17.363
755.13	16.393
755.44	16.724
755.75	14.803
756.07	15.522
756.38	13.836
756.69	15.663
757.00	11.080
757.31	16.393
757.63	12.532
757.94	14.319
758.25	15.576
758.56	11.111
758.87	15.227
759.18	10.400
759.50	12.181
759.81	15.686
760.12	13.208
760.43	14.844
760.74	15.271
761.05	12.750
761.36	15.422
761.67	11.421
761.99	12.432
762.30	11.280
762.61	11.221
762.92	14.552
763.23	14.232
763.54	14.029
763.85	12.027
764.16	10.774
764.47	15.493
764.78	12.780
765.10	15.249
765.41	13.846
765.72	13.757
766.03	12.429
766.34	9.091
766.65	10.105
766.96	11.155
767.27	10.138
767.58	3.980
767.89	14.904
768.20	10.798
768.51	11.574
768.82	13.655
769.13	14.394
769.44	7.692
769.75	16.245
770.06	13.846
770.37	9.843
770.68	8.511
770.99	5.263
771.30	17.407
771.61	11.407
771.92	12.222
772.23	12.551
772.54	6.944
772.85	14.747
773.16	10.476
773.47	5.291
773.78	5.946
774.09	6.818
774.39	10.000
774.70	17.486
775.01	7.317
775.32	6.471
775.63	1.840
775.94	6.369
776.25	9.677
776.56	8.974
776.87	10.204
777.18	7.586
777.48	4.196
777.79	0.676
778.10	5.147
778.41	0.694
778.72	4.828
779.03	9.877
779.34	5.455
779.65	7.772
779.95	8.889
780.26	10.795
780.57	10.968
780.88	13.043
781.19	12.258
781.50	8.824
781.80	11.828
782.11	12.169
782.42	2.020
782.73	2.994
783.04	6.145
783.34	0.000
783.65	1.961
783.96	14.286
784.27	12.500
784.57	2.649
784.88	6.429
785.19	5.512
785.50	3.150
785.81	4.511
786.11	10.769
786.42	5.755
786.73	4.317
787.04	6.015
787.34	-0.820
787.65	6.400
787.96	3.731
788.26	5.594
788.57	9.790
788.88	4.605
789.19	15.033
789.49	5.479
789.80	6.383
790.11	13.386
790.41	2.344
790.72	4.237
791.03	-0.971
791.33	0.000
791.64	2.632
791.95	-5.357
792.25	-4.762
792.56	5.357
792.87	-5.208
793.17	2.679
793.48	-10.417
793.79	-12.048
794.09	0.000
794.40	3.670
794.70	4.082
795.01	0.649
795.32	1.370
795.62	4.930
795.93	-0.758
796.23	3.279
796.54	-6.250
796.85	-2.128
797.15	0.000
797.46	-5.479
797.76	-5.000
798.07	-4.348
798.37	-4.124
798.68	-12.987
798.99	0.000
799.29	-4.494
799.60	7.447
799.90	-13.253
800.21	-15.385
800.51	-31.343
800.82	-25.000
801.12	-21.918
801.43	-16.176
801.73	-23.729
802.04	-13.636
802.34	-11.667
802.65	-25.424
802.95	-5.970
803.26	-5.085
803.56	-12.329
803.87	10.000
804.17	0.000
804.48	-38.596
804.78	-6.944
805.09	-18.966
805.39	-4.054
805.70	-15.493
806.00	-6.098
806.30	-8.434
806.61	-9.589
806.91	-3.846
807.22	5.556
807.52	-14.943
807.83	-2.778
808.13	-9.639
808.43	-6.742
808.74	-11.250
809.04	-14.706
809.35	-10.667
809.65	-15.714
809.95	-5.479
810.26	-35.088
810.56	-22.414
810.86	-4.412
811.17	-1.754
811.47	-26.230
811.77	-33.333
812.08	-15.254
812.38	-18.333
812.69	-15.517
812.99	-33.962
813.29	-58.974
813.59	-10.000
813.90	-8.772
814.20	-12.727
814.50	9.859
814.81	-3.846
815.11	-16.393
815.41	-13.433
815.72	-1.724
816.02	-28.571
816.32	-8.889
816.62	-20.455
816.93	-20.000
817.23	-9.259
817.53	-25.532
817.84	-9.524
818.14	-58.824
818.44	-18.367
818.74	-15.556
819.04	-48.718
819.35	-37.143
819.65	-76.923
819.95	-7.547
820.25	-22.222
820.56	-47.619
820.86	-46.875
821.16	-51.282
821.46	-37.209
821.76	-38.000
822.07	0.000
822.37	-34.783
822.67	-34.043
822.97	-59.459
823.27	-30.000
823.57	0.000
823.88	-8.889
824.18	-27.500
824.48	-53.333
824.78	-48.000
825.08	-45.455
825.38	-11.111
825.69	-29.787
825.99	-13.889
826.29	-80.000
826.59	-41.026
826.89	-44.186
827.19	-28.000
827.49	-38.235
827.79	-16.667
828.09	-40.541
828.39	-63.333
828.70	-26.829
829.00	-25.581
829.30	-64.286
829.60	-8.824
829.90	-10.870
830.20	-48.571
830.50	-86.207
830.80	-88.889
831.10	-50.000
831.40	-35.294
831.70	-42.857
832.00	-16.129
832.30	-164.706
832.60	-83.333
832.90	-238.462
833.20	-89.474
833.50	-130.000
833.80	-94.737
834.10	-109.524
834.40	-36.111
834.70	-25.000
835.00	-77.143
835.30	-50.000
835.60	-40.000
835.90	-92.000
836.20	-131.818
836.50	-60.000
836.80	-45.455
837.10	-66.667
837.40	-22.222
837.70	-137.500
838.00	-46.429
838.30	-78.261
838.60	-58.621
838.90	-100.000
839.19	-147.826
839.49	-150.000
839.79	-78.261
840.09	-181.250
840.39	-130.000
840.69	-25.806
840.99	-92.857
841.29	-86.667
841.59	-73.684
841.88	-17.949
842.18	-84.615
842.48	-240.000
842.78	-55.000
843.08	-23.333
843.38	-29.032
843.68	-155.556
843.97	-14.706
844.27	-137.500
844.57	-105.263
844.87	-130.000
845.17	-160.000
845.47	-14.286
845.76	-61.905
846.06	-233.333
846.36	-100.000
846.66	-42.308
846.96	-113.333
847.25	-76.471
847.55	-21.739
847.85	-80.000
848.15	-76.471
848.44	-109.091
848.74	-47.619
849.04	-87.500
849.34	-131.250
849.63	-39.130
849.93	1400.000
850.23	-93.333
850.53	-34.615
850.82	-181.818
851.12	-31.818
851.42	-172.727
851.71	-100.000
852.01	-100.000
852.31	-61.538
852.61	-89.474
852.90	-83.333
853.20	-100.000
853.50	-288.889
853.79	-128.571
854.09	-113.636
854.39	-166.667
854.68	-51.613
854.98	-69.231
855.28	-83.333
855.57	-78.571
855.87	-76.000
856.17	-122.727
856.46	-55.556
856.76	-133.333
857.05	-91.304
857.35	-62.500
857.65	-153.846
857.94	-71.429
858.24	-48.148
858.53	-47.826
858.83	-94.118
859.13	-117.647
859.42	-105.882
859.72	-107.143
860.01	-80.000
860.31	-111.111
860.60	-160.000
860.90	-106.667
861.20	-111.111
861.49	-153.846
861.79	-66.667
862.08	-138.462
862.38	-31.250
862.67	-64.706
862.97	-62.500
863.26	-311.111
863.56	-160.000
863.85	-136.364
864.15	-111.111
864.44	-666.667
864.74	-171.429
865.03	-125.000
865.33	-260.000
865.62	-80.645
865.92	-27.273
866.21	-43.478
866.51	-100.000
866.80	-580.000
867.10	-225.000
867.39	-208.333
867.69	3000.000
867.98	-228.571
868.27	-82.353
868.57	-2800.000
868.86	-300.000
869.16	-109.524
869.45	-108.333
869.75	-145.455
870.04	-157.143
870.33	-100.000
870.63	-357.143
870.92	-450.000
871.22	-325.000
871.51	-218.182
871.80	-900.000
872.10	-850.000
>>>>>End Processed Spectral Data<<<<<
