SpectraSuite Data File
++++++++++++++++++++++++++++++++++++
Date: Thu May 14 14:29:54 PDT 2015
User: schluterlab
Dark Spectrum Present: Yes
Reference Spectrum Present: Yes
Number of Sampled Component Spectra: 1
Spectrometers: USB2E3373
Integration Time (usec): 3000 (USB2E3373)
Spectra Averaged: 3 (USB2E3373)
Boxcar Smoothing: 0 (USB2E3373)
Correct for Electrical Dark: No (USB2E3373)
Strobe/Lamp Enabled: No (USB2E3373)
Correct for Detector Non-linearity: No (USB2E3373)
Correct for Stray Light: No (USB2E3373)
Number of Pixels in Processed Spectrum: 2048
>>>>>Begin Processed Spectral Data<<<<<
178.53	0.000
178.91	-300.000
179.29	600.000
179.67	1700.000
180.04	85.714
180.42	-100.000
180.80	-120.000
181.18	2000.000
181.56	2200.000
181.94	-275.000
182.31	350.000
182.69	-300.000
183.07	800.000
183.45	50.000
183.83	316.667
184.20	266.667
184.58	-900.000
184.96	175.000
185.34	144.444
185.72	440.000
186.09	-100.000
186.47	-50.000
186.85	-120.000
187.23	166.667
187.61	800.000
187.98	-420.000
188.36	-250.000
188.74	425.000
189.12	266.667
189.49	87.500
189.87	212.500
190.25	300.000
190.63	500.000
191.00	-33.333
191.38	0.000
191.76	225.000
192.14	200.000
192.51	-800.000
192.89	583.333
193.27	0.000
193.65	142.857
194.02	200.000
194.40	228.571
194.78	-171.429
195.15	0.000
195.53	190.909
195.91	0.000
196.29	425.000
196.66	146.154
197.04	700.000
197.42	157.143
197.79	600.000
198.17	175.000
198.55	171.429
198.92	188.889
199.30	175.000
199.68	181.818
200.05	164.286
200.43	400.000
200.81	71.429
201.18	0.000
201.56	-66.667
201.94	0.000
202.31	-300.000
202.69	-11.111
203.07	-1300.000
203.44	233.333
203.82	150.000
204.19	133.333
204.57	150.000
204.95	100.000
205.32	900.000
205.70	-325.000
206.08	350.000
206.45	450.000
206.83	-260.000
207.20	300.000
207.58	140.000
207.96	100.000
208.33	366.667
208.71	-83.333
209.08	466.667
209.46	0.000
209.84	-83.333
210.21	-650.000
210.59	-750.000
210.96	-500.000
211.34	350.000
211.71	262.500
212.09	1500.000
212.46	0.000
212.84	-150.000
213.22	220.000
213.59	325.000
213.97	220.000
214.34	366.667
214.72	-150.000
215.09	400.000
215.47	0.000
215.84	-214.286
216.22	-250.000
216.59	400.000
216.97	200.000
217.34	325.000
217.72	200.000
218.09	350.000
218.47	225.000
218.84	0.000
219.22	-340.000
219.59	141.176
219.97	70.000
220.34	-950.000
220.72	200.000
221.09	146.154
221.47	633.333
221.84	120.000
222.22	214.286
222.59	0.000
222.97	337.500
223.34	280.000
223.72	2600.000
224.09	550.000
224.46	250.000
224.84	500.000
225.21	185.714
225.59	400.000
225.96	500.000
226.34	115.385
226.71	-150.000
227.08	750.000
227.46	140.000
227.83	250.000
228.21	147.368
228.58	-37.500
228.95	-300.000
229.33	158.333
229.70	120.000
230.08	136.842
230.45	-100.000
230.82	733.333
231.20	114.286
231.57	183.333
231.95	118.182
232.32	90.909
232.69	120.000
233.07	425.000
233.44	82.353
233.81	210.000
234.19	105.556
234.56	118.182
234.93	120.690
235.31	126.316
235.68	161.111
236.05	75.000
236.43	115.385
236.80	136.000
237.17	111.111
237.55	90.909
237.92	190.000
238.29	74.194
238.67	70.455
239.04	80.556
239.41	64.286
239.79	56.522
240.16	48.148
240.53	52.174
240.91	43.137
241.28	49.180
241.65	73.134
242.02	51.351
242.40	46.154
242.77	48.000
243.14	43.902
243.51	30.263
243.89	50.000
244.26	41.584
244.63	32.353
245.00	43.925
245.38	39.474
245.75	28.319
246.12	50.794
246.49	33.333
246.87	45.714
247.24	37.086
247.61	36.184
247.98	31.544
248.36	37.654
248.73	38.037
249.10	31.148
249.47	39.801
249.84	36.126
250.22	30.570
250.59	30.000
250.96	35.000
251.33	31.633
251.70	35.897
252.08	32.083
252.45	32.787
252.82	25.207
253.19	29.297
253.56	31.179
253.94	29.615
254.31	29.924
254.68	36.014
255.05	32.899
255.42	30.952
255.79	29.773
256.16	32.450
256.54	28.146
256.91	34.754
257.28	30.492
257.65	27.707
258.02	28.909
258.39	29.060
258.76	35.168
259.14	34.195
259.51	28.818
259.88	30.878
260.25	33.056
260.62	32.603
260.99	32.787
261.36	32.708
261.73	32.626
262.10	32.692
262.47	32.976
262.85	32.576
263.22	26.494
263.59	28.947
263.96	27.110
264.33	29.668
264.70	30.617
265.07	32.220
265.44	30.159
265.81	31.944
266.18	31.519
266.55	28.348
266.92	29.157
267.29	31.510
267.66	28.603
268.03	29.476
268.40	26.931
268.77	26.651
269.14	25.551
269.51	26.974
269.88	31.762
270.25	30.785
270.62	29.958
270.99	29.091
271.36	27.525
271.73	28.684
272.10	30.261
272.47	30.261
272.84	28.715
273.21	27.054
273.58	28.831
273.95	28.077
274.32	26.046
274.69	26.692
275.06	29.487
275.43	25.693
275.80	26.631
276.17	26.852
276.54	25.560
276.91	27.191
277.28	29.114
277.65	26.750
278.02	27.390
278.39	28.261
278.76	25.659
279.13	26.241
279.50	27.491
279.87	26.655
280.23	25.880
280.60	27.797
280.97	26.480
281.34	26.655
281.71	27.411
282.08	26.246
282.45	27.005
282.82	23.705
283.19	24.879
283.56	24.262
283.92	27.778
284.29	25.750
284.66	28.571
285.03	24.199
285.40	26.121
285.77	26.471
286.14	25.802
286.51	24.353
286.87	24.961
287.24	25.000
287.61	24.813
287.98	25.680
288.35	25.888
288.72	24.704
289.08	25.476
289.45	23.077
289.82	23.193
290.19	23.707
290.56	24.507
290.93	24.394
291.29	23.691
291.66	22.727
292.03	22.524
292.40	25.442
292.77	23.585
293.13	22.733
293.50	21.551
293.87	21.745
294.24	25.333
294.60	21.618
294.97	20.000
295.34	22.535
295.71	21.185
296.08	21.705
296.44	21.936
296.81	21.437
297.18	20.299
297.55	20.165
297.91	21.115
298.28	20.498
298.65	21.403
299.02	21.606
299.38	21.510
299.75	20.561
300.12	20.370
300.48	20.737
300.85	20.022
301.22	21.029
301.59	20.091
301.95	20.565
302.32	20.000
302.69	21.249
303.05	21.110
303.42	19.401
303.79	19.792
304.15	20.925
304.52	19.027
304.89	19.581
305.25	19.876
305.62	19.122
305.99	20.825
306.35	20.665
306.72	21.303
307.09	18.782
307.45	19.876
307.82	18.466
308.19	19.173
308.55	20.154
308.92	20.448
309.29	18.774
309.65	19.298
310.02	20.495
310.38	19.783
310.75	21.068
311.12	20.805
311.48	20.919
311.85	20.893
312.22	20.019
312.58	19.906
312.95	20.459
313.31	20.958
313.68	21.795
314.05	22.855
314.41	22.404
314.78	21.163
315.14	21.960
315.51	21.976
315.87	22.142
316.24	22.740
316.61	23.002
316.97	22.805
317.34	22.575
317.70	24.367
318.07	24.339
318.43	23.214
318.80	25.084
319.16	24.034
319.53	23.393
319.89	24.452
320.26	24.377
320.62	24.557
320.99	25.023
321.35	25.786
321.72	26.326
322.08	24.436
322.45	26.558
322.81	26.173
323.18	26.106
323.54	25.948
323.91	27.491
324.27	26.850
324.64	27.120
325.00	25.539
325.37	27.027
325.73	27.025
326.10	27.170
326.46	28.502
326.83	28.663
327.19	26.929
327.56	28.379
327.92	29.583
328.29	27.823
328.65	28.559
329.01	29.188
329.38	29.065
329.74	30.308
330.11	29.966
330.47	29.149
330.84	31.525
331.20	29.000
331.56	30.156
331.93	30.544
332.29	30.339
332.66	30.731
333.02	29.648
333.38	29.446
333.75	30.724
334.11	30.108
334.48	30.611
334.84	31.861
335.20	30.059
335.57	30.438
335.93	31.157
336.29	31.198
336.66	31.119
337.02	31.355
337.38	31.633
337.75	30.579
338.11	31.034
338.47	31.100
338.84	30.118
339.20	30.581
339.56	30.643
339.93	31.445
340.29	29.388
340.65	29.440
341.02	31.285
341.38	31.043
341.74	30.428
342.11	30.491
342.47	30.500
342.83	30.757
343.20	30.253
343.56	30.313
343.92	31.385
344.28	31.172
344.65	31.318
345.01	29.875
345.37	29.705
345.73	30.008
346.10	32.137
346.46	30.301
346.82	30.637
347.19	31.169
347.55	30.121
347.91	29.866
348.27	29.818
348.63	30.693
349.00	30.350
349.36	31.301
349.72	32.143
350.08	30.758
350.45	30.570
350.81	31.146
351.17	31.053
351.53	30.933
351.89	31.891
352.26	31.418
352.62	30.896
352.98	31.985
353.34	30.396
353.70	32.743
354.07	30.849
354.43	32.043
354.79	31.264
355.15	30.979
355.51	31.944
355.87	30.516
356.24	32.091
356.60	31.559
356.96	31.727
357.32	31.004
357.68	30.161
358.04	31.213
358.40	31.119
358.77	32.383
359.13	32.053
359.49	31.004
359.85	32.270
360.21	32.066
360.57	31.802
360.93	32.158
361.29	32.000
361.66	31.427
362.02	31.106
362.38	32.256
362.74	32.612
363.10	32.325
363.46	32.618
363.82	32.457
364.18	32.794
364.54	33.126
364.90	32.441
365.26	33.586
365.62	33.133
365.98	33.356
366.35	33.356
366.71	32.789
367.07	33.829
367.43	32.042
367.79	33.975
368.15	33.177
368.51	32.950
368.87	33.703
369.23	31.800
369.59	33.675
369.95	34.821
370.31	33.558
370.67	33.425
371.03	35.319
371.39	33.109
371.75	34.457
372.11	35.095
372.47	33.514
372.83	34.490
373.19	34.089
373.55	33.875
373.91	32.993
374.27	34.088
374.63	35.318
374.99	34.881
375.35	34.545
375.71	34.194
376.07	34.538
376.42	34.761
376.78	35.799
377.14	35.246
377.50	35.863
377.86	36.330
378.22	36.587
378.58	36.088
378.94	36.385
379.30	35.501
379.66	36.214
380.02	37.046
380.38	36.751
380.74	36.620
381.09	37.050
381.45	36.534
381.81	37.295
382.17	37.470
382.53	36.784
382.89	38.318
383.25	37.984
383.61	38.657
383.97	37.456
384.32	37.380
384.68	38.399
385.04	38.924
385.40	38.067
385.76	38.218
386.12	39.617
386.48	39.412
386.83	38.915
387.19	39.340
387.55	39.026
387.91	38.756
388.27	38.741
388.62	37.973
388.98	38.748
389.34	40.542
389.70	39.861
390.06	39.905
390.42	39.578
390.77	40.458
391.13	39.847
391.49	40.036
391.85	40.667
392.20	40.629
392.56	39.752
392.92	41.221
393.28	41.680
393.64	40.726
393.99	41.546
394.35	41.530
394.71	40.539
395.07	41.078
395.42	40.605
395.78	43.266
396.14	42.008
396.50	41.093
396.85	40.549
397.21	41.657
397.57	41.343
397.92	41.180
398.28	42.477
398.64	41.362
399.00	40.576
399.35	40.890
399.71	42.120
400.07	41.999
400.42	41.735
400.78	42.072
401.14	42.402
401.49	42.013
401.85	43.314
402.21	43.569
402.57	43.016
402.92	43.144
403.28	42.916
403.63	43.138
403.99	43.290
404.35	42.865
404.70	43.003
405.06	42.065
405.42	42.681
405.77	43.566
406.13	43.058
406.49	43.525
406.84	43.324
407.20	43.544
407.55	43.065
407.91	44.375
408.27	43.227
408.62	44.386
408.98	43.239
409.34	43.871
409.69	44.499
410.05	44.197
410.40	45.186
410.76	43.971
411.11	44.068
411.47	44.165
411.83	44.621
412.18	44.940
412.54	45.110
412.89	43.888
413.25	44.187
413.60	45.261
413.96	44.930
414.31	43.966
414.67	44.305
415.03	44.985
415.38	45.523
415.74	44.899
416.09	45.342
416.45	45.147
416.80	44.247
417.16	45.722
417.51	46.077
417.87	44.819
418.22	45.210
418.58	45.601
418.93	46.391
419.29	46.054
419.64	45.558
420.00	46.588
420.35	46.266
420.71	45.089
421.06	45.601
421.42	46.330
421.77	44.911
422.12	46.512
422.48	46.083
422.83	46.166
423.19	47.427
423.54	47.456
423.90	46.218
424.25	47.253
424.61	47.072
424.96	47.337
425.31	47.505
425.67	47.826
426.02	49.032
426.38	48.106
426.73	47.879
427.09	49.712
427.44	49.372
427.79	48.425
428.15	48.402
428.50	47.978
428.85	47.819
429.21	48.830
429.56	48.223
429.92	47.862
430.27	48.723
430.62	49.389
430.98	48.401
431.33	48.778
431.68	48.132
432.04	48.654
432.39	48.581
432.74	48.402
433.10	50.460
433.45	48.997
433.80	50.054
434.16	50.103
434.51	49.640
434.86	50.163
435.22	51.010
435.57	51.061
435.92	49.193
436.28	49.772
436.63	51.502
436.98	50.617
437.34	51.860
437.69	50.688
438.04	50.555
438.39	50.948
438.75	50.526
439.10	51.374
439.45	50.866
439.81	51.243
440.16	51.206
440.51	51.616
440.86	51.028
441.22	52.626
441.57	52.411
441.92	51.649
442.27	52.374
442.63	52.459
442.98	51.761
443.33	51.184
443.68	52.428
444.03	52.634
444.39	52.427
444.74	52.731
445.09	51.901
445.44	52.476
445.79	52.443
446.15	52.210
446.50	53.385
446.85	52.772
447.20	52.176
447.55	53.033
447.91	52.880
448.26	52.326
448.61	53.560
448.96	53.702
449.31	52.969
449.66	52.669
450.02	52.584
450.37	53.596
450.72	53.983
451.07	53.872
451.42	52.397
451.77	53.808
452.12	54.176
452.47	54.724
452.83	55.180
453.18	53.590
453.53	53.188
453.88	54.445
454.23	53.220
454.58	55.020
454.93	54.612
455.28	54.064
455.63	54.633
455.98	54.469
456.34	53.710
456.69	54.556
457.04	55.260
457.39	54.157
457.74	54.866
458.09	55.080
458.44	54.957
458.79	54.461
459.14	53.749
459.49	54.386
459.84	55.194
460.19	55.192
460.54	54.855
460.89	55.056
461.24	54.713
461.59	54.400
461.94	53.565
462.29	54.143
462.64	55.401
462.99	54.677
463.34	55.678
463.69	53.986
464.04	56.031
464.39	55.325
464.74	54.675
465.09	55.767
465.44	55.043
465.79	55.156
466.14	54.820
466.49	54.947
466.84	55.152
467.19	55.376
467.54	54.172
467.89	55.000
468.24	55.900
468.59	56.283
468.94	56.818
469.29	56.329
469.64	55.245
469.99	56.915
470.34	56.683
470.68	56.118
471.03	56.647
471.38	57.358
471.73	58.192
472.08	57.678
472.43	56.653
472.78	57.935
473.13	57.396
473.48	57.100
473.83	56.936
474.17	56.331
474.52	58.268
474.87	56.146
475.22	56.676
475.57	56.594
475.92	55.998
476.27	57.082
476.61	56.646
476.96	55.266
477.31	55.891
477.66	57.660
478.01	56.990
478.36	56.780
478.70	56.010
479.05	58.589
479.40	57.009
479.75	56.676
480.10	56.892
480.45	56.518
480.79	56.599
481.14	56.204
481.49	56.202
481.84	56.484
482.19	55.871
482.53	55.619
482.88	56.978
483.23	57.537
483.58	56.769
483.92	56.605
484.27	56.139
484.62	55.528
484.97	55.638
485.31	56.213
485.66	54.415
486.01	53.019
486.36	52.549
486.70	53.115
487.05	53.229
487.40	53.425
487.75	53.664
488.09	54.832
488.44	53.853
488.79	56.189
489.13	56.988
489.48	56.699
489.83	56.419
490.17	55.772
490.52	56.034
490.87	57.234
491.22	57.409
491.56	56.826
491.91	56.825
492.26	56.209
492.60	56.275
492.95	57.350
493.30	56.746
493.64	56.899
493.99	57.105
494.34	56.533
494.68	56.745
495.03	56.079
495.37	57.523
495.72	57.234
496.07	57.450
496.41	57.186
496.76	58.007
497.11	57.282
497.45	57.963
497.80	57.397
498.14	56.417
498.49	57.904
498.84	57.633
499.18	57.985
499.53	57.309
499.87	59.121
500.22	57.302
500.56	56.950
500.91	57.803
501.26	58.545
501.60	56.783
501.95	57.924
502.29	57.306
502.64	58.330
502.98	56.514
503.33	57.581
503.67	57.261
504.02	58.012
504.36	57.373
504.71	58.016
505.06	57.754
505.40	57.770
505.75	58.015
506.09	58.195
506.44	59.192
506.78	58.853
507.13	57.676
507.47	58.645
507.82	58.617
508.16	59.608
508.51	57.665
508.85	59.707
509.19	59.735
509.54	59.846
509.88	59.106
510.23	59.932
510.57	60.271
510.92	59.361
511.26	58.682
511.61	58.522
511.95	58.760
512.30	59.872
512.64	59.520
512.98	58.879
513.33	59.425
513.67	59.510
514.02	60.501
514.36	61.330
514.70	61.198
515.05	60.428
515.39	60.367
515.74	61.612
516.08	60.644
516.42	61.329
516.77	60.778
517.11	60.598
517.46	61.029
517.80	61.197
518.14	60.936
518.49	62.364
518.83	60.937
519.17	60.905
519.52	59.958
519.86	59.715
520.20	61.022
520.55	59.639
520.89	61.599
521.23	61.865
521.58	61.412
521.92	60.567
522.26	61.913
522.61	61.806
522.95	61.822
523.29	61.954
523.64	60.482
523.98	62.065
524.32	62.636
524.66	62.834
525.01	61.042
525.35	61.804
525.69	60.383
526.04	61.194
526.38	62.241
526.72	62.572
527.06	62.933
527.41	60.816
527.75	62.233
528.09	61.570
528.43	60.687
528.78	61.561
529.12	62.156
529.46	62.395
529.80	61.842
530.15	60.232
530.49	61.625
530.83	61.452
531.17	61.649
531.51	61.613
531.86	61.899
532.20	62.439
532.54	60.802
532.88	60.970
533.22	61.226
533.57	61.627
533.91	60.382
534.25	60.317
534.59	60.862
534.93	61.177
535.27	60.338
535.62	61.171
535.96	61.534
536.30	61.281
536.64	60.781
536.98	61.747
537.32	61.235
537.66	61.385
538.01	59.758
538.35	60.292
538.69	61.358
539.03	61.925
539.37	59.600
539.71	60.541
540.05	60.791
540.39	61.247
540.73	59.624
541.07	61.741
541.42	59.716
541.76	59.964
542.10	59.228
542.44	61.389
542.78	61.253
543.12	59.893
543.46	59.463
543.80	59.233
544.14	59.964
544.48	59.515
544.82	60.443
545.16	60.644
545.50	59.736
545.84	60.012
546.18	61.111
546.52	60.955
546.86	59.937
547.20	61.641
547.54	60.050
547.88	60.036
548.22	59.708
548.56	59.216
548.90	59.940
549.24	59.392
549.58	59.874
549.92	61.735
550.26	61.618
550.60	59.732
550.94	60.608
551.28	59.736
551.62	62.466
551.96	60.777
552.30	60.803
552.64	60.361
552.98	60.574
553.32	61.801
553.66	61.093
554.00	60.719
554.34	61.583
554.68	60.168
555.02	60.972
555.36	60.684
555.69	60.154
556.03	59.836
556.37	59.637
556.71	60.051
557.05	58.786
557.39	61.712
557.73	60.172
558.07	60.662
558.41	61.130
558.75	61.258
559.08	61.169
559.42	60.219
559.76	60.855
560.10	61.018
560.44	60.752
560.78	60.875
561.12	60.283
561.45	60.341
561.79	60.317
562.13	60.259
562.47	57.398
562.81	60.253
563.15	60.922
563.48	60.534
563.82	60.097
564.16	59.237
564.50	59.952
564.84	58.643
565.17	59.294
565.51	58.113
565.85	59.857
566.19	58.468
566.52	59.626
566.86	59.310
567.20	56.933
567.54	57.461
567.88	58.104
568.21	57.757
568.55	57.170
568.89	56.468
569.23	56.443
569.56	56.116
569.90	54.383
570.24	54.132
570.57	54.105
570.91	53.184
571.25	53.457
571.59	52.936
571.92	53.065
572.26	52.515
572.60	52.989
572.93	52.380
573.27	53.470
573.61	52.673
573.95	51.906
574.28	51.810
574.62	51.887
574.96	50.794
575.29	50.958
575.63	51.444
575.97	51.497
576.30	50.654
576.64	51.801
576.98	51.595
577.31	51.555
577.65	51.073
577.98	51.130
578.32	50.506
578.66	50.188
578.99	50.686
579.33	51.445
579.67	51.428
580.00	51.337
580.34	51.374
580.67	51.081
581.01	51.082
581.35	50.984
581.68	50.648
582.02	50.277
582.35	50.608
582.69	50.582
583.02	50.047
583.36	50.524
583.70	51.693
584.03	51.452
584.37	51.864
584.70	51.711
585.04	51.523
585.37	50.950
585.71	50.809
586.04	50.683
586.38	50.627
586.72	51.090
587.05	51.138
587.39	52.007
587.72	51.292
588.06	51.717
588.39	52.029
588.73	51.931
589.06	51.495
589.40	52.827
589.73	51.832
590.07	53.216
590.40	53.820
590.73	52.457
591.07	53.797
591.40	53.810
591.74	53.537
592.07	54.040
592.41	53.549
592.74	53.284
593.08	53.025
593.41	52.610
593.75	52.299
594.08	51.772
594.41	53.109
594.75	51.810
595.08	52.456
595.42	52.435
595.75	51.954
596.09	52.220
596.42	52.383
596.75	54.072
597.09	54.061
597.42	54.072
597.75	52.724
598.09	52.738
598.42	52.835
598.76	53.191
599.09	52.545
599.42	51.626
599.76	51.832
600.09	52.486
600.42	52.085
600.76	51.783
601.09	52.074
601.42	52.077
601.76	52.310
602.09	52.502
602.42	52.090
602.76	52.509
603.09	53.377
603.42	52.962
603.76	51.832
604.09	52.520
604.42	53.431
604.76	51.865
605.09	53.650
605.42	53.628
605.75	52.385
606.09	52.184
606.42	52.098
606.75	51.949
607.09	50.922
607.42	51.522
607.75	52.677
608.08	52.605
608.42	52.761
608.75	53.192
609.08	52.844
609.41	53.860
609.75	53.661
610.08	54.442
610.41	53.398
610.74	52.899
611.07	53.020
611.41	53.229
611.74	53.857
612.07	54.418
612.40	53.232
612.73	54.719
613.07	54.279
613.40	54.139
613.73	54.261
614.06	55.054
614.39	53.547
614.72	53.469
615.06	52.743
615.39	54.277
615.72	54.123
616.05	52.647
616.38	54.339
616.71	54.389
617.05	54.260
617.38	54.414
617.71	55.724
618.04	54.290
618.37	55.464
618.70	55.147
619.03	55.317
619.36	55.364
619.69	56.310
620.03	56.874
620.36	55.706
620.69	55.706
621.02	56.102
621.35	60.160
621.68	57.918
622.01	57.509
622.34	56.974
622.67	57.526
623.00	55.668
623.33	57.133
623.66	56.420
623.99	56.353
624.32	57.440
624.65	54.698
624.99	57.022
625.32	55.585
625.65	56.844
625.98	55.390
626.31	57.335
626.64	57.289
626.97	56.939
627.30	58.618
627.63	57.239
627.96	59.159
628.29	58.366
628.62	58.102
628.95	60.561
629.28	59.473
629.61	58.838
629.94	57.824
630.26	57.966
630.59	59.931
630.92	58.874
631.25	61.002
631.58	60.358
631.91	61.012
632.24	62.152
632.57	61.101
632.90	60.782
633.23	63.265
633.56	61.735
633.89	60.640
634.22	61.850
634.55	62.213
634.88	59.957
635.20	62.863
635.53	64.746
635.86	62.189
636.19	61.188
636.52	63.186
636.85	59.857
637.18	59.875
637.51	60.860
637.83	62.016
638.16	63.594
638.49	61.268
638.82	61.443
639.15	62.199
639.48	62.471
639.81	62.818
640.13	62.073
640.46	61.212
640.79	61.642
641.12	60.870
641.45	63.614
641.77	65.469
642.10	62.467
642.43	63.298
642.76	63.415
643.09	63.973
643.41	63.866
643.74	64.414
644.07	65.103
644.40	64.074
644.73	64.296
645.05	63.436
645.38	65.755
645.71	61.877
646.04	65.136
646.36	63.942
646.69	64.877
647.02	66.514
647.35	67.481
647.67	67.311
648.00	68.312
648.33	63.213
648.66	64.051
648.98	60.136
649.31	61.705
649.64	65.073
649.96	63.528
650.29	63.143
650.62	62.942
650.94	63.213
651.27	61.677
651.60	63.596
651.92	62.462
652.25	62.229
652.58	61.210
652.90	64.535
653.23	63.239
653.56	61.912
653.88	62.079
654.21	61.408
654.54	61.705
654.86	61.898
655.19	58.218
655.52	51.237
655.84	43.641
656.17	54.678
656.49	76.802
656.82	85.272
657.15	66.585
657.47	49.037
657.80	36.938
658.13	29.005
658.45	39.204
658.78	48.154
659.10	48.056
659.43	50.150
659.75	52.615
660.08	54.454
660.41	57.486
660.73	59.407
661.06	64.170
661.38	62.839
661.71	65.000
662.03	66.314
662.36	65.295
662.68	66.604
663.01	64.425
663.33	67.297
663.66	67.582
663.98	65.577
664.31	66.229
664.63	65.511
664.96	62.795
665.28	64.065
665.61	65.385
665.93	62.679
666.26	65.591
666.58	64.391
666.91	67.290
667.23	68.000
667.56	67.456
667.88	66.400
668.21	66.992
668.53	63.320
668.86	63.458
669.18	68.635
669.50	62.624
669.83	64.800
670.15	65.945
670.48	68.254
670.80	63.862
671.13	63.327
671.45	65.945
671.77	65.725
672.10	62.333
672.42	60.518
672.75	60.983
673.07	60.746
673.39	61.633
673.72	60.570
674.04	64.310
674.37	64.043
674.69	65.079
675.01	62.095
675.34	61.641
675.66	62.547
675.98	61.194
676.31	67.773
676.63	67.300
676.95	68.199
677.28	67.339
677.60	61.614
677.92	63.724
678.25	63.985
678.57	62.456
678.89	60.239
679.22	61.150
679.54	60.855
679.86	61.356
680.18	61.857
680.51	62.264
680.83	62.520
681.15	60.862
681.48	62.522
681.80	60.967
682.12	61.014
682.44	63.272
682.77	60.816
683.09	60.985
683.41	64.535
683.73	61.670
684.06	62.177
684.38	60.644
684.70	64.811
685.02	62.478
685.34	59.401
685.67	59.779
685.99	57.515
686.31	56.395
686.63	57.978
686.96	58.517
687.28	59.283
687.60	61.953
687.92	56.431
688.24	61.937
688.56	58.621
688.89	61.706
689.21	63.601
689.53	62.745
689.85	63.116
690.17	59.630
690.49	59.960
690.82	62.178
691.14	63.158
691.46	59.465
691.78	60.589
692.10	60.550
692.42	57.500
692.74	61.343
693.06	58.519
693.39	60.911
693.71	58.647
694.03	60.967
694.35	60.571
694.67	64.066
694.99	58.936
695.31	60.044
695.63	64.069
695.95	60.041
696.27	62.418
696.59	63.053
696.91	63.514
697.23	64.615
697.56	57.026
697.88	61.742
698.20	60.264
698.52	61.553
698.84	62.578
699.16	63.061
699.48	62.134
699.80	59.574
700.12	62.009
700.44	60.138
700.76	59.620
701.08	62.228
701.40	65.285
701.72	63.184
702.04	65.775
702.36	60.209
702.68	61.369
703.00	62.836
703.32	63.054
703.64	61.614
703.96	59.666
704.28	61.179
704.60	63.291
704.91	63.776
705.23	66.849
705.55	66.017
705.87	68.485
706.19	70.552
706.51	63.554
706.83	65.418
707.15	61.640
707.47	60.748
707.79	60.262
708.11	56.568
708.43	58.280
708.74	57.589
709.06	58.469
709.38	61.268
709.70	65.261
710.02	63.049
710.34	65.426
710.66	59.218
710.98	63.388
711.29	61.264
711.61	63.842
711.93	64.957
712.25	60.000
712.57	66.667
712.89	67.059
713.20	61.834
713.52	63.873
713.84	61.560
714.16	63.158
714.48	60.567
714.80	63.117
715.11	62.467
715.43	60.477
715.75	60.526
716.07	61.326
716.39	60.109
716.70	59.940
717.02	64.590
717.34	65.505
717.66	63.087
717.97	59.932
718.29	60.825
718.61	65.461
718.93	61.165
719.24	63.975
719.56	61.656
719.88	60.360
720.20	62.903
720.51	63.043
720.83	61.250
721.15	63.158
721.46	66.096
721.78	65.333
722.10	55.987
722.42	60.403
722.73	60.000
723.05	69.123
723.37	64.931
723.68	65.233
724.00	66.065
724.32	59.507
724.63	62.238
724.95	63.475
725.27	60.279
725.58	63.958
725.90	66.552
726.22	62.069
726.53	63.312
726.85	60.063
727.16	58.610
727.48	60.245
727.80	60.265
728.11	60.777
728.43	62.963
728.74	59.866
729.06	62.583
729.38	59.416
729.69	63.423
730.01	58.929
730.32	54.545
730.64	64.151
730.96	59.317
731.27	58.101
731.59	57.143
731.90	55.065
732.22	55.469
732.53	54.972
732.85	58.286
733.16	58.944
733.48	57.927
733.80	55.153
734.11	59.259
734.43	61.622
734.74	57.215
735.06	56.281
735.37	60.270
735.69	54.865
736.00	57.062
736.32	54.987
736.63	59.444
736.95	54.598
737.26	61.515
737.58	60.606
737.89	57.647
738.21	59.021
738.52	60.328
738.83	63.140
739.15	63.830
739.46	58.844
739.78	61.656
740.09	55.587
740.41	59.475
740.72	58.667
741.04	65.372
741.35	63.158
741.66	60.784
741.98	63.115
742.29	66.527
742.61	63.158
742.92	59.615
743.23	63.899
743.55	63.566
743.86	66.800
744.18	56.612
744.49	60.338
744.80	62.140
745.12	61.603
745.43	64.634
745.74	65.086
746.06	65.254
746.37	67.932
746.68	68.699
747.00	68.333
747.31	64.807
747.62	70.769
747.94	62.348
748.25	62.249
748.56	63.673
748.88	65.812
749.19	68.103
749.50	60.173
749.82	68.675
750.13	61.210
750.44	56.333
750.75	58.769
751.07	58.154
751.38	59.306
751.69	61.342
752.01	55.987
752.32	59.477
752.63	58.844
752.94	60.554
753.26	57.993
753.57	55.185
753.88	59.925
754.19	59.164
754.51	55.949
754.82	61.736
755.13	60.000
755.44	61.775
755.75	61.184
756.07	52.836
756.38	54.717
756.69	61.145
757.00	54.017
757.31	54.918
757.63	52.174
757.94	54.930
758.25	53.273
758.56	48.584
758.87	52.955
759.18	56.000
759.50	56.657
759.81	53.501
760.12	57.143
760.43	53.906
760.74	52.956
761.05	53.750
761.36	53.735
761.67	57.360
761.99	53.514
762.30	56.402
762.61	52.475
762.92	58.955
763.23	61.798
763.54	56.475
763.85	56.357
764.16	59.933
764.47	61.972
764.78	55.272
765.10	54.545
765.41	52.308
765.72	53.704
766.03	55.932
766.34	54.859
766.65	54.007
766.96	60.558
767.27	61.751
767.58	59.701
767.89	64.904
768.20	61.502
768.51	53.241
768.82	57.028
769.13	55.303
769.44	51.923
769.75	55.596
770.06	58.462
770.37	58.661
770.68	58.298
770.99	53.441
771.30	54.444
771.61	50.570
771.92	56.296
772.23	61.538
772.54	59.722
772.85	67.281
773.16	60.000
773.47	68.254
773.78	58.919
774.09	68.182
774.39	63.000
774.70	62.842
775.01	61.585
775.32	52.353
775.63	63.190
775.94	53.503
776.25	67.742
776.56	67.949
776.87	67.347
777.18	66.207
777.48	60.839
777.79	66.216
778.10	61.029
778.41	63.194
778.72	68.966
779.03	64.198
779.34	60.606
779.65	59.067
779.95	67.222
780.26	59.091
780.57	67.742
780.88	64.493
781.19	67.742
781.50	66.471
781.80	59.677
782.11	67.725
782.42	55.556
782.73	59.281
783.04	59.218
783.34	53.333
783.65	58.170
783.96	57.764
784.27	56.548
784.57	62.914
784.88	66.429
785.19	58.268
785.50	71.654
785.81	64.662
786.11	60.000
786.42	61.151
786.73	58.273
787.04	62.406
787.34	64.754
787.65	76.000
787.96	58.209
788.26	64.336
788.57	72.028
788.88	55.921
789.19	63.399
789.49	67.808
789.80	66.667
790.11	70.866
790.41	57.031
790.72	61.017
791.03	55.340
791.33	63.478
791.64	65.789
791.95	55.357
792.25	62.857
792.56	65.179
792.87	65.625
793.17	60.714
793.48	80.208
793.79	53.012
794.09	56.881
794.40	67.890
794.70	53.061
795.01	56.494
795.32	51.370
795.62	53.521
795.93	64.394
796.23	59.016
796.54	56.250
796.85	61.702
797.15	71.739
797.46	68.493
797.76	65.000
798.07	69.565
798.37	55.670
798.68	62.338
798.99	65.517
799.29	75.281
799.60	69.149
799.90	57.831
800.21	84.615
800.51	77.612
800.82	64.706
801.12	53.425
801.43	67.647
801.73	77.966
802.04	63.636
802.34	83.333
802.65	89.831
802.95	74.627
803.26	71.186
803.56	53.425
803.87	67.143
804.17	71.233
804.48	66.667
804.78	81.944
805.09	72.414
805.39	71.622
805.70	67.606
806.00	79.268
806.30	61.446
806.61	76.712
806.91	72.115
807.22	61.111
807.52	63.218
807.83	81.944
808.13	77.108
808.43	57.303
808.74	65.000
809.04	54.412
809.35	61.333
809.65	72.857
809.95	71.233
810.26	75.439
810.56	68.966
810.86	77.941
811.17	73.684
811.47	65.574
811.77	95.556
812.08	66.102
812.38	75.000
812.69	74.138
812.99	81.132
813.29	64.103
813.59	102.000
813.90	98.246
814.20	69.091
814.50	81.690
814.81	67.949
815.11	88.525
815.41	62.687
815.72	75.862
816.02	76.786
816.32	93.333
816.62	93.182
816.93	91.111
817.23	75.926
817.53	87.234
817.84	107.143
818.14	108.824
818.44	65.306
818.74	97.778
819.04	94.872
819.35	91.429
819.65	84.615
819.95	56.604
820.25	84.444
820.56	88.095
820.86	100.000
821.16	76.923
821.46	55.814
821.76	48.000
822.07	75.000
822.37	80.435
822.67	70.213
822.97	78.378
823.27	62.500
823.57	85.714
823.88	80.000
824.18	85.000
824.48	133.333
824.78	116.000
825.08	96.970
825.38	91.111
825.69	76.596
825.99	108.333
826.29	68.571
826.59	84.615
826.89	60.465
827.19	64.000
827.49	129.412
827.79	72.917
828.09	83.784
828.39	86.667
828.70	97.561
829.00	76.744
829.30	78.571
829.60	91.176
829.90	82.609
830.20	85.714
830.50	72.414
830.80	150.000
831.10	111.538
831.40	85.294
831.70	123.810
832.00	106.452
832.30	82.353
832.60	104.167
832.90	153.846
833.20	157.895
833.50	80.000
833.80	157.895
834.10	66.667
834.40	108.333
834.70	100.000
835.00	54.286
835.30	76.471
835.60	70.000
835.90	100.000
836.20	72.727
836.50	104.000
836.80	69.697
837.10	133.333
837.40	92.593
837.70	106.250
838.00	121.429
838.30	73.913
838.60	103.448
838.90	150.000
839.19	52.174
839.49	116.667
839.79	52.174
840.09	75.000
840.39	140.000
840.69	70.968
840.99	78.571
841.29	86.667
841.59	100.000
841.88	97.436
842.18	69.231
842.48	220.000
842.78	105.000
843.08	90.000
843.38	67.742
843.68	111.111
843.97	111.765
844.27	112.500
844.57	126.316
844.87	150.000
845.17	153.333
845.47	157.143
845.76	119.048
846.06	200.000
846.36	152.941
846.66	88.462
846.96	180.000
847.25	76.471
847.55	143.478
847.85	130.000
848.15	147.059
848.44	181.818
848.74	138.095
849.04	79.167
849.34	162.500
849.63	178.261
849.93	-500.000
850.23	93.333
850.53	119.231
850.82	109.091
851.12	163.636
851.42	227.273
851.71	184.615
852.01	120.000
852.31	176.923
852.61	89.474
852.90	158.333
853.20	133.333
853.50	211.111
853.79	61.905
854.09	95.455
854.39	41.667
854.68	135.484
854.98	111.538
855.28	183.333
855.57	114.286
855.87	68.000
856.17	104.545
856.46	118.519
856.76	116.667
857.05	117.391
857.35	54.167
857.65	146.154
857.94	138.095
858.24	107.407
858.53	134.783
858.83	158.824
859.13	135.294
859.42	117.647
859.72	157.143
860.01	90.000
860.31	111.111
860.60	220.000
860.90	140.000
861.20	83.333
861.49	100.000
861.79	93.333
862.08	53.846
862.38	71.875
862.67	117.647
862.97	125.000
863.26	111.111
863.56	300.000
863.85	127.273
864.15	88.889
864.44	166.667
864.74	64.286
865.03	125.000
865.33	100.000
865.62	61.290
865.92	90.909
866.21	117.391
866.51	178.571
866.80	320.000
867.10	150.000
867.39	50.000
867.69	-200.000
867.98	385.714
868.27	170.588
868.57	500.000
868.86	130.000
869.16	85.714
869.45	116.667
869.75	209.091
870.04	214.286
870.33	166.667
870.63	114.286
870.92	450.000
871.22	237.500
871.51	145.455
871.80	233.333
872.10	250.000
>>>>>End Processed Spectral Data<<<<<
