SpectraSuite Data File
++++++++++++++++++++++++++++++++++++
Date: Thu May 14 14:47:13 PDT 2015
User: schluterlab
Dark Spectrum Present: Yes
Reference Spectrum Present: Yes
Number of Sampled Component Spectra: 1
Spectrometers: USB2E3373
Integration Time (usec): 3000 (USB2E3373)
Spectra Averaged: 3 (USB2E3373)
Boxcar Smoothing: 0 (USB2E3373)
Correct for Electrical Dark: No (USB2E3373)
Strobe/Lamp Enabled: No (USB2E3373)
Correct for Detector Non-linearity: No (USB2E3373)
Correct for Stray Light: No (USB2E3373)
Number of Pixels in Processed Spectrum: 2048
>>>>>Begin Processed Spectral Data<<<<<
178.53	0.000
178.91	57.143
179.29	-900.000
179.67	-500.000
180.04	107.143
180.42	10.000
180.80	80.000
181.18	-800.000
181.56	800.000
181.94	275.000
182.31	-125.000
182.69	33.333
183.07	-150.000
183.45	100.000
183.83	66.667
184.20	166.667
184.58	800.000
184.96	-125.000
185.34	44.444
185.72	-100.000
186.09	122.222
186.47	700.000
186.85	400.000
187.23	-155.556
187.61	-300.000
187.98	180.000
188.36	250.000
188.74	0.000
189.12	-100.000
189.49	50.000
189.87	-112.500
190.25	22.222
190.63	-80.000
191.00	-66.667
191.38	0.000
191.76	-200.000
192.14	-100.000
192.51	150.000
192.89	-66.667
193.27	0.000
193.65	-14.286
194.02	-800.000
194.40	-85.714
194.78	-114.286
195.15	0.000
195.53	-9.091
195.91	0.000
196.29	200.000
196.66	7.692
197.04	-100.000
197.42	42.857
197.79	-150.000
198.17	-50.000
198.55	-114.286
198.92	44.444
199.30	-25.000
199.68	63.636
200.05	28.571
200.43	-100.000
200.81	42.857
201.18	0.000
201.56	122.222
201.94	0.000
202.31	333.333
202.69	11.111
203.07	300.000
203.44	44.444
203.82	25.000
204.19	8.333
204.57	0.000
204.95	-37.500
205.32	-1100.000
205.70	75.000
206.08	0.000
206.45	16.667
206.83	60.000
207.20	16.667
207.58	-160.000
207.96	-216.667
208.33	50.000
208.71	41.667
209.08	133.333
209.46	0.000
209.84	100.000
210.21	50.000
210.59	50.000
210.96	300.000
211.34	100.000
211.71	-75.000
212.09	-100.000
212.46	0.000
212.84	350.000
213.22	-140.000
213.59	0.000
213.97	40.000
214.34	0.000
214.72	33.333
215.09	0.000
215.47	0.000
215.84	-0.000
216.22	500.000
216.59	-40.000
216.97	-80.000
217.34	50.000
217.72	100.000
218.09	-100.000
218.47	-50.000
218.84	0.000
219.22	-160.000
219.59	11.765
219.97	10.000
220.34	550.000
220.72	-88.889
221.09	23.077
221.47	0.000
221.84	-20.000
222.22	-28.571
222.59	0.000
222.97	-12.500
223.34	-240.000
223.72	300.000
224.09	50.000
224.46	25.000
224.84	-40.000
225.21	-157.143
225.59	-300.000
225.96	25.000
226.34	-3.846
226.71	133.333
227.08	-300.000
227.46	-13.333
227.83	-75.000
228.21	21.053
228.58	287.500
228.95	350.000
229.33	8.333
229.70	-20.000
230.08	26.316
230.45	60.000
230.82	-133.333
231.20	21.429
231.57	25.000
231.95	-9.091
232.32	27.273
232.69	20.000
233.07	50.000
233.44	-17.647
233.81	-60.000
234.19	-27.778
234.56	-4.545
234.93	62.069
235.31	31.579
235.68	0.000
236.05	5.000
236.43	42.308
236.80	56.000
237.17	7.407
237.55	21.212
237.92	-30.000
238.29	-19.355
238.67	6.818
239.04	8.333
239.41	-11.905
239.79	13.043
240.16	3.704
240.53	10.870
240.91	-5.882
241.28	14.754
241.65	5.970
242.02	17.568
242.40	4.615
242.77	-1.333
243.14	2.439
243.51	-6.579
243.89	-6.410
244.26	4.950
244.63	9.804
245.00	13.084
245.38	2.632
245.75	0.000
246.12	10.317
246.49	-1.550
246.87	15.714
247.24	9.272
247.61	11.842
247.98	6.040
248.36	3.704
248.73	7.975
249.10	2.186
249.47	10.448
249.84	13.613
250.22	5.699
250.59	3.889
250.96	10.000
251.33	5.612
251.70	8.120
252.08	5.833
252.45	9.836
252.82	8.678
253.19	5.469
253.56	6.844
253.94	7.692
254.31	9.470
254.68	11.189
255.05	11.075
255.42	8.163
255.79	5.825
256.16	3.974
256.54	9.272
256.91	5.246
257.28	6.557
257.65	5.096
258.02	6.785
258.39	6.838
258.76	10.398
259.14	7.759
259.51	7.205
259.88	6.516
260.25	9.167
260.62	8.767
260.99	9.836
261.36	10.188
261.73	5.836
262.10	7.692
262.47	6.971
262.85	13.131
263.22	7.532
263.59	6.316
263.96	8.184
264.33	6.905
264.70	8.395
265.07	11.933
265.44	11.565
265.81	7.870
266.18	8.163
266.55	8.036
266.92	5.239
267.29	9.847
267.66	6.430
268.03	9.170
268.40	9.603
268.77	5.467
269.14	5.066
269.51	8.114
269.88	8.811
270.25	6.841
270.62	7.806
270.99	9.091
271.36	9.703
271.73	7.466
272.10	9.619
272.47	9.218
272.84	9.438
273.21	8.417
273.58	9.879
273.95	8.077
274.32	7.034
274.69	8.511
275.06	8.242
275.43	4.251
275.80	9.524
276.17	6.111
276.54	8.022
276.91	8.229
277.28	9.765
277.65	8.438
278.02	9.007
278.39	7.065
278.76	7.030
279.13	8.156
279.50	7.904
279.87	8.050
280.23	7.394
280.60	8.305
280.97	8.059
281.34	7.640
281.71	9.814
282.08	9.468
282.45	6.874
282.82	7.535
283.19	6.624
283.56	8.689
283.92	7.207
284.29	10.742
284.66	8.374
285.03	6.891
285.40	6.337
285.77	7.585
286.14	7.939
286.51	9.132
286.87	8.531
287.24	8.133
287.61	8.072
287.98	7.402
288.35	7.544
288.72	6.953
289.08	8.492
289.45	6.065
289.82	7.229
290.19	6.897
290.56	9.577
290.93	8.274
291.29	7.438
291.66	6.887
292.03	7.056
292.40	8.163
292.77	6.065
293.13	8.796
293.50	7.753
293.87	6.980
294.24	9.867
294.60	8.597
294.97	6.711
295.34	10.243
295.71	6.683
296.08	7.881
296.44	7.721
296.81	7.308
297.18	7.846
297.55	6.840
297.91	8.304
298.28	6.635
298.65	8.323
299.02	6.848
299.38	8.581
299.75	7.360
300.12	5.787
300.48	8.410
300.85	7.762
301.22	7.606
301.59	7.420
301.95	7.232
302.32	8.111
302.69	7.338
303.05	8.923
303.42	7.982
303.79	8.125
304.15	7.992
304.52	7.611
304.89	8.272
305.25	7.971
305.62	8.046
305.99	9.588
306.35	7.157
306.72	8.170
307.09	8.223
307.45	8.592
307.82	7.467
308.19	8.174
308.55	9.065
308.92	9.056
309.29	7.375
309.65	9.357
310.02	7.030
310.38	7.972
310.75	8.447
311.12	9.684
311.48	7.918
311.85	8.357
312.22	7.780
312.58	8.263
312.95	7.648
313.31	8.220
313.68	8.974
314.05	9.846
314.41	8.470
314.78	8.810
315.14	8.711
315.51	8.403
315.87	9.901
316.24	9.498
316.61	9.236
316.97	7.783
317.34	8.289
317.70	8.384
318.07	8.113
318.43	9.354
318.80	9.281
319.16	8.670
319.53	7.798
319.89	8.501
320.26	9.164
320.62	8.688
320.99	9.234
321.35	9.242
321.72	10.512
322.08	9.107
322.45	9.485
322.81	8.845
323.18	7.965
323.54	9.483
323.91	9.786
324.27	8.434
324.64	10.327
325.00	8.541
325.37	9.419
325.73	10.165
326.10	9.813
326.46	10.016
326.83	10.088
327.19	9.764
327.56	10.198
327.92	8.104
328.29	9.435
328.65	9.799
329.01	8.714
329.38	9.520
329.74	9.589
330.11	10.445
330.47	9.183
330.84	9.905
331.20	10.917
331.56	10.139
331.93	10.460
332.29	8.390
332.66	9.801
333.02	9.715
333.38	10.487
333.75	10.101
334.11	10.259
334.48	9.818
334.84	10.365
335.20	9.656
335.57	9.865
335.93	10.248
336.29	9.651
336.66	9.840
337.02	10.619
337.38	10.204
337.75	10.000
338.11	9.756
338.47	11.249
338.84	10.152
339.20	9.688
339.56	10.708
339.93	10.755
340.29	10.467
340.65	10.706
341.02	11.333
341.38	11.156
341.74	10.412
342.11	9.815
342.47	9.055
342.83	11.031
343.20	10.630
343.56	9.944
343.92	9.768
344.28	10.469
344.65	10.775
345.01	10.062
345.37	10.653
345.73	9.899
346.10	10.842
346.46	9.494
346.82	10.936
347.19	11.001
347.55	11.381
347.91	11.441
348.27	10.243
348.63	11.348
349.00	10.216
349.36	11.822
349.72	10.119
350.08	11.144
350.45	10.418
350.81	10.784
351.17	11.203
351.53	10.917
351.89	10.478
352.26	10.373
352.62	10.373
352.98	10.305
353.34	9.709
353.70	10.632
354.07	10.432
354.43	10.554
354.79	10.696
355.15	11.038
355.51	10.746
355.87	10.247
356.24	12.167
356.60	10.569
356.96	10.897
357.32	10.632
357.68	10.981
358.04	10.479
358.40	10.597
358.77	10.380
359.13	10.709
359.49	10.558
359.85	10.587
360.21	11.263
360.57	10.696
360.93	11.425
361.29	11.439
361.66	10.500
362.02	11.413
362.38	11.947
362.74	11.173
363.10	11.073
363.46	10.526
363.82	11.151
364.18	11.541
364.54	12.517
364.90	11.037
365.26	11.586
365.62	11.867
365.98	11.641
366.35	10.872
366.71	11.565
367.07	11.299
367.43	12.016
367.79	11.612
368.15	11.973
368.51	11.502
368.87	12.410
369.23	12.133
369.59	11.407
369.95	12.103
370.31	12.289
370.67	11.898
371.03	12.396
371.39	11.216
371.75	11.761
372.11	12.263
372.47	12.661
372.83	11.846
373.19	12.141
373.55	11.924
373.91	10.770
374.27	12.160
374.63	11.840
374.99	11.804
375.35	12.403
375.71	12.710
376.07	12.524
376.42	12.783
376.78	13.362
377.14	12.352
377.50	11.954
377.86	13.424
378.22	12.036
378.58	11.891
378.94	12.735
379.30	12.537
379.66	13.521
380.02	12.695
380.38	13.306
380.74	12.676
381.09	13.008
381.45	12.955
381.81	13.817
382.17	13.955
382.53	12.924
382.89	13.544
383.25	14.009
383.61	13.600
383.97	13.428
384.32	13.816
384.68	12.413
385.04	14.401
385.40	14.437
385.76	14.420
386.12	14.004
386.48	13.882
386.83	13.886
387.19	12.283
387.55	13.204
387.91	13.927
388.27	14.665
388.62	14.318
388.98	14.044
389.34	14.025
389.70	13.655
390.06	13.795
390.42	13.494
390.77	14.630
391.13	14.378
391.49	14.976
391.85	13.879
392.20	14.591
392.56	15.594
392.92	15.104
393.28	15.146
393.64	14.860
393.99	15.514
394.35	14.428
394.71	14.850
395.07	14.431
395.42	15.134
395.78	15.356
396.14	15.508
396.50	14.608
396.85	14.908
397.21	14.615
397.57	15.135
397.92	15.750
398.28	14.720
398.64	14.188
399.00	14.293
399.35	15.340
399.71	14.674
400.07	14.655
400.42	15.367
400.78	14.815
401.14	14.969
401.49	15.577
401.85	14.709
402.21	15.817
402.57	15.610
402.92	15.426
403.28	14.696
403.63	14.797
403.99	14.964
404.35	14.895
404.70	14.901
405.06	14.728
405.42	15.281
405.77	16.031
406.13	15.181
406.49	14.865
406.84	15.568
407.20	15.763
407.55	14.900
407.91	15.525
408.27	14.488
408.62	15.590
408.98	14.858
409.34	14.194
409.69	15.884
410.05	15.592
410.40	16.241
410.76	15.760
411.11	16.306
411.47	15.786
411.83	15.697
412.18	15.482
412.54	15.412
412.89	15.891
413.25	15.406
413.60	16.140
413.96	16.026
414.31	15.581
414.67	15.325
415.03	14.892
415.38	15.574
415.74	15.761
416.09	16.410
416.45	14.903
416.80	15.116
417.16	15.900
417.51	16.438
417.87	16.186
418.22	15.928
418.58	16.047
418.93	16.123
419.29	15.968
419.64	15.846
420.00	15.905
420.35	16.115
420.71	16.140
421.06	15.411
421.42	16.399
421.77	15.994
422.12	15.803
422.48	16.436
422.83	16.648
423.19	16.233
423.54	16.482
423.90	16.179
424.25	16.107
424.61	15.270
424.96	16.090
425.31	16.985
425.67	16.210
426.02	17.156
426.38	16.361
426.73	16.629
427.09	17.416
427.44	17.204
427.79	15.976
428.15	17.066
428.50	15.955
428.85	16.533
429.21	17.234
429.56	16.881
429.92	16.855
430.27	16.000
430.62	15.437
430.98	16.085
431.33	16.716
431.68	17.146
432.04	16.709
432.39	17.461
432.74	17.123
433.10	16.874
433.45	16.667
433.80	17.060
434.16	16.942
434.51	16.906
434.86	16.612
435.22	17.535
435.57	18.219
435.92	17.863
436.28	17.292
436.63	17.586
436.98	16.747
437.34	17.249
437.69	16.896
438.04	17.345
438.39	17.346
438.75	17.654
439.10	18.076
439.45	17.831
439.81	17.571
440.16	17.587
440.51	17.893
440.86	17.343
441.22	17.095
441.57	18.449
441.92	17.410
442.27	17.323
442.63	17.486
442.98	17.876
443.33	17.833
443.68	18.385
444.03	18.485
444.39	18.031
444.74	19.142
445.09	17.993
445.44	17.281
445.79	18.008
446.15	18.551
446.50	18.191
446.85	18.434
447.20	18.279
447.55	18.201
447.91	18.325
448.26	17.812
448.61	18.278
448.96	19.421
449.31	18.452
449.66	17.484
450.02	18.143
450.37	18.540
450.72	18.461
451.07	18.337
451.42	17.735
451.77	17.954
452.12	19.074
452.47	18.004
452.83	19.088
453.18	17.630
453.53	19.070
453.88	18.664
454.23	17.910
454.58	19.443
454.93	18.265
455.28	18.242
455.63	18.704
455.98	18.603
456.34	18.669
456.69	18.636
457.04	18.440
457.39	18.293
457.74	19.575
458.09	17.518
458.44	18.966
458.79	18.051
459.14	18.825
459.49	18.563
459.84	18.730
460.19	17.879
460.54	19.761
460.89	19.058
461.24	18.851
461.59	19.258
461.94	18.254
462.29	19.037
462.64	18.467
462.99	19.460
463.34	20.117
463.69	19.519
464.04	19.177
464.39	18.722
464.74	18.985
465.09	19.839
465.44	19.421
465.79	19.038
466.14	19.177
466.49	19.368
466.84	19.725
467.19	19.942
467.54	19.448
467.89	19.368
468.24	20.554
468.59	19.050
468.94	19.697
469.29	19.556
469.64	19.580
469.99	19.694
470.34	19.245
470.68	20.711
471.03	21.087
471.38	20.733
471.73	19.766
472.08	21.574
472.43	20.409
472.78	20.781
473.13	20.228
473.48	21.511
473.83	21.880
474.17	20.809
474.52	21.167
474.87	20.764
475.22	21.972
475.57	20.509
475.92	20.458
476.27	20.501
476.61	20.924
476.96	20.386
477.31	22.030
477.66	21.196
478.01	20.844
478.36	21.186
478.70	20.837
479.05	21.933
479.40	20.977
479.75	21.662
480.10	21.506
480.45	21.559
480.79	21.224
481.14	21.094
481.49	21.218
481.84	21.105
482.19	20.645
482.53	21.732
482.88	22.109
483.23	21.476
483.58	21.179
483.92	20.612
484.27	20.406
484.62	21.576
484.97	20.879
485.31	20.873
485.66	19.525
486.01	18.910
486.36	19.333
486.70	20.360
487.05	21.157
487.40	20.966
487.75	21.399
488.09	21.189
488.44	21.332
488.79	21.518
489.13	21.325
489.48	20.971
489.83	21.087
490.17	21.547
490.52	21.593
490.87	22.166
491.22	22.054
491.56	22.355
491.91	21.413
492.26	21.895
492.60	22.038
492.95	22.334
493.30	22.367
493.64	22.558
493.99	21.754
494.34	21.733
494.68	22.013
495.03	22.643
495.37	22.992
495.72	22.540
496.07	22.524
496.41	22.222
496.76	23.311
497.11	21.699
497.45	23.004
497.80	23.634
498.14	23.356
498.49	22.794
498.84	23.126
499.18	22.942
499.53	23.318
499.87	23.385
500.22	22.752
500.56	22.807
500.91	23.112
501.26	23.591
501.60	22.890
501.95	23.752
502.29	23.782
502.64	23.743
502.98	23.943
503.33	23.585
503.67	23.724
504.02	24.124
504.36	24.531
504.71	24.391
505.06	24.511
505.40	23.949
505.75	24.909
506.09	24.862
506.44	24.930
506.78	25.505
507.13	25.403
507.47	25.107
507.82	25.331
508.16	24.665
508.51	24.051
508.85	25.319
509.19	26.196
509.54	25.793
509.88	25.692
510.23	25.838
510.57	26.583
510.92	26.222
511.26	25.878
511.61	25.302
511.95	26.257
512.30	26.194
512.64	26.087
512.98	26.163
513.33	27.319
513.67	27.435
514.02	27.287
514.36	26.752
514.70	26.615
515.05	27.007
515.39	27.769
515.74	27.837
516.08	27.311
516.42	28.048
516.77	27.655
517.11	26.921
517.46	28.420
517.80	28.968
518.14	28.781
518.49	28.796
518.83	28.260
519.17	27.356
519.52	28.616
519.86	28.247
520.20	28.328
520.55	28.149
520.89	29.110
521.23	28.755
521.58	29.605
521.92	29.292
522.26	29.496
522.61	29.687
522.95	29.642
523.29	28.736
523.64	28.700
523.98	29.264
524.32	30.258
524.66	29.425
525.01	28.935
525.35	28.202
525.69	28.538
526.04	29.162
526.38	29.080
526.72	29.527
527.06	29.736
527.41	29.446
527.75	30.879
528.09	29.811
528.43	30.255
528.78	29.480
529.12	29.759
529.46	29.623
529.80	30.034
530.15	30.609
530.49	30.486
530.83	30.342
531.17	30.765
531.51	30.445
531.86	31.430
532.20	31.159
532.54	30.521
532.88	30.364
533.22	29.935
533.57	30.929
533.91	30.022
534.25	29.904
534.59	29.540
534.93	30.334
535.27	30.366
535.62	30.188
535.96	30.738
536.30	30.494
536.64	31.171
536.98	31.365
537.32	30.741
537.66	31.316
538.01	29.607
538.35	29.659
538.69	30.168
539.03	30.411
539.37	30.506
539.71	30.030
540.05	30.516
540.39	30.318
540.73	30.540
541.07	30.717
541.42	29.829
541.76	29.300
542.10	30.639
542.44	28.685
542.78	30.049
543.12	30.215
543.46	30.403
543.80	30.755
544.14	30.401
544.48	30.733
544.82	30.341
545.16	30.650
545.50	30.857
545.84	30.557
546.18	31.173
546.52	30.828
546.86	31.069
547.20	30.852
547.54	31.086
547.88	31.284
548.22	30.643
548.56	29.432
548.90	29.970
549.24	30.274
549.58	30.347
549.92	31.505
550.26	32.298
550.60	31.015
550.94	31.630
551.28	32.079
551.62	31.199
551.96	31.133
552.30	31.740
552.64	31.114
552.98	31.254
553.32	32.347
553.66	31.704
554.00	31.652
554.34	30.373
554.68	30.730
555.02	31.800
555.36	32.018
555.69	30.557
556.03	30.391
556.37	30.914
556.71	31.008
557.05	31.182
557.39	30.856
557.73	32.299
558.07	31.325
558.41	32.359
558.75	32.928
559.08	32.707
559.42	31.756
559.76	31.682
560.10	31.547
560.44	31.266
560.78	30.812
561.12	31.219
561.45	30.718
561.79	30.708
562.13	30.807
562.47	30.764
562.81	31.076
563.15	30.997
563.48	31.324
563.82	31.137
564.16	30.466
564.50	29.499
564.84	30.088
565.17	30.059
565.51	30.840
565.85	30.285
566.19	30.300
566.52	30.310
566.86	31.579
567.20	30.016
567.54	31.333
567.88	29.613
568.21	30.089
568.55	30.695
568.89	29.233
569.23	29.658
569.56	29.230
569.90	28.011
570.24	28.229
570.57	28.287
570.91	27.250
571.25	27.480
571.59	27.832
571.92	27.212
572.26	27.713
572.60	27.491
572.93	27.748
573.27	27.311
573.61	27.184
573.95	26.900
574.28	26.910
574.62	27.080
574.96	26.356
575.29	26.460
575.63	27.235
575.97	26.970
576.30	26.869
576.64	26.963
576.98	26.879
577.31	26.369
577.65	26.950
577.98	26.619
578.32	26.089
578.66	26.178
578.99	26.562
579.33	26.945
579.67	26.745
580.00	26.680
580.34	26.636
580.67	26.280
581.01	26.395
581.35	26.554
581.68	25.874
582.02	25.749
582.35	26.455
582.69	26.651
583.02	26.556
583.36	27.090
583.70	26.971
584.03	26.974
584.37	27.549
584.70	26.748
585.04	26.970
585.37	26.646
585.71	26.451
586.04	26.904
586.38	26.741
586.72	26.849
587.05	26.912
587.39	27.350
587.72	27.464
588.06	27.079
588.39	27.359
588.73	27.196
589.06	27.935
589.40	28.119
589.73	27.763
590.07	27.918
590.40	28.026
590.73	27.996
591.07	29.151
591.40	28.149
591.74	28.537
592.07	28.339
592.41	28.155
592.74	27.618
593.08	27.452
593.41	27.472
593.75	27.443
594.08	27.537
594.41	28.365
594.75	27.931
595.08	28.600
595.42	28.279
595.75	27.737
596.09	28.024
596.42	27.983
596.75	28.908
597.09	27.919
597.42	28.605
597.75	28.851
598.09	28.849
598.42	28.709
598.76	27.665
599.09	27.697
599.42	28.126
599.76	27.270
600.09	28.295
600.42	27.828
600.76	27.675
601.09	27.647
601.42	27.635
601.76	28.103
602.09	28.449
602.42	27.881
602.76	27.565
603.09	27.827
603.42	27.637
603.76	27.801
604.09	28.495
604.42	28.550
604.76	27.816
605.09	28.321
605.42	28.230
605.75	28.577
606.09	26.876
606.42	27.508
606.75	27.436
607.09	26.843
607.42	27.669
607.75	28.097
608.08	28.137
608.42	27.811
608.75	28.109
609.08	27.037
609.41	27.966
609.75	28.661
610.08	29.200
610.41	27.995
610.74	28.529
611.07	28.464
611.41	28.251
611.74	29.099
612.07	28.939
612.40	28.660
612.73	29.340
613.07	28.557
613.40	29.018
613.73	28.551
614.06	29.146
614.39	28.377
614.72	29.161
615.06	28.441
615.39	28.081
615.72	28.389
616.05	29.043
616.38	29.314
616.71	29.258
617.05	29.180
617.38	29.053
617.71	29.914
618.04	29.196
618.37	29.672
618.70	30.882
619.03	29.271
619.36	29.840
619.69	29.596
620.03	29.190
620.36	29.755
620.69	29.365
621.02	30.381
621.35	32.366
621.68	31.815
622.01	31.673
622.34	29.916
622.67	31.134
623.00	29.555
623.33	30.723
623.66	30.674
623.99	30.217
624.32	30.929
624.65	30.116
624.99	30.754
625.32	30.438
625.65	31.490
625.98	30.576
626.31	30.900
626.64	31.648
626.97	31.433
627.30	31.511
627.63	30.458
627.96	31.907
628.29	32.607
628.62	31.318
628.95	31.201
629.28	32.031
629.61	31.229
629.94	31.967
630.26	30.763
630.59	31.952
630.92	32.554
631.25	34.884
631.58	33.710
631.91	32.990
632.24	33.718
632.57	33.017
632.90	32.297
633.23	33.367
633.56	33.163
633.89	32.231
634.22	34.304
634.55	34.238
634.88	35.606
635.20	34.123
635.53	35.254
635.86	34.020
636.19	33.616
636.52	34.599
636.85	32.380
637.18	32.328
637.51	34.946
637.83	36.988
638.16	35.253
638.49	34.742
638.82	33.145
639.15	34.250
639.48	35.104
639.81	33.949
640.13	34.393
640.46	34.061
640.79	32.230
641.12	32.919
641.45	36.261
641.77	38.511
642.10	34.646
642.43	34.309
642.76	37.127
643.09	36.849
643.41	35.854
643.74	34.621
644.07	36.414
644.40	34.371
644.73	36.430
645.05	35.683
645.38	35.252
645.71	34.164
646.04	36.442
646.36	37.226
646.69	37.423
647.02	36.697
647.35	38.015
647.67	38.969
648.00	36.306
648.33	37.988
648.66	32.668
648.98	35.646
649.31	34.777
649.64	34.396
649.96	34.085
650.29	32.962
650.62	33.098
650.94	35.435
651.27	32.186
651.60	34.503
651.92	37.082
652.25	34.153
652.58	34.388
652.90	31.977
653.23	36.761
653.56	36.805
653.88	33.708
654.21	34.648
654.54	35.549
654.86	36.544
655.19	30.615
655.52	30.168
655.84	23.924
656.17	28.976
656.49	40.956
656.82	45.126
657.15	35.690
657.47	27.233
657.80	20.577
658.13	15.877
658.45	20.856
658.78	25.962
659.10	25.269
659.43	25.224
659.75	25.780
660.08	26.667
660.41	28.371
660.73	29.532
661.06	32.012
661.38	34.928
661.71	34.655
662.03	34.921
662.36	39.177
662.68	37.711
663.01	36.637
663.33	40.076
663.66	37.729
663.98	39.423
664.31	38.462
664.63	35.838
664.96	38.113
665.28	34.664
665.61	35.490
665.93	36.786
666.26	36.559
666.58	35.793
666.91	36.075
667.23	37.333
667.56	37.870
667.88	37.400
668.21	35.938
668.53	35.135
668.86	37.721
669.18	36.049
669.50	36.581
669.83	35.000
670.15	36.220
670.48	37.103
670.80	36.711
671.13	34.972
671.45	34.055
671.77	37.100
672.10	34.333
672.42	32.039
672.75	32.104
673.07	34.030
673.39	31.587
673.72	35.067
674.04	36.897
674.37	35.778
674.69	37.390
675.01	35.810
675.34	33.206
675.66	36.517
675.98	35.261
676.31	35.156
676.63	36.882
676.95	36.590
677.28	37.097
677.60	33.465
677.92	36.084
678.25	36.929
678.57	38.790
678.89	36.007
679.22	34.495
679.54	33.675
679.86	34.068
680.18	34.992
680.51	33.805
680.83	34.370
681.15	32.414
681.48	34.370
681.80	34.197
682.12	32.867
682.44	33.556
682.77	35.284
683.09	35.417
683.41	37.016
683.73	35.674
684.06	34.502
684.38	31.843
684.70	34.111
685.02	34.768
685.34	30.283
685.67	32.019
685.99	32.362
686.31	30.087
686.63	32.543
686.96	33.281
687.28	32.410
687.60	32.323
687.92	30.386
688.24	32.554
688.56	32.069
688.89	34.120
689.21	35.616
689.53	34.314
689.85	34.122
690.17	30.370
690.49	36.255
690.82	37.228
691.14	34.615
691.46	33.652
691.78	34.070
692.10	29.358
692.42	32.321
692.74	33.757
693.06	31.111
693.39	34.156
693.71	32.707
694.03	32.156
694.35	31.619
694.67	34.908
694.99	33.830
695.31	35.541
695.63	33.766
695.95	33.540
696.27	35.604
696.59	33.850
696.91	34.009
697.23	37.363
697.56	32.383
697.88	32.765
698.20	32.203
698.52	33.523
698.84	34.511
699.16	34.694
699.48	34.728
699.80	32.979
700.12	34.279
700.44	34.562
700.76	35.392
701.08	32.446
701.40	35.233
701.72	35.323
702.04	38.503
702.36	35.079
702.68	30.073
703.00	34.719
703.32	30.049
703.64	34.474
703.96	31.504
704.28	35.135
704.60	35.696
704.91	35.714
705.23	36.438
705.55	36.769
705.87	36.364
706.19	39.877
706.51	34.337
706.83	36.599
707.15	29.630
707.47	33.879
707.79	32.533
708.11	28.390
708.43	32.473
708.74	33.705
709.06	31.787
709.38	34.038
709.70	35.484
710.02	31.266
710.34	30.585
710.66	34.358
710.98	31.967
711.29	35.165
711.61	33.333
711.93	34.758
712.25	36.216
712.57	39.823
712.89	33.529
713.20	34.024
713.52	34.971
713.84	36.769
714.16	32.632
714.48	32.732
714.80	37.403
715.11	32.021
715.43	35.279
715.75	36.316
716.07	32.873
716.39	31.967
716.70	34.940
717.02	36.066
717.34	34.146
717.66	38.926
717.97	31.507
718.29	37.801
718.61	34.868
718.93	26.861
719.24	35.714
719.56	29.755
719.88	34.535
720.20	32.581
720.51	30.435
720.83	30.625
721.15	32.237
721.46	28.082
721.78	35.000
722.10	29.450
722.42	31.544
722.73	32.581
723.05	32.281
723.37	34.375
723.68	32.258
724.00	32.130
724.32	28.169
724.63	32.867
724.95	35.816
725.27	30.662
725.58	32.509
725.90	36.207
726.22	28.840
726.53	34.091
726.85	34.906
727.16	30.816
727.48	33.639
727.80	29.470
728.11	32.155
728.43	32.997
728.74	32.441
729.06	30.132
729.38	33.442
729.69	30.872
730.01	29.464
730.32	33.030
730.64	30.189
730.96	29.193
731.27	32.682
731.59	29.121
731.90	27.013
732.22	29.427
732.53	29.834
732.85	31.429
733.16	28.152
733.48	30.183
733.80	32.033
734.11	32.194
734.43	30.000
734.74	34.177
735.06	28.392
735.37	31.351
735.69	27.568
736.00	32.768
736.32	28.841
736.63	31.389
736.95	29.310
737.26	31.515
737.58	29.091
737.89	33.235
738.21	26.300
738.52	29.508
738.83	32.082
739.15	32.270
739.46	31.293
739.78	33.742
740.09	26.934
740.41	30.321
740.72	28.667
741.04	33.333
741.35	32.982
741.66	30.588
741.98	35.246
742.29	34.310
742.61	33.333
742.92	28.846
743.23	33.574
743.55	31.008
743.86	36.800
744.18	31.405
744.49	33.755
744.80	32.099
745.12	31.224
745.43	31.301
745.74	30.603
746.06	30.932
746.37	35.443
746.68	36.585
747.00	33.333
747.31	32.618
747.62	32.308
747.94	30.364
748.25	30.120
748.56	28.980
748.88	34.188
749.19	36.207
749.50	30.736
749.82	36.546
750.13	32.740
750.44	27.333
750.75	27.385
751.07	29.846
751.38	31.861
751.69	33.546
752.01	29.773
752.32	30.719
752.63	31.293
752.94	30.450
753.26	28.625
753.57	28.889
753.88	28.464
754.19	32.154
754.51	31.833
754.82	29.904
755.13	30.820
755.44	31.399
755.75	31.908
756.07	28.358
756.38	33.333
756.69	31.928
757.00	27.424
757.31	31.148
757.63	28.900
757.94	28.638
758.25	29.571
758.56	27.887
758.87	25.455
759.18	30.133
759.50	30.312
759.81	29.412
760.12	29.111
760.43	30.469
760.74	26.601
761.05	27.500
761.36	26.747
761.67	26.396
761.99	25.135
762.30	27.439
762.61	27.063
762.92	35.821
763.23	28.090
763.54	32.014
763.85	30.241
764.16	25.589
764.47	31.690
764.78	27.157
765.10	26.979
765.41	32.051
765.72	26.455
766.03	29.096
766.34	24.451
766.65	27.875
766.96	27.092
767.27	34.101
767.58	25.871
767.89	33.173
768.20	30.516
768.51	29.630
768.82	30.924
769.13	30.303
769.44	25.385
769.75	30.325
770.06	29.615
770.37	29.134
770.68	25.532
770.99	26.316
771.30	35.556
771.61	29.278
771.92	23.704
772.23	29.555
772.54	27.315
772.85	35.023
773.16	35.238
773.47	29.630
773.78	29.189
774.09	32.955
774.39	39.500
774.70	28.415
775.01	28.049
775.32	24.118
775.63	28.834
775.94	24.841
776.25	34.839
776.56	34.615
776.87	37.415
777.18	31.724
777.48	32.867
777.79	35.135
778.10	30.882
778.41	30.556
778.72	28.276
779.03	25.309
779.34	29.091
779.65	27.461
779.95	26.667
780.26	33.523
780.57	34.194
780.88	39.130
781.19	38.065
781.50	35.882
781.80	30.645
782.11	26.455
782.42	23.737
782.73	22.754
783.04	27.933
783.34	23.030
783.65	29.412
783.96	24.845
784.27	30.357
784.57	33.113
784.88	35.714
785.19	29.134
785.50	35.433
785.81	26.316
786.11	32.308
786.42	23.022
786.73	22.302
787.04	33.083
787.34	30.328
787.65	38.400
787.96	35.821
788.26	34.266
788.57	31.469
788.88	28.947
789.19	32.680
789.49	30.822
789.80	31.206
790.11	25.984
790.41	25.781
790.72	24.576
791.03	16.505
791.33	26.957
791.64	26.316
791.95	25.000
792.25	36.190
792.56	33.929
792.87	30.208
793.17	31.250
793.48	28.125
793.79	19.277
794.09	14.679
794.40	30.275
794.70	34.014
795.01	28.571
795.32	32.192
795.62	28.169
795.93	26.515
796.23	25.410
796.54	20.536
796.85	31.915
797.15	20.652
797.46	36.986
797.76	6.250
798.07	31.522
798.37	15.464
798.68	25.974
798.99	21.839
799.29	31.461
799.60	35.106
799.90	30.120
800.21	33.846
800.51	22.388
800.82	29.412
801.12	12.329
801.43	22.059
801.73	27.119
802.04	31.818
802.34	10.000
802.65	25.424
802.95	29.851
803.26	32.203
803.56	16.438
803.87	22.857
804.17	38.356
804.48	22.807
804.78	25.000
805.09	17.241
805.39	29.730
805.70	1.408
806.00	29.268
806.30	25.301
806.61	9.589
806.91	26.923
807.22	26.667
807.52	21.839
807.83	37.500
808.13	33.735
808.43	28.090
808.74	18.750
809.04	16.176
809.35	32.000
809.65	20.000
809.95	27.397
810.26	15.789
810.56	36.207
810.86	22.059
811.17	26.316
811.47	18.033
811.77	6.667
812.08	35.593
812.38	28.333
812.69	24.138
812.99	7.547
813.29	17.949
813.59	30.000
813.90	35.088
814.20	21.818
814.50	26.761
814.81	34.615
815.11	27.869
815.41	23.881
815.72	41.379
816.02	28.571
816.32	33.333
816.62	25.000
816.93	17.778
817.23	16.667
817.53	10.638
817.84	33.333
818.14	14.706
818.44	32.653
818.74	28.889
819.04	25.641
819.35	17.143
819.65	0.000
819.95	11.321
820.25	15.556
820.56	23.810
820.86	28.125
821.16	28.205
821.46	11.628
821.76	32.000
822.07	21.429
822.37	17.391
822.67	38.298
822.97	0.000
823.27	35.000
823.57	28.571
823.88	40.000
824.18	5.000
824.48	40.000
824.78	16.000
825.08	39.394
825.38	42.222
825.69	29.787
825.99	41.667
826.29	0.000
826.59	7.692
826.89	25.581
827.19	32.000
827.49	32.353
827.79	41.667
828.09	8.108
828.39	-3.333
828.70	4.878
829.00	20.930
829.30	10.714
829.60	35.294
829.90	19.565
830.20	-14.286
830.50	41.379
830.80	61.111
831.10	46.154
831.40	14.706
831.70	57.143
832.00	67.742
832.30	-35.294
832.60	-16.667
832.90	-76.923
833.20	15.789
833.50	10.000
833.80	36.842
834.10	4.762
834.40	25.000
834.70	56.250
835.00	-20.000
835.30	23.529
835.60	3.333
835.90	0.000
836.20	-45.455
836.50	28.000
836.80	-3.030
837.10	-14.815
837.40	-7.407
837.70	25.000
838.00	28.571
838.30	26.087
838.60	48.276
838.90	28.571
839.19	0.000
839.49	-25.000
839.79	-17.391
840.09	0.000
840.39	10.000
840.69	9.677
840.99	-21.429
841.29	0.000
841.59	57.895
841.88	25.641
842.18	15.385
842.48	0.000
842.78	-10.000
843.08	36.667
843.38	29.032
843.68	27.778
843.97	35.294
844.27	0.000
844.57	-21.053
844.87	0.000
845.17	-13.333
845.47	38.095
845.76	52.381
846.06	22.222
846.36	-17.647
846.66	34.615
846.96	-73.333
847.25	11.765
847.55	69.565
847.85	10.000
848.15	17.647
848.44	9.091
848.74	-14.286
849.04	-8.333
849.34	-6.250
849.63	17.391
849.93	150.000
850.23	60.000
850.53	53.846
850.82	90.909
851.12	81.818
851.42	-36.364
851.71	46.154
852.01	10.000
852.31	-15.385
852.61	-15.789
852.90	-16.667
853.20	61.111
853.50	-111.111
853.79	-14.286
854.09	-4.545
854.39	-50.000
854.68	35.484
854.98	3.846
855.28	94.444
855.57	14.286
855.87	12.000
856.17	40.909
856.46	22.222
856.76	38.889
857.05	8.696
857.35	8.333
857.65	0.000
857.94	66.667
858.24	37.037
858.53	8.696
858.83	23.529
859.13	-35.294
859.42	5.882
859.72	85.714
860.01	-5.000
860.31	-55.556
860.60	50.000
860.90	46.667
861.20	61.111
861.49	30.769
861.79	16.667
862.08	0.000
862.38	21.875
862.67	58.824
862.97	6.250
863.26	-11.111
863.56	50.000
863.85	-9.091
864.15	38.889
864.44	-66.667
864.74	28.571
865.03	-6.250
865.33	-70.000
865.62	-19.355
865.92	27.273
866.21	39.130
866.51	-7.143
866.80	40.000
867.10	-8.333
867.39	-58.333
867.69	1300.000
867.98	14.286
868.27	76.471
868.57	-500.000
868.86	-100.000
869.16	0.000
869.45	58.333
869.75	90.909
870.04	100.000
870.33	83.333
870.63	-57.143
870.92	125.000
871.22	-62.500
871.51	-27.273
871.80	-266.667
872.10	0.000
>>>>>End Processed Spectral Data<<<<<
