SpectraSuite Data File
++++++++++++++++++++++++++++++++++++
Date: Thu May 14 14:40:47 PDT 2015
User: schluterlab
Dark Spectrum Present: Yes
Reference Spectrum Present: Yes
Number of Sampled Component Spectra: 1
Spectrometers: USB2E3373
Integration Time (usec): 3000 (USB2E3373)
Spectra Averaged: 3 (USB2E3373)
Boxcar Smoothing: 0 (USB2E3373)
Correct for Electrical Dark: No (USB2E3373)
Strobe/Lamp Enabled: No (USB2E3373)
Correct for Detector Non-linearity: No (USB2E3373)
Correct for Stray Light: No (USB2E3373)
Number of Pixels in Processed Spectrum: 2048
>>>>>Begin Processed Spectral Data<<<<<
178.53	0.000
178.91	-214.286
179.29	200.000
179.67	200.000
180.04	64.286
180.42	10.000
180.80	-80.000
181.18	1000.000
181.56	2800.000
181.94	-100.000
182.31	425.000
182.69	-133.333
183.07	1000.000
183.45	-125.000
183.83	216.667
184.20	433.333
184.58	-1400.000
184.96	200.000
185.34	22.222
185.72	320.000
186.09	-55.556
186.47	-250.000
186.85	160.000
187.23	-66.667
187.61	800.000
187.98	-40.000
188.36	-150.000
188.74	225.000
189.12	533.333
189.49	68.750
189.87	100.000
190.25	133.333
190.63	220.000
191.00	-66.667
191.38	0.000
191.76	-25.000
192.14	133.333
192.51	-850.000
192.89	116.667
193.27	0.000
193.65	285.714
194.02	800.000
194.40	271.429
194.78	-85.714
195.15	0.000
195.53	190.909
195.91	0.000
196.29	275.000
196.66	115.385
197.04	600.000
197.42	157.143
197.79	550.000
198.17	37.500
198.55	200.000
198.92	222.222
199.30	150.000
199.68	154.545
200.05	92.857
200.43	100.000
200.81	-14.286
201.18	0.000
201.56	33.333
201.94	0.000
202.31	-166.667
202.69	77.778
203.07	-1300.000
203.44	166.667
203.82	300.000
204.19	25.000
204.57	-16.667
204.95	87.500
205.32	600.000
205.70	-225.000
206.08	283.333
206.45	150.000
206.83	-40.000
207.20	200.000
207.58	100.000
207.96	66.667
208.33	233.333
208.71	-41.667
209.08	333.333
209.46	0.000
209.84	-100.000
210.21	-650.000
210.59	-550.000
210.96	-233.333
211.34	300.000
211.71	37.500
212.09	800.000
212.46	0.000
212.84	550.000
213.22	-120.000
213.59	225.000
213.97	140.000
214.34	33.333
214.72	-66.667
215.09	450.000
215.47	0.000
215.84	-42.857
216.22	250.000
216.59	260.000
216.97	280.000
217.34	375.000
217.72	100.000
218.09	250.000
218.47	275.000
218.84	0.000
219.22	-320.000
219.59	52.941
219.97	65.000
220.34	150.000
220.72	44.444
221.09	92.308
221.47	433.333
221.84	70.000
222.22	100.000
222.59	0.000
222.97	75.000
223.34	100.000
223.72	1300.000
224.09	475.000
224.46	175.000
224.84	340.000
225.21	100.000
225.59	325.000
225.96	500.000
226.34	76.923
226.71	-150.000
227.08	1000.000
227.46	86.667
227.83	300.000
228.21	94.737
228.58	-25.000
228.95	-650.000
229.33	66.667
229.70	90.000
230.08	152.632
230.45	-0.000
230.82	466.667
231.20	92.857
231.57	125.000
231.95	109.091
232.32	118.182
232.69	95.000
233.07	300.000
233.44	82.353
233.81	50.000
234.19	83.333
234.56	36.364
234.93	58.621
235.31	115.789
235.68	100.000
236.05	25.000
236.43	84.615
236.80	68.000
237.17	70.370
237.55	42.424
237.92	110.000
238.29	32.258
238.67	52.273
239.04	52.778
239.41	38.095
239.79	28.261
240.16	33.333
240.53	54.348
240.91	25.490
241.28	45.902
241.65	40.299
242.02	55.405
242.40	30.769
242.77	34.667
243.14	36.585
243.51	21.053
243.89	37.179
244.26	41.584
244.63	38.235
245.00	29.907
245.38	35.088
245.75	19.469
246.12	33.333
246.49	26.357
246.87	30.714
247.24	27.152
247.61	27.632
247.98	32.886
248.36	25.926
248.73	24.540
249.10	27.322
249.47	35.821
249.84	33.508
250.22	30.570
250.59	33.333
250.96	30.000
251.33	28.571
251.70	29.915
252.08	27.500
252.45	28.689
252.82	31.818
253.19	32.422
253.56	28.517
253.94	29.615
254.31	32.576
254.68	31.469
255.05	29.316
255.42	27.211
255.79	26.214
256.16	29.801
256.54	27.152
256.91	27.213
257.28	30.164
257.65	27.070
258.02	23.009
258.39	25.926
258.76	32.722
259.14	29.598
259.51	26.801
259.88	29.178
260.25	27.222
260.62	26.575
260.99	28.689
261.36	29.223
261.73	28.647
262.10	28.297
262.47	28.686
262.85	29.040
263.22	26.753
263.59	23.947
263.96	29.412
264.33	29.668
264.70	27.901
265.07	30.549
265.44	28.118
265.81	27.778
266.18	26.757
266.55	25.893
266.92	27.563
267.29	28.009
267.66	27.273
268.03	29.694
268.40	27.557
268.77	25.968
269.14	27.093
269.51	26.754
269.88	28.893
270.25	24.748
270.62	27.426
270.99	27.273
271.36	27.921
271.73	25.344
272.10	29.259
272.47	27.655
272.84	26.305
273.21	26.653
273.58	27.621
273.95	25.769
274.32	25.285
274.69	25.725
275.06	27.289
275.43	26.433
275.80	26.984
276.17	23.704
276.54	26.119
276.91	25.403
277.28	28.029
277.65	27.828
278.02	26.103
278.39	24.275
278.76	24.956
279.13	26.418
279.50	25.430
279.87	26.476
280.23	21.831
280.60	25.763
280.97	24.507
281.34	25.637
281.71	25.381
282.08	25.581
282.45	24.550
282.82	25.275
283.19	23.102
283.56	25.410
283.92	26.126
284.29	27.488
284.66	25.780
285.03	23.558
285.40	24.884
285.77	25.077
286.14	26.107
286.51	24.049
286.87	24.803
287.24	25.151
287.61	23.916
287.98	22.508
288.35	26.331
288.72	24.852
289.08	24.158
289.45	22.041
289.82	22.892
290.19	23.563
290.56	23.662
290.93	23.252
291.29	22.727
291.66	21.350
292.03	21.031
292.40	22.177
292.77	21.698
293.13	20.162
293.50	20.237
293.87	20.403
294.24	22.133
294.60	22.503
294.97	19.195
295.34	21.383
295.71	19.294
296.08	19.767
296.44	19.853
296.81	19.367
297.18	21.420
297.55	19.340
297.91	19.098
298.28	17.536
298.65	18.193
299.02	20.071
299.38	18.650
299.75	19.042
300.12	17.824
300.48	20.853
300.85	19.348
301.22	20.022
301.59	19.178
301.95	19.774
302.32	19.222
302.69	18.401
303.05	17.628
303.42	17.517
303.79	18.438
304.15	18.612
304.52	18.499
304.89	17.696
305.25	19.151
305.62	17.241
305.99	18.247
306.35	17.036
306.72	16.649
307.09	17.360
307.45	17.184
307.82	17.457
308.19	17.457
308.55	17.358
308.92	16.943
309.29	17.146
309.65	17.349
310.02	18.317
310.38	17.323
310.75	17.282
311.12	16.395
311.48	16.325
311.85	18.139
312.22	16.509
312.58	16.808
312.95	16.635
313.31	17.073
313.68	16.209
314.05	18.609
314.41	18.033
314.78	17.984
315.14	17.967
315.51	18.006
315.87	17.822
316.24	17.352
316.61	18.650
316.97	17.014
317.34	15.256
317.70	16.507
318.07	17.637
318.43	16.837
318.80	17.391
319.16	16.910
319.53	15.424
319.89	16.915
320.26	17.082
320.62	16.667
320.99	16.898
321.35	16.913
321.72	18.140
322.08	16.682
322.45	17.435
322.81	15.523
323.18	16.637
323.54	16.983
323.91	16.637
324.27	16.179
324.64	17.800
325.00	16.667
325.37	15.889
325.73	17.025
326.10	18.086
326.46	17.997
326.83	16.333
327.19	15.984
327.56	16.601
327.92	16.129
328.29	15.484
328.65	15.745
329.01	16.751
329.38	16.091
329.74	16.781
330.11	17.466
330.47	16.512
330.84	17.313
331.20	17.500
331.56	16.118
331.93	17.657
332.29	17.458
332.66	16.694
333.02	16.248
333.38	16.611
333.75	17.424
334.11	17.264
334.48	16.419
334.84	17.077
335.20	16.373
335.57	16.020
335.93	17.273
336.29	16.140
336.66	15.812
337.02	17.809
337.38	17.602
337.75	15.785
338.11	16.064
338.47	17.122
338.84	16.159
339.20	16.175
339.56	15.486
339.93	17.241
340.29	15.700
340.65	15.328
341.02	17.957
341.38	16.815
341.74	15.981
342.11	16.251
342.47	16.124
342.83	17.311
343.20	16.026
343.56	16.119
343.92	16.333
344.28	15.859
344.65	16.899
345.01	16.693
345.37	15.397
345.73	15.666
346.10	16.459
346.46	16.297
346.82	16.404
347.19	16.501
347.55	16.844
347.91	15.602
348.27	15.630
348.63	15.308
349.00	15.735
349.36	16.506
349.72	16.071
350.08	16.048
350.45	15.057
350.81	16.063
351.17	16.090
351.53	16.224
351.89	16.477
352.26	16.269
352.62	16.194
352.98	15.191
353.34	15.758
353.70	15.948
354.07	16.021
354.43	15.869
354.79	16.604
355.15	15.011
355.51	16.374
355.87	16.230
356.24	16.122
356.60	15.299
356.96	15.938
357.32	15.019
357.68	14.934
358.04	15.494
358.40	15.299
358.77	16.155
359.13	15.805
359.49	14.796
359.85	15.664
360.21	15.423
360.57	15.578
360.93	14.598
361.29	15.789
361.66	14.772
362.02	16.701
362.38	15.601
362.74	15.922
363.10	15.199
363.46	14.889
363.82	16.335
364.18	14.778
364.54	15.353
364.90	15.117
365.26	14.828
365.62	15.333
365.98	15.385
366.35	15.302
366.71	15.170
367.07	15.223
367.43	15.955
367.79	15.594
368.15	15.786
368.51	15.020
368.87	15.284
369.23	16.467
369.59	14.891
369.95	15.957
370.31	15.665
370.67	16.094
371.03	14.889
371.39	14.439
371.75	15.750
372.11	15.989
372.47	15.234
372.83	15.052
373.19	15.944
373.55	15.108
373.91	14.179
374.27	15.395
374.63	15.291
374.99	15.053
375.35	15.714
375.71	14.968
376.07	15.494
376.42	14.547
376.78	15.227
377.14	14.910
377.50	15.307
377.86	16.502
378.22	15.329
378.58	15.577
378.94	15.493
379.30	15.641
379.66	15.991
380.02	15.811
380.38	16.071
380.74	15.324
381.09	15.215
381.45	15.511
381.81	16.218
382.17	15.618
382.53	16.140
382.89	16.422
383.25	15.533
383.61	15.220
383.97	15.489
384.32	15.849
384.68	14.443
385.04	15.789
385.40	16.146
385.76	15.299
386.12	15.440
386.48	15.176
386.83	15.793
387.19	16.165
387.55	14.906
387.91	15.297
388.27	16.224
388.62	16.037
388.98	15.285
389.34	16.971
389.70	15.572
390.06	16.341
390.42	15.904
390.77	16.315
391.13	15.786
391.49	16.486
391.85	14.727
392.20	16.251
392.56	16.361
392.92	15.594
393.28	16.086
393.64	15.866
393.99	16.734
394.35	15.304
394.71	15.988
395.07	15.569
395.42	16.219
395.78	15.783
396.14	16.340
396.50	16.093
396.85	16.458
397.21	15.503
397.57	16.313
397.92	16.037
398.28	16.024
398.64	15.275
399.00	14.503
399.35	15.654
399.71	15.272
400.07	15.778
400.42	16.123
400.78	15.799
401.14	15.822
401.49	16.543
401.85	16.105
402.21	16.802
402.57	16.667
402.92	16.430
403.28	15.105
403.63	15.334
403.99	15.677
404.35	16.032
404.70	16.487
405.06	14.946
405.42	16.920
405.77	15.921
406.13	15.829
406.49	16.160
406.84	16.343
407.20	15.875
407.55	15.385
407.91	16.091
408.27	16.019
408.62	16.812
408.98	15.728
409.34	15.894
409.69	15.575
410.05	16.999
410.40	16.589
410.76	16.321
411.11	15.956
411.47	15.971
411.83	15.932
412.18	16.024
412.54	16.242
412.89	15.949
413.25	16.422
413.60	16.312
413.96	16.783
414.31	16.771
414.67	16.219
415.03	16.308
415.38	15.889
415.74	16.066
416.09	16.595
416.45	15.967
416.80	16.401
417.16	16.475
417.51	16.189
417.87	16.493
418.22	16.527
418.58	16.729
418.93	16.647
419.29	16.153
419.64	17.227
420.00	15.727
420.35	16.676
420.71	16.657
421.06	15.641
421.42	16.284
421.77	16.317
422.12	15.803
422.48	16.027
422.83	16.539
423.19	16.499
423.54	16.759
423.90	16.013
424.25	16.267
424.61	15.614
424.96	16.694
425.31	16.454
425.67	15.137
426.02	15.827
426.38	15.901
426.73	15.681
427.09	16.955
427.44	16.221
427.79	15.699
428.15	15.582
428.50	16.180
428.85	16.246
429.21	16.596
429.56	16.387
429.92	15.971
430.27	16.675
430.62	15.681
430.98	16.134
431.33	15.543
431.68	15.757
432.04	15.947
432.39	15.854
432.74	16.438
433.10	16.117
433.45	15.440
433.80	16.202
434.16	16.116
434.51	16.752
434.86	16.721
435.22	16.153
435.57	16.804
435.92	16.639
436.28	15.757
436.63	16.494
436.98	16.210
437.34	16.347
437.69	15.465
438.04	15.865
438.39	15.336
438.75	16.049
439.10	16.490
439.45	16.378
439.81	16.271
440.16	16.408
440.51	15.886
440.86	15.787
441.22	16.935
441.57	16.143
441.92	16.052
442.27	16.111
442.63	15.648
442.98	16.275
443.33	16.728
443.68	17.146
444.03	16.745
444.39	16.505
444.74	16.998
445.09	16.118
445.44	16.280
445.79	16.379
446.15	17.009
446.50	16.124
446.85	16.829
447.20	16.779
447.55	16.004
447.91	16.283
448.26	16.279
448.61	15.622
448.96	16.953
449.31	16.331
449.66	15.632
450.02	16.034
450.37	16.196
450.72	16.200
451.07	16.287
451.42	15.887
451.77	15.842
452.12	16.761
452.47	15.686
452.83	16.216
453.18	16.112
453.53	15.853
453.88	15.516
454.23	15.480
454.58	16.947
454.93	16.505
455.28	16.255
455.63	16.202
455.98	16.480
456.34	16.254
456.69	16.402
457.04	16.253
457.39	16.075
457.74	17.450
458.09	16.310
458.44	16.864
458.79	16.245
459.14	16.308
459.49	16.752
459.84	16.369
460.19	15.769
460.54	17.320
460.89	16.411
461.24	15.057
461.59	16.768
461.94	15.687
462.29	16.517
462.64	15.269
462.99	16.196
463.34	17.002
463.69	16.706
464.04	17.343
464.39	17.040
464.74	16.249
465.09	15.859
465.44	16.577
465.79	16.711
466.14	16.311
466.49	16.211
466.84	15.758
467.19	16.358
467.54	16.569
467.89	17.011
468.24	16.122
468.59	15.402
468.94	14.977
469.29	15.657
469.64	15.957
469.99	15.679
470.34	16.460
470.68	16.405
471.03	16.961
471.38	16.874
471.73	16.450
472.08	16.815
472.43	16.797
472.78	17.254
473.13	16.751
473.48	16.556
473.83	16.483
474.17	15.944
474.52	16.657
474.87	17.054
475.22	16.732
475.57	16.615
475.92	16.725
476.27	16.294
476.61	16.407
476.96	16.267
477.31	16.931
477.66	17.314
478.01	16.421
478.36	16.600
478.70	16.453
479.05	16.155
479.40	16.338
479.75	16.571
480.10	16.059
480.45	17.001
480.79	16.372
481.14	15.671
481.49	15.856
481.84	16.493
482.19	16.043
482.53	16.047
482.88	16.438
483.23	16.096
483.58	15.895
483.92	16.046
484.27	16.427
484.62	16.213
484.97	15.474
485.31	15.734
485.66	15.285
486.01	15.734
486.36	15.889
486.70	16.378
487.05	16.284
487.40	15.788
487.75	15.573
488.09	15.328
488.44	15.166
488.79	16.054
489.13	16.075
489.48	15.767
489.83	15.815
490.17	15.917
490.52	15.681
490.87	16.159
491.22	15.815
491.56	16.254
491.91	16.180
492.26	16.357
492.60	16.178
492.95	16.367
493.30	15.823
493.64	16.294
493.99	16.579
494.34	15.810
494.68	16.060
495.03	16.828
495.37	16.156
495.72	15.420
496.07	16.214
496.41	16.216
496.76	16.305
497.11	15.839
497.45	16.487
497.80	16.837
498.14	16.281
498.49	16.039
498.84	16.682
499.18	16.329
499.53	17.309
499.87	15.956
500.22	15.450
500.56	16.464
500.91	16.247
501.26	16.864
501.60	15.996
501.95	16.196
502.29	16.104
502.64	16.703
502.98	16.437
503.33	16.069
503.67	15.438
504.02	15.981
504.36	16.935
504.71	16.491
505.06	16.371
505.40	16.590
505.75	16.393
506.09	16.621
506.44	16.435
506.78	16.927
507.13	17.012
507.47	16.769
507.82	15.814
508.16	16.061
508.51	15.987
508.85	16.013
509.19	16.201
509.54	16.427
509.88	16.999
510.23	17.193
510.57	16.916
510.92	16.691
511.26	16.162
511.61	16.417
511.95	16.496
512.30	16.888
512.64	16.392
512.98	15.708
513.33	16.885
513.67	16.318
514.02	16.863
514.36	16.573
514.70	17.292
515.05	17.310
515.39	16.955
515.74	17.073
516.08	17.010
516.42	18.263
516.77	16.930
517.11	16.452
517.46	17.020
517.80	17.638
518.14	17.628
518.49	16.811
518.83	16.445
519.17	16.855
519.52	17.453
519.86	16.948
520.20	17.838
520.55	17.141
520.89	16.610
521.23	17.197
521.58	16.497
521.92	17.337
522.26	16.609
522.61	17.708
522.95	16.840
523.29	16.322
523.64	17.489
523.98	17.798
524.32	18.166
524.66	18.156
525.01	16.931
525.35	17.002
525.69	17.227
526.04	17.623
526.38	17.586
526.72	17.532
527.06	17.537
527.41	17.026
527.75	16.627
528.09	18.064
528.43	17.348
528.78	16.879
529.12	16.743
529.46	16.582
529.80	17.792
530.15	17.043
530.49	16.370
530.83	18.536
531.17	16.906
531.51	17.329
531.86	17.608
532.20	17.073
532.54	17.175
532.88	17.333
533.22	17.678
533.57	17.369
533.91	17.172
534.25	17.015
534.59	16.839
534.93	17.261
535.27	16.789
535.62	17.510
535.96	17.257
536.30	17.098
536.64	17.177
536.98	17.343
537.32	17.716
537.66	17.966
538.01	17.221
538.35	16.870
538.69	17.127
539.03	17.658
539.37	17.373
539.71	17.958
540.05	17.686
540.39	16.504
540.73	17.547
541.07	17.106
541.42	16.775
541.76	17.378
542.10	16.647
542.44	16.504
542.78	17.336
543.12	16.210
543.46	17.399
543.80	16.727
544.14	17.355
544.48	17.139
544.82	18.133
545.16	18.068
545.50	17.316
545.84	17.453
546.18	19.074
546.52	16.624
546.86	17.925
547.20	16.730
547.54	17.416
547.88	17.179
548.22	17.368
548.56	17.496
548.90	16.657
549.24	17.204
549.58	17.035
549.92	17.411
550.26	17.152
550.60	16.465
550.94	17.594
551.28	16.832
551.62	18.194
551.96	17.346
552.30	18.164
552.64	17.486
552.98	17.031
553.32	17.363
553.66	17.685
554.00	17.654
554.34	17.568
554.68	16.527
555.02	17.674
555.36	17.160
555.69	16.656
556.03	17.150
556.37	17.522
556.71	17.628
557.05	17.636
557.39	17.054
557.73	17.173
558.07	17.351
558.41	17.542
558.75	17.039
559.08	18.093
559.42	17.627
559.76	18.114
560.10	16.544
560.44	16.953
560.78	17.500
561.12	17.180
561.45	17.701
561.79	16.606
562.13	17.498
562.47	16.954
562.81	17.089
563.15	17.929
563.48	18.334
563.82	16.868
564.16	16.657
564.50	17.402
564.84	16.932
565.17	17.353
565.51	17.606
565.85	17.993
566.19	16.935
566.52	16.618
566.86	17.431
567.20	16.911
567.54	17.047
567.88	16.616
568.21	17.292
568.55	16.643
568.89	17.839
569.23	17.110
569.56	17.038
569.90	17.249
570.24	16.931
570.57	16.966
570.91	16.626
571.25	16.864
571.59	16.866
571.92	16.418
572.26	16.093
572.60	16.271
572.93	16.671
573.27	16.409
573.61	16.517
573.95	16.363
574.28	16.328
574.62	16.007
574.96	16.079
575.29	15.752
575.63	16.170
575.97	16.192
576.30	16.112
576.64	15.915
576.98	16.401
577.31	16.010
577.65	16.343
577.98	16.190
578.32	16.198
578.66	15.850
578.99	16.035
579.33	16.007
579.67	15.888
580.00	15.914
580.34	16.034
580.67	15.997
581.01	15.751
581.35	16.053
581.68	16.167
582.02	16.075
582.35	16.409
582.69	16.216
583.02	16.203
583.36	15.958
583.70	15.951
584.03	15.671
584.37	16.169
584.70	15.746
585.04	15.973
585.37	16.041
585.71	16.246
586.04	15.984
586.38	15.901
586.72	15.668
587.05	15.426
587.39	15.831
587.72	16.124
588.06	15.909
588.39	16.057
588.73	15.926
589.06	16.337
589.40	16.472
589.73	16.452
590.07	16.313
590.40	16.667
590.73	16.543
591.07	16.679
591.40	15.902
591.74	16.852
592.07	16.728
592.41	16.443
592.74	16.684
593.08	16.720
593.41	16.419
593.75	16.437
594.08	16.631
594.41	16.250
594.75	16.008
595.08	15.983
595.42	16.558
595.75	16.242
596.09	16.367
596.42	16.159
596.75	16.519
597.09	16.323
597.42	16.289
597.75	16.347
598.09	16.667
598.42	16.164
598.76	16.125
599.09	15.984
599.42	16.192
599.76	15.616
600.09	15.849
600.42	16.450
600.76	16.546
601.09	15.831
601.42	15.551
601.76	16.345
602.09	16.119
602.42	16.249
602.76	16.531
603.09	15.932
603.42	16.077
603.76	16.244
604.09	16.927
604.42	16.587
604.76	15.715
605.09	16.953
605.42	16.348
605.75	16.192
606.09	16.312
606.42	16.235
606.75	16.154
607.09	16.091
607.42	16.802
607.75	16.256
608.08	16.259
608.42	16.364
608.75	16.584
609.08	16.087
609.41	16.409
609.75	15.759
610.08	16.051
610.41	16.100
610.74	16.303
611.07	16.430
611.41	16.771
611.74	16.628
612.07	17.017
612.40	17.015
612.73	17.311
613.07	16.137
613.40	17.372
613.73	16.033
614.06	16.781
614.39	16.278
614.72	16.109
615.06	16.218
615.39	15.901
615.72	17.014
616.05	16.076
616.38	16.953
616.71	16.301
617.05	15.815
617.38	17.817
617.71	16.739
618.04	16.406
618.37	17.104
618.70	17.025
619.03	16.726
619.36	17.016
619.69	16.336
620.03	16.070
620.36	17.301
620.69	16.533
621.02	16.798
621.35	17.126
621.68	17.426
622.01	17.082
622.34	16.527
622.67	17.938
623.00	16.734
623.33	16.921
623.66	17.510
623.99	16.919
624.32	17.154
624.65	17.181
624.99	17.230
625.32	16.852
625.65	17.127
625.98	16.271
626.31	17.080
626.64	16.630
626.97	16.879
627.30	17.312
627.63	16.729
627.96	17.342
628.29	17.588
628.62	15.953
628.95	16.827
629.28	17.417
629.61	17.593
629.94	16.318
630.26	17.288
630.59	16.667
630.92	15.931
631.25	18.157
631.58	17.326
631.91	17.432
632.24	17.003
632.57	17.837
632.90	18.255
633.23	17.653
633.56	17.653
633.89	16.839
634.22	19.335
634.55	17.328
634.88	16.883
635.20	18.084
635.53	18.418
635.86	16.901
636.19	17.709
636.52	19.198
636.85	17.978
637.18	17.879
637.51	15.806
637.83	17.608
638.16	18.088
638.49	17.371
638.82	17.024
639.15	16.724
639.48	18.014
639.81	17.783
640.13	18.728
640.46	16.485
640.79	17.525
641.12	18.509
641.45	16.437
641.77	18.100
642.10	16.273
642.43	19.947
642.76	17.209
643.09	17.534
643.41	18.067
643.74	18.483
644.07	17.517
644.40	17.963
644.73	18.578
645.05	17.327
645.38	17.410
645.71	18.768
646.04	19.799
646.36	17.226
646.69	18.865
647.02	19.878
647.35	19.237
647.67	17.391
648.00	16.879
648.33	18.919
648.66	17.832
648.98	16.190
649.31	19.080
649.64	17.264
649.96	16.976
650.29	16.829
650.62	16.690
650.94	17.117
651.27	18.263
651.60	16.959
651.92	18.389
652.25	18.813
652.58	18.982
652.90	15.988
653.23	18.873
653.56	19.401
653.88	19.242
654.21	16.620
654.54	18.931
654.86	17.847
655.19	15.809
655.52	16.919
655.84	16.185
656.17	19.951
656.49	27.672
656.82	30.101
657.15	22.534
657.47	16.368
657.80	11.815
658.13	8.956
658.45	11.737
658.78	13.792
659.10	13.513
659.43	13.555
659.75	13.214
660.08	13.669
660.41	14.723
660.73	14.481
661.06	15.125
661.38	16.427
661.71	16.897
662.03	16.755
662.36	18.247
662.68	17.261
663.01	18.938
663.33	19.282
663.66	21.429
663.98	17.692
664.31	20.450
664.63	15.800
664.96	19.238
665.28	17.060
665.61	19.580
665.93	17.143
666.26	18.996
666.58	17.712
666.91	20.374
667.23	17.524
667.56	18.738
667.88	18.000
668.21	16.992
668.53	16.023
668.86	19.646
669.18	18.534
669.50	18.887
669.83	18.000
670.15	18.504
670.48	18.849
670.80	18.547
671.13	17.013
671.45	17.913
671.77	19.962
672.10	18.000
672.42	18.608
672.75	16.590
673.07	17.015
673.39	17.565
673.72	17.617
674.04	18.276
674.37	19.320
674.69	19.400
675.01	18.095
675.34	18.702
675.66	17.416
675.98	18.284
676.31	18.750
676.63	19.772
676.95	19.923
677.28	16.935
677.60	15.551
677.92	15.547
678.25	19.196
678.57	17.972
678.89	18.089
679.22	16.551
679.54	17.094
679.86	16.441
680.18	16.584
680.51	17.925
680.83	18.658
681.15	17.414
681.48	15.717
681.80	20.380
682.12	18.007
682.44	17.696
682.77	19.326
683.09	18.371
683.41	19.961
683.73	16.319
684.06	17.528
684.38	16.816
684.70	17.235
685.02	16.179
685.34	17.637
685.67	17.823
685.99	16.104
686.31	15.552
686.63	18.325
686.96	16.404
687.28	18.078
687.60	17.172
687.92	16.399
688.24	17.028
688.56	16.034
688.89	19.964
689.21	19.374
689.53	17.255
689.85	16.174
690.17	18.704
690.49	16.932
690.82	16.238
691.14	17.004
691.46	18.547
691.78	20.258
692.10	16.330
692.42	15.893
692.74	17.967
693.06	17.222
693.39	18.406
693.71	17.105
694.03	17.844
694.35	17.524
694.67	16.427
694.99	17.660
695.31	19.426
695.63	19.048
695.95	19.669
696.27	17.363
696.59	17.257
696.91	15.766
697.23	21.538
697.56	15.275
697.88	18.750
698.20	17.326
698.52	18.939
698.84	18.919
699.16	18.980
699.48	19.038
699.80	17.234
700.12	15.939
700.44	14.516
700.76	16.865
701.08	17.676
701.40	18.394
701.72	16.915
702.04	17.112
702.36	17.801
702.68	18.582
703.00	15.403
703.32	16.256
703.64	17.848
703.96	19.570
704.28	17.199
704.60	20.000
704.91	18.112
705.23	21.096
705.55	18.384
705.87	19.697
706.19	20.552
706.51	16.566
706.83	17.291
707.15	15.873
707.47	16.121
707.79	17.249
708.11	15.254
708.43	18.065
708.74	16.071
709.06	16.241
709.38	19.484
709.70	20.347
710.02	17.054
710.34	17.287
710.66	14.804
710.98	19.945
711.29	16.758
711.61	21.186
711.93	21.083
712.25	17.027
712.57	18.289
712.89	19.118
713.20	13.314
713.52	20.231
713.84	17.549
714.16	17.895
714.48	17.784
714.80	21.039
715.11	17.585
715.43	18.037
715.75	16.579
716.07	15.470
716.39	19.126
716.70	15.663
717.02	17.705
717.34	16.028
717.66	21.812
717.97	19.521
718.29	20.275
718.61	17.763
718.93	15.534
719.24	21.429
719.56	17.791
719.88	16.817
720.20	19.032
720.51	20.497
720.83	17.812
721.15	16.447
721.46	16.781
721.78	17.000
722.10	17.152
722.42	16.107
722.73	19.355
723.05	20.351
723.37	17.014
723.68	18.638
724.00	20.217
724.32	17.606
724.63	15.734
724.95	22.340
725.27	16.376
725.58	17.668
725.90	18.276
726.22	18.495
726.53	16.558
726.85	21.069
727.16	19.033
727.48	22.018
727.80	17.881
728.11	13.428
728.43	22.896
728.74	18.729
729.06	17.881
729.38	18.831
729.69	19.128
730.01	17.262
730.32	16.364
730.64	16.981
730.96	17.081
731.27	19.553
731.59	16.758
731.90	18.182
732.22	17.448
732.53	15.746
732.85	16.286
733.16	15.836
733.48	15.854
733.80	14.206
734.11	18.234
734.43	17.027
734.74	22.025
735.06	16.080
735.37	20.541
735.69	16.216
736.00	18.927
736.32	19.137
736.63	16.944
736.95	18.678
737.26	19.394
737.58	16.364
737.89	16.765
738.21	15.596
738.52	17.705
738.83	20.819
739.15	14.539
739.46	16.327
739.78	21.166
740.09	16.332
740.41	18.367
740.72	16.667
741.04	18.770
741.35	21.053
741.66	18.039
741.98	23.770
742.29	19.665
742.61	18.421
742.92	18.846
743.23	19.495
743.55	18.217
743.86	18.800
744.18	16.529
744.49	18.143
744.80	20.165
745.12	20.675
745.43	19.512
745.74	20.259
746.06	13.983
746.37	19.409
746.68	28.049
747.00	18.333
747.31	17.167
747.62	20.385
747.94	19.433
748.25	18.072
748.56	18.776
748.88	18.803
749.19	19.828
749.50	16.017
749.82	23.293
750.13	23.132
750.44	13.333
750.75	19.385
751.07	18.769
751.38	18.297
751.69	17.891
752.01	19.417
752.32	23.529
752.63	21.769
752.94	17.301
753.26	14.498
753.57	17.407
753.88	14.232
754.19	21.543
754.51	16.399
754.82	20.579
755.13	22.295
755.44	21.160
755.75	20.066
756.07	16.716
756.38	19.811
756.69	21.386
757.00	14.681
757.31	19.126
757.63	14.578
757.94	15.728
758.25	18.284
758.56	17.429
758.87	19.091
759.18	17.333
759.50	19.547
759.81	17.087
760.12	19.407
760.43	16.406
760.74	16.995
761.05	16.250
761.36	17.108
761.67	17.259
761.99	17.027
762.30	18.293
762.61	16.832
762.92	17.537
763.23	20.599
763.54	18.345
763.85	19.931
764.16	19.192
764.47	17.958
764.78	18.530
765.10	17.595
765.41	20.256
765.72	16.931
766.03	21.186
766.34	16.301
766.65	17.770
766.96	16.733
767.27	18.433
767.58	20.896
767.89	25.481
768.20	19.718
768.51	21.296
768.82	21.285
769.13	21.212
769.44	13.462
769.75	19.495
770.06	17.308
770.37	20.079
770.68	15.319
770.99	12.955
771.30	24.074
771.61	18.251
771.92	15.556
772.23	17.004
772.54	18.519
772.85	24.885
773.16	21.905
773.47	21.164
773.78	20.541
774.09	24.432
774.39	26.000
774.70	20.765
775.01	21.341
775.32	21.176
775.63	20.859
775.94	17.834
776.25	27.097
776.56	27.564
776.87	23.129
777.18	24.138
777.48	18.881
777.79	23.649
778.10	12.500
778.41	23.611
778.72	19.310
779.03	19.136
779.34	23.636
779.65	22.280
779.95	17.222
780.26	23.295
780.57	22.581
780.88	28.261
781.19	29.677
781.50	28.824
781.80	21.505
782.11	24.868
782.42	14.141
782.73	16.168
783.04	21.788
783.34	18.182
783.65	20.261
783.96	17.391
784.27	20.238
784.57	16.556
784.88	19.286
785.19	23.622
785.50	29.134
785.81	26.316
786.11	20.769
786.42	17.986
786.73	10.072
787.04	26.316
787.34	15.574
787.65	19.200
787.96	23.134
788.26	26.573
788.57	32.168
788.88	21.053
789.19	25.490
789.49	15.753
789.80	16.312
790.11	19.685
790.41	20.313
790.72	27.119
791.03	25.243
791.33	22.609
791.64	31.579
791.95	16.964
792.25	21.905
792.56	16.964
792.87	21.875
793.17	25.893
793.48	22.917
793.79	18.072
794.09	22.018
794.40	21.101
794.70	19.728
795.01	18.182
795.32	32.877
795.62	12.676
795.93	9.848
796.23	24.590
796.54	28.571
796.85	22.340
797.15	32.609
797.46	21.918
797.76	13.750
798.07	15.217
798.37	16.495
798.68	15.584
798.99	33.333
799.29	28.090
799.60	14.894
799.90	21.687
800.21	24.615
800.51	32.836
800.82	23.529
801.12	9.589
801.43	14.706
801.73	25.424
802.04	30.303
802.34	13.333
802.65	15.254
802.95	29.851
803.26	27.119
803.56	28.767
803.87	42.857
804.17	36.986
804.48	14.035
804.78	25.000
805.09	6.897
805.39	35.135
805.70	21.127
806.00	29.268
806.30	27.711
806.61	17.808
806.91	25.962
807.22	24.444
807.52	13.793
807.83	36.111
808.13	28.916
808.43	14.607
808.74	16.250
809.04	16.176
809.35	18.667
809.65	18.571
809.95	23.288
810.26	17.544
810.56	34.483
810.86	27.941
811.17	0.000
811.47	21.311
811.77	11.111
812.08	28.814
812.38	28.333
812.69	20.690
812.99	22.642
813.29	7.692
813.59	62.000
813.90	36.842
814.20	38.182
814.50	36.620
814.81	19.231
815.11	36.066
815.41	26.866
815.72	37.931
816.02	41.071
816.32	62.222
816.62	56.818
816.93	17.778
817.23	25.926
817.53	31.915
817.84	45.238
818.14	44.118
818.44	40.816
818.74	28.889
819.04	5.128
819.35	2.857
819.65	-15.385
819.95	11.321
820.25	44.444
820.56	28.571
820.86	9.375
821.16	15.385
821.46	18.605
821.76	6.000
822.07	21.429
822.37	28.261
822.67	31.915
822.97	8.108
823.27	22.500
823.57	48.980
823.88	51.111
824.18	60.000
824.48	53.333
824.78	52.000
825.08	45.455
825.38	33.333
825.69	48.936
825.99	25.000
826.29	-22.857
826.59	35.897
826.89	41.860
827.19	34.000
827.49	26.471
827.79	54.167
828.09	24.324
828.39	70.000
828.70	34.146
829.00	34.884
829.30	35.714
829.60	38.235
829.90	13.043
830.20	25.714
830.50	13.793
830.80	55.556
831.10	65.385
831.40	35.294
831.70	90.476
832.00	74.194
832.30	52.941
832.60	20.833
832.90	76.923
833.20	31.579
833.50	10.000
833.80	42.105
834.10	14.286
834.40	69.444
834.70	43.750
835.00	2.857
835.30	47.059
835.60	56.667
835.90	64.000
836.20	-18.182
836.50	36.000
836.80	12.121
837.10	48.148
837.40	70.370
837.70	0.000
838.00	42.857
838.30	26.087
838.60	44.828
838.90	92.857
839.19	-26.087
839.49	-16.667
839.79	78.261
840.09	18.750
840.39	40.000
840.69	67.742
840.99	14.286
841.29	20.000
841.59	68.421
841.88	58.974
842.18	73.077
842.48	30.000
842.78	40.000
843.08	36.667
843.38	58.065
843.68	38.889
843.97	44.118
844.27	118.750
844.57	10.526
844.87	10.000
845.17	6.667
845.47	104.762
845.76	42.857
846.06	111.111
846.36	17.647
846.66	42.308
846.96	26.667
847.25	64.706
847.55	69.565
847.85	30.000
848.15	123.529
848.44	90.909
848.74	52.381
849.04	20.833
849.34	43.750
849.63	43.478
849.93	-100.000
850.23	0.000
850.53	42.308
850.82	54.545
851.12	86.364
851.42	118.182
851.71	92.308
852.01	5.000
852.31	76.923
852.61	57.895
852.90	100.000
853.20	100.000
853.50	-22.222
853.79	-14.286
854.09	40.909
854.39	66.667
854.68	80.645
854.98	53.846
855.28	61.111
855.57	50.000
855.87	52.000
856.17	72.727
856.46	70.370
856.76	66.667
857.05	65.217
857.35	54.167
857.65	100.000
857.94	66.667
858.24	29.630
858.53	86.957
858.83	76.471
859.13	94.118
859.42	82.353
859.72	57.143
860.01	65.000
860.31	100.000
860.60	120.000
860.90	46.667
861.20	55.556
861.49	92.308
861.79	66.667
862.08	0.000
862.38	59.375
862.67	70.588
862.97	81.250
863.26	11.111
863.56	120.000
863.85	100.000
864.15	38.889
864.44	333.333
864.74	100.000
865.03	31.250
865.33	10.000
865.62	48.387
865.92	54.545
866.21	52.174
866.51	57.143
866.80	200.000
867.10	66.667
867.39	58.333
867.69	200.000
867.98	71.429
868.27	76.471
868.57	-600.000
868.86	20.000
869.16	33.333
869.45	70.833
869.75	154.545
870.04	142.857
870.33	141.667
870.63	-42.857
870.92	350.000
871.22	-12.500
871.51	90.909
871.80	0.000
872.10	250.000
>>>>>End Processed Spectral Data<<<<<
