SpectraSuite Data File
++++++++++++++++++++++++++++++++++++
Date: Thu May 14 14:53:28 PDT 2015
User: schluterlab
Dark Spectrum Present: Yes
Reference Spectrum Present: Yes
Number of Sampled Component Spectra: 1
Spectrometers: USB2E3373
Integration Time (usec): 3000 (USB2E3373)
Spectra Averaged: 3 (USB2E3373)
Boxcar Smoothing: 0 (USB2E3373)
Correct for Electrical Dark: No (USB2E3373)
Strobe/Lamp Enabled: No (USB2E3373)
Correct for Detector Non-linearity: No (USB2E3373)
Correct for Stray Light: No (USB2E3373)
Number of Pixels in Processed Spectrum: 2048
>>>>>Begin Processed Spectral Data<<<<<
178.53	0.000
178.91	85.714
179.29	-2400.000
179.67	-1900.000
180.04	164.286
180.42	50.000
180.80	340.000
181.18	-1500.000
181.56	-100.000
181.94	225.000
182.31	-375.000
182.69	266.667
183.07	-550.000
183.45	575.000
183.83	-183.333
184.20	-466.667
184.58	1500.000
184.96	-300.000
185.34	-77.778
185.72	-260.000
186.09	222.222
186.47	900.000
186.85	420.000
187.23	-222.222
187.61	-1500.000
187.98	240.000
188.36	475.000
188.74	-250.000
189.12	-166.667
189.49	-68.750
189.87	-175.000
190.25	-144.444
190.63	-180.000
191.00	-188.889
191.38	0.000
191.76	-75.000
192.14	-183.333
192.51	200.000
192.89	-50.000
193.27	0.000
193.65	-200.000
194.02	-1600.000
194.40	-242.857
194.78	285.714
195.15	0.000
195.53	-118.182
195.91	0.000
196.29	-300.000
196.66	-123.077
197.04	-2200.000
197.42	-271.429
197.79	-750.000
198.17	-75.000
198.55	-242.857
198.92	-44.444
199.30	-137.500
199.68	9.091
200.05	14.286
200.43	-600.000
200.81	242.857
201.18	0.000
201.56	244.444
201.94	0.000
202.31	633.333
202.69	-188.889
203.07	1800.000
203.44	-200.000
203.82	-50.000
204.19	-91.667
204.57	-150.000
204.95	-187.500
205.32	-1100.000
205.70	375.000
206.08	-216.667
206.45	-83.333
206.83	440.000
207.20	-83.333
207.58	-120.000
207.96	-50.000
208.33	0.000
208.71	108.333
209.08	100.000
209.46	0.000
209.84	400.000
210.21	750.000
210.59	550.000
210.96	733.333
211.34	-200.000
211.71	-137.500
212.09	-1700.000
212.46	0.000
212.84	1000.000
213.22	-340.000
213.59	-250.000
213.97	-20.000
214.34	-166.667
214.72	416.667
215.09	-450.000
215.47	0.000
215.84	228.571
216.22	1050.000
216.59	-100.000
216.97	-100.000
217.34	-200.000
217.72	-12.500
218.09	-150.000
218.47	-450.000
218.84	0.000
219.22	240.000
219.59	-35.294
219.97	-15.000
220.34	750.000
220.72	-111.111
221.09	-38.462
221.47	-633.333
221.84	10.000
222.22	-214.286
222.59	0.000
222.97	-87.500
223.34	-280.000
223.72	-600.000
224.09	-500.000
224.46	-475.000
224.84	-40.000
225.21	-171.429
225.59	-450.000
225.96	-500.000
226.34	-3.846
226.71	300.000
227.08	-750.000
227.46	-46.667
227.83	-375.000
228.21	-42.105
228.58	100.000
228.95	900.000
229.33	-75.000
229.70	-60.000
230.08	-5.263
230.45	180.000
230.82	-200.000
231.20	-28.571
231.57	-91.667
231.95	-145.455
232.32	-9.091
232.69	-65.000
233.07	-450.000
233.44	-88.235
233.81	-160.000
234.19	-11.111
234.56	-13.636
234.93	-3.448
235.31	-42.105
235.68	-55.556
236.05	-45.000
236.43	-23.077
236.80	28.000
237.17	7.407
237.55	6.061
237.92	-130.000
238.29	-19.355
238.67	4.545
239.04	25.000
239.41	-30.952
239.79	-19.565
240.16	-1.852
240.53	-8.696
240.91	-19.608
241.28	1.639
241.65	5.970
242.02	21.622
242.40	0.000
242.77	-4.000
243.14	4.878
243.51	-10.526
243.89	-5.128
244.26	11.881
244.63	17.647
245.00	14.019
245.38	7.895
245.75	-9.735
246.12	11.905
246.49	13.178
246.87	15.000
247.24	12.583
247.61	13.816
247.98	7.383
248.36	17.901
248.73	7.362
249.10	14.208
249.47	18.408
249.84	20.942
250.22	10.881
250.59	14.444
250.96	15.909
251.33	8.163
251.70	14.957
252.08	15.417
252.45	18.033
252.82	17.355
253.19	14.453
253.56	16.350
253.94	17.692
254.31	18.182
254.68	19.231
255.05	15.635
255.42	17.687
255.79	13.592
256.16	14.901
256.54	14.901
256.91	16.393
257.28	14.098
257.65	16.561
258.02	14.454
258.39	17.379
258.76	20.183
259.14	16.954
259.51	15.274
259.88	14.164
260.25	16.389
260.62	23.288
260.99	19.399
261.36	20.375
261.73	15.650
262.10	18.956
262.47	17.962
262.85	17.677
263.22	18.442
263.59	14.737
263.96	16.880
264.33	14.322
264.70	19.259
265.07	18.377
265.44	19.501
265.81	18.750
266.18	18.367
266.55	19.643
266.92	17.995
267.29	19.037
267.66	16.630
268.03	18.559
268.40	20.042
268.77	16.401
269.14	14.537
269.51	18.421
269.88	18.648
270.25	18.310
270.62	16.878
270.99	18.990
271.36	19.604
271.73	18.664
272.10	17.635
272.47	18.637
272.84	18.474
273.21	18.236
273.58	16.532
273.95	16.731
274.32	16.920
274.69	17.408
275.06	21.245
275.43	17.560
275.80	19.577
276.17	17.593
276.54	18.284
276.91	16.279
277.28	18.807
277.65	18.671
278.02	18.750
278.39	15.399
278.76	16.169
279.13	17.730
279.50	18.041
279.87	17.889
280.23	16.725
280.60	18.983
280.97	17.763
281.34	15.280
281.71	18.443
282.08	18.605
282.45	16.530
282.82	16.797
283.19	14.701
283.56	17.377
283.92	19.670
284.29	19.115
284.66	17.734
285.03	13.622
285.40	18.547
285.77	18.266
286.14	18.931
286.51	17.352
286.87	15.956
287.24	18.976
287.61	18.087
287.98	15.559
288.35	17.751
288.72	17.899
289.08	14.934
289.45	16.272
289.82	15.060
290.19	16.954
290.56	15.634
290.93	16.833
291.29	15.840
291.66	16.116
292.03	14.111
292.40	16.871
292.77	15.499
293.13	14.885
293.50	14.717
293.87	13.826
294.24	15.867
294.60	14.918
294.97	15.168
295.34	17.157
295.71	14.124
296.08	14.599
296.44	16.667
296.81	14.860
297.18	13.699
297.55	14.623
297.91	13.879
298.28	14.573
298.65	14.150
299.02	13.813
299.38	15.217
299.75	13.551
300.12	12.963
300.48	13.710
300.85	14.623
301.22	14.206
301.59	12.443
301.95	15.593
302.32	14.556
302.69	13.910
303.05	15.452
303.42	14.634
303.79	15.104
304.15	12.723
304.52	13.531
304.89	13.089
305.25	14.803
305.62	13.271
305.99	14.227
306.35	13.004
306.72	14.685
307.09	13.198
307.45	14.389
307.82	14.026
308.19	12.513
308.55	13.983
308.92	14.898
309.29	14.176
309.65	13.743
310.02	13.267
310.38	13.287
310.75	14.563
311.12	14.669
311.48	13.196
311.85	14.910
312.22	14.137
312.58	14.554
312.95	14.245
313.31	14.815
313.68	15.476
314.05	15.176
314.41	16.029
314.78	14.986
315.14	15.789
315.51	15.974
315.87	16.292
316.24	16.073
316.61	17.318
316.97	15.928
317.34	15.432
317.70	18.865
318.07	17.989
318.43	18.112
318.80	18.562
319.16	17.425
319.53	17.823
319.89	17.266
320.26	17.349
320.62	18.174
320.99	19.021
321.35	18.484
321.72	20.558
322.08	19.838
322.45	19.422
322.81	21.209
323.18	20.973
323.54	20.948
323.91	20.819
324.27	21.773
324.64	21.411
325.00	21.559
325.37	22.686
325.73	23.306
326.10	24.250
326.46	24.674
326.83	24.820
327.19	25.118
327.56	25.217
327.92	24.941
328.29	25.726
328.65	25.293
329.01	25.465
329.38	26.959
329.74	27.740
330.11	27.397
330.47	25.864
330.84	26.701
331.20	26.833
331.56	29.116
331.93	27.197
332.29	28.051
332.66	27.990
333.02	27.722
333.38	28.020
333.75	28.872
334.11	27.606
334.48	28.053
334.84	28.547
335.20	29.135
335.57	29.174
335.93	29.835
336.29	28.286
336.66	28.007
337.02	28.595
337.38	28.741
337.75	27.438
338.11	30.025
338.47	28.040
338.84	28.088
339.20	27.717
339.56	27.677
339.93	27.422
340.29	26.812
340.65	27.494
341.02	29.370
341.38	29.507
341.74	27.441
342.11	28.238
342.47	26.926
342.83	28.180
343.20	27.800
343.56	28.148
343.92	28.663
344.28	27.734
344.65	27.829
345.01	28.393
345.37	27.605
345.73	26.267
346.10	28.861
346.46	28.323
346.82	27.566
347.19	27.884
347.55	28.832
347.91	27.415
348.27	27.618
348.63	28.256
349.00	27.442
349.36	26.766
349.72	27.158
350.08	27.712
350.45	26.464
350.81	27.753
351.17	26.316
351.53	28.886
351.89	27.411
352.26	26.866
352.62	26.493
352.98	27.023
353.34	26.512
353.70	27.427
354.07	26.602
354.43	27.031
354.79	26.627
355.15	27.152
355.51	27.412
355.87	26.028
356.24	27.833
356.60	27.273
356.96	26.093
357.32	25.130
357.68	26.208
358.04	26.722
358.40	25.597
358.77	26.462
359.13	26.514
359.49	26.245
359.85	26.686
360.21	26.327
360.57	25.987
360.93	26.093
361.29	26.035
361.66	25.706
362.02	27.697
362.38	25.720
362.74	25.908
363.10	26.479
363.46	26.524
363.82	26.207
364.18	26.249
364.54	25.795
364.90	26.288
365.26	27.379
365.62	26.200
365.98	25.936
366.35	27.181
366.71	25.986
367.07	26.184
367.43	25.804
367.79	27.007
368.15	26.221
368.51	25.778
368.87	27.172
369.23	26.400
369.59	27.049
369.95	26.302
370.31	27.684
370.67	26.616
371.03	26.870
371.39	26.797
371.75	25.997
372.11	26.829
372.47	26.269
372.83	27.160
373.19	26.484
373.55	25.339
373.91	25.767
374.27	26.779
374.63	26.522
374.99	26.592
375.35	26.883
375.71	26.065
376.07	26.791
376.42	25.693
376.78	25.855
377.14	26.138
377.50	27.008
377.86	27.278
378.22	26.587
378.58	26.457
378.94	26.174
379.30	25.542
379.66	26.279
380.02	26.140
380.38	26.786
380.74	26.704
381.09	26.423
381.45	26.364
381.81	27.166
382.17	26.781
382.53	26.140
382.89	25.734
383.25	27.140
383.61	26.100
383.97	26.207
384.32	26.615
384.68	26.450
385.04	26.547
385.40	26.576
385.76	26.788
386.12	26.391
386.48	27.059
386.83	27.354
387.19	26.419
387.55	26.232
387.91	26.826
388.27	27.309
388.62	26.002
388.98	26.452
389.34	27.696
389.70	26.554
390.06	26.998
390.42	26.687
390.77	27.152
391.13	27.347
391.49	28.080
391.85	26.364
392.20	26.868
392.56	26.521
392.92	26.718
393.28	27.253
393.64	26.648
393.99	27.368
394.35	27.336
394.71	26.467
395.07	26.886
395.42	26.785
395.78	28.093
396.14	27.094
396.50	27.078
396.85	27.311
397.21	27.692
397.57	26.737
397.92	27.721
398.28	25.801
398.64	26.087
399.00	26.754
399.35	26.911
399.71	26.957
400.07	28.186
400.42	26.310
400.78	27.199
401.14	26.409
401.49	26.549
401.85	26.977
402.21	28.042
402.57	26.526
402.92	27.009
403.28	26.698
403.63	26.730
403.99	26.366
404.35	26.322
404.70	26.912
405.06	26.902
405.42	26.464
405.77	27.699
406.13	26.904
406.49	26.802
406.84	27.036
407.20	27.613
407.55	26.469
407.91	26.398
408.27	27.150
408.62	27.632
408.98	27.220
409.34	26.334
409.69	27.503
410.05	26.964
410.40	27.494
410.76	27.370
411.11	27.937
411.47	27.518
411.83	27.572
412.18	27.892
412.54	27.208
412.89	27.066
413.25	26.862
413.60	26.881
413.96	27.389
414.31	26.459
414.67	27.609
415.03	27.138
415.38	27.175
415.74	27.489
416.09	28.563
416.45	25.861
416.80	26.561
417.16	27.586
417.51	27.086
417.87	27.039
418.22	27.425
418.58	27.571
418.93	27.881
419.29	28.422
419.64	27.491
420.00	27.062
420.35	27.007
420.71	27.111
421.06	26.740
421.42	27.924
421.77	27.302
422.12	28.488
422.48	28.213
422.83	27.985
423.19	27.745
423.54	28.485
423.90	27.830
424.25	28.480
424.61	28.588
424.96	26.853
425.31	28.875
425.67	28.502
426.02	27.172
426.38	28.071
426.73	26.897
427.09	28.950
427.44	28.400
427.79	27.750
428.15	28.596
428.50	28.539
428.85	28.243
429.21	29.202
429.56	28.825
429.92	27.715
430.27	28.819
430.62	28.920
430.98	28.529
431.33	28.739
431.68	28.065
432.04	28.390
432.39	29.298
432.74	28.082
433.10	28.826
433.45	28.149
433.80	28.755
434.16	28.822
434.51	29.342
434.86	30.347
435.22	29.809
435.57	29.481
435.92	29.772
436.28	29.352
436.63	29.437
436.98	29.254
437.34	29.143
437.69	28.839
438.04	29.455
438.39	28.662
438.75	29.275
439.10	30.497
439.45	29.458
439.81	29.266
440.16	29.544
440.51	29.877
440.86	28.905
441.22	29.582
441.57	29.769
441.92	29.389
442.27	30.657
442.63	30.949
442.98	29.776
443.33	30.037
443.68	30.575
444.03	30.574
444.39	29.496
444.74	29.913
445.09	30.258
445.44	30.242
445.79	30.316
446.15	30.576
446.50	30.078
446.85	30.496
447.20	30.368
447.55	30.492
447.91	29.843
448.26	29.863
448.61	30.393
448.96	30.901
449.31	30.011
449.66	29.521
450.02	29.905
450.37	30.474
450.72	30.032
451.07	30.296
451.42	31.138
451.77	30.517
452.12	30.869
452.47	30.125
452.83	30.293
453.18	30.239
453.53	30.155
453.88	31.143
454.23	30.113
454.58	30.296
454.93	30.461
455.28	31.487
455.63	30.813
455.98	31.229
456.34	31.154
456.69	30.864
457.04	31.383
457.39	30.543
457.74	30.705
458.09	30.643
458.44	30.065
458.79	30.376
459.14	30.205
459.49	30.390
459.84	30.535
460.19	30.983
460.54	31.175
460.89	31.233
461.24	30.517
461.59	31.544
461.94	29.492
462.29	31.411
462.64	30.477
462.99	30.132
463.34	31.733
463.69	30.891
464.04	30.850
464.39	31.783
464.74	30.274
465.09	32.122
465.44	30.794
465.79	30.672
466.14	30.537
466.49	31.000
466.84	31.736
467.19	30.867
467.54	30.787
467.89	30.632
468.24	29.584
468.59	29.531
468.94	30.536
469.29	29.814
469.64	30.706
469.99	30.848
470.34	31.002
470.68	31.852
471.03	30.321
471.38	31.262
471.73	30.689
472.08	31.853
472.43	31.427
472.78	31.297
473.13	30.594
473.48	31.360
473.83	31.573
474.17	30.774
474.52	31.509
474.87	30.288
475.22	30.873
475.57	30.789
475.92	31.010
476.27	31.310
476.61	31.880
476.96	30.709
477.31	30.545
477.66	31.637
478.01	31.215
478.36	30.409
478.70	32.020
479.05	33.231
479.40	31.491
479.75	31.556
480.10	31.075
480.45	31.222
480.79	31.474
481.14	31.296
481.49	30.532
481.84	31.201
482.19	31.828
482.53	31.701
482.88	31.591
483.23	30.680
483.58	31.092
483.92	31.516
484.27	31.075
484.62	30.487
484.97	31.026
485.31	30.306
485.66	28.760
486.01	28.864
486.36	30.338
486.70	31.182
487.05	32.429
487.40	31.414
487.75	31.145
488.09	31.079
488.44	30.610
488.79	31.130
489.13	30.340
489.48	30.252
489.83	30.624
490.17	31.187
490.52	30.583
490.87	30.668
491.22	30.849
491.56	31.826
491.91	32.185
492.26	31.112
492.60	30.652
492.95	30.847
493.30	30.793
493.64	31.713
493.99	31.886
494.34	30.923
494.68	30.835
495.03	31.806
495.37	31.336
495.72	31.066
496.07	30.894
496.41	30.545
496.76	31.526
497.11	31.465
497.45	31.032
497.80	31.186
498.14	30.884
498.49	30.928
498.84	31.399
499.18	30.949
499.53	30.987
499.87	30.945
500.22	29.875
500.56	30.454
500.91	31.716
501.26	31.545
501.60	30.579
501.95	31.741
502.29	31.110
502.64	30.433
502.98	31.018
503.33	29.158
503.67	30.353
504.02	31.480
504.36	31.099
504.71	30.638
505.06	30.423
505.40	29.890
505.75	30.601
506.09	31.123
506.44	31.012
506.78	31.376
507.13	31.120
507.47	30.602
507.82	31.108
508.16	30.641
508.51	29.958
508.85	30.468
509.19	30.886
509.54	31.364
509.88	30.695
510.23	31.180
510.57	31.658
510.92	31.398
511.26	30.495
511.61	30.034
511.95	31.186
512.30	30.625
512.64	30.235
512.98	30.815
513.33	31.250
513.67	30.546
514.02	30.250
514.36	30.742
514.70	31.615
515.05	31.804
515.39	30.761
515.74	31.071
516.08	31.009
516.42	31.240
516.77	30.652
517.11	30.067
517.46	30.700
517.80	31.908
518.14	31.338
518.49	30.423
518.83	31.506
519.17	30.641
519.52	30.608
519.86	30.834
520.20	30.618
520.55	30.997
520.89	30.743
521.23	31.212
521.58	30.621
521.92	30.198
522.26	30.126
522.61	29.687
522.95	30.796
523.29	31.034
523.64	30.605
523.98	31.546
524.32	30.946
524.66	31.873
525.01	30.351
525.35	29.868
525.69	29.582
526.04	30.712
526.38	30.345
526.72	30.219
527.06	30.264
527.41	30.904
527.75	30.760
528.09	30.165
528.43	30.018
528.78	30.058
529.12	29.931
529.46	30.579
529.80	30.320
530.15	30.203
530.49	29.597
530.83	30.519
531.17	30.227
531.51	29.061
531.86	30.409
532.20	30.549
532.54	29.623
532.88	30.303
533.22	29.464
533.57	30.237
533.91	30.584
534.25	30.130
534.59	30.747
534.93	28.636
535.27	29.690
535.62	30.301
535.96	30.041
536.30	30.552
536.64	29.670
536.98	29.889
537.32	29.444
537.66	29.944
538.01	28.822
538.35	29.050
538.69	29.447
539.03	30.472
539.37	30.271
539.71	29.189
540.05	29.017
540.39	29.279
540.73	29.508
541.07	29.001
541.42	28.411
541.76	27.995
542.10	29.373
542.44	28.806
542.78	29.745
543.12	29.321
543.46	29.426
543.80	28.777
544.14	29.264
544.48	28.960
544.82	28.965
545.16	30.233
545.50	29.179
545.84	28.843
546.18	30.617
546.52	28.280
546.86	28.994
547.20	28.308
547.54	27.715
547.88	28.149
548.22	28.596
548.56	28.204
548.90	28.896
549.24	29.240
549.58	29.338
549.92	28.380
550.26	28.350
550.60	27.313
550.94	28.525
551.28	27.855
551.62	28.571
551.96	27.961
552.30	28.808
552.64	28.625
552.98	28.821
553.32	28.553
553.66	27.974
554.00	29.004
554.34	28.378
554.68	28.341
555.02	28.712
555.36	28.337
555.69	27.418
556.03	27.427
556.37	28.473
556.71	26.886
557.05	27.540
557.39	27.140
557.73	27.609
558.07	26.887
558.41	28.372
558.75	26.842
559.08	28.184
559.42	27.435
559.76	27.476
560.10	26.859
560.44	28.100
560.78	27.938
561.12	27.833
561.45	28.224
561.79	28.022
562.13	28.035
562.47	26.942
562.81	26.962
563.15	27.336
563.48	27.657
563.82	26.602
564.16	26.953
564.50	26.579
564.84	26.549
565.17	27.765
565.51	26.525
565.85	27.553
566.19	26.498
566.52	27.209
566.86	27.051
567.20	26.264
567.54	26.819
567.88	27.421
568.21	27.717
568.55	26.859
568.89	27.690
569.23	26.658
569.56	25.752
569.90	26.372
570.24	26.138
570.57	26.588
570.91	26.271
571.25	25.861
571.59	26.579
571.92	25.853
572.26	26.046
572.60	25.689
572.93	26.162
573.27	25.597
573.61	25.543
573.95	25.589
574.28	25.274
574.62	25.807
574.96	25.055
575.29	25.380
575.63	25.156
575.97	25.389
576.30	24.994
576.64	25.030
576.98	24.806
577.31	25.033
577.65	24.969
577.98	25.282
578.32	24.655
578.66	24.689
578.99	25.087
579.33	24.744
579.67	25.340
580.00	24.837
580.34	24.716
580.67	24.669
581.01	25.162
581.35	24.547
581.68	24.312
582.02	24.593
582.35	24.959
582.69	25.214
583.02	25.378
583.36	24.769
583.70	24.858
584.03	24.742
584.37	24.809
584.70	23.912
585.04	23.994
585.37	24.437
585.71	24.444
586.04	24.086
586.38	24.884
586.72	24.091
587.05	24.149
587.39	24.233
587.72	24.091
588.06	24.831
588.39	24.272
588.73	24.577
589.06	24.125
589.40	24.001
589.73	24.454
590.07	24.867
590.40	24.577
590.73	24.320
591.07	24.051
591.40	23.484
591.74	24.205
592.07	24.767
592.41	23.778
592.74	24.210
593.08	24.490
593.41	23.914
593.75	23.851
594.08	24.084
594.41	24.167
594.75	24.278
595.08	23.688
595.42	24.221
595.75	23.765
596.09	24.229
596.42	23.862
596.75	23.659
597.09	23.919
597.42	23.679
597.75	23.363
598.09	23.690
598.42	24.045
598.76	23.959
599.09	23.745
599.42	23.232
599.76	24.067
600.09	24.224
600.42	23.824
600.76	23.613
601.09	23.498
601.42	22.829
601.76	23.310
602.09	23.088
602.42	22.610
602.76	23.358
603.09	23.421
603.42	23.555
603.76	23.291
604.09	23.989
604.42	22.862
604.76	23.212
605.09	23.454
605.42	23.166
605.75	22.846
606.09	22.844
606.42	22.729
606.75	22.864
607.09	22.926
607.42	22.466
607.75	23.134
608.08	23.047
608.42	23.136
608.75	22.886
609.08	22.029
609.41	23.379
609.75	22.723
610.08	22.515
610.41	22.472
610.74	22.689
611.07	23.179
611.41	22.825
611.74	23.048
612.07	22.487
612.40	22.671
612.73	23.472
613.07	22.152
613.40	23.436
613.73	22.629
614.06	22.130
614.39	22.595
614.72	22.174
615.06	22.040
615.39	21.991
615.72	22.749
616.05	21.758
616.38	23.058
616.71	22.675
617.05	22.045
617.38	23.007
617.71	22.192
618.04	22.612
618.37	22.951
618.70	23.077
619.03	22.342
619.36	22.873
619.69	23.382
620.03	22.285
620.36	22.086
620.69	22.085
621.02	23.097
621.35	23.004
621.68	22.704
622.01	21.851
622.34	21.060
622.67	22.337
623.00	21.795
623.33	22.694
623.66	22.827
623.99	21.856
624.32	23.002
624.65	21.750
624.99	21.977
625.32	22.730
625.65	22.454
625.98	21.763
626.31	21.899
626.64	21.612
626.97	21.155
627.30	21.260
627.63	21.830
627.96	23.198
628.29	23.268
628.62	21.495
628.95	21.560
629.28	23.025
629.61	23.401
629.94	21.925
630.26	20.424
630.59	22.625
630.92	20.346
631.25	22.182
631.58	22.976
631.91	22.680
632.24	22.671
632.57	23.435
632.90	20.863
633.23	23.163
633.56	21.837
633.89	21.074
634.22	22.557
634.55	21.816
634.88	22.727
635.20	21.959
635.53	20.904
635.86	20.585
636.19	23.012
636.52	21.835
636.85	22.676
637.18	22.037
637.51	21.505
637.83	23.034
638.16	22.235
638.49	21.596
638.82	21.195
639.15	20.733
639.48	22.979
639.81	22.633
640.13	20.612
640.46	22.061
640.79	20.833
641.12	21.242
641.45	21.079
641.77	23.492
642.10	19.816
642.43	23.803
642.76	21.138
643.09	20.822
643.41	21.008
643.74	20.828
644.07	20.828
644.40	20.226
644.73	20.755
645.05	20.117
645.38	21.439
645.71	21.408
646.04	23.242
646.36	21.168
646.69	20.245
647.02	22.630
647.35	21.679
647.67	21.095
648.00	22.611
648.33	21.471
648.66	20.970
648.98	19.184
649.31	21.110
649.64	20.319
649.96	20.822
650.29	21.001
650.62	20.368
650.94	22.372
651.27	19.611
651.60	19.591
651.92	21.733
652.25	20.116
652.58	20.220
652.90	19.622
653.23	20.563
653.56	21.255
653.88	22.472
654.21	21.549
654.54	18.931
654.86	20.963
655.19	19.197
655.52	21.389
655.84	20.802
656.17	24.548
656.49	34.199
656.82	37.304
657.15	29.214
657.47	21.796
657.80	15.946
658.13	12.289
658.45	15.676
658.78	18.812
659.10	18.220
659.43	17.355
659.75	16.741
660.08	15.518
660.41	16.791
660.73	16.876
661.06	18.502
661.38	19.777
661.71	19.138
662.03	17.813
662.36	21.646
662.68	18.762
663.01	20.531
663.33	22.306
663.66	19.231
663.98	22.115
664.31	20.450
664.63	17.534
664.96	20.508
665.28	19.964
665.61	19.056
665.93	18.929
666.26	19.713
666.58	16.421
666.91	20.748
667.23	20.000
667.56	19.921
667.88	21.000
668.21	18.945
668.53	18.919
668.86	21.415
669.18	20.367
669.50	18.489
669.83	18.200
670.15	19.488
670.48	18.254
670.80	18.929
671.13	19.471
671.45	17.126
671.77	22.411
672.10	18.667
672.42	18.932
672.75	19.201
673.07	19.254
673.39	16.025
673.72	19.295
674.04	18.276
674.37	19.320
674.69	21.693
675.01	17.333
675.34	18.321
675.66	16.292
675.98	19.403
676.31	19.141
676.63	20.152
676.95	19.349
677.28	18.952
677.60	18.701
677.92	17.466
678.25	19.378
678.57	16.548
678.89	18.942
679.22	17.770
679.54	20.000
679.86	16.441
680.18	18.242
680.51	18.082
680.83	18.985
681.15	19.138
681.48	19.516
681.80	18.307
682.12	18.007
682.44	19.032
682.77	17.021
683.09	16.856
683.41	19.961
683.73	16.698
684.06	16.052
684.38	15.921
684.70	17.056
685.02	19.449
685.34	18.303
685.67	17.508
685.99	18.712
686.31	17.878
686.63	16.746
686.96	17.035
687.28	17.101
687.60	17.508
687.92	16.077
688.24	17.529
688.56	17.931
688.89	15.608
689.21	18.004
689.53	17.451
689.85	17.160
690.17	15.741
690.49	18.924
690.82	16.040
691.14	15.992
691.46	16.826
691.78	17.680
692.10	18.165
692.42	16.429
692.74	18.512
693.06	14.074
693.39	19.545
693.71	14.098
694.03	19.145
694.35	16.952
694.67	18.070
694.99	17.447
695.31	14.790
695.63	16.667
695.95	15.735
696.27	16.703
696.59	17.699
696.91	16.441
697.23	18.681
697.56	14.868
697.88	15.341
698.20	17.326
698.52	18.182
698.84	17.048
699.16	18.776
699.48	16.946
699.80	16.170
700.12	18.341
700.44	15.899
700.76	15.677
701.08	17.918
701.40	16.062
701.72	17.662
702.04	15.241
702.36	14.398
702.68	15.648
703.00	16.137
703.32	15.517
703.64	15.159
703.96	17.184
704.28	13.759
704.60	19.241
704.91	13.010
705.23	17.534
705.55	15.599
705.87	13.939
706.19	17.791
706.51	13.554
706.83	16.427
707.15	13.492
707.47	15.888
707.79	15.066
708.11	11.653
708.43	15.054
708.74	13.393
709.06	14.849
709.38	19.953
709.70	17.618
710.02	14.729
710.34	17.819
710.66	15.642
710.98	16.940
711.29	15.659
711.61	16.102
711.93	17.379
712.25	14.324
712.57	19.174
712.89	14.118
713.20	12.130
713.52	16.185
713.84	11.699
714.16	15.789
714.48	15.206
714.80	14.286
715.11	16.010
715.43	14.324
715.75	16.579
716.07	13.536
716.39	17.760
716.70	16.265
717.02	17.705
717.34	11.847
717.66	13.758
717.97	11.986
718.29	14.433
718.61	17.434
718.93	14.563
719.24	15.217
719.56	15.337
719.88	15.015
720.20	17.742
720.51	13.043
720.83	12.813
721.15	14.803
721.46	10.274
721.78	14.333
722.10	14.239
722.42	11.745
722.73	16.452
723.05	13.333
723.37	16.319
723.68	17.204
724.00	15.523
724.32	10.915
724.63	11.538
724.95	15.248
725.27	12.195
725.58	11.661
725.90	18.276
726.22	15.987
726.53	16.234
726.85	14.151
727.16	15.408
727.48	16.208
727.80	14.570
728.11	11.307
728.43	15.152
728.74	12.375
729.06	10.265
729.38	15.260
729.69	13.087
730.01	13.988
730.32	12.727
730.64	16.667
730.96	10.559
731.27	13.966
731.59	15.934
731.90	13.247
732.22	13.802
732.53	12.983
732.85	10.286
733.16	15.836
733.48	16.159
733.80	14.763
734.11	12.821
734.43	14.595
734.74	18.481
735.06	17.839
735.37	16.757
735.69	15.135
736.00	15.537
736.32	13.747
736.63	15.278
736.95	15.230
737.26	15.455
737.58	16.364
737.89	15.000
738.21	9.786
738.52	12.787
738.83	11.945
739.15	18.085
739.46	15.646
739.78	16.564
740.09	10.602
740.41	17.784
740.72	13.667
741.04	14.563
741.35	9.825
741.66	13.725
741.98	15.984
742.29	10.460
742.61	11.404
742.92	14.231
743.23	14.440
743.55	12.403
743.86	12.800
744.18	11.570
744.49	10.970
744.80	15.226
745.12	14.768
745.43	13.821
745.74	14.224
746.06	12.712
746.37	10.127
746.68	17.480
747.00	10.833
747.31	9.013
747.62	15.769
747.94	13.765
748.25	9.237
748.56	7.347
748.88	8.974
749.19	15.948
749.50	12.987
749.82	13.253
750.13	13.167
750.44	11.000
750.75	11.692
751.07	12.308
751.38	11.356
751.69	11.502
752.01	13.916
752.32	14.706
752.63	14.626
752.94	13.495
753.26	16.357
753.57	14.815
753.88	13.483
754.19	12.219
754.51	10.611
754.82	15.434
755.13	18.361
755.44	12.287
755.75	14.474
756.07	13.731
756.38	9.748
756.69	15.060
757.00	9.695
757.31	13.115
757.63	13.043
757.94	14.319
758.25	15.124
758.56	13.290
758.87	15.909
759.18	14.933
759.50	13.031
759.81	12.885
760.12	14.286
760.43	14.062
760.74	16.502
761.05	11.500
761.36	11.325
761.67	11.675
761.99	10.270
762.30	11.890
762.61	11.221
762.92	11.940
763.23	13.109
763.54	14.388
763.85	13.402
764.16	15.152
764.47	15.493
764.78	15.016
765.10	13.490
765.41	13.846
765.72	12.698
766.03	12.712
766.34	12.853
766.65	11.498
766.96	12.749
767.27	12.442
767.58	5.970
767.89	18.269
768.20	10.329
768.51	6.944
768.82	13.655
769.13	12.121
769.44	8.462
769.75	12.274
770.06	10.769
770.37	13.780
770.68	6.383
770.99	10.121
771.30	15.926
771.61	12.928
771.92	9.259
772.23	10.526
772.54	8.796
772.85	17.051
773.16	16.190
773.47	10.053
773.78	8.108
774.09	5.114
774.39	21.500
774.70	12.568
775.01	8.537
775.32	4.118
775.63	8.589
775.94	10.828
776.25	12.258
776.56	9.615
776.87	8.844
777.18	13.793
777.48	11.888
777.79	4.054
778.10	0.735
778.41	8.333
778.72	18.621
779.03	9.877
779.34	9.697
779.65	4.145
779.95	7.222
780.26	7.955
780.57	12.258
780.88	14.493
781.19	7.097
781.50	18.235
781.80	13.978
782.11	14.815
782.42	7.576
782.73	4.192
783.04	12.291
783.34	3.636
783.65	1.961
783.96	10.559
784.27	7.143
784.57	6.623
784.88	15.714
785.19	7.874
785.50	7.874
785.81	5.263
786.11	4.615
786.42	4.317
786.73	5.036
787.04	8.271
787.34	3.279
787.65	3.200
787.96	12.687
788.26	13.986
788.57	17.483
788.88	0.658
789.19	7.843
789.49	1.370
789.80	2.128
790.11	9.449
790.41	4.687
790.72	5.932
791.03	-1.942
791.33	5.217
791.64	9.649
791.95	-2.679
792.25	4.762
792.56	8.036
792.87	-2.083
793.17	8.036
793.48	0.000
793.79	-6.024
794.09	0.000
794.40	-3.670
794.70	10.204
795.01	10.390
795.32	2.055
795.62	4.930
795.93	2.273
796.23	5.738
796.54	-3.571
796.85	4.255
797.15	-3.261
797.46	1.370
797.76	-3.750
798.07	3.261
798.37	-10.309
798.68	2.597
798.99	6.897
799.29	0.000
799.60	-1.064
799.90	2.410
800.21	-18.462
800.51	0.000
800.82	10.294
801.12	-13.699
801.43	-7.353
801.73	0.000
802.04	-4.545
802.34	-11.667
802.65	1.695
802.95	4.478
803.26	1.695
803.56	0.000
803.87	-1.429
804.17	8.219
804.48	-15.789
804.78	-5.556
805.09	-1.724
805.39	0.000
805.70	-15.493
806.00	1.220
806.30	-7.229
806.61	-2.740
806.91	10.577
807.22	-4.444
807.52	-8.046
807.83	4.167
808.13	2.410
808.43	1.124
808.74	-7.500
809.04	-14.706
809.35	-10.667
809.65	-2.857
809.95	0.000
810.26	-28.070
810.56	5.172
810.86	5.882
811.17	-5.263
811.47	-24.590
811.77	-40.000
812.08	-13.559
812.38	-8.333
812.69	-8.621
812.99	-30.189
813.29	-41.026
813.59	4.000
813.90	12.281
814.20	-10.909
814.50	8.451
814.81	-5.128
815.11	4.918
815.41	2.985
815.72	6.897
816.02	-8.929
816.32	8.889
816.62	2.273
816.93	-8.889
817.23	-5.556
817.53	-6.383
817.84	0.000
818.14	-29.412
818.44	-4.082
818.74	-22.222
819.04	-38.462
819.35	-11.429
819.65	-69.231
819.95	-9.434
820.25	-15.556
820.56	-19.048
820.86	-40.625
821.16	-12.821
821.46	-32.558
821.76	-36.000
822.07	-5.357
822.37	-23.913
822.67	-19.149
822.97	-27.027
823.27	-20.000
823.57	10.204
823.88	8.889
824.18	-10.000
824.48	-43.333
824.78	-8.000
825.08	0.000
825.38	17.778
825.69	4.255
825.99	-30.556
826.29	-80.000
826.59	-28.205
826.89	-25.581
827.19	0.000
827.49	-8.824
827.79	-10.417
828.09	-37.838
828.39	-50.000
828.70	-19.512
829.00	-9.302
829.30	-14.286
829.60	-41.176
829.90	-2.174
830.20	-37.143
830.50	-31.034
830.80	-94.444
831.10	-69.231
831.40	-20.588
831.70	4.762
832.00	-9.677
832.30	-88.235
832.60	-45.833
832.90	-176.923
833.20	-94.737
833.50	-110.000
833.80	-73.684
834.10	-100.000
834.40	-16.667
834.70	-3.125
835.00	-48.571
835.30	-11.765
835.60	-33.333
835.90	-36.000
836.20	-95.455
836.50	-28.000
836.80	-27.273
837.10	-14.815
837.40	-25.926
837.70	-68.750
838.00	-14.286
838.30	-73.913
838.60	-17.241
838.90	-85.714
839.19	-52.174
839.49	-191.667
839.79	-73.913
840.09	-175.000
840.39	-105.000
840.69	6.452
840.99	-25.000
841.29	-60.000
841.59	-52.632
841.88	5.128
842.18	-30.769
842.48	-40.000
842.78	-60.000
843.08	-3.333
843.38	-29.032
843.68	-77.778
843.97	-35.294
844.27	-93.750
844.57	-57.895
844.87	-150.000
845.17	-53.333
845.47	0.000
845.76	-57.143
846.06	-133.333
846.36	-123.529
846.66	-34.615
846.96	-133.333
847.25	-82.353
847.55	-21.739
847.85	-40.000
848.15	-76.471
848.44	-172.727
848.74	-28.571
849.04	-41.667
849.34	-100.000
849.63	-56.522
849.93	1350.000
850.23	-86.667
850.53	-23.077
850.82	-109.091
851.12	-31.818
851.42	-127.273
851.71	-7.692
852.01	-35.000
852.31	-69.231
852.61	-10.526
852.90	0.000
853.20	-55.556
853.50	-233.333
853.79	-90.476
854.09	-54.545
854.39	-158.333
854.68	-32.258
854.98	-15.385
855.28	-72.222
855.57	-35.714
855.87	-96.000
856.17	-18.182
856.46	11.111
856.76	-105.556
857.05	-60.870
857.35	-83.333
857.65	-115.385
857.94	-33.333
858.24	-11.111
858.53	-39.130
858.83	-64.706
859.13	-70.588
859.42	-76.471
859.72	-21.429
860.01	-60.000
860.31	-100.000
860.60	-110.000
860.90	-100.000
861.20	-33.333
861.49	-76.923
861.79	-3.333
862.08	-138.462
862.38	-15.625
862.67	-29.412
862.97	-100.000
863.26	-255.556
863.56	-90.000
863.85	-45.455
864.15	-44.444
864.44	-400.000
864.74	-42.857
865.03	-43.750
865.33	-80.000
865.62	-32.258
865.92	-22.727
866.21	-17.391
866.51	-64.286
866.80	-480.000
867.10	-125.000
867.39	-150.000
867.69	2200.000
867.98	-71.429
868.27	-11.765
868.57	-1200.000
868.86	-140.000
869.16	-57.143
869.45	-4.167
869.75	-90.909
870.04	-42.857
870.33	-58.333
870.63	-271.429
870.92	-175.000
871.22	-200.000
871.51	-145.455
871.80	-500.000
872.10	-750.000
>>>>>End Processed Spectral Data<<<<<
