SpectraSuite Data File
++++++++++++++++++++++++++++++++++++
Date: Thu May 14 14:35:18 PDT 2015
User: schluterlab
Dark Spectrum Present: Yes
Reference Spectrum Present: Yes
Number of Sampled Component Spectra: 1
Spectrometers: USB2E3373
Integration Time (usec): 3000 (USB2E3373)
Spectra Averaged: 3 (USB2E3373)
Boxcar Smoothing: 0 (USB2E3373)
Correct for Electrical Dark: No (USB2E3373)
Strobe/Lamp Enabled: No (USB2E3373)
Correct for Detector Non-linearity: No (USB2E3373)
Correct for Stray Light: No (USB2E3373)
Number of Pixels in Processed Spectrum: 2048
>>>>>Begin Processed Spectral Data<<<<<
178.53	0.000
178.91	-114.286
179.29	1600.000
179.67	1500.000
180.04	-0.000
180.42	-50.000
180.80	-140.000
181.18	1600.000
181.56	2000.000
181.94	-350.000
182.31	350.000
182.69	-566.667
183.07	1650.000
183.45	-550.000
183.83	283.333
184.20	566.667
184.58	-2000.000
184.96	525.000
185.34	222.222
185.72	400.000
186.09	-88.889
186.47	-700.000
186.85	-180.000
187.23	200.000
187.61	1900.000
187.98	-240.000
188.36	-275.000
188.74	575.000
189.12	433.333
189.49	181.250
189.87	237.500
190.25	200.000
190.63	260.000
191.00	177.778
191.38	0.000
191.76	100.000
192.14	416.667
192.51	-900.000
192.89	233.333
193.27	0.000
193.65	228.571
194.02	300.000
194.40	171.429
194.78	-171.429
195.15	0.000
195.53	190.909
195.91	0.000
196.29	475.000
196.66	176.923
197.04	800.000
197.42	71.429
197.79	800.000
198.17	262.500
198.55	257.143
198.92	244.444
199.30	162.500
199.68	172.727
200.05	142.857
200.43	300.000
200.81	-200.000
201.18	0.000
201.56	-177.778
201.94	0.000
202.31	-533.333
202.69	122.222
203.07	-2100.000
203.44	55.556
203.82	375.000
204.19	175.000
204.57	250.000
204.95	300.000
205.32	2200.000
205.70	-275.000
206.08	200.000
206.45	416.667
206.83	-100.000
207.20	233.333
207.58	220.000
207.96	350.000
208.33	333.333
208.71	-41.667
209.08	583.333
209.46	0.000
209.84	-200.000
210.21	-1050.000
210.59	-750.000
210.96	-300.000
211.34	600.000
211.71	175.000
212.09	1800.000
212.46	0.000
212.84	-300.000
213.22	240.000
213.59	200.000
213.97	200.000
214.34	600.000
214.72	-266.667
215.09	300.000
215.47	0.000
215.84	-228.571
216.22	-500.000
216.59	300.000
216.97	260.000
217.34	550.000
217.72	225.000
218.09	400.000
218.47	375.000
218.84	0.000
219.22	-500.000
219.59	147.059
219.97	155.000
220.34	-950.000
220.72	233.333
221.09	130.769
221.47	733.333
221.84	200.000
222.22	85.714
222.59	0.000
222.97	250.000
223.34	200.000
223.72	1000.000
224.09	525.000
224.46	100.000
224.84	300.000
225.21	214.286
225.59	225.000
225.96	175.000
226.34	69.231
226.71	-133.333
227.08	900.000
227.46	140.000
227.83	450.000
228.21	84.211
228.58	-137.500
228.95	-500.000
229.33	133.333
229.70	190.000
230.08	200.000
230.45	-120.000
230.82	800.000
231.20	157.143
231.57	150.000
231.95	200.000
232.32	190.909
232.69	120.000
233.07	475.000
233.44	170.588
233.81	170.000
234.19	127.778
234.56	81.818
234.93	96.552
235.31	126.316
235.68	105.556
236.05	115.000
236.43	92.308
236.80	132.000
237.17	55.556
237.55	72.727
237.92	70.000
238.29	74.194
238.67	36.364
239.04	66.667
239.41	40.476
239.79	43.478
240.16	40.741
240.53	47.826
240.91	19.608
241.28	44.262
241.65	53.731
242.02	36.486
242.40	29.231
242.77	32.000
243.14	25.610
243.51	23.684
243.89	12.821
244.26	37.624
244.63	29.412
245.00	35.514
245.38	28.947
245.75	23.894
246.12	29.365
246.49	17.054
246.87	27.143
247.24	27.815
247.61	28.947
247.98	25.503
248.36	17.284
248.73	12.883
249.10	21.311
249.47	27.363
249.84	27.225
250.22	19.689
250.59	23.889
250.96	27.273
251.33	17.857
251.70	18.803
252.08	20.000
252.45	14.344
252.82	14.050
253.19	14.844
253.56	20.152
253.94	14.231
254.31	17.803
254.68	23.427
255.05	21.173
255.42	15.986
255.79	15.858
256.16	20.199
256.54	14.901
256.91	19.344
257.28	19.344
257.65	14.650
258.02	17.404
258.39	14.245
258.76	16.514
259.14	17.529
259.51	15.850
259.88	16.997
260.25	17.222
260.62	16.986
260.99	18.033
261.36	17.694
261.73	12.997
262.10	15.934
262.47	14.209
262.85	16.162
263.22	15.325
263.59	11.579
263.96	15.090
264.33	17.903
264.70	18.272
265.07	17.661
265.44	16.553
265.81	14.120
266.18	17.687
266.55	17.411
266.92	12.528
267.29	16.193
267.66	15.743
268.03	12.664
268.40	15.658
268.77	13.440
269.14	15.859
269.51	17.544
269.88	15.574
270.25	14.085
270.62	14.346
270.99	18.990
271.36	16.040
271.73	13.360
272.10	15.431
272.47	14.629
272.84	15.663
273.21	13.828
273.58	18.750
273.95	16.923
274.32	12.357
274.69	14.700
275.06	15.934
275.43	12.015
275.80	14.286
276.17	14.074
276.54	14.179
276.91	13.953
277.28	15.732
277.65	15.260
278.02	15.257
278.39	13.949
278.76	16.169
279.13	14.716
279.50	15.636
279.87	15.564
280.23	11.620
280.60	17.966
280.97	15.954
281.34	14.261
281.71	14.382
282.08	12.957
282.45	13.093
282.82	13.501
283.19	12.439
283.56	13.607
283.92	13.363
284.29	15.482
284.66	13.300
285.03	12.340
285.40	14.374
285.77	12.848
286.14	13.893
286.51	13.851
286.87	13.270
287.24	14.608
287.61	13.453
287.98	12.538
288.35	13.757
288.72	12.722
289.08	12.299
289.45	11.834
289.82	11.898
290.19	12.644
290.56	13.099
290.93	13.552
291.29	12.810
291.66	11.433
292.03	10.991
292.40	15.510
292.77	11.725
293.13	13.126
293.50	11.301
293.87	11.946
294.24	13.733
294.60	15.044
294.97	11.409
295.34	12.676
295.71	12.484
296.08	12.403
296.44	12.745
296.81	11.449
297.18	11.831
297.55	12.028
297.91	12.218
298.28	10.900
298.65	12.723
299.02	11.334
299.38	11.670
299.75	11.449
300.12	10.764
300.48	11.521
300.85	13.273
301.22	12.192
301.59	11.301
301.95	12.090
302.32	11.778
302.69	11.720
303.05	10.990
303.42	10.754
303.79	12.396
304.15	10.620
304.52	11.416
304.89	12.042
305.25	11.284
305.62	11.599
305.99	11.856
306.35	10.887
306.72	11.996
307.09	11.472
307.45	12.112
307.82	10.696
308.19	11.504
308.55	12.247
308.92	11.003
309.29	11.973
309.65	11.501
310.02	12.079
310.38	11.417
310.75	10.388
311.12	12.656
311.48	11.535
311.85	12.536
312.22	11.860
312.58	11.831
312.95	12.141
313.31	11.743
313.68	12.637
314.05	12.918
314.41	13.115
314.78	13.170
315.14	13.612
315.51	13.389
315.87	13.681
316.24	13.151
316.61	13.410
316.97	12.398
317.34	12.698
317.70	14.061
318.07	13.668
318.43	13.605
318.80	14.799
319.16	12.961
319.53	13.539
319.89	12.095
320.26	14.235
320.62	13.652
320.99	14.404
321.35	13.401
321.72	15.349
322.08	13.616
322.45	14.273
322.81	14.531
323.18	13.628
323.54	14.397
323.91	15.658
324.27	14.802
324.64	14.777
325.00	13.765
325.37	14.824
325.73	14.050
326.10	14.842
326.46	16.124
326.83	15.532
327.19	15.354
327.56	15.889
327.92	14.870
328.29	14.839
328.65	14.573
329.01	15.144
329.38	15.249
329.74	16.610
330.11	15.839
330.47	15.417
330.84	15.332
331.20	16.333
331.56	15.685
331.93	16.318
332.29	15.254
332.66	17.110
333.02	15.745
333.38	15.352
333.75	16.414
334.11	15.763
334.48	15.924
334.84	16.822
335.20	15.869
335.57	15.683
335.93	15.785
336.29	14.892
336.66	15.307
337.02	16.472
337.38	15.901
337.75	14.793
338.11	14.718
338.47	16.046
338.84	14.805
339.20	14.575
339.56	15.239
339.93	14.943
340.29	14.895
340.65	14.517
341.02	16.121
341.38	15.926
341.74	15.254
342.11	14.562
342.47	15.091
342.83	15.700
343.20	15.290
343.56	15.638
343.92	15.612
344.28	15.469
344.65	15.194
345.01	16.225
345.37	15.086
345.73	14.419
346.10	15.523
346.46	14.873
346.82	15.506
347.19	14.668
347.55	14.947
347.91	15.082
348.27	14.188
348.63	15.613
349.00	15.213
349.36	16.059
349.72	14.881
350.08	14.933
350.45	15.665
350.81	14.253
351.17	14.812
351.53	14.329
351.89	14.427
352.26	14.776
352.62	14.254
352.98	15.038
353.34	13.742
353.70	14.869
354.07	16.170
354.43	15.793
354.79	13.987
355.15	14.717
355.51	16.594
355.87	14.959
356.24	14.677
356.60	14.930
356.96	15.122
357.32	13.234
357.68	14.495
358.04	14.746
358.40	14.030
358.77	14.839
359.13	14.106
359.49	14.201
359.85	14.141
360.21	14.778
360.57	13.281
360.93	14.669
361.29	14.456
361.66	14.844
362.02	16.145
362.38	15.039
362.74	14.246
363.10	14.649
363.46	14.612
363.82	14.489
364.18	14.708
364.54	14.315
364.90	14.381
365.26	13.448
365.62	15.600
365.98	14.704
366.35	14.698
366.71	15.034
367.07	14.479
367.43	14.642
367.79	14.599
368.15	15.920
368.51	15.020
368.87	14.435
369.23	13.600
369.59	15.027
369.95	14.807
370.31	14.990
370.67	14.374
371.03	15.235
371.39	14.372
371.75	14.443
372.11	14.905
372.47	14.827
372.83	15.118
373.19	14.410
373.55	15.244
373.91	14.451
374.27	14.748
374.63	14.682
374.99	14.655
375.35	15.000
375.71	15.226
376.07	15.429
376.42	14.736
376.78	14.978
377.14	15.471
377.50	14.674
377.86	15.640
378.22	15.090
378.58	15.042
378.94	15.258
379.30	15.290
379.66	15.050
380.02	15.580
380.38	14.574
380.74	15.944
381.09	16.144
381.45	15.398
381.81	15.925
382.17	15.202
382.53	15.731
382.89	15.688
383.25	14.713
383.61	15.336
383.97	15.548
384.32	15.730
384.68	14.385
385.04	15.674
385.40	16.205
385.76	15.651
386.12	16.158
386.48	16.353
386.83	15.673
387.19	15.817
387.55	15.493
387.91	15.696
388.27	16.339
388.62	14.948
388.98	15.510
389.34	15.321
389.70	16.618
390.06	16.282
390.42	15.843
390.77	17.339
391.13	15.728
391.49	17.150
391.85	16.061
392.20	17.260
392.56	16.539
392.92	16.467
393.28	17.137
393.64	16.536
393.99	15.340
394.35	16.472
394.71	16.886
395.07	16.707
395.42	16.619
395.78	17.489
396.14	16.637
396.50	15.736
396.85	17.710
397.21	16.450
397.57	16.078
397.92	16.438
398.28	15.970
398.64	15.618
399.00	16.126
399.35	15.759
399.71	15.652
400.07	16.564
400.42	16.240
400.78	16.319
401.14	16.961
401.49	15.975
401.85	16.860
402.21	16.512
402.57	16.960
402.92	16.667
403.28	16.452
403.63	16.110
403.99	17.755
404.35	16.373
404.70	16.487
405.06	16.848
405.42	16.511
405.77	16.848
406.13	16.856
406.49	16.160
406.84	17.341
407.20	15.819
407.55	16.657
407.91	16.279
408.27	16.196
408.62	16.347
408.98	16.947
409.34	15.660
409.69	15.884
410.05	17.292
410.40	16.067
410.76	17.050
411.11	17.241
411.47	17.138
411.83	17.637
412.18	16.687
412.54	17.250
412.89	17.055
413.25	17.325
413.60	15.968
413.96	15.967
414.31	16.317
414.67	16.518
415.03	16.738
415.38	17.087
415.74	16.677
416.09	17.212
416.45	16.155
416.80	16.585
417.16	16.220
417.51	16.438
417.87	17.106
418.22	15.509
418.58	16.481
418.93	17.346
419.29	16.461
419.64	17.287
420.00	16.320
420.35	16.283
420.71	17.117
421.06	16.561
421.42	16.571
421.77	16.101
422.12	16.068
422.48	15.310
422.83	16.977
423.19	16.127
423.54	16.427
423.90	16.289
424.25	17.280
424.61	16.648
424.96	16.859
425.31	17.144
425.67	16.318
426.02	16.325
426.38	16.131
426.73	17.076
427.09	17.935
427.44	16.931
427.79	16.252
428.15	16.495
428.50	15.955
428.85	16.762
429.21	17.500
429.56	15.893
429.92	16.511
430.27	16.482
430.62	16.805
430.98	16.576
431.33	16.178
431.68	16.044
432.04	16.760
432.39	17.461
432.74	17.180
433.10	17.307
433.45	16.722
433.80	17.006
434.16	16.736
434.51	16.495
434.86	16.558
435.22	16.206
435.57	16.804
435.92	16.472
436.28	16.780
436.63	16.931
436.98	16.747
437.34	17.024
437.69	17.171
438.04	16.341
438.39	16.427
438.75	16.325
439.10	16.755
439.45	17.049
439.81	16.949
440.16	17.265
440.51	17.168
440.86	17.121
441.22	17.631
441.57	17.296
441.92	16.974
442.27	17.323
442.63	16.741
442.98	17.076
443.33	17.096
443.68	17.592
444.03	17.404
444.39	16.967
444.74	16.794
445.09	17.283
445.44	17.597
445.79	17.481
446.15	17.883
446.50	17.261
446.85	17.607
447.20	17.311
447.55	17.678
447.91	17.644
448.26	16.913
448.61	17.428
448.96	18.026
449.31	17.126
449.66	16.721
450.02	17.563
450.37	17.848
450.72	17.223
451.07	18.280
451.42	17.620
451.77	17.176
452.12	17.212
452.47	16.696
452.83	17.511
453.18	17.455
453.53	17.231
453.88	17.394
454.23	16.780
454.58	17.295
454.93	17.051
455.28	17.760
455.63	18.078
455.98	17.374
456.34	16.784
456.69	17.166
457.04	17.376
457.39	17.239
457.74	17.953
458.09	16.859
458.44	17.026
458.79	17.225
459.14	16.938
459.49	17.600
459.84	17.261
460.19	16.768
460.54	17.433
460.89	17.575
461.24	16.264
461.59	17.598
461.94	17.342
462.29	16.573
462.64	17.441
462.99	17.514
463.34	18.040
463.69	17.175
464.04	18.288
464.39	17.489
464.74	17.218
465.09	17.359
465.44	17.972
465.79	17.663
466.14	16.832
466.49	17.105
466.84	16.860
467.19	17.225
467.54	16.980
467.89	17.241
468.24	17.507
468.59	17.603
468.94	16.550
469.29	17.157
469.64	17.419
469.99	17.400
470.34	17.512
470.68	17.977
471.03	18.206
471.38	17.201
471.73	16.710
472.08	17.449
472.43	16.918
472.78	17.758
473.13	16.625
473.48	17.644
473.83	18.282
474.17	16.999
474.52	17.980
474.87	16.944
475.22	17.070
475.57	17.186
475.92	16.824
476.27	17.625
476.61	17.082
476.96	16.163
477.31	17.030
477.66	17.576
478.01	17.031
478.36	17.498
478.70	16.798
479.05	17.485
479.40	17.423
479.75	16.859
480.10	16.959
480.45	17.001
480.79	17.188
481.14	16.314
481.49	17.310
481.84	17.581
482.19	16.774
482.53	16.922
482.88	17.102
483.23	16.452
483.58	17.118
483.92	16.800
484.27	17.146
484.62	16.460
484.97	17.068
485.31	16.719
485.66	16.554
486.01	16.657
486.36	16.149
486.70	16.635
487.05	16.878
487.40	17.135
487.75	17.277
488.09	17.554
488.44	17.016
488.79	17.268
489.13	18.067
489.48	16.427
489.83	16.579
490.17	16.565
490.52	16.544
490.87	16.751
491.22	16.594
491.56	16.340
491.91	17.008
492.26	17.049
492.60	16.484
492.95	16.806
493.30	15.823
493.64	16.557
493.99	16.096
494.34	16.159
494.68	16.017
495.03	16.960
495.37	16.378
495.72	16.871
496.07	16.652
496.41	16.602
496.76	17.306
497.11	16.391
497.45	15.969
497.80	16.526
498.14	16.372
498.49	16.728
498.84	16.819
499.18	16.374
499.53	17.175
499.87	16.308
500.22	16.028
500.56	15.565
500.91	16.293
501.26	16.955
501.60	15.687
501.95	16.934
502.29	16.762
502.64	16.266
502.98	16.393
503.33	16.674
503.67	16.005
504.02	16.243
504.36	17.650
504.71	16.858
505.06	16.735
505.40	16.042
505.75	17.304
506.09	16.022
506.44	16.899
506.78	16.835
507.13	16.782
507.47	17.006
507.82	16.761
508.16	16.444
508.51	16.831
508.85	15.966
509.19	16.248
509.54	16.859
509.88	16.124
510.23	17.241
510.57	16.916
510.92	16.691
511.26	16.114
511.61	16.659
511.95	16.545
512.30	16.987
512.64	15.992
512.98	15.758
513.33	17.137
513.67	16.777
514.02	16.198
514.36	16.777
514.70	17.187
515.05	16.736
515.39	16.588
515.74	17.285
516.08	17.116
516.42	16.693
516.77	17.192
517.11	16.400
517.46	17.126
517.80	16.462
518.14	16.812
518.49	17.354
518.83	16.285
519.17	16.263
519.52	16.562
519.86	16.420
520.20	16.720
520.55	16.758
520.89	16.160
521.23	16.136
521.58	16.441
521.92	16.941
522.26	16.552
522.61	16.204
522.95	16.436
523.29	16.379
523.64	16.368
523.98	17.342
524.32	17.421
524.66	16.790
525.01	15.345
525.35	15.968
525.69	15.777
526.04	16.073
526.38	16.437
526.72	16.782
527.06	15.836
527.41	16.385
527.75	17.162
528.09	16.411
528.43	16.163
528.78	16.821
529.12	16.456
529.46	16.470
529.80	16.876
530.15	16.754
530.49	15.836
530.83	16.824
531.17	16.487
531.51	15.584
531.86	17.127
532.20	16.402
532.54	16.457
532.88	16.909
533.22	16.853
533.57	16.849
533.91	17.116
534.25	16.280
534.59	16.207
534.93	16.638
535.27	16.451
535.62	17.567
535.96	17.432
536.30	16.510
536.64	17.117
536.98	17.097
537.32	17.469
537.66	17.467
538.01	15.650
538.35	16.687
538.69	16.587
539.03	16.309
539.37	17.138
539.71	16.577
540.05	16.427
540.39	16.137
540.73	16.393
541.07	16.677
541.42	16.361
541.76	16.726
542.10	16.526
542.44	16.382
542.78	16.849
543.12	16.925
543.46	16.911
543.80	15.887
544.14	16.338
544.48	16.962
544.82	17.175
545.16	16.100
545.50	16.297
545.84	16.840
546.18	17.531
546.52	16.688
546.86	17.296
547.20	16.603
547.54	15.730
547.88	16.034
548.22	16.140
548.56	17.145
548.90	16.119
549.24	16.717
549.58	15.142
549.92	16.071
550.26	16.828
550.60	17.039
550.94	16.559
551.28	17.228
551.62	17.588
551.96	15.858
552.30	17.527
552.64	17.362
552.98	17.592
553.32	17.106
553.66	17.042
554.00	16.646
554.34	17.117
554.68	16.850
555.02	16.951
555.36	17.094
555.69	16.208
556.03	15.763
556.37	17.459
556.71	16.994
557.05	16.613
557.39	17.253
557.73	16.050
558.07	16.623
558.41	16.478
558.75	16.498
559.08	16.841
559.42	16.187
559.76	17.028
560.10	16.477
560.44	17.084
560.78	17.438
561.12	16.379
561.45	16.667
561.79	16.606
562.13	16.451
562.47	16.153
562.81	16.392
563.15	16.162
563.48	16.843
563.82	16.566
564.16	15.930
564.50	16.985
564.84	16.401
565.17	16.176
565.51	16.053
565.85	16.805
566.19	16.417
566.52	16.325
566.86	17.204
567.20	16.313
567.54	16.569
567.88	16.310
568.21	16.749
568.55	16.595
568.89	17.249
569.23	17.153
569.56	15.983
569.90	16.358
570.24	16.762
570.57	16.325
570.91	16.289
571.25	16.199
571.59	17.256
571.92	16.098
572.26	16.570
572.60	16.844
572.93	16.616
573.27	16.353
573.61	16.596
573.95	17.019
574.28	16.632
574.62	16.758
574.96	16.652
575.29	16.501
575.63	16.239
575.97	16.862
576.30	16.556
576.64	16.535
576.98	16.606
577.31	16.689
577.65	16.447
577.98	16.717
578.32	16.345
578.66	16.434
578.99	16.691
579.33	16.696
579.67	16.931
580.00	16.678
580.34	16.732
580.67	17.145
581.01	16.616
581.35	16.560
581.68	16.806
582.02	16.645
582.35	16.557
582.69	16.490
583.02	16.614
583.36	16.841
583.70	17.132
584.03	17.231
584.37	16.588
584.70	16.993
585.04	16.136
585.37	16.902
585.71	16.828
586.04	16.446
586.38	16.713
586.72	16.220
587.05	16.270
587.39	16.305
587.72	16.507
588.06	16.489
588.39	16.530
588.73	16.772
589.06	16.648
589.40	16.779
589.73	16.388
590.07	17.142
590.40	17.275
590.73	16.861
591.07	16.828
591.40	16.446
591.74	16.176
592.07	17.215
592.41	16.995
592.74	15.584
593.08	17.102
593.41	16.535
593.75	16.810
594.08	16.298
594.41	16.538
594.75	16.639
595.08	16.353
595.42	16.494
595.75	16.790
596.09	17.011
596.42	16.517
596.75	17.445
597.09	16.848
597.42	16.567
597.75	16.464
598.09	16.905
598.42	17.209
598.76	16.507
599.09	16.412
599.42	15.857
599.76	16.243
600.09	16.517
600.42	16.717
600.76	16.380
601.09	16.031
601.42	16.684
601.76	16.724
602.09	16.226
602.42	16.358
602.76	17.085
603.09	16.557
603.42	16.835
603.76	15.927
604.09	17.069
604.42	16.771
604.76	16.400
605.09	17.232
605.42	16.268
605.75	16.385
606.09	16.349
606.42	16.016
606.75	16.004
607.09	16.398
607.42	16.455
607.75	16.882
608.08	16.377
608.42	16.405
608.75	17.081
609.08	15.450
609.41	16.939
609.75	16.205
610.08	16.491
610.41	16.653
610.74	16.092
611.07	16.829
611.41	17.309
611.74	17.367
612.07	16.223
612.40	16.350
612.73	16.968
613.07	16.430
613.40	17.036
613.73	16.466
614.06	16.389
614.39	16.472
614.72	16.206
615.06	16.458
615.39	15.660
615.72	16.682
616.05	16.076
616.38	16.801
616.71	16.510
617.05	15.389
617.38	17.121
617.71	16.577
618.04	16.298
618.37	17.158
618.70	17.025
619.03	15.890
619.36	16.030
619.69	16.400
620.03	16.698
620.36	16.196
620.69	15.731
621.02	15.748
621.35	17.344
621.68	17.209
622.01	17.011
622.34	16.179
622.67	15.670
623.00	15.317
623.33	16.523
623.66	17.380
623.99	16.129
624.32	17.284
624.65	15.894
624.99	15.605
625.32	16.852
625.65	16.723
625.98	16.610
626.31	16.442
626.64	16.264
626.97	15.829
627.30	16.401
627.63	16.879
627.96	16.667
628.29	17.899
628.62	15.365
628.95	16.564
629.28	16.143
629.61	16.414
629.94	14.895
630.26	15.000
630.59	16.149
630.92	16.797
631.25	15.474
631.58	16.102
631.91	15.558
632.24	16.619
632.57	15.655
632.90	17.452
633.23	16.224
633.56	17.551
633.89	14.876
634.22	16.528
634.55	16.284
634.88	16.342
635.20	16.900
635.53	15.706
635.86	16.468
636.19	17.603
636.52	15.928
636.85	16.650
637.18	16.840
637.51	16.344
637.83	16.944
638.16	17.512
638.49	16.315
638.82	16.685
639.15	15.922
639.48	16.859
639.81	16.744
640.13	18.610
640.46	15.394
640.79	16.544
641.12	16.273
641.45	15.684
641.77	17.715
642.10	17.585
642.43	16.888
642.76	15.312
643.09	16.027
643.41	15.546
643.74	16.966
644.07	18.483
644.40	15.983
644.73	16.691
645.05	15.272
645.38	16.978
645.71	17.889
646.04	16.930
646.36	15.766
646.69	17.331
647.02	16.667
647.35	18.321
647.67	18.035
648.00	17.197
648.33	18.168
648.66	15.407
648.98	15.782
649.31	16.238
649.64	19.124
649.96	16.446
650.29	14.882
650.62	16.973
650.94	15.766
651.27	17.665
651.60	16.082
651.92	15.805
652.25	16.932
652.58	15.818
652.90	15.843
653.23	17.746
653.56	15.692
653.88	16.854
654.21	18.592
654.54	16.185
654.86	17.422
655.19	15.433
655.52	15.243
655.84	14.098
656.17	17.864
656.49	25.855
656.82	29.227
657.15	23.256
657.47	17.717
657.80	13.299
658.13	10.584
658.45	14.163
658.78	17.601
659.10	18.033
659.43	19.060
659.75	18.606
660.08	18.880
660.41	18.693
660.73	18.586
661.06	17.621
661.38	16.108
661.71	17.069
662.03	16.755
662.36	17.352
662.68	17.261
663.01	17.168
663.33	19.282
663.66	18.315
663.98	16.346
664.31	16.135
664.63	13.102
664.96	17.604
665.28	15.789
665.61	19.580
665.93	15.536
666.26	17.025
666.58	16.052
666.91	19.252
667.23	18.286
667.56	18.146
667.88	20.600
668.21	16.406
668.53	15.058
668.86	18.075
669.18	15.886
669.50	20.477
669.83	15.800
670.15	18.307
670.48	19.444
670.80	15.679
671.13	16.068
671.45	16.929
671.77	17.891
672.10	14.667
672.42	14.401
672.75	15.515
673.07	17.463
673.39	16.179
673.72	17.953
674.04	17.586
674.37	16.816
674.69	18.166
675.01	14.667
675.34	17.939
675.66	14.607
675.98	17.164
676.31	18.555
676.63	20.152
676.95	17.050
677.28	18.750
677.60	16.535
677.92	18.618
678.25	17.733
678.57	17.616
678.89	18.601
679.22	14.460
679.54	17.436
679.86	13.729
680.18	16.750
680.51	16.824
680.83	15.057
681.15	16.379
681.48	17.789
681.80	15.717
682.12	16.608
682.44	18.364
682.77	17.376
683.09	18.561
683.41	17.829
683.73	16.509
684.06	17.159
684.38	15.564
684.70	16.338
685.02	17.212
685.34	15.474
685.67	13.091
685.99	16.411
686.31	16.134
686.63	17.220
686.96	17.981
687.28	18.241
687.60	14.646
687.92	16.399
688.24	19.699
688.56	16.207
688.89	15.971
689.21	17.613
689.53	16.471
689.85	17.751
690.17	17.963
690.49	18.725
690.82	18.416
691.14	13.968
691.46	17.973
691.78	17.680
692.10	17.615
692.42	14.107
692.74	15.608
693.06	14.444
693.39	17.837
693.71	18.045
694.03	16.357
694.35	18.476
694.67	17.043
694.99	17.021
695.31	14.570
695.63	19.697
695.95	18.012
696.27	16.264
696.59	20.133
696.91	15.991
697.23	17.143
697.56	17.923
697.88	14.962
698.20	15.819
698.52	17.803
698.84	16.008
699.16	17.959
699.48	17.155
699.80	17.660
700.12	19.869
700.44	17.281
700.76	19.715
701.08	19.128
701.40	15.544
701.72	19.154
702.04	17.914
702.36	15.969
702.68	16.381
703.00	15.159
703.32	19.212
703.64	15.648
703.96	16.229
704.28	17.445
704.60	18.228
704.91	19.388
705.23	20.548
705.55	15.599
705.87	20.303
706.19	21.472
706.51	13.855
706.83	16.715
707.15	15.608
707.47	15.187
707.79	16.376
708.11	14.195
708.43	16.989
708.74	14.955
709.06	18.097
709.38	17.371
709.70	20.596
710.02	18.088
710.34	18.351
710.66	14.804
710.98	17.486
711.29	14.560
711.61	18.079
711.93	19.088
712.25	16.486
712.57	21.829
712.89	19.412
713.20	16.568
713.52	19.364
713.84	19.220
714.16	22.632
714.48	19.330
714.80	20.779
715.11	17.060
715.43	19.894
715.75	18.684
716.07	19.061
716.39	19.399
716.70	18.373
717.02	18.033
717.34	16.725
717.66	20.470
717.97	18.151
718.29	17.526
718.61	17.105
718.93	18.123
719.24	17.081
719.56	19.632
719.88	18.018
720.20	18.387
720.51	21.118
720.83	16.250
721.15	15.461
721.46	17.808
721.78	19.333
722.10	17.152
722.42	17.785
722.73	18.387
723.05	21.053
723.37	19.792
723.68	21.505
724.00	19.495
724.32	15.845
724.63	21.329
724.95	20.922
725.27	17.770
725.58	18.728
725.90	18.966
726.22	16.928
726.53	16.234
726.85	19.811
727.16	21.450
727.48	21.101
727.80	22.185
728.11	19.435
728.43	21.886
728.74	17.057
729.06	15.894
729.38	16.558
729.69	18.456
730.01	17.857
730.32	16.667
730.64	22.013
730.96	19.565
731.27	21.508
731.59	22.253
731.90	14.805
732.22	17.969
732.53	13.812
732.85	16.857
733.16	14.663
733.48	16.768
733.80	18.663
734.11	19.943
734.43	15.676
734.74	18.987
735.06	17.839
735.37	18.108
735.69	14.595
736.00	17.514
736.32	18.059
736.63	19.722
736.95	16.954
737.26	21.212
737.58	16.364
737.89	19.412
738.21	15.596
738.52	19.344
738.83	19.113
739.15	15.248
739.46	22.449
739.78	20.245
740.09	18.052
740.41	20.991
740.72	19.000
741.04	21.359
741.35	20.000
741.66	18.431
741.98	21.721
742.29	21.339
742.61	21.491
742.92	17.692
743.23	20.578
743.55	21.318
743.86	19.200
744.18	13.223
744.49	18.143
744.80	19.342
745.12	18.987
745.43	21.545
745.74	21.552
746.06	21.186
746.37	24.895
746.68	23.577
747.00	20.000
747.31	19.313
747.62	22.308
747.94	20.243
748.25	16.867
748.56	17.959
748.88	14.957
749.19	20.259
749.50	19.048
749.82	23.695
750.13	17.082
750.44	15.333
750.75	16.308
751.07	18.462
751.38	17.981
751.69	19.489
752.01	18.123
752.32	20.588
752.63	18.367
752.94	17.301
753.26	17.472
753.57	14.444
753.88	14.981
754.19	18.971
754.51	19.293
754.82	20.900
755.13	23.279
755.44	18.089
755.75	18.750
756.07	19.701
756.38	18.868
756.69	18.675
757.00	14.681
757.31	16.667
757.63	16.368
757.94	17.840
758.25	19.413
758.56	17.211
758.87	19.318
759.18	18.400
759.50	20.680
759.81	17.647
760.12	19.407
760.43	17.969
760.74	17.488
761.05	17.000
761.36	16.145
761.67	15.736
761.99	19.189
762.30	16.768
762.61	16.502
762.92	14.925
763.23	19.476
763.54	18.345
763.85	17.182
764.16	18.855
764.47	19.366
764.78	21.086
765.10	16.422
765.41	17.949
765.72	14.286
766.03	19.774
766.34	15.361
766.65	15.679
766.96	20.319
767.27	19.816
767.58	19.900
767.89	22.596
768.20	22.066
768.51	22.685
768.82	18.072
769.13	20.076
769.44	15.769
769.75	19.856
770.06	19.231
770.37	23.622
770.68	15.745
770.99	13.360
771.30	22.222
771.61	18.251
771.92	17.037
772.23	21.862
772.54	17.593
772.85	25.346
773.16	22.857
773.47	17.460
773.78	14.595
774.09	23.295
774.39	29.000
774.70	24.590
775.01	24.390
775.32	18.235
775.63	23.313
775.94	17.834
776.25	23.871
776.56	31.410
776.87	23.810
777.18	20.690
777.48	22.378
777.79	19.595
778.10	16.912
778.41	22.222
778.72	24.828
779.03	21.605
779.34	24.848
779.65	23.834
779.95	28.333
780.26	23.295
780.57	25.806
780.88	33.333
781.19	29.032
781.50	27.647
781.80	26.344
782.11	24.868
782.42	16.667
782.73	22.754
783.04	24.022
783.34	16.364
783.65	16.993
783.96	21.118
784.27	20.833
784.57	25.828
784.88	16.429
785.19	24.409
785.50	29.134
785.81	22.556
786.11	30.000
786.42	18.705
786.73	20.144
787.04	30.827
787.34	21.311
787.65	20.800
787.96	26.119
788.26	35.664
788.57	30.769
788.88	19.079
789.19	20.915
789.49	23.288
789.80	31.206
790.11	34.646
790.41	40.625
790.72	25.424
791.03	20.388
791.33	32.174
791.64	35.965
791.95	23.214
792.25	28.571
792.56	29.464
792.87	31.250
793.17	33.036
793.48	23.958
793.79	28.916
794.09	22.936
794.40	25.688
794.70	25.170
795.01	27.922
795.32	26.027
795.62	23.944
795.93	27.273
796.23	24.590
796.54	25.000
796.85	27.660
797.15	28.261
797.46	32.877
797.76	38.750
798.07	27.174
798.37	20.619
798.68	27.273
798.99	36.782
799.29	19.101
799.60	28.723
799.90	32.530
800.21	35.385
800.51	29.851
800.82	33.824
801.12	26.027
801.43	14.706
801.73	27.119
802.04	36.364
802.34	20.000
802.65	44.068
802.95	34.328
803.26	40.678
803.56	35.616
803.87	38.571
804.17	42.466
804.48	19.298
804.78	29.167
805.09	29.310
805.39	48.649
805.70	18.310
806.00	32.927
806.30	34.940
806.61	26.027
806.91	31.731
807.22	34.444
807.52	31.034
807.83	45.833
808.13	40.964
808.43	42.697
808.74	26.250
809.04	26.471
809.35	42.667
809.65	41.429
809.95	32.877
810.26	42.105
810.56	39.655
810.86	38.235
811.17	38.596
811.47	22.951
811.77	35.556
812.08	30.508
812.38	45.000
812.69	44.828
812.99	30.189
813.29	35.897
813.59	58.000
813.90	33.333
814.20	23.636
814.50	54.930
814.81	30.769
815.11	52.459
815.41	37.313
815.72	44.828
816.02	35.714
816.32	66.667
816.62	65.909
816.93	48.889
817.23	48.148
817.53	31.915
817.84	50.000
818.14	76.471
818.44	38.776
818.74	53.333
819.04	20.513
819.35	37.143
819.65	50.000
819.95	45.283
820.25	42.222
820.56	50.000
820.86	53.125
821.16	43.590
821.46	37.209
821.76	10.000
822.07	39.286
822.37	52.174
822.67	29.787
822.97	40.541
823.27	67.500
823.57	57.143
823.88	80.000
824.18	72.500
824.48	70.000
824.78	60.000
825.08	72.727
825.38	66.667
825.69	51.064
825.99	30.556
826.29	34.286
826.59	46.154
826.89	32.558
827.19	46.000
827.49	58.824
827.79	64.583
828.09	35.135
828.39	53.333
828.70	39.024
829.00	34.884
829.30	60.714
829.60	58.824
829.90	52.174
830.20	57.143
830.50	58.621
830.80	83.333
831.10	88.462
831.40	70.588
831.70	85.714
832.00	74.194
832.30	70.588
832.60	29.167
832.90	92.308
833.20	84.211
833.50	135.000
833.80	89.474
834.10	47.619
834.40	47.222
834.70	65.625
835.00	42.857
835.30	61.765
835.60	46.667
835.90	100.000
836.20	27.273
836.50	80.000
836.80	45.455
837.10	81.481
837.40	74.074
837.70	25.000
838.00	85.714
838.30	69.565
838.60	68.966
838.90	100.000
839.19	65.217
839.49	33.333
839.79	78.261
840.09	68.750
840.39	130.000
840.69	67.742
840.99	39.286
841.29	180.000
841.59	126.316
841.88	56.410
842.18	50.000
842.48	160.000
842.78	120.000
843.08	53.333
843.38	87.097
843.68	66.667
843.97	76.471
844.27	125.000
844.57	52.632
844.87	160.000
845.17	126.667
845.47	123.810
845.76	76.190
846.06	111.111
846.36	76.471
846.66	73.077
846.96	93.333
847.25	129.412
847.55	156.522
847.85	70.000
848.15	94.118
848.44	127.273
848.74	123.810
849.04	58.333
849.34	100.000
849.63	104.348
849.93	-700.000
850.23	153.333
850.53	103.846
850.82	72.727
851.12	127.273
851.42	200.000
851.71	176.923
852.01	90.000
852.31	53.846
852.61	105.263
852.90	141.667
853.20	155.556
853.50	88.889
853.79	47.619
854.09	63.636
854.39	141.667
854.68	61.290
854.98	88.462
855.28	122.222
855.57	71.429
855.87	60.000
856.17	54.545
856.46	111.111
856.76	61.111
857.05	60.870
857.35	58.333
857.65	107.692
857.94	123.810
858.24	81.481
858.53	91.304
858.83	129.412
859.13	129.412
859.42	152.941
859.72	185.714
860.01	125.000
860.31	188.889
860.60	210.000
860.90	133.333
861.20	66.667
861.49	130.769
861.79	60.000
862.08	100.000
862.38	93.750
862.67	158.824
862.97	143.750
863.26	222.222
863.56	260.000
863.85	163.636
864.15	138.889
864.44	766.667
864.74	107.143
865.03	75.000
865.33	70.000
865.62	51.613
865.92	118.182
866.21	100.000
866.51	157.143
866.80	140.000
867.10	100.000
867.39	125.000
867.69	-700.000
867.98	185.714
868.27	94.118
868.57	600.000
868.86	60.000
869.16	90.476
869.45	62.500
869.75	227.273
870.04	300.000
870.33	191.667
870.63	85.714
870.92	325.000
871.22	125.000
871.51	218.182
871.80	400.000
872.10	800.000
>>>>>End Processed Spectral Data<<<<<
