SpectraSuite Data File
++++++++++++++++++++++++++++++++++++
Date: Thu May 14 14:59:34 PDT 2015
User: schluterlab
Dark Spectrum Present: Yes
Reference Spectrum Present: Yes
Number of Sampled Component Spectra: 1
Spectrometers: USB2E3373
Integration Time (usec): 3000 (USB2E3373)
Spectra Averaged: 3 (USB2E3373)
Boxcar Smoothing: 0 (USB2E3373)
Correct for Electrical Dark: No (USB2E3373)
Strobe/Lamp Enabled: No (USB2E3373)
Correct for Detector Non-linearity: No (USB2E3373)
Correct for Stray Light: No (USB2E3373)
Number of Pixels in Processed Spectrum: 2048
>>>>>Begin Processed Spectral Data<<<<<
178.53	0.000
178.91	385.714
179.29	-2900.000
179.67	-2800.000
180.04	278.571
180.42	170.000
180.80	480.000
181.18	-2800.000
181.56	-1800.000
181.94	700.000
182.31	-450.000
182.69	666.667
183.07	-750.000
183.45	600.000
183.83	-100.000
184.20	-533.333
184.58	2300.000
184.96	-675.000
185.34	-244.444
185.72	-320.000
186.09	266.667
186.47	1350.000
186.85	600.000
187.23	-244.444
187.61	-2900.000
187.98	360.000
188.36	525.000
188.74	-500.000
189.12	-500.000
189.49	-87.500
189.87	-287.500
190.25	-300.000
190.63	-400.000
191.00	-244.444
191.38	0.000
191.76	-675.000
192.14	-433.333
192.51	1350.000
192.89	-250.000
193.27	0.000
193.65	-328.571
194.02	-3000.000
194.40	-385.714
194.78	300.000
195.15	0.000
195.53	-281.818
195.91	0.000
196.29	-325.000
196.66	-130.769
197.04	-2300.000
197.42	-300.000
197.79	-850.000
198.17	-237.500
198.55	-314.286
198.92	-188.889
199.30	-312.500
199.68	-181.818
200.05	-107.143
200.43	-1300.000
200.81	457.143
201.18	0.000
201.56	344.444
201.94	0.000
202.31	1000.000
202.69	-311.111
203.07	2500.000
203.44	-177.778
203.82	-675.000
204.19	-175.000
204.57	-433.333
204.95	-350.000
205.32	-2000.000
205.70	525.000
206.08	-350.000
206.45	-316.667
206.83	340.000
207.20	-266.667
207.58	-520.000
207.96	-433.333
208.33	-233.333
208.71	216.667
209.08	-216.667
209.46	0.000
209.84	583.333
210.21	850.000
210.59	1050.000
210.96	1100.000
211.34	-550.000
211.71	-287.500
212.09	-1300.000
212.46	0.000
212.84	1650.000
213.22	-580.000
213.59	-675.000
213.97	-180.000
214.34	-833.333
214.72	383.333
215.09	-375.000
215.47	0.000
215.84	271.429
216.22	1300.000
216.59	-460.000
216.97	-640.000
217.34	-725.000
217.72	-337.500
218.09	-675.000
218.47	-650.000
218.84	0.000
219.22	500.000
219.59	-64.706
219.97	-80.000
220.34	1500.000
220.72	-255.556
221.09	-115.385
221.47	-633.333
221.84	-220.000
222.22	-357.143
222.59	0.000
222.97	-125.000
223.34	-560.000
223.72	-3100.000
224.09	-700.000
224.46	-500.000
224.84	-140.000
225.21	-328.571
225.59	-600.000
225.96	-700.000
226.34	-50.000
226.71	416.667
227.08	-1000.000
227.46	-140.000
227.83	-700.000
228.21	-84.211
228.58	237.500
228.95	1300.000
229.33	-175.000
229.70	-290.000
230.08	-68.421
230.45	280.000
230.82	-733.333
231.20	-164.286
231.57	-91.667
231.95	-245.455
232.32	-136.364
232.69	-60.000
233.07	-650.000
233.44	-117.647
233.81	-240.000
234.19	-133.333
234.56	-95.455
234.93	-55.172
235.31	-115.789
235.68	-94.444
236.05	-165.000
236.43	-42.308
236.80	-36.000
237.17	-66.667
237.55	-51.515
237.92	-290.000
238.29	-80.645
238.67	-63.636
239.04	-38.889
239.41	-69.048
239.79	-41.304
240.16	-29.630
240.53	-43.478
240.91	-41.176
241.28	-22.951
241.65	-14.925
242.02	-18.919
242.40	-41.538
242.77	-18.667
243.14	-25.610
243.51	-31.579
243.89	-26.923
244.26	-12.871
244.63	-16.667
245.00	-21.495
245.38	-17.544
245.75	-30.088
246.12	-13.492
246.49	-13.178
246.87	-16.429
247.24	-9.272
247.61	-15.789
247.98	-13.423
248.36	-12.963
248.73	-7.975
249.10	-6.557
249.47	2.488
249.84	0.000
250.22	-11.917
250.59	-6.667
250.96	-7.273
251.33	-10.714
251.70	-4.274
252.08	-5.000
252.45	-5.328
252.82	-7.438
253.19	-7.812
253.56	-1.901
253.94	-8.462
254.31	-3.409
254.68	-1.049
255.05	-5.863
255.42	-6.803
255.79	-4.854
256.16	-2.980
256.54	-4.636
256.91	-2.951
257.28	-6.885
257.65	-7.325
258.02	-7.965
258.39	-1.709
258.76	-0.917
259.14	-1.149
259.51	-3.458
259.88	-5.666
260.25	-3.889
260.62	-3.288
260.99	-1.366
261.36	0.804
261.73	-2.653
262.10	-3.297
262.47	-1.609
262.85	-1.263
263.22	-5.974
263.59	-6.053
263.96	-2.046
264.33	-3.836
264.70	-3.704
265.07	-1.432
265.44	-1.134
265.81	-2.083
266.18	-1.361
266.55	-0.670
266.92	-4.556
267.29	-1.532
267.66	-3.326
268.03	-0.873
268.40	-1.253
268.77	-6.834
269.14	-4.185
269.51	-1.535
269.88	-0.205
270.25	-2.213
270.62	-1.899
270.99	-1.414
271.36	-0.396
271.73	-0.786
272.10	-0.802
272.47	-1.804
272.84	-3.012
273.21	-1.202
273.58	-1.411
273.95	-3.077
274.32	-1.711
274.69	-4.062
275.06	-1.648
275.43	-3.882
275.80	0.705
276.17	-2.963
276.54	-3.731
276.91	-3.220
277.28	-0.542
277.65	-1.077
278.02	-0.184
278.39	-2.536
278.76	-1.757
279.13	-1.773
279.50	-0.515
279.87	-0.894
280.23	-4.049
280.60	-1.695
280.97	-0.822
281.34	-3.735
281.71	0.846
282.08	-0.498
282.45	-1.309
282.82	-2.512
283.19	-2.585
283.56	-0.984
283.92	0.601
284.29	1.580
284.66	-2.135
285.03	-2.885
285.40	-0.155
285.77	-0.929
286.14	-0.611
286.51	-0.304
286.87	-1.422
287.24	-0.301
287.61	-0.598
287.98	-1.662
288.35	-1.479
288.72	-1.479
289.08	-1.318
289.45	-2.367
289.82	-0.904
290.19	-1.293
290.56	-0.704
290.93	-0.999
291.29	-0.964
291.66	-2.066
292.03	-1.628
292.40	0.408
292.77	-1.078
293.13	-1.624
293.50	-2.234
293.87	-1.342
294.24	0.933
294.60	1.264
294.97	-3.087
295.34	0.384
295.71	-1.892
296.08	-1.034
296.44	-1.348
296.81	-0.974
297.18	-2.117
297.55	-1.179
297.91	-0.830
298.28	-0.829
298.65	-1.070
299.02	-1.299
299.38	-0.229
299.75	-1.051
300.12	-1.389
300.48	0.346
300.85	0.000
301.22	0.000
301.59	-0.342
301.95	-0.904
302.32	0.333
302.69	-0.219
303.05	-0.109
303.42	-0.222
303.79	-0.938
304.15	0.105
304.52	-1.057
304.89	0.419
305.25	0.207
305.62	-0.313
305.99	1.134
306.35	-0.403
306.72	0.207
307.09	-0.812
307.45	0.311
307.82	0.000
308.19	-1.009
308.55	0.675
308.92	-0.974
309.29	0.670
309.65	0.097
310.02	-0.693
310.38	-0.197
310.75	0.777
311.12	1.151
311.48	-1.271
311.85	0.950
312.22	0.095
312.58	0.939
312.95	0.860
313.31	0.994
313.68	2.198
314.05	2.349
314.41	1.366
314.78	0.727
315.14	2.087
315.51	1.293
315.87	1.800
316.24	2.740
316.61	3.552
316.97	1.448
317.34	2.557
317.70	3.843
318.07	3.704
318.43	4.337
318.80	5.936
319.16	4.635
319.53	3.685
319.89	4.207
320.26	4.448
320.62	5.053
320.99	5.633
321.35	5.176
321.72	6.419
322.08	5.320
322.45	6.775
322.81	5.866
323.18	6.814
323.54	8.017
323.91	8.630
324.27	8.692
324.64	8.984
325.00	9.619
325.37	10.156
325.73	10.248
326.10	11.354
326.46	12.134
326.83	12.170
327.19	12.598
327.56	12.648
327.92	13.061
328.29	12.823
328.65	13.652
329.01	14.975
329.38	15.670
329.74	15.753
330.11	16.010
330.47	16.007
330.84	15.762
331.20	17.167
331.56	16.724
331.93	16.820
332.29	17.797
332.66	18.272
333.02	17.755
333.38	18.792
333.75	17.761
334.11	19.266
334.48	19.059
334.84	19.626
335.20	19.731
335.57	19.393
335.93	19.587
336.29	18.136
336.66	19.680
337.02	19.147
337.38	20.408
337.75	18.843
338.11	20.017
338.47	19.438
338.84	18.190
339.20	18.366
339.56	18.369
339.93	19.951
340.29	19.082
340.65	19.546
341.02	20.431
341.38	19.725
341.74	18.805
342.11	19.871
342.47	18.110
342.83	20.934
343.20	20.360
343.56	19.246
343.92	19.936
344.28	18.984
344.65	20.310
345.01	19.813
345.37	20.062
345.73	17.615
346.10	19.423
346.46	19.146
346.82	19.176
347.19	18.335
347.55	19.954
347.91	19.242
348.27	19.575
348.63	19.040
349.00	18.792
349.36	19.182
349.72	19.345
350.08	19.837
350.45	18.935
350.81	19.457
351.17	18.647
351.53	19.181
351.89	19.666
352.26	18.433
352.62	19.403
352.98	19.466
353.34	18.372
353.70	18.259
354.07	19.300
354.43	18.907
354.79	18.325
355.15	18.396
355.51	18.421
355.87	18.773
356.24	19.316
356.60	18.404
356.96	19.644
357.32	18.141
357.68	18.741
358.04	18.039
358.40	18.806
358.77	19.298
359.13	18.390
359.49	18.141
359.85	18.709
360.21	19.154
360.57	19.239
360.93	18.970
361.29	18.737
361.66	18.682
362.02	20.668
362.38	19.185
362.74	19.204
363.10	19.670
363.46	19.737
363.82	18.963
364.18	19.212
364.54	20.678
364.90	19.398
365.26	19.379
365.62	20.733
365.98	19.333
366.35	20.268
366.71	20.544
367.07	19.824
367.43	19.173
367.79	20.438
368.15	19.866
368.51	19.486
368.87	19.856
369.23	20.533
369.59	20.423
369.95	19.337
370.31	20.054
370.67	19.464
371.03	19.875
371.39	19.208
371.75	19.807
372.11	20.664
372.47	20.311
372.83	20.681
373.19	20.614
373.55	20.596
373.91	19.768
374.27	20.246
374.63	21.110
374.99	19.894
375.35	22.013
375.71	21.032
376.07	20.271
376.42	20.592
376.78	21.131
377.14	20.774
377.50	21.695
377.86	21.613
378.22	21.557
378.58	21.522
378.94	22.066
379.30	21.617
379.66	21.869
380.02	22.274
380.38	23.329
380.74	21.915
381.09	23.055
381.45	22.727
381.81	22.541
382.17	22.743
382.53	22.281
382.89	22.235
383.25	23.095
383.61	22.917
383.97	23.145
384.32	23.445
384.68	22.854
385.04	23.424
385.40	22.864
385.76	23.271
386.12	23.639
386.48	24.118
386.83	23.480
387.19	24.276
387.55	24.296
387.91	24.144
388.27	24.480
388.62	23.597
388.98	22.673
389.34	23.571
389.70	25.102
390.06	23.979
390.42	23.675
390.77	24.323
391.13	23.826
391.49	24.094
391.85	24.182
392.20	24.733
392.56	25.103
392.92	25.082
393.28	24.378
393.64	24.693
393.99	25.218
394.35	24.474
394.71	24.850
395.07	24.012
395.42	24.672
395.78	25.411
396.14	24.302
396.50	24.466
396.85	24.568
397.21	24.556
397.57	24.617
397.92	24.742
398.28	24.443
398.64	24.714
399.00	24.188
399.35	24.921
399.71	25.054
400.07	25.379
400.42	24.447
400.78	24.363
401.14	24.303
401.49	24.673
401.85	24.826
402.21	25.550
402.57	25.235
402.92	25.355
403.28	24.239
403.63	23.449
403.99	24.584
404.35	24.332
404.70	25.269
405.06	23.913
405.42	25.059
405.77	24.973
406.13	24.419
406.49	24.550
406.84	24.820
407.20	24.371
407.55	24.531
407.91	23.947
408.27	24.205
408.62	24.026
408.98	24.666
409.34	24.106
409.69	25.093
410.05	24.326
410.40	24.188
410.76	24.285
411.11	25.190
411.47	25.430
411.83	25.044
412.18	24.880
412.54	25.193
412.89	25.553
413.25	24.041
413.60	23.090
413.96	25.000
414.31	24.533
414.67	23.912
415.03	23.385
415.38	24.527
415.74	25.473
416.09	24.059
416.45	24.358
416.80	23.990
417.16	24.777
417.51	24.658
417.87	24.280
418.22	24.012
418.58	24.349
418.93	24.680
419.29	25.586
419.64	24.670
420.00	24.748
420.35	24.986
420.71	24.756
421.06	24.612
421.42	25.287
421.77	24.286
422.12	25.159
422.48	24.782
422.83	24.589
423.19	25.782
423.54	25.553
423.90	25.124
424.25	25.013
424.61	24.742
424.96	24.876
425.31	25.584
425.67	24.584
426.02	24.737
426.38	24.914
426.73	25.391
427.09	27.220
427.44	25.451
427.79	24.986
428.15	25.457
428.50	24.888
428.85	24.684
429.21	25.426
429.56	25.666
429.92	24.963
430.27	25.590
430.62	26.087
430.98	25.824
431.33	25.171
431.68	25.383
432.04	26.460
432.39	25.710
432.74	24.772
433.10	25.473
433.45	24.861
433.80	26.395
434.16	25.723
434.51	26.876
434.86	26.602
435.22	25.983
435.57	26.120
435.92	26.099
436.28	25.597
436.63	26.161
436.98	25.013
437.34	25.705
437.69	25.592
438.04	26.388
438.39	26.364
438.75	26.453
439.10	26.004
439.45	25.992
439.81	26.215
440.16	25.094
440.51	25.753
440.86	25.903
441.22	26.581
441.57	25.839
441.92	25.849
442.27	26.616
442.63	26.428
442.98	26.201
443.33	26.197
443.68	27.007
444.03	26.623
444.39	26.676
444.74	26.289
445.09	26.457
445.44	27.134
445.79	26.724
446.15	27.081
446.50	26.770
446.85	26.848
447.20	26.741
447.55	27.144
447.91	26.335
448.26	27.008
448.61	26.461
448.96	27.253
449.31	26.246
449.66	26.852
450.02	27.268
450.37	26.692
450.72	27.072
451.07	26.822
451.42	26.459
451.77	25.625
452.12	26.806
452.47	25.847
452.83	27.703
453.18	26.795
453.53	27.226
453.88	26.284
454.23	26.554
454.58	27.336
454.93	26.760
455.28	27.092
455.63	26.606
455.98	26.313
456.34	26.148
456.69	27.337
457.04	27.541
457.39	26.829
457.74	27.181
458.09	27.183
458.44	27.856
458.79	26.921
459.14	25.800
459.49	27.617
459.84	27.492
460.19	27.207
460.54	27.768
460.89	27.528
461.24	26.379
461.59	27.227
461.94	27.325
462.29	27.156
462.64	26.373
462.99	27.433
463.34	27.904
463.69	26.729
464.04	27.515
464.39	27.242
464.74	27.024
465.09	27.393
465.44	27.951
465.79	27.657
466.14	27.619
466.49	27.737
466.84	28.264
467.19	27.746
467.54	26.675
467.89	26.609
468.24	27.701
468.59	26.462
468.94	26.865
469.29	26.695
469.64	26.510
469.99	26.832
470.34	26.980
470.68	28.230
471.03	27.636
471.38	26.619
471.73	26.138
472.08	26.586
472.43	26.911
472.78	27.645
473.13	26.928
473.48	27.553
473.83	28.033
474.17	27.257
474.52	27.180
474.87	27.298
475.22	27.268
475.57	27.414
475.92	28.024
476.27	27.423
476.61	26.791
476.96	26.799
477.31	28.267
477.66	28.174
478.01	27.402
478.36	27.667
478.70	27.438
479.05	27.863
479.40	27.887
479.75	28.915
480.10	27.475
480.45	27.575
480.79	27.846
481.14	27.344
481.49	27.533
481.84	26.806
482.19	27.398
482.53	28.596
482.88	28.046
483.23	27.568
483.58	28.035
483.92	26.551
484.27	28.069
484.62	27.888
484.97	27.488
485.31	26.751
485.66	25.385
486.01	26.390
486.36	27.644
486.70	29.383
487.05	29.834
487.40	29.255
487.75	28.779
488.09	28.177
488.44	27.651
488.79	27.521
489.13	27.516
489.48	26.990
489.83	26.720
490.17	26.488
490.52	27.176
490.87	28.130
491.22	27.600
491.56	27.688
491.91	28.347
492.26	26.915
492.60	27.853
492.95	27.205
493.30	27.970
493.64	27.727
493.99	27.632
494.34	27.439
494.68	27.366
495.03	27.709
495.37	27.474
495.72	27.211
496.07	27.695
496.41	27.156
496.76	28.023
497.11	27.728
497.45	28.399
497.80	28.121
498.14	27.392
498.49	27.390
498.84	26.828
499.18	27.755
499.53	28.206
499.87	28.484
500.22	27.516
500.56	27.800
500.91	27.414
501.26	28.364
501.60	27.000
501.95	28.007
502.29	27.907
502.64	28.072
502.98	27.351
503.33	27.387
503.67	27.257
504.02	27.320
504.36	28.776
504.71	28.020
505.06	27.785
505.40	27.742
505.75	27.550
506.09	28.545
506.44	28.366
506.78	28.165
507.13	27.985
507.47	27.901
507.82	27.746
508.16	27.820
508.51	27.473
508.85	27.586
509.19	27.996
509.54	28.818
509.88	28.169
510.23	28.363
510.57	28.178
510.92	27.770
511.26	28.090
511.61	27.764
511.95	27.574
512.30	28.459
512.64	27.836
512.98	27.564
513.33	27.974
513.67	28.047
514.02	28.155
514.36	28.542
514.70	28.281
515.05	28.519
515.39	27.717
515.74	29.056
516.08	28.262
516.42	28.728
516.77	28.391
517.11	27.592
517.46	28.155
517.80	29.129
518.14	29.217
518.49	27.928
518.83	26.929
519.17	28.164
519.52	28.354
519.86	27.719
520.20	28.488
520.55	28.204
520.89	28.209
521.23	27.806
521.58	28.531
521.92	27.989
522.26	27.148
522.61	28.414
522.95	27.451
523.29	28.103
523.64	27.074
523.98	28.580
524.32	29.112
524.66	27.945
525.01	27.123
525.35	28.489
525.69	28.886
526.04	27.956
526.38	28.678
526.72	27.912
527.06	28.446
527.41	27.522
527.75	28.860
528.09	27.922
528.43	27.649
528.78	26.821
529.12	28.326
529.46	28.612
529.80	28.432
530.15	28.870
530.49	27.639
530.83	28.453
531.17	28.435
531.51	28.761
531.86	27.644
532.20	28.598
532.54	27.947
532.88	27.455
533.22	28.816
533.57	27.928
533.91	27.217
534.25	28.151
534.59	28.506
534.93	27.844
535.27	28.451
535.62	29.107
535.96	27.542
536.30	27.850
536.64	27.688
536.98	28.782
537.32	28.580
537.66	29.008
538.01	28.459
538.35	27.954
538.69	28.486
539.03	29.001
539.37	27.739
539.71	27.508
540.05	27.938
540.39	28.178
540.73	28.294
541.07	28.633
541.42	26.934
541.76	26.690
542.10	27.986
542.44	28.076
542.78	27.555
543.12	27.592
543.46	27.778
543.80	27.758
544.14	28.007
544.48	27.246
544.82	28.067
545.16	27.907
545.50	27.382
545.84	27.924
546.18	28.889
546.52	28.153
546.86	28.742
547.20	27.545
547.54	27.029
547.88	28.149
548.22	28.070
548.56	27.384
548.90	28.597
549.24	28.146
549.58	28.770
549.92	27.615
550.26	27.702
550.60	27.696
550.94	27.426
551.28	27.789
551.62	27.898
551.96	27.508
552.30	27.788
552.64	27.567
552.98	27.948
553.32	28.039
553.66	27.331
554.00	26.923
554.34	27.864
554.68	27.502
555.02	28.384
555.36	27.219
555.69	26.586
556.03	27.995
556.37	28.661
556.71	28.472
557.05	27.859
557.39	27.206
557.73	28.402
558.07	27.086
558.41	28.306
558.75	27.924
559.08	27.001
559.42	26.955
559.76	27.680
560.10	27.528
560.44	27.375
560.78	27.688
561.12	28.140
561.45	28.041
561.79	27.839
562.13	27.542
562.47	26.880
562.81	27.152
563.15	26.326
563.48	27.098
563.82	26.602
564.16	27.680
564.50	27.354
564.84	27.552
565.17	27.941
565.51	26.697
565.85	26.960
566.19	26.210
566.52	26.858
566.86	27.391
567.20	26.319
567.54	27.031
567.88	27.319
568.21	27.026
568.55	27.722
568.89	27.326
569.23	27.376
569.56	27.862
569.90	27.619
570.24	27.555
570.57	27.903
570.91	26.975
571.25	27.307
571.59	27.303
571.92	26.866
572.26	27.051
572.60	27.682
572.93	27.359
573.27	26.721
573.61	26.601
573.95	26.536
574.28	26.512
574.62	27.058
574.96	26.268
575.29	26.217
575.63	26.265
575.97	26.611
576.30	25.956
576.64	25.674
576.98	26.355
577.31	26.106
577.65	26.248
577.98	26.374
578.32	26.494
578.66	26.329
578.99	26.254
579.33	26.367
579.67	25.839
580.00	26.096
580.34	26.549
580.67	25.772
581.01	26.266
581.35	26.554
581.68	25.998
582.02	26.368
582.35	26.833
582.69	27.095
583.02	26.574
583.36	26.289
583.70	26.358
584.03	25.654
584.37	25.747
584.70	25.770
585.04	25.552
585.37	26.160
585.71	25.566
586.04	26.046
586.38	25.929
586.72	25.194
587.05	25.224
587.39	26.078
587.72	25.622
588.06	26.161
588.39	26.089
588.73	25.688
589.06	26.354
589.40	26.030
589.73	25.964
590.07	25.895
590.40	25.693
590.73	25.451
591.07	26.880
591.40	25.583
591.74	24.841
592.07	25.660
592.41	26.262
592.74	25.737
593.08	25.764
593.41	26.188
593.75	26.149
594.08	26.325
594.41	25.577
594.75	26.005
595.08	25.841
595.42	25.260
595.75	25.541
596.09	25.686
596.42	25.761
596.75	25.357
597.09	25.737
597.42	24.831
597.75	25.951
598.09	25.238
598.42	26.176
598.76	24.914
599.09	25.169
599.42	24.841
599.76	25.289
600.09	25.325
600.42	25.459
600.76	24.604
601.09	24.593
601.42	24.648
601.76	24.690
602.09	24.946
602.42	24.609
602.76	25.387
603.09	25.184
603.42	25.072
603.76	24.383
604.09	26.260
604.42	25.725
604.76	24.581
605.09	24.811
605.42	24.322
605.75	24.423
606.09	24.599
606.42	25.064
606.75	23.913
607.09	24.462
607.42	24.470
607.75	24.619
608.08	24.388
608.42	25.030
608.75	24.544
609.08	24.236
609.41	23.952
609.75	23.929
610.08	24.714
610.41	24.511
610.74	24.244
611.07	24.512
611.41	24.619
611.74	24.619
612.07	24.731
612.40	24.002
612.73	25.428
613.07	24.108
613.40	24.832
613.73	24.940
614.06	25.221
614.39	24.927
614.72	24.309
615.06	24.062
615.39	23.973
615.72	24.123
616.05	23.798
616.38	23.663
616.71	23.563
617.05	23.749
617.38	23.917
617.71	24.190
618.04	24.015
618.37	23.607
618.70	24.548
619.03	23.238
619.36	23.674
619.69	23.959
620.03	22.787
620.36	23.313
620.69	24.800
621.02	23.885
621.35	24.311
621.68	24.657
622.01	23.416
622.34	23.222
622.67	23.505
623.00	21.525
623.33	24.220
623.66	24.189
623.99	23.107
624.32	24.821
624.65	22.909
624.99	23.992
625.32	23.645
625.65	23.938
625.98	23.119
626.31	24.167
626.64	23.150
626.97	22.806
627.30	23.007
627.63	22.656
627.96	24.099
628.29	22.724
628.62	22.166
628.95	23.576
629.28	22.940
629.61	22.727
629.94	22.008
630.26	22.712
630.59	23.921
630.92	22.684
631.25	24.240
631.58	22.128
631.91	24.180
632.24	22.094
632.57	23.055
632.90	22.969
633.23	22.245
633.56	21.429
633.89	21.591
634.22	22.349
634.55	22.860
634.88	21.861
635.20	23.681
635.53	22.599
635.86	22.535
636.19	24.390
636.52	23.207
636.85	21.655
637.18	21.622
637.51	20.860
637.83	23.477
638.16	22.926
638.49	21.009
638.82	22.097
639.15	21.306
639.48	23.441
639.81	22.517
640.13	21.555
640.46	21.939
640.79	21.324
641.12	22.981
641.45	23.087
641.77	24.390
642.10	21.522
642.43	22.606
642.76	20.867
643.09	21.644
643.41	19.328
643.74	21.655
644.07	22.759
644.40	20.792
644.73	21.190
645.05	22.320
645.38	22.878
645.71	22.434
646.04	24.247
646.36	20.876
646.69	20.399
647.02	22.783
647.35	21.679
647.67	22.383
648.00	19.108
648.33	22.072
648.66	20.399
648.98	20.816
649.31	22.598
649.64	22.045
649.96	20.955
650.29	20.445
650.62	21.641
650.94	21.922
651.27	18.563
651.60	21.784
651.92	20.061
652.25	21.997
652.58	20.358
652.90	19.477
653.23	21.972
653.56	20.542
653.88	21.629
654.21	20.986
654.54	19.509
654.86	19.688
655.19	18.946
655.52	22.107
655.84	23.267
656.17	27.161
656.49	37.611
656.82	40.630
657.15	31.361
657.47	23.272
657.80	17.014
658.13	12.823
658.45	16.562
658.78	20.023
659.10	18.689
659.43	18.312
659.75	17.592
660.08	16.078
660.41	15.715
660.73	18.130
661.06	16.300
661.38	18.979
661.71	19.483
662.03	19.929
662.36	20.572
662.68	19.325
663.01	19.823
663.33	21.928
663.66	19.780
663.98	18.269
664.31	19.887
664.63	17.341
664.96	19.782
665.28	19.601
665.61	20.979
665.93	19.464
666.26	19.713
666.58	17.712
666.91	21.121
667.23	21.905
667.56	19.329
667.88	19.200
668.21	17.383
668.53	16.216
668.86	17.878
669.18	17.108
669.50	15.905
669.83	17.000
670.15	15.748
670.48	20.040
670.80	17.208
671.13	17.013
671.45	15.945
671.77	20.904
672.10	18.000
672.42	17.799
672.75	17.358
673.07	17.612
673.39	17.411
673.72	18.456
674.04	17.759
674.37	18.605
674.69	16.931
675.01	17.714
675.34	16.985
675.66	15.730
675.98	18.097
676.31	15.625
676.63	19.202
676.95	18.582
677.28	16.129
677.60	15.945
677.92	17.083
678.25	19.013
678.57	19.039
678.89	19.283
679.22	17.596
679.54	15.726
679.86	15.254
680.18	16.584
680.51	16.195
680.83	18.658
681.15	17.759
681.48	18.307
681.80	19.171
682.12	18.007
682.44	17.195
682.77	16.489
683.09	16.098
683.41	17.442
683.73	16.129
684.06	18.081
684.38	17.531
684.70	18.312
685.02	18.072
685.34	17.804
685.67	15.773
685.99	17.945
686.31	15.262
686.63	15.798
686.96	16.246
687.28	16.612
687.60	13.131
687.92	16.077
688.24	17.696
688.56	15.690
688.89	17.060
689.21	17.808
689.53	12.745
689.85	14.398
690.17	16.111
690.49	17.530
690.82	17.228
691.14	14.575
691.46	15.870
691.78	18.232
692.10	17.064
692.42	15.357
692.74	14.519
693.06	14.074
693.39	17.268
693.71	15.977
694.03	14.498
694.35	15.619
694.67	15.811
694.99	14.043
695.31	15.232
695.63	15.584
695.95	13.251
696.27	15.824
696.59	16.150
696.91	13.739
697.23	16.484
697.56	14.053
697.88	15.530
698.20	12.994
698.52	17.803
698.84	15.385
699.16	17.143
699.48	14.435
699.80	15.532
700.12	14.847
700.44	13.594
700.76	14.964
701.08	15.012
701.40	17.617
701.72	14.179
702.04	17.914
702.36	11.257
702.68	13.936
703.00	13.936
703.32	14.039
703.64	13.447
703.96	14.797
704.28	14.005
704.60	14.684
704.91	14.286
705.23	11.507
705.55	13.649
705.87	12.424
706.19	15.031
706.51	10.241
706.83	11.527
707.15	10.847
707.47	11.215
707.79	14.847
708.11	11.229
708.43	13.548
708.74	10.491
709.06	13.689
709.38	15.258
709.70	13.648
710.02	13.695
710.34	11.436
710.66	10.894
710.98	14.481
711.29	11.264
711.61	12.429
711.93	13.960
712.25	10.270
712.57	15.929
712.89	12.353
713.20	9.763
713.52	13.873
713.84	10.585
714.16	13.684
714.48	10.052
714.80	13.766
715.11	11.286
715.43	10.080
715.75	12.895
716.07	12.707
716.39	16.667
716.70	9.639
717.02	8.852
717.34	8.362
717.66	13.087
717.97	8.904
718.29	9.622
718.61	11.842
718.93	10.680
719.24	15.528
719.56	6.748
719.88	11.111
720.20	10.000
720.51	9.938
720.83	11.250
721.15	8.553
721.46	6.164
721.78	11.333
722.10	8.091
722.42	9.060
722.73	11.290
723.05	12.982
723.37	11.458
723.68	12.186
724.00	10.108
724.32	6.690
724.63	10.140
724.95	13.121
725.27	11.498
725.58	9.187
725.90	14.483
726.22	12.539
726.53	12.987
726.85	11.006
727.16	11.782
727.48	12.538
727.80	10.927
728.11	7.420
728.43	11.785
728.74	11.037
729.06	9.272
729.38	11.039
729.69	8.389
730.01	9.524
730.32	6.667
730.64	10.692
730.96	8.696
731.27	13.128
731.59	10.714
731.90	9.091
732.22	13.542
732.53	9.116
732.85	10.000
733.16	9.971
733.48	9.451
733.80	8.914
734.11	9.117
734.43	12.432
734.74	14.937
735.06	11.055
735.37	11.081
735.69	9.459
736.00	10.452
736.32	11.051
736.63	11.111
736.95	10.345
737.26	6.667
737.58	8.485
737.89	12.353
738.21	4.587
738.52	7.541
738.83	12.628
739.15	9.929
739.46	8.163
739.78	11.043
740.09	7.163
740.41	11.953
740.72	9.667
741.04	11.003
741.35	10.526
741.66	8.627
741.98	9.426
742.29	7.113
742.61	6.579
742.92	6.538
743.23	11.913
743.55	7.364
743.86	10.400
744.18	1.240
744.49	2.532
744.80	10.288
745.12	5.063
745.43	10.163
745.74	4.741
746.06	6.780
746.37	8.017
746.68	12.195
747.00	11.667
747.31	7.296
747.62	13.077
747.94	7.287
748.25	4.418
748.56	5.714
748.88	6.838
749.19	12.931
749.50	3.896
749.82	8.835
750.13	4.982
750.44	3.333
750.75	12.615
751.07	9.231
751.38	11.987
751.69	7.987
752.01	7.443
752.32	7.190
752.63	9.184
752.94	7.958
753.26	3.717
753.57	6.296
753.88	7.491
754.19	9.325
754.51	10.611
754.82	6.752
755.13	7.213
755.44	8.532
755.75	11.513
756.07	11.642
756.38	7.862
756.69	10.843
757.00	7.756
757.31	8.197
757.63	9.207
757.94	8.920
758.25	10.609
758.56	7.843
758.87	11.818
759.18	8.533
759.50	11.048
759.81	11.485
760.12	9.973
760.43	9.635
760.74	9.113
761.05	9.500
761.36	7.952
761.67	8.376
761.99	8.919
762.30	7.012
762.61	6.931
762.92	10.075
763.23	6.742
763.54	6.475
763.85	9.278
764.16	2.694
764.47	9.155
764.78	6.070
765.10	7.918
765.41	10.000
765.72	8.201
766.03	7.910
766.34	3.762
766.65	4.530
766.96	10.359
767.27	9.217
767.58	-0.498
767.89	5.769
768.20	8.451
768.51	4.167
768.82	6.827
769.13	8.333
769.44	3.846
769.75	6.498
770.06	6.538
770.37	9.449
770.68	2.979
770.99	1.619
771.30	10.370
771.61	5.323
771.92	7.037
772.23	8.097
772.54	-1.389
772.85	9.217
773.16	8.571
773.47	6.878
773.78	-4.865
774.09	5.682
774.39	10.500
774.70	8.743
775.01	-0.610
775.32	-2.353
775.63	-3.681
775.94	4.459
776.25	2.581
776.56	-2.564
776.87	7.483
777.18	0.000
777.48	1.399
777.79	4.730
778.10	-12.500
778.41	-6.944
778.72	-7.586
779.03	3.704
779.34	1.212
779.65	4.663
779.95	6.111
780.26	4.545
780.57	4.516
780.88	4.348
781.19	1.290
781.50	5.294
781.80	5.914
782.11	1.587
782.42	2.020
782.73	-2.395
783.04	3.911
783.34	-6.667
783.65	-4.575
783.96	0.621
784.27	-3.571
784.57	0.000
784.88	-5.000
785.19	0.787
785.50	-8.661
785.81	-4.511
786.11	0.000
786.42	-7.914
786.73	-5.036
787.04	3.008
787.34	-3.279
787.65	-12.800
787.96	0.746
788.26	-2.797
788.57	3.497
788.88	6.579
789.19	0.000
789.49	-5.479
789.80	0.709
790.11	-0.787
790.41	3.906
790.72	-5.085
791.03	-17.476
791.33	-6.087
791.64	-2.632
791.95	-11.607
792.25	-14.286
792.56	-9.821
792.87	-11.458
793.17	0.893
793.48	-14.583
793.79	-24.096
794.09	-7.339
794.40	-8.257
794.70	-4.082
795.01	-5.195
795.32	0.685
795.62	-4.225
795.93	-5.303
796.23	0.820
796.54	-8.036
796.85	-14.894
797.15	-17.391
797.46	-23.288
797.76	-11.250
798.07	-7.609
798.37	-13.402
798.68	-24.675
798.99	-14.943
799.29	-5.618
799.60	-11.702
799.90	-6.024
800.21	-18.462
800.51	-28.358
800.82	-35.294
801.12	-39.726
801.43	-22.059
801.73	-45.763
802.04	-10.606
802.34	-35.000
802.65	-28.814
802.95	-25.373
803.26	-11.864
803.56	-12.329
803.87	-7.143
804.17	-19.178
804.48	-52.632
804.78	-19.444
805.09	-39.655
805.39	-20.270
805.70	-28.169
806.00	-1.220
806.30	-10.843
806.61	-26.027
806.91	-9.615
807.22	-15.556
807.52	-22.989
807.83	-15.278
808.13	2.410
808.43	-8.989
808.74	-20.000
809.04	-27.941
809.35	-18.667
809.65	-17.143
809.95	-9.589
810.26	-52.632
810.56	-36.207
810.86	-10.294
811.17	-38.596
811.47	-45.902
811.77	-66.667
812.08	-27.119
812.38	-28.333
812.69	-34.483
812.99	-43.396
813.29	-69.231
813.59	-24.000
813.90	-28.070
814.20	-30.909
814.50	0.000
814.81	-21.795
815.11	-18.033
815.41	-20.896
815.72	-25.862
816.02	-30.357
816.32	-33.333
816.62	-50.000
816.93	-31.111
817.23	-16.667
817.53	-42.553
817.84	-30.952
818.14	-67.647
818.44	-32.653
818.74	-17.778
819.04	-53.846
819.35	-60.000
819.65	-100.000
819.95	-30.189
820.25	-40.000
820.56	-16.667
820.86	-56.250
821.16	-35.897
821.46	-46.512
821.76	-60.000
822.07	-14.286
822.37	-60.870
822.67	-40.426
822.97	-67.568
823.27	-47.500
823.57	-20.408
823.88	-46.667
824.18	-35.000
824.48	-63.333
824.78	-104.000
825.08	-36.364
825.38	-15.556
825.69	-27.660
825.99	-36.111
826.29	-94.286
826.59	-71.795
826.89	-60.465
827.19	-36.000
827.49	-26.471
827.79	-27.083
828.09	-78.378
828.39	-60.000
828.70	-43.902
829.00	-51.163
829.30	-78.571
829.60	-41.176
829.90	-36.957
830.20	-60.000
830.50	-75.862
830.80	-111.111
831.10	-130.769
831.40	-70.588
831.70	-123.810
832.00	-12.903
832.30	-217.647
832.60	-83.333
832.90	-146.154
833.20	-136.842
833.50	-135.000
833.80	-136.842
834.10	-142.857
834.40	-38.889
834.70	-34.375
835.00	-97.143
835.30	-82.353
835.60	-70.000
835.90	-84.000
836.20	-136.364
836.50	-76.000
836.80	-81.818
837.10	-81.481
837.40	-81.481
837.70	-175.000
838.00	-35.714
838.30	-134.783
838.60	-100.000
838.90	-171.429
839.19	-126.087
839.49	-275.000
839.79	-95.652
840.09	-143.750
840.39	-105.000
840.69	-74.194
840.99	-103.571
841.29	-133.333
841.59	-78.947
841.88	-25.641
842.18	-61.538
842.48	-380.000
842.78	-115.000
843.08	-86.667
843.38	-54.839
843.68	-144.444
843.97	-44.118
844.27	-143.750
844.57	-57.895
844.87	-210.000
845.17	-186.667
845.47	-76.190
845.76	-109.524
846.06	-322.222
846.36	-164.706
846.66	-69.231
846.96	-186.667
847.25	-117.647
847.55	-56.522
847.85	-90.000
848.15	-105.882
848.44	-263.636
848.74	-47.619
849.04	-83.333
849.34	-181.250
849.63	-95.652
849.93	1400.000
850.23	-113.333
850.53	-42.308
850.82	-136.364
851.12	-59.091
851.42	-263.636
851.71	-192.308
852.01	-155.000
852.31	-184.615
852.61	-78.947
852.90	-141.667
853.20	-138.889
853.50	-233.333
853.79	-138.095
854.09	-100.000
854.39	-233.333
854.68	-64.516
854.98	-80.769
855.28	-83.333
855.57	-92.857
855.87	-80.000
856.17	-109.091
856.46	-88.889
856.76	-150.000
857.05	-126.087
857.35	-83.333
857.65	-238.462
857.94	-90.476
858.24	-55.556
858.53	-39.130
858.83	-82.353
859.13	-111.765
859.42	-123.529
859.72	-135.714
860.01	-100.000
860.31	-333.333
860.60	-230.000
860.90	-100.000
861.20	-61.111
861.49	-207.692
861.79	-63.333
862.08	-200.000
862.38	-18.750
862.67	-100.000
862.97	-168.750
863.26	-244.444
863.56	-180.000
863.85	-145.455
864.15	-105.556
864.44	-1000.000
864.74	-121.429
865.03	-150.000
865.33	-360.000
865.62	-77.419
865.92	-50.000
866.21	-73.913
866.51	-150.000
866.80	-560.000
867.10	-183.333
867.39	-233.333
867.69	3900.000
867.98	-257.143
868.27	-52.941
868.57	-2800.000
868.86	-260.000
869.16	-114.286
869.45	-104.167
869.75	-190.909
870.04	-257.143
870.33	-183.333
870.63	-371.429
870.92	-550.000
871.22	-412.500
871.51	-154.545
871.80	-1333.333
872.10	-1250.000
>>>>>End Processed Spectral Data<<<<<
