SpectraSuite Data File
++++++++++++++++++++++++++++++++++++
Date: Thu May 14 14:28:51 PDT 2015
User: schluterlab
Dark Spectrum Present: Yes
Reference Spectrum Present: Yes
Number of Sampled Component Spectra: 1
Spectrometers: USB2E3373
Integration Time (usec): 3000 (USB2E3373)
Spectra Averaged: 3 (USB2E3373)
Boxcar Smoothing: 0 (USB2E3373)
Correct for Electrical Dark: No (USB2E3373)
Strobe/Lamp Enabled: No (USB2E3373)
Correct for Detector Non-linearity: No (USB2E3373)
Correct for Stray Light: No (USB2E3373)
Number of Pixels in Processed Spectrum: 2048
>>>>>Begin Processed Spectral Data<<<<<
178.53	0.000
178.91	-114.286
179.29	0.000
179.67	900.000
180.04	14.286
180.42	-40.000
180.80	-80.000
181.18	1100.000
181.56	2300.000
181.94	-425.000
182.31	375.000
182.69	-433.333
183.07	1200.000
183.45	-100.000
183.83	200.000
184.20	566.667
184.58	-1700.000
184.96	375.000
185.34	100.000
185.72	400.000
186.09	11.111
186.47	-400.000
186.85	-220.000
187.23	55.556
187.61	1100.000
187.98	-320.000
188.36	-300.000
188.74	25.000
189.12	700.000
189.49	118.750
189.87	37.500
190.25	155.556
190.63	180.000
191.00	55.556
191.38	0.000
191.76	300.000
192.14	266.667
192.51	-300.000
192.89	216.667
193.27	0.000
193.65	171.429
194.02	100.000
194.40	200.000
194.78	-142.857
195.15	0.000
195.53	100.000
195.91	0.000
196.29	500.000
196.66	138.462
197.04	600.000
197.42	100.000
197.79	300.000
198.17	175.000
198.55	128.571
198.92	133.333
199.30	150.000
199.68	145.455
200.05	114.286
200.43	100.000
200.81	-42.857
201.18	0.000
201.56	11.111
201.94	0.000
202.31	-300.000
202.69	22.222
203.07	-1700.000
203.44	88.889
203.82	250.000
204.19	108.333
204.57	183.333
204.95	137.500
205.32	600.000
205.70	-225.000
206.08	233.333
206.45	216.667
206.83	-160.000
207.20	216.667
207.58	-40.000
207.96	166.667
208.33	283.333
208.71	-41.667
209.08	366.667
209.46	0.000
209.84	-16.667
210.21	-950.000
210.59	-250.000
210.96	-300.000
211.34	450.000
211.71	237.500
212.09	1400.000
212.46	0.000
212.84	-100.000
213.22	220.000
213.59	400.000
213.97	220.000
214.34	633.333
214.72	-83.333
215.09	100.000
215.47	0.000
215.84	-171.429
216.22	-50.000
216.59	600.000
216.97	220.000
217.34	350.000
217.72	162.500
218.09	125.000
218.47	150.000
218.84	0.000
219.22	-360.000
219.59	76.471
219.97	125.000
220.34	-850.000
220.72	177.778
221.09	123.077
221.47	333.333
221.84	90.000
222.22	100.000
222.59	0.000
222.97	212.500
223.34	280.000
223.72	300.000
224.09	300.000
224.46	250.000
224.84	260.000
225.21	114.286
225.59	275.000
225.96	300.000
226.34	34.615
226.71	-133.333
227.08	350.000
227.46	113.333
227.83	375.000
228.21	68.421
228.58	-187.500
228.95	-350.000
229.33	108.333
229.70	210.000
230.08	94.737
230.45	-70.000
230.82	366.667
231.20	64.286
231.57	175.000
231.95	100.000
232.32	118.182
232.69	65.000
233.07	125.000
233.44	58.824
233.81	130.000
234.19	116.667
234.56	113.636
234.93	96.552
235.31	105.263
235.68	77.778
236.05	60.000
236.43	69.231
236.80	84.000
237.17	48.148
237.55	66.667
237.92	-10.000
238.29	54.839
238.67	27.273
239.04	50.000
239.41	35.714
239.79	34.783
240.16	20.370
240.53	34.783
240.91	23.529
241.28	21.311
241.65	37.313
242.02	37.838
242.40	-3.077
242.77	16.000
243.14	6.098
243.51	11.842
243.89	2.564
244.26	15.842
244.63	12.745
245.00	14.019
245.38	14.912
245.75	4.425
246.12	23.016
246.49	9.302
246.87	21.429
247.24	13.245
247.61	13.158
247.98	12.081
248.36	6.790
248.73	2.454
249.10	7.104
249.47	15.920
249.84	13.613
250.22	7.772
250.59	2.778
250.96	10.909
251.33	7.653
251.70	10.684
252.08	9.583
252.45	10.656
252.82	4.959
253.19	5.078
253.56	7.605
253.94	5.385
254.31	6.439
254.68	9.091
255.05	12.052
255.42	6.122
255.79	6.796
256.16	3.974
256.54	4.305
256.91	9.180
257.28	3.607
257.65	4.459
258.02	1.770
258.39	5.698
258.76	9.174
259.14	6.322
259.51	3.458
259.88	4.249
260.25	3.333
260.62	6.849
260.99	9.563
261.36	6.166
261.73	3.714
262.10	5.495
262.47	6.971
262.85	10.101
263.22	4.156
263.59	1.842
263.96	4.092
264.33	3.325
264.70	5.679
265.07	8.592
265.44	8.390
265.81	2.083
266.18	5.669
266.55	6.027
266.92	3.645
267.29	5.470
267.66	6.430
268.03	6.987
268.40	3.549
268.77	2.961
269.14	0.441
269.51	5.044
269.88	7.377
270.25	5.835
270.62	5.274
270.99	8.081
271.36	5.545
271.73	4.322
272.10	7.415
272.47	5.812
272.84	4.819
273.21	3.206
273.58	5.847
273.95	4.038
274.32	2.852
274.69	3.288
275.06	5.128
275.43	3.142
275.80	6.878
276.17	3.333
276.54	4.851
276.91	5.903
277.28	5.063
277.65	5.386
278.02	4.963
278.39	4.891
278.76	4.569
279.13	4.433
279.50	5.498
279.87	5.367
280.23	1.408
280.60	4.237
280.97	4.112
281.34	1.188
281.71	5.415
282.08	3.322
282.45	2.782
282.82	3.611
283.19	2.908
283.56	4.426
283.92	6.306
284.29	6.477
284.66	5.090
285.03	2.244
285.40	4.946
285.77	3.406
286.14	4.122
286.51	3.653
286.87	4.107
287.24	3.464
287.61	3.438
287.98	1.511
288.35	3.550
288.72	4.734
289.08	3.660
289.45	3.254
289.82	4.518
290.19	4.023
290.56	5.070
290.93	3.566
291.29	4.132
291.66	4.132
292.03	3.935
292.40	4.898
292.77	4.447
293.13	3.924
293.50	3.285
293.87	3.490
294.24	6.400
294.60	4.678
294.97	2.953
295.34	5.378
295.71	4.666
296.08	4.134
296.44	3.309
296.81	3.654
297.18	3.861
297.55	3.774
297.91	4.270
298.28	2.251
298.65	4.400
299.02	3.542
299.38	4.920
299.75	3.621
300.12	2.546
300.48	2.765
300.85	3.600
301.22	4.027
301.59	3.881
301.95	4.407
302.32	5.000
302.69	2.848
303.05	4.570
303.42	3.991
303.79	4.375
304.15	3.575
304.52	4.228
304.89	4.084
305.25	4.244
305.62	4.493
305.99	3.505
306.35	3.931
306.72	4.447
307.09	3.249
307.45	3.830
307.82	3.835
308.19	4.137
308.55	4.629
308.92	3.797
309.29	4.406
309.65	3.899
310.02	3.366
310.38	4.232
310.75	4.854
311.12	4.123
311.48	3.617
311.85	5.223
312.22	4.554
312.58	5.540
312.95	3.824
313.31	5.149
313.68	5.403
314.05	5.781
314.41	4.918
314.78	4.269
315.14	5.172
315.51	6.002
315.87	5.671
316.24	5.571
316.61	6.394
316.97	5.249
317.34	5.115
317.70	5.240
318.07	5.644
318.43	5.442
318.80	6.856
319.16	5.322
319.53	4.799
319.89	4.996
320.26	6.851
320.62	5.851
320.99	6.464
321.35	6.285
321.72	6.605
322.08	6.312
322.45	6.323
322.81	6.949
323.18	7.168
323.54	7.069
323.91	6.495
324.27	6.368
324.64	8.060
325.00	7.131
325.37	7.453
325.73	8.347
326.10	8.354
326.46	7.980
326.83	8.727
327.19	8.425
327.56	8.458
327.92	7.868
328.29	8.387
328.65	7.789
329.01	8.460
329.38	9.941
329.74	9.503
330.11	9.247
330.47	8.088
330.84	8.355
331.20	8.833
331.56	9.445
331.93	9.791
332.29	9.492
332.66	9.551
333.02	8.626
333.38	8.809
333.75	9.343
334.11	10.008
334.48	9.653
334.84	10.535
335.20	9.488
335.57	9.612
335.93	8.595
336.29	9.068
336.66	8.747
337.02	10.452
337.38	9.184
337.75	9.917
338.11	9.504
338.47	9.595
338.84	9.983
339.20	9.183
339.56	9.308
339.93	9.770
340.29	9.420
340.65	8.597
341.02	9.816
341.38	9.620
341.74	9.605
342.11	9.252
342.47	8.658
342.83	10.467
343.20	9.812
343.56	9.222
343.92	9.688
344.28	9.531
344.65	10.078
345.01	9.750
345.37	10.031
345.73	8.496
346.10	9.984
346.46	9.019
346.82	10.487
347.19	10.237
347.55	10.015
347.91	9.435
348.27	9.029
348.63	10.129
349.00	9.545
349.36	9.591
349.72	8.780
350.08	10.624
350.45	8.669
350.81	9.050
351.17	9.474
351.53	8.946
351.89	9.643
352.26	9.179
352.62	9.478
352.98	9.084
353.34	9.111
353.70	8.860
354.07	9.538
354.43	9.036
354.79	8.975
355.15	9.345
355.51	10.161
355.87	8.452
356.24	10.266
356.60	9.682
356.96	9.266
357.32	9.368
357.68	9.297
358.04	9.581
358.40	9.627
358.77	10.234
359.13	8.346
359.49	9.219
359.85	9.790
360.21	9.684
360.57	9.691
360.93	8.886
361.29	10.386
361.66	9.558
362.02	11.134
362.38	9.909
362.74	10.056
363.10	10.454
363.46	9.834
363.82	10.085
364.18	9.360
364.54	10.996
364.90	11.171
365.26	9.310
365.62	10.733
365.98	9.871
366.35	9.664
366.71	9.864
367.07	10.352
367.43	9.915
367.79	10.949
368.15	10.836
368.51	10.149
368.87	10.712
369.23	11.400
369.59	10.041
369.95	10.480
370.31	11.344
370.67	10.385
371.03	10.596
371.39	10.611
371.75	10.660
372.11	10.976
372.47	10.156
372.83	10.929
373.19	10.941
373.55	10.772
373.91	10.293
374.27	11.837
374.63	10.690
374.99	10.875
375.35	11.494
375.71	10.903
376.07	11.427
376.42	11.335
376.78	11.498
377.14	11.790
377.50	11.575
377.86	12.377
378.22	12.455
378.58	11.356
378.94	10.857
379.30	11.658
379.66	11.934
380.02	11.598
380.38	12.097
380.74	11.887
381.09	12.602
381.45	12.614
381.81	12.295
382.17	12.945
382.53	13.450
382.89	12.359
383.25	12.837
383.61	12.500
383.97	12.780
384.32	12.919
384.68	12.645
385.04	13.418
385.40	13.966
385.76	13.130
386.12	13.704
386.48	13.059
386.83	14.124
387.19	12.399
387.55	13.556
387.91	13.413
388.27	13.972
388.62	13.631
388.98	13.424
389.34	13.789
389.70	13.655
390.06	14.210
390.42	13.554
390.77	14.509
391.13	13.791
391.49	13.406
391.85	13.818
392.20	13.701
392.56	14.235
392.92	14.776
393.28	14.428
393.64	14.525
393.99	14.585
394.35	14.019
394.71	14.790
395.07	13.832
395.42	14.677
395.78	15.356
396.14	14.379
396.50	14.133
396.85	14.848
397.21	15.089
397.57	14.664
397.92	14.834
398.28	13.797
398.64	14.073
399.00	14.555
399.35	14.241
399.71	14.511
400.07	15.160
400.42	14.261
400.78	14.236
401.14	14.001
401.49	14.554
401.85	14.767
402.21	13.847
402.57	14.085
402.92	14.835
403.28	14.520
403.63	13.902
403.99	14.489
404.35	14.099
404.70	14.164
405.06	14.239
405.42	13.876
405.77	14.831
406.13	13.776
406.49	14.471
406.84	14.017
407.20	14.254
407.55	13.749
407.91	14.582
408.27	14.664
408.62	14.602
408.98	14.858
409.34	13.607
409.69	13.844
410.05	14.185
410.40	14.849
410.76	14.302
411.11	15.196
411.47	15.418
411.83	14.756
412.18	14.458
412.54	14.819
412.89	14.028
413.25	15.293
413.60	14.245
413.96	14.569
414.31	13.938
414.67	14.669
415.03	14.338
415.38	14.691
415.74	14.172
416.09	14.867
416.45	14.966
416.80	14.076
417.16	14.176
417.51	14.570
417.87	14.654
418.22	13.832
418.58	14.560
418.93	14.494
419.29	14.057
419.64	13.505
420.00	14.243
420.35	15.104
420.71	14.589
421.06	13.859
421.42	14.564
421.77	14.109
422.12	14.588
422.48	14.030
422.83	14.458
423.19	14.218
423.54	13.938
423.90	14.854
424.25	14.187
424.61	13.203
424.96	14.772
425.31	14.225
425.67	14.332
426.02	14.112
426.38	13.662
426.73	14.788
427.09	14.879
427.44	13.654
427.79	13.433
428.15	13.756
428.50	14.213
428.85	14.237
429.21	14.840
429.56	14.018
429.92	14.201
430.27	14.506
430.62	14.460
430.98	13.822
431.33	14.370
431.68	13.985
432.04	14.170
432.39	14.194
432.74	14.783
433.10	15.089
433.45	14.493
433.80	15.343
434.16	14.773
434.51	14.440
434.86	14.875
435.22	14.187
435.57	14.800
435.92	15.136
436.28	14.790
436.63	14.582
436.98	15.566
437.34	15.333
437.69	14.915
438.04	13.591
438.39	14.704
438.75	15.108
439.10	15.803
439.45	13.974
439.81	14.972
440.16	13.834
440.51	16.109
440.86	14.564
441.22	15.434
441.57	15.356
441.92	15.422
442.27	15.051
442.63	15.052
442.98	15.635
443.33	15.203
443.68	15.610
444.03	15.945
444.39	15.210
444.74	15.773
445.09	14.445
445.44	15.332
445.79	15.469
446.15	15.108
446.50	15.917
446.85	15.807
447.20	15.280
447.55	15.900
447.91	15.340
448.26	14.852
448.61	15.515
448.96	16.041
449.31	15.536
449.66	14.706
450.02	15.612
450.37	16.516
450.72	15.501
451.07	15.433
451.42	15.309
451.77	14.842
452.12	16.253
452.47	14.854
452.83	15.653
453.18	16.170
453.53	15.164
453.88	16.124
454.23	14.802
454.58	15.612
454.93	14.806
455.28	16.075
455.63	15.861
455.98	15.307
456.34	16.372
456.69	15.461
457.04	16.371
457.39	15.854
457.74	15.996
458.09	15.321
458.44	15.733
458.79	15.678
459.14	15.155
459.49	15.507
459.84	15.320
460.19	15.047
460.54	16.184
460.89	16.305
461.24	15.632
461.59	16.436
461.94	15.744
462.29	15.957
462.64	15.751
462.99	15.380
463.34	15.704
463.69	15.416
464.04	16.342
464.39	15.807
464.74	15.450
465.09	16.378
465.44	16.041
465.79	16.023
466.14	15.633
466.49	15.684
466.84	15.868
467.19	16.185
467.54	15.922
467.89	15.460
468.24	16.343
468.59	16.618
468.94	16.492
469.29	15.357
469.64	15.766
469.99	15.424
470.34	15.656
470.68	16.131
471.03	16.568
471.38	16.154
471.73	16.645
472.08	16.180
472.43	16.436
472.78	15.617
473.13	16.814
473.48	16.435
473.83	16.541
474.17	17.292
474.52	16.536
474.87	17.110
475.22	16.225
475.57	15.576
475.92	15.480
476.27	16.187
476.61	15.940
476.96	15.850
477.31	16.287
477.66	16.946
478.01	15.963
478.36	16.152
478.70	16.256
479.05	16.513
479.40	15.548
479.75	16.186
480.10	16.201
480.45	16.545
480.79	16.281
481.14	16.085
481.49	15.947
481.84	16.362
482.19	15.914
482.53	15.916
482.88	16.261
483.23	15.118
483.58	16.026
483.92	15.780
484.27	16.427
484.62	15.842
484.97	15.941
485.31	16.086
485.66	15.771
486.01	15.291
486.36	15.276
486.70	15.639
487.05	15.254
487.40	15.974
487.75	16.081
488.09	16.033
488.44	16.060
488.79	16.020
489.13	16.003
489.48	16.272
489.83	16.378
490.17	15.350
490.52	16.174
490.87	16.032
491.22	15.641
491.56	15.956
491.91	15.700
492.26	16.227
492.60	16.091
492.95	16.191
493.30	15.778
493.64	15.900
493.99	15.789
494.34	15.810
494.68	15.675
495.03	16.388
495.37	16.423
495.72	16.644
496.07	16.170
496.41	15.701
496.76	16.597
497.11	15.881
497.45	15.537
497.80	17.059
498.14	16.417
498.49	16.039
498.84	15.996
499.18	16.509
499.53	16.502
499.87	16.835
500.22	15.049
500.56	16.104
500.91	16.247
501.26	17.091
501.60	15.378
501.95	15.979
502.29	15.928
502.64	16.834
502.98	16.609
503.33	16.156
503.67	16.223
504.02	16.725
504.36	16.577
504.71	16.858
505.06	16.780
505.40	16.773
505.75	16.803
506.09	17.634
506.44	17.502
506.78	17.477
507.13	17.151
507.47	17.006
507.82	17.282
508.16	16.874
508.51	16.549
508.85	17.383
509.19	17.338
509.54	18.012
509.88	17.678
510.23	17.193
510.57	17.738
510.92	17.610
511.26	16.883
511.61	16.900
511.95	17.326
512.30	17.430
512.64	17.141
512.98	18.509
513.33	17.994
513.67	18.001
514.02	18.344
514.36	17.340
514.70	17.240
515.05	18.092
515.39	17.743
515.74	18.346
516.08	17.802
516.42	18.838
516.77	18.139
517.11	17.277
517.46	18.293
517.80	18.332
518.14	18.553
518.49	18.167
518.83	18.201
519.17	17.986
519.52	18.239
519.86	18.215
520.20	17.998
520.55	18.456
520.89	18.637
521.23	18.872
521.58	19.096
521.92	19.490
522.26	18.099
522.61	18.750
522.95	17.532
523.29	18.851
523.64	18.778
523.98	18.311
524.32	19.312
524.66	19.522
525.01	18.233
525.35	18.323
525.69	18.097
526.04	18.427
526.38	18.793
526.72	18.281
527.06	18.944
527.41	19.300
527.75	19.656
528.09	18.182
528.43	18.295
528.78	18.439
529.12	18.291
529.46	18.999
529.80	18.707
530.15	19.420
530.49	17.912
530.83	18.359
531.17	18.041
531.51	18.712
531.86	19.111
532.20	18.537
532.54	19.210
532.88	18.667
533.22	18.503
533.57	18.465
533.91	19.192
534.25	19.107
534.59	18.621
534.93	18.449
535.27	18.930
535.62	19.955
535.96	19.407
536.30	18.096
536.64	19.159
536.98	19.127
537.32	19.815
537.66	18.840
538.01	18.369
538.35	18.575
538.69	18.690
539.03	18.639
539.37	18.433
539.71	19.219
540.05	18.825
540.39	18.215
540.73	18.883
541.07	18.884
541.42	19.728
541.76	18.802
542.10	19.180
542.44	18.575
542.78	18.796
543.12	18.594
543.46	18.987
543.80	18.765
544.14	18.552
544.48	19.385
544.82	19.629
545.16	18.843
545.50	17.496
545.84	18.983
546.18	19.506
546.52	18.854
546.86	19.371
547.20	18.511
547.54	18.477
547.88	18.204
548.22	18.596
548.56	18.198
548.90	17.851
549.24	18.663
549.58	18.486
549.92	19.452
550.26	17.994
550.60	19.272
550.94	18.823
551.28	18.878
551.62	18.733
551.96	18.641
552.30	18.993
552.64	18.606
552.98	18.341
553.32	19.678
553.66	18.521
554.00	18.600
554.34	18.919
554.68	18.464
555.02	19.185
555.36	19.527
555.69	19.026
556.03	18.600
556.37	18.961
556.71	18.706
557.05	19.297
557.39	18.912
557.73	18.956
558.07	18.278
558.41	18.937
558.75	19.473
559.08	18.650
559.42	18.176
559.76	19.199
560.10	18.754
560.44	19.129
560.78	18.750
561.12	18.473
561.45	19.404
561.79	18.376
562.13	19.347
562.47	18.496
562.81	19.051
563.15	18.750
563.48	19.267
563.82	19.166
564.16	17.929
564.50	19.726
564.84	17.581
565.17	19.529
565.51	18.412
565.85	18.884
566.19	18.260
566.52	18.783
566.86	19.298
567.20	18.978
567.54	18.428
567.88	19.113
568.21	18.874
568.55	18.513
568.89	18.793
569.23	18.589
569.56	18.210
569.90	18.068
570.24	17.909
570.57	18.056
570.91	18.004
571.25	18.050
571.59	18.063
571.92	18.230
572.26	17.708
572.60	17.854
572.93	18.063
573.27	17.814
573.61	18.528
573.95	18.038
574.28	17.800
574.62	18.031
574.96	17.711
575.29	17.603
575.63	17.417
575.97	18.060
576.30	18.159
576.64	17.991
576.98	17.790
577.31	18.112
577.65	17.891
577.98	18.016
578.32	17.595
578.66	18.036
578.99	17.551
579.33	17.763
579.67	18.042
580.00	17.869
580.34	18.303
580.67	17.586
581.01	17.763
581.35	18.177
581.68	17.640
582.02	17.394
582.35	17.905
582.69	17.893
583.02	18.109
583.36	18.258
583.70	18.132
584.03	17.663
584.37	18.218
584.70	18.142
585.04	18.135
585.37	17.985
585.71	17.433
586.04	18.098
586.38	17.990
586.72	17.974
587.05	18.291
587.39	18.100
587.72	18.636
588.06	17.795
588.39	17.949
588.73	18.069
589.06	18.341
589.40	18.838
589.73	18.927
590.07	18.402
590.40	18.695
590.73	18.487
591.07	18.541
591.40	17.496
591.74	18.482
592.07	18.920
592.41	18.494
592.74	19.098
593.08	18.599
593.41	17.906
593.75	18.305
594.08	18.843
594.41	18.558
594.75	18.167
595.08	18.472
595.42	18.506
595.75	18.276
596.09	18.299
596.42	17.986
596.75	18.719
597.09	18.465
597.42	17.958
597.75	18.620
598.09	18.333
598.42	18.737
598.76	18.227
599.09	18.263
599.42	18.605
599.76	17.993
600.09	18.218
600.42	18.652
600.76	18.560
601.09	18.354
601.42	18.023
601.76	17.793
602.09	18.263
602.42	17.993
602.76	18.229
603.09	18.576
603.42	18.244
603.76	18.076
604.09	19.021
604.42	18.275
604.76	17.960
605.09	18.867
605.42	18.900
605.75	18.577
606.09	17.880
606.42	18.424
606.75	18.403
607.09	18.241
607.42	18.420
607.75	18.367
608.08	18.863
608.42	18.178
608.75	18.076
609.08	18.124
609.41	18.659
609.75	18.661
610.08	18.646
610.41	18.437
610.74	18.277
611.07	18.917
611.41	18.969
611.74	19.076
612.07	18.513
612.40	18.203
612.73	18.826
613.07	18.142
613.40	18.431
613.73	18.296
614.06	18.891
614.39	18.513
614.72	17.904
615.06	18.431
615.39	18.415
615.72	18.768
616.05	17.970
616.38	18.365
616.71	18.861
617.05	18.424
617.38	19.262
617.71	18.844
618.04	18.564
618.37	18.197
618.70	18.609
619.03	17.921
619.36	18.619
619.69	18.001
620.03	18.205
620.36	17.914
620.69	18.199
621.02	19.160
621.35	19.594
621.68	18.872
622.01	19.217
622.34	18.828
622.67	18.282
623.00	17.072
623.33	19.310
623.66	19.390
623.99	18.433
624.32	20.208
624.65	18.468
624.99	18.791
625.32	19.268
625.65	19.218
625.98	18.780
626.31	19.702
626.64	19.707
626.97	18.530
627.30	18.527
627.63	18.455
627.96	19.069
628.29	18.054
628.62	17.632
628.95	18.931
629.28	18.267
629.61	20.034
629.94	17.238
630.26	18.051
630.59	18.826
630.92	18.355
631.25	18.784
631.58	19.492
631.91	19.213
632.24	19.404
632.57	18.975
632.90	19.358
633.23	18.163
633.56	18.571
633.89	17.975
634.22	19.543
634.55	19.415
634.88	18.939
635.20	20.452
635.53	18.644
635.86	19.393
636.19	20.361
636.52	19.726
636.85	18.693
637.18	18.711
637.51	18.387
637.83	19.269
638.16	19.931
638.49	18.545
638.82	19.391
639.15	18.671
639.48	18.938
639.81	19.169
640.13	21.555
640.46	17.455
640.79	18.873
641.12	20.621
641.45	19.072
641.77	20.796
642.10	18.898
642.43	20.080
642.76	19.919
643.09	19.178
643.41	18.487
643.74	19.172
644.07	20.690
644.40	18.388
644.73	18.578
645.05	18.943
645.38	19.568
645.71	19.062
646.04	19.943
646.36	19.270
646.69	18.865
647.02	20.336
647.35	22.290
647.67	21.417
648.00	21.019
648.33	20.871
648.66	18.545
648.98	20.272
649.31	19.892
649.64	19.920
649.96	19.496
650.29	16.412
650.62	19.519
650.94	20.120
651.27	19.910
651.60	19.444
651.92	19.301
652.25	18.813
652.58	18.845
652.90	19.041
653.23	20.000
653.56	19.971
653.88	20.084
654.21	18.873
654.54	19.075
654.86	19.688
655.19	18.319
655.52	17.159
655.84	15.380
656.17	19.662
656.49	28.215
656.82	31.840
657.15	24.877
657.47	18.760
657.80	13.817
658.13	10.839
658.45	14.586
658.78	17.503
659.10	17.400
659.43	17.445
659.75	18.322
660.08	19.216
660.41	19.024
660.73	19.384
661.06	18.943
661.38	18.341
661.71	19.655
662.03	20.459
662.36	21.288
662.68	19.512
663.01	19.115
663.33	21.928
663.66	21.429
663.98	18.846
664.31	16.698
664.63	17.919
664.96	21.960
665.28	17.060
665.61	21.154
665.93	18.036
666.26	19.534
666.58	19.373
666.91	19.439
667.23	20.571
667.56	19.724
667.88	18.400
668.21	17.773
668.53	15.830
668.86	21.611
669.18	19.348
669.50	20.080
669.83	19.400
670.15	19.094
670.48	19.841
670.80	18.547
671.13	21.550
671.45	18.898
671.77	19.774
672.10	17.667
672.42	17.799
672.75	17.819
673.07	17.313
673.39	18.490
673.72	20.973
674.04	20.172
674.37	18.784
674.69	18.871
675.01	17.524
675.34	18.130
675.66	19.850
675.98	19.403
676.31	19.141
676.63	21.293
676.95	20.307
677.28	20.363
677.60	16.142
677.92	18.810
678.25	19.744
678.57	19.751
678.89	20.648
679.22	16.028
679.54	21.026
679.86	16.949
680.18	19.071
680.51	20.912
680.83	19.804
681.15	19.483
681.48	20.207
681.80	21.589
682.12	18.357
682.44	18.531
682.77	18.794
683.09	17.803
683.41	20.543
683.73	18.786
684.06	19.557
684.38	17.174
684.70	17.953
685.02	19.621
685.34	18.802
685.67	16.719
685.99	19.785
686.31	17.878
686.63	17.220
686.96	18.927
687.28	18.730
687.60	16.667
687.92	16.881
688.24	19.866
688.56	17.931
688.89	19.056
689.21	18.591
689.53	18.235
689.85	17.554
690.17	17.963
690.49	19.522
690.82	16.832
691.14	19.838
691.46	19.885
691.78	19.337
692.10	19.266
692.42	18.750
692.74	15.789
693.06	17.778
693.39	19.355
693.71	17.857
694.03	17.844
694.35	17.524
694.67	19.507
694.99	19.362
695.31	19.426
695.63	18.615
695.95	16.770
696.27	18.901
696.59	20.354
696.91	16.892
697.23	21.758
697.56	17.923
697.88	16.477
698.20	19.021
698.52	20.833
698.84	20.998
699.16	21.020
699.48	19.038
699.80	17.234
700.12	18.996
700.44	17.512
700.76	20.903
701.08	20.339
701.40	18.135
701.72	19.154
702.04	19.251
702.36	18.325
702.68	17.848
703.00	16.626
703.32	17.980
703.64	19.560
703.96	19.809
704.28	17.936
704.60	21.772
704.91	17.347
705.23	18.630
705.55	20.334
705.87	20.606
706.19	21.472
706.51	17.470
706.83	17.579
707.15	19.312
707.47	17.056
707.79	17.904
708.11	16.949
708.43	15.914
708.74	16.518
709.06	17.633
709.38	21.362
709.70	21.588
710.02	18.863
710.34	18.617
710.66	20.112
710.98	19.945
711.29	15.385
711.61	21.186
711.93	21.083
712.25	16.757
712.57	21.534
712.89	20.294
713.20	17.456
713.52	20.520
713.84	20.891
714.16	19.737
714.48	17.784
714.80	19.740
715.11	19.685
715.43	18.037
715.75	18.684
716.07	17.127
716.39	23.770
716.70	18.976
717.02	20.328
717.34	15.679
717.66	18.456
717.97	16.781
718.29	22.680
718.61	17.434
718.93	20.065
719.24	21.739
719.56	18.098
719.88	16.817
720.20	18.710
720.51	18.634
720.83	18.750
721.15	18.092
721.46	11.301
721.78	14.333
722.10	15.210
722.42	19.128
722.73	17.419
723.05	17.544
723.37	17.708
723.68	20.072
724.00	18.773
724.32	18.662
724.63	18.881
724.95	19.858
725.27	19.164
725.58	14.488
725.90	21.724
726.22	20.376
726.53	19.156
726.85	18.239
727.16	20.544
727.48	16.820
727.80	17.550
728.11	16.608
728.43	20.202
728.74	16.722
729.06	19.868
729.38	20.455
729.69	16.443
730.01	17.857
730.32	16.364
730.64	20.126
730.96	16.770
731.27	20.391
731.59	18.407
731.90	18.961
732.22	19.792
732.53	16.575
732.85	20.000
733.16	19.355
733.48	20.732
733.80	17.827
734.11	17.949
734.43	18.919
734.74	20.759
735.06	15.327
735.37	18.919
735.69	17.568
736.00	21.186
736.32	16.981
736.63	16.667
736.95	16.954
737.26	20.606
737.58	16.364
737.89	17.059
738.21	14.373
738.52	18.033
738.83	21.502
739.15	15.957
739.46	17.347
739.78	17.791
740.09	14.900
740.41	20.991
740.72	16.333
741.04	20.388
741.35	20.702
741.66	21.176
741.98	20.492
742.29	20.084
742.61	21.491
742.92	17.308
743.23	23.466
743.55	24.419
743.86	20.400
744.18	14.876
744.49	14.346
744.80	20.165
745.12	16.878
745.43	22.358
745.74	20.259
746.06	17.373
746.37	23.207
746.68	21.545
747.00	18.333
747.31	19.742
747.62	22.692
747.94	19.028
748.25	17.269
748.56	18.776
748.88	18.376
749.19	22.414
749.50	20.346
749.82	24.096
750.13	19.929
750.44	17.667
750.75	16.923
751.07	17.846
751.38	21.136
751.69	19.169
752.01	16.181
752.32	18.954
752.63	18.707
752.94	19.723
753.26	15.985
753.57	14.444
753.88	16.479
754.19	18.650
754.51	18.006
754.82	17.042
755.13	20.984
755.44	20.137
755.75	17.763
756.07	17.313
756.38	17.610
756.69	20.482
757.00	15.789
757.31	16.120
757.63	17.136
757.94	15.258
758.25	18.510
758.56	16.993
758.87	19.091
759.18	15.200
759.50	17.564
759.81	18.768
760.12	16.173
760.43	20.573
760.74	16.995
761.05	15.250
761.36	14.699
761.67	17.513
761.99	19.189
762.30	16.463
762.61	16.172
762.92	19.030
763.23	16.105
763.54	19.424
763.85	17.526
764.16	17.508
764.47	18.662
764.78	18.530
765.10	16.129
765.41	17.436
765.72	16.402
766.03	17.232
766.34	14.107
766.65	12.892
766.96	18.725
767.27	20.276
767.58	19.403
767.89	24.519
768.20	24.413
768.51	17.593
768.82	15.663
769.13	15.909
769.44	16.538
769.75	19.495
770.06	18.462
770.37	22.047
770.68	13.617
770.99	13.765
771.30	22.222
771.61	16.730
771.92	17.407
772.23	19.433
772.54	15.278
772.85	25.346
773.16	25.714
773.47	18.519
773.78	16.216
774.09	19.886
774.39	22.000
774.70	22.404
775.01	17.683
775.32	17.059
775.63	17.791
775.94	14.650
776.25	18.065
776.56	19.872
776.87	21.769
777.18	23.448
777.48	16.084
777.79	20.270
778.10	14.706
778.41	14.583
778.72	25.517
779.03	16.049
779.34	16.364
779.65	22.280
779.95	24.444
780.26	24.432
780.57	24.516
780.88	28.986
781.19	19.355
781.50	28.235
781.80	24.194
782.11	21.164
782.42	16.667
782.73	16.766
783.04	21.229
783.34	20.606
783.65	18.954
783.96	18.012
784.27	20.833
784.57	22.517
784.88	24.286
785.19	19.685
785.50	21.260
785.81	24.060
786.11	30.000
786.42	17.986
786.73	20.144
787.04	24.060
787.34	27.869
787.65	25.600
787.96	23.881
788.26	25.175
788.57	31.469
788.88	26.316
789.19	19.608
789.49	24.658
789.80	18.440
790.11	16.535
790.41	21.875
790.72	24.576
791.03	22.330
791.33	31.304
791.64	28.070
791.95	22.321
792.25	25.714
792.56	25.000
792.87	16.667
793.17	28.571
793.48	16.667
793.79	13.253
794.09	24.771
794.40	28.440
794.70	19.048
795.01	18.831
795.32	19.863
795.62	27.465
795.93	18.182
796.23	25.410
796.54	30.357
796.85	23.404
797.15	17.391
797.46	30.137
797.76	33.750
798.07	35.870
798.37	13.402
798.68	24.675
798.99	28.736
799.29	29.213
799.60	28.723
799.90	28.916
800.21	33.846
800.51	23.881
800.82	16.176
801.12	9.589
801.43	19.118
801.73	42.373
802.04	37.879
802.34	25.000
802.65	35.593
802.95	41.791
803.26	35.593
803.56	32.877
803.87	24.286
804.17	24.658
804.48	3.509
804.78	27.778
805.09	31.034
805.39	37.838
805.70	0.000
806.00	29.268
806.30	26.506
806.61	21.918
806.91	25.000
807.22	23.333
807.52	20.690
807.83	27.778
808.13	36.145
808.43	28.090
808.74	30.000
809.04	7.353
809.35	25.333
809.65	30.000
809.95	34.247
810.26	12.281
810.56	36.207
810.86	38.235
811.17	26.316
811.47	21.311
811.77	11.111
812.08	38.983
812.38	33.333
812.69	20.690
812.99	13.208
813.29	33.333
813.59	48.000
813.90	35.088
814.20	29.091
814.50	43.662
814.81	19.231
815.11	26.230
815.41	29.851
815.72	43.103
816.02	35.714
816.32	55.556
816.62	45.455
816.93	37.778
817.23	40.741
817.53	36.170
817.84	42.857
818.14	61.765
818.44	40.816
818.74	44.444
819.04	12.821
819.35	25.714
819.65	23.077
819.95	26.415
820.25	48.889
820.56	42.857
820.86	34.375
821.16	30.769
821.46	41.860
821.76	42.000
822.07	39.286
822.37	41.304
822.67	29.787
822.97	35.135
823.27	35.000
823.57	40.816
823.88	40.000
824.18	37.500
824.48	36.667
824.78	28.000
825.08	51.515
825.38	33.333
825.69	55.319
825.99	50.000
826.29	31.429
826.59	46.154
826.89	34.884
827.19	32.000
827.49	35.294
827.79	41.667
828.09	32.432
828.39	70.000
828.70	41.463
829.00	37.209
829.30	39.286
829.60	41.176
829.90	43.478
830.20	45.714
830.50	37.931
830.80	88.889
831.10	53.846
831.40	38.235
831.70	52.381
832.00	87.097
832.30	5.882
832.60	75.000
832.90	53.846
833.20	63.158
833.50	5.000
833.80	47.368
834.10	-19.048
834.40	55.556
834.70	43.750
835.00	0.000
835.30	55.882
835.60	43.333
835.90	48.000
836.20	50.000
836.50	60.000
836.80	39.394
837.10	48.148
837.40	37.037
837.70	12.500
838.00	60.714
838.30	56.522
838.60	65.517
838.90	28.571
839.19	30.435
839.49	108.333
839.79	34.783
840.09	81.250
840.39	65.000
840.69	51.613
840.99	46.429
841.29	93.333
841.59	94.737
841.88	46.154
842.18	23.077
842.48	50.000
842.78	40.000
843.08	66.667
843.38	64.516
843.68	11.111
843.97	52.941
844.27	56.250
844.57	73.684
844.87	100.000
845.17	40.000
845.47	90.476
845.76	100.000
846.06	122.222
846.36	0.000
846.66	46.154
846.96	93.333
847.25	129.412
847.55	108.696
847.85	115.000
848.15	82.353
848.44	54.545
848.74	71.429
849.04	29.167
849.34	93.750
849.63	52.174
849.93	-350.000
850.23	40.000
850.53	53.846
850.82	136.364
851.12	86.364
851.42	0.000
851.71	115.385
852.01	40.000
852.31	161.538
852.61	52.632
852.90	100.000
853.20	88.889
853.50	77.778
853.79	61.905
854.09	72.727
854.39	83.333
854.68	48.387
854.98	57.692
855.28	72.222
855.57	25.000
855.87	44.000
856.17	50.000
856.46	96.296
856.76	16.667
857.05	73.913
857.35	45.833
857.65	84.615
857.94	95.238
858.24	70.370
858.53	65.217
858.83	64.706
859.13	123.529
859.42	117.647
859.72	142.857
860.01	10.000
860.31	111.111
860.60	150.000
860.90	20.000
861.20	5.556
861.49	53.846
861.79	50.000
862.08	30.769
862.38	53.125
862.67	70.588
862.97	112.500
863.26	66.667
863.56	220.000
863.85	163.636
864.15	50.000
864.44	300.000
864.74	78.571
865.03	6.250
865.33	120.000
865.62	35.484
865.92	90.909
866.21	86.957
866.51	85.714
866.80	160.000
867.10	83.333
867.39	25.000
867.69	-1100.000
867.98	285.714
868.27	123.529
868.57	-1000.000
868.86	30.000
869.16	19.048
869.45	83.333
869.75	145.455
870.04	271.429
870.33	50.000
870.63	42.857
870.92	625.000
871.22	25.000
871.51	172.727
871.80	0.000
872.10	500.000
>>>>>End Processed Spectral Data<<<<<
