SpectraSuite Data File
++++++++++++++++++++++++++++++++++++
Date: Thu May 14 14:28:25 PDT 2015
User: schluterlab
Dark Spectrum Present: Yes
Reference Spectrum Present: Yes
Number of Sampled Component Spectra: 1
Spectrometers: USB2E3373
Integration Time (usec): 3000 (USB2E3373)
Spectra Averaged: 3 (USB2E3373)
Boxcar Smoothing: 0 (USB2E3373)
Correct for Electrical Dark: No (USB2E3373)
Strobe/Lamp Enabled: No (USB2E3373)
Correct for Detector Non-linearity: No (USB2E3373)
Correct for Stray Light: No (USB2E3373)
Number of Pixels in Processed Spectrum: 2048
>>>>>Begin Processed Spectral Data<<<<<
178.53	0.000
178.91	-142.857
179.29	0.000
179.67	800.000
180.04	-0.000
180.42	-140.000
180.80	-60.000
181.18	200.000
181.56	2700.000
181.94	-325.000
182.31	200.000
182.69	-266.667
183.07	900.000
183.45	-100.000
183.83	266.667
184.20	533.333
184.58	-700.000
184.96	400.000
185.34	233.333
185.72	60.000
186.09	-22.222
186.47	-150.000
186.85	-80.000
187.23	111.111
187.61	800.000
187.98	-100.000
188.36	-200.000
188.74	400.000
189.12	500.000
189.49	87.500
189.87	125.000
190.25	155.556
190.63	240.000
191.00	88.889
191.38	0.000
191.76	100.000
192.14	266.667
192.51	-50.000
192.89	216.667
193.27	0.000
193.65	242.857
194.02	-100.000
194.40	100.000
194.78	-200.000
195.15	0.000
195.53	163.636
195.91	0.000
196.29	325.000
196.66	107.692
197.04	-400.000
197.42	128.571
197.79	650.000
198.17	162.500
198.55	157.143
198.92	211.111
199.30	212.500
199.68	227.273
200.05	92.857
200.43	100.000
200.81	-28.571
201.18	0.000
201.56	-55.556
201.94	0.000
202.31	-33.333
202.69	-22.222
203.07	-1000.000
203.44	22.222
203.82	325.000
204.19	100.000
204.57	133.333
204.95	125.000
205.32	600.000
205.70	-300.000
206.08	216.667
206.45	50.000
206.83	-60.000
207.20	350.000
207.58	120.000
207.96	-66.667
208.33	333.333
208.71	-66.667
209.08	266.667
209.46	0.000
209.84	-100.000
210.21	-250.000
210.59	-550.000
210.96	-100.000
211.34	250.000
211.71	112.500
212.09	1600.000
212.46	0.000
212.84	-450.000
213.22	140.000
213.59	175.000
213.97	150.000
214.34	233.333
214.72	-233.333
215.09	300.000
215.47	0.000
215.84	-242.857
216.22	-400.000
216.59	200.000
216.97	60.000
217.34	325.000
217.72	75.000
218.09	250.000
218.47	225.000
218.84	0.000
219.22	-400.000
219.59	64.706
219.97	50.000
220.34	-400.000
220.72	44.444
221.09	130.769
221.47	266.667
221.84	190.000
222.22	42.857
222.59	0.000
222.97	262.500
223.34	-60.000
223.72	1200.000
224.09	250.000
224.46	250.000
224.84	200.000
225.21	0.000
225.59	275.000
225.96	100.000
226.34	46.154
226.71	50.000
227.08	300.000
227.46	73.333
227.83	225.000
228.21	89.474
228.58	-37.500
228.95	-350.000
229.33	166.667
229.70	70.000
230.08	152.632
230.45	-20.000
230.82	400.000
231.20	114.286
231.57	175.000
231.95	190.909
232.32	127.273
232.69	50.000
233.07	250.000
233.44	52.941
233.81	180.000
234.19	72.222
234.56	72.727
234.93	72.414
235.31	84.211
235.68	66.667
236.05	35.000
236.43	84.615
236.80	104.000
237.17	81.481
237.55	42.424
237.92	20.000
238.29	25.806
238.67	22.727
239.04	33.333
239.41	26.190
239.79	26.087
240.16	16.667
240.53	15.217
240.91	13.725
241.28	22.951
241.65	26.866
242.02	32.432
242.40	20.000
242.77	17.333
243.14	14.634
243.51	13.158
243.89	8.974
244.26	9.901
244.63	7.843
245.00	13.084
245.38	21.053
245.75	8.850
246.12	17.460
246.49	2.326
246.87	19.286
247.24	11.921
247.61	11.842
247.98	9.396
248.36	8.642
248.73	6.135
249.10	8.743
249.47	13.433
249.84	8.377
250.22	7.254
250.59	4.444
250.96	10.909
251.33	3.061
251.70	8.547
252.08	8.333
252.45	6.557
252.82	8.264
253.19	3.125
253.56	9.886
253.94	6.538
254.31	9.848
254.68	7.692
255.05	8.469
255.42	7.823
255.79	5.825
256.16	7.285
256.54	3.974
256.91	9.508
257.28	6.230
257.65	3.822
258.02	2.655
258.39	6.838
258.76	10.703
259.14	8.621
259.51	7.493
259.88	4.249
260.25	10.278
260.62	9.589
260.99	9.016
261.36	7.507
261.73	4.244
262.10	5.769
262.47	7.239
262.85	11.616
263.22	3.636
263.59	2.632
263.96	5.882
264.33	5.115
264.70	5.679
265.07	7.876
265.44	8.390
265.81	5.324
266.18	5.896
266.55	5.580
266.92	4.784
267.29	7.659
267.66	7.539
268.03	5.895
268.40	5.637
268.77	2.733
269.14	4.405
269.51	6.798
269.88	7.992
270.25	6.237
270.62	8.439
270.99	8.687
271.36	4.356
271.73	7.859
272.10	7.415
272.47	5.210
272.84	6.225
273.21	6.212
273.58	6.250
273.95	4.231
274.32	4.943
274.69	4.449
275.06	4.762
275.43	5.915
275.80	7.055
276.17	4.630
276.54	4.664
276.91	5.009
277.28	5.967
277.65	5.206
278.02	5.331
278.39	5.072
278.76	4.218
279.13	4.255
279.50	6.701
279.87	5.725
280.23	4.930
280.60	4.915
280.97	6.250
281.34	5.433
281.71	9.306
282.08	4.319
282.45	5.565
282.82	4.867
283.19	3.069
283.56	4.098
283.92	6.006
284.29	6.793
284.66	5.747
285.03	4.327
285.40	5.410
285.77	4.180
286.14	7.328
286.51	4.414
286.87	3.318
287.24	4.518
287.61	3.737
287.98	4.834
288.35	5.030
288.72	5.178
289.08	5.417
289.45	5.030
289.82	4.970
290.19	4.598
290.56	6.761
290.93	5.706
291.29	4.959
291.66	4.959
292.03	3.256
292.40	5.986
292.77	3.639
293.13	6.089
293.50	5.782
293.87	4.966
294.24	6.933
294.60	6.574
294.97	5.235
295.34	5.762
295.71	5.422
296.08	4.910
296.44	6.005
296.81	5.481
297.18	4.234
297.55	5.778
297.91	4.152
298.28	4.976
298.65	4.637
299.02	4.250
299.38	6.064
299.75	5.140
300.12	3.935
300.48	4.147
300.85	4.724
301.22	5.481
301.59	4.452
301.95	4.520
302.32	7.000
302.69	4.381
303.05	4.788
303.42	4.545
303.79	5.104
304.15	6.519
304.52	4.651
304.89	5.759
305.25	5.797
305.62	5.016
305.99	5.979
306.35	5.242
306.72	5.067
307.09	6.497
307.45	5.280
307.82	5.853
308.19	5.651
308.55	6.461
308.92	5.453
309.29	5.268
309.65	5.556
310.02	4.950
310.38	5.217
310.75	5.825
311.12	5.944
311.48	4.985
311.85	5.603
312.22	4.744
312.58	5.634
312.95	5.258
313.31	5.510
313.68	5.495
314.05	6.685
314.41	6.011
314.78	5.904
315.14	6.624
315.51	6.279
315.87	5.851
316.24	6.484
316.61	6.394
316.97	5.339
317.34	5.732
317.70	6.288
318.07	5.996
318.43	6.207
318.80	8.027
319.16	6.609
319.53	6.084
319.89	6.223
320.26	6.940
320.62	6.472
320.99	6.833
321.35	6.747
321.72	6.791
322.08	6.583
322.45	7.227
322.81	6.949
323.18	6.549
323.54	6.724
323.91	7.651
324.27	8.176
324.64	7.221
325.00	6.302
325.37	8.518
325.73	7.934
326.10	8.191
326.46	8.795
326.83	9.528
327.19	8.504
327.56	8.221
327.92	8.340
328.29	8.871
328.65	8.543
329.01	9.306
329.38	9.436
329.74	8.562
330.11	10.616
330.47	9.267
330.84	10.164
331.20	9.667
331.56	8.666
331.93	10.377
332.29	9.237
332.66	9.385
333.02	9.548
333.38	8.473
333.75	9.259
334.11	9.925
334.48	9.901
334.84	9.516
335.20	9.572
335.57	10.624
335.93	8.926
336.29	9.817
336.66	8.326
337.02	9.448
337.38	9.694
337.75	8.843
338.11	9.420
338.47	9.016
338.84	10.321
339.20	8.256
339.56	8.979
339.93	9.031
340.29	10.145
340.65	9.408
341.02	10.694
341.38	10.105
341.74	9.040
342.11	9.574
342.47	9.055
342.83	8.535
343.20	9.894
343.56	9.142
343.92	9.688
344.28	9.375
344.65	10.155
345.01	9.048
345.37	10.498
345.73	8.262
346.10	10.452
346.46	9.177
346.82	9.738
347.19	10.008
347.55	10.091
347.91	9.287
348.27	9.332
348.63	9.520
349.00	10.291
349.36	10.929
349.72	9.449
350.08	9.435
350.45	8.821
350.81	9.276
351.17	9.624
351.53	9.401
351.89	9.188
352.26	9.776
352.62	8.881
352.98	8.168
353.34	8.588
353.70	8.860
354.07	10.060
354.43	8.808
354.79	8.377
355.15	9.419
355.51	10.526
355.87	8.452
356.24	9.430
356.60	9.091
356.96	9.637
357.32	8.848
357.68	8.858
358.04	8.832
358.40	8.507
358.77	9.649
359.13	8.715
359.49	9.145
359.85	9.355
360.21	9.397
360.57	9.835
360.93	9.027
361.29	9.895
361.66	8.617
362.02	10.369
362.38	9.909
362.74	9.008
363.10	9.285
363.46	9.141
363.82	8.949
364.18	9.571
364.54	9.059
364.90	10.033
365.26	8.897
365.62	9.733
365.98	9.326
366.35	9.329
366.71	9.388
367.07	9.202
367.43	9.455
367.79	9.622
368.15	10.368
368.51	9.675
368.87	10.124
369.23	8.867
369.59	8.948
369.95	10.142
370.31	9.858
370.67	9.216
371.03	9.557
371.39	9.201
371.75	9.560
372.11	9.350
372.47	9.885
372.83	10.144
373.19	9.073
373.55	8.875
373.91	9.202
374.27	9.961
374.63	10.081
374.99	8.820
375.35	9.481
375.71	10.194
376.07	9.425
376.42	9.887
376.78	9.882
377.14	9.794
377.50	10.247
377.86	10.591
378.22	10.599
378.58	9.810
378.94	9.918
379.30	10.252
379.66	10.406
380.02	9.579
380.38	10.541
380.74	9.634
381.09	10.337
381.45	9.545
381.81	11.300
382.17	10.629
382.53	9.883
382.89	9.989
383.25	10.023
383.61	9.433
383.97	10.012
384.32	11.423
384.68	9.629
385.04	10.353
385.40	11.491
385.76	11.254
386.12	10.353
386.48	10.294
386.83	10.846
387.19	10.023
387.55	10.094
387.91	10.788
388.27	10.508
388.62	10.653
388.98	10.716
389.34	10.961
389.70	11.389
390.06	10.480
390.42	10.060
390.77	10.957
391.13	10.974
391.49	11.292
391.85	9.939
392.20	10.498
392.56	11.341
392.92	11.505
393.28	10.614
393.64	10.838
393.99	11.214
394.35	10.923
394.71	10.778
395.07	10.120
395.42	10.680
395.78	11.091
396.14	10.873
396.50	10.748
396.85	11.568
397.21	11.598
397.57	11.131
397.92	11.283
398.28	10.592
398.64	10.297
399.00	10.681
399.35	10.785
399.71	10.489
400.07	11.230
400.42	10.477
400.78	10.532
401.14	10.302
401.49	10.915
401.85	11.105
402.21	10.892
402.57	11.092
402.92	10.579
403.28	10.597
403.63	10.919
403.99	10.511
404.35	10.802
404.70	10.765
405.06	11.467
405.42	11.007
405.77	10.960
406.13	10.805
406.49	10.304
406.84	10.803
407.20	10.956
407.55	10.418
407.91	10.937
408.27	10.483
408.62	10.820
408.98	10.737
409.34	9.677
409.69	10.136
410.05	11.430
410.40	10.035
410.76	9.927
411.11	11.105
411.47	10.504
411.83	11.052
412.18	10.542
412.54	11.263
412.89	11.583
413.25	10.553
413.60	10.281
413.96	10.664
414.31	10.085
414.67	10.793
415.03	10.523
415.38	10.467
415.74	10.568
416.09	10.302
416.45	10.645
416.80	9.731
417.16	10.345
417.51	10.523
417.87	9.933
418.22	10.419
418.58	9.418
418.93	11.292
419.29	10.358
419.64	10.204
420.00	10.326
420.35	10.387
420.71	11.028
421.06	10.063
421.42	9.862
421.77	10.178
422.12	10.888
422.48	9.882
422.83	10.405
423.19	10.769
423.54	10.343
423.90	9.774
424.25	10.453
424.61	9.816
424.96	10.873
425.31	10.934
425.67	10.467
426.02	9.353
426.38	9.759
426.73	9.710
427.09	11.130
427.44	9.121
427.79	9.950
428.15	9.760
428.50	10.225
428.85	9.816
429.21	9.947
429.56	10.020
429.92	10.369
430.27	10.217
430.62	10.015
430.98	9.198
431.33	9.238
431.68	9.243
432.04	10.056
432.39	9.855
432.74	10.331
433.10	10.114
433.45	9.699
433.80	9.764
434.16	9.866
434.51	9.969
434.86	9.229
435.22	10.946
435.57	9.965
435.92	10.184
436.28	10.637
436.63	9.612
436.98	9.179
437.34	10.203
437.69	9.686
438.04	9.149
438.39	10.109
438.75	9.408
439.10	9.619
439.45	10.173
439.81	8.927
440.16	9.223
440.51	9.866
440.86	10.172
441.22	10.075
441.57	9.748
441.92	9.554
442.27	10.303
442.63	10.283
442.98	10.459
443.33	9.363
443.68	10.456
444.03	9.737
444.39	9.801
444.74	9.342
445.09	9.934
445.44	9.905
445.79	9.579
446.15	10.226
446.50	9.716
446.85	9.679
447.20	9.768
447.55	10.251
447.91	9.215
448.26	9.144
448.61	9.564
448.96	10.408
449.31	9.809
449.66	9.967
450.02	9.388
450.37	9.963
450.72	9.688
451.07	10.137
451.42	9.301
451.77	10.061
452.12	10.045
452.47	9.566
452.83	9.966
453.18	10.274
453.53	9.018
453.88	9.387
454.23	9.718
454.58	9.808
454.93	9.466
455.28	9.934
455.63	9.949
455.98	9.665
456.34	9.482
456.69	8.466
457.04	9.574
457.39	10.643
457.74	9.284
458.09	9.006
458.44	10.183
458.79	9.283
459.14	8.338
459.49	9.281
459.84	8.972
460.19	8.329
460.54	9.426
460.89	9.264
461.24	9.023
461.59	9.906
461.94	8.956
462.29	9.742
462.64	8.811
462.99	9.793
463.34	9.799
463.69	10.023
464.04	9.894
464.39	9.473
464.74	10.034
465.09	9.400
465.44	9.764
465.79	9.254
466.14	8.911
466.49	10.053
466.84	9.642
467.19	9.133
467.54	7.932
467.89	8.966
468.24	9.584
468.59	9.265
468.94	8.800
469.29	8.878
469.64	9.345
469.99	8.987
470.34	9.158
470.68	8.749
471.03	9.234
471.38	9.353
471.73	9.168
472.08	8.503
472.43	9.874
472.78	9.194
473.13	7.965
473.48	8.882
473.83	9.460
474.17	9.672
474.52	9.140
474.87	9.911
475.22	9.634
475.57	8.930
475.92	8.761
476.27	8.839
476.61	8.775
476.96	8.707
477.31	8.812
477.66	9.916
478.01	9.253
478.36	9.521
478.70	8.867
479.05	8.845
479.40	8.687
479.75	9.846
480.10	9.332
480.45	8.888
480.79	8.934
481.14	8.594
481.49	9.132
481.84	8.877
482.19	8.602
482.53	8.789
482.88	9.039
483.23	8.893
483.58	8.996
483.92	8.466
484.27	8.213
484.62	8.870
484.97	9.292
485.31	8.377
485.66	8.642
486.01	7.959
486.36	7.883
486.70	8.205
487.05	8.181
487.40	8.637
487.75	8.982
488.09	8.453
488.44	9.001
488.79	9.106
489.13	8.834
489.48	8.350
489.83	8.974
490.17	8.586
490.52	8.867
490.87	8.629
491.22	8.666
491.56	9.258
491.91	8.897
492.26	8.741
492.60	8.745
492.95	9.127
493.30	8.427
493.64	8.585
493.99	8.596
494.34	8.885
494.68	8.094
495.03	8.943
495.37	8.344
495.72	8.707
496.07	8.808
496.41	8.366
496.76	8.299
497.11	8.408
497.45	8.718
497.80	9.240
498.14	8.798
498.49	8.502
498.84	8.410
499.18	8.727
499.53	9.013
499.87	9.275
500.22	8.370
500.56	8.637
500.91	8.055
501.26	8.455
501.60	8.308
501.95	8.988
502.29	8.293
502.64	9.182
502.98	8.714
503.33	8.380
503.67	7.676
504.02	8.406
504.36	8.981
504.71	8.544
505.06	8.959
505.40	9.141
505.75	8.515
506.09	9.116
506.44	8.960
506.78	8.991
507.13	8.437
507.47	8.716
507.82	9.328
508.16	8.987
508.51	8.579
508.85	8.644
509.19	8.574
509.54	9.174
509.88	8.451
510.23	8.888
510.57	9.087
510.92	8.563
511.26	8.177
511.61	8.836
511.95	9.175
512.30	9.257
512.64	8.646
512.98	9.655
513.33	8.821
513.67	8.669
514.02	9.811
514.36	9.616
514.70	8.802
515.05	9.489
515.39	8.399
515.74	9.862
516.08	8.928
516.42	9.524
516.77	8.517
517.11	8.922
517.46	9.120
517.80	10.048
518.14	9.576
518.49	9.544
518.83	8.834
519.17	8.347
519.52	9.015
519.86	9.556
520.20	9.052
520.55	9.200
520.89	8.840
521.23	9.213
521.58	8.870
521.92	9.235
522.26	9.336
522.61	9.433
522.95	8.651
523.29	9.023
523.64	8.913
523.98	10.040
524.32	9.799
524.66	9.220
525.01	9.400
525.35	8.673
525.69	9.339
526.04	9.357
526.38	9.080
526.72	9.400
527.06	9.384
527.41	9.155
527.75	9.086
528.09	9.209
528.43	8.763
528.78	8.960
529.12	8.544
529.46	8.657
529.80	9.153
530.15	9.391
530.49	8.304
530.83	9.504
531.17	8.722
531.51	9.507
531.86	8.834
532.20	9.329
532.54	9.096
532.88	9.091
533.22	9.311
533.57	10.271
533.91	9.540
534.25	9.158
534.59	9.598
534.93	8.715
535.27	9.352
535.62	9.437
535.96	9.239
536.30	8.931
536.64	10.330
536.98	9.348
537.32	9.815
537.66	9.545
538.01	9.366
538.35	9.074
538.69	7.933
539.03	9.135
539.37	8.952
539.71	9.189
540.05	9.472
540.39	9.230
540.73	8.743
541.07	8.829
541.42	8.683
541.76	8.600
542.10	9.228
542.44	8.952
542.78	9.550
543.12	9.416
543.46	8.974
543.80	8.573
544.14	9.455
544.48	9.929
544.82	9.336
545.16	9.243
545.50	9.407
545.84	8.818
546.18	9.815
546.52	8.790
546.86	8.868
547.20	8.270
547.54	8.739
547.88	9.343
548.22	8.421
548.56	8.894
548.90	8.358
549.24	9.179
549.58	9.338
549.92	8.418
550.26	9.773
550.60	9.892
550.94	9.056
551.28	10.231
551.62	10.243
551.96	9.256
552.30	9.815
552.64	9.459
552.98	8.734
553.32	8.682
553.66	8.296
554.00	9.836
554.34	9.009
554.68	9.103
555.02	9.396
555.36	9.204
555.69	8.584
556.03	9.458
556.37	9.637
556.71	9.321
557.05	9.137
557.39	9.290
557.73	9.049
558.07	8.411
558.41	8.837
558.75	9.060
559.08	8.559
559.42	8.436
559.76	9.430
560.10	8.640
560.44	8.245
560.78	9.063
561.12	8.744
561.45	8.881
561.79	8.730
562.13	8.811
562.47	8.015
562.81	8.544
563.15	9.091
563.48	8.577
563.82	9.432
564.16	7.935
564.50	9.237
564.84	8.437
565.17	8.824
565.51	7.710
565.85	8.551
566.19	8.410
566.52	8.719
566.86	8.998
567.20	7.993
567.54	8.710
567.88	8.206
568.21	8.350
568.55	8.249
568.89	8.398
569.23	8.069
569.56	7.855
569.90	8.019
570.24	7.960
570.57	7.697
570.91	7.379
571.25	7.579
571.59	7.793
571.92	7.676
572.26	7.782
572.60	7.508
572.93	8.238
573.27	8.120
573.61	7.994
573.95	7.599
574.28	7.802
574.62	7.185
574.96	7.521
575.29	7.711
575.63	7.438
575.97	7.329
576.30	7.649
576.64	7.731
576.98	7.563
577.31	7.600
577.65	7.553
577.98	7.229
578.32	7.428
578.66	7.444
578.99	7.536
579.33	7.448
579.67	7.412
580.00	7.800
580.34	7.701
580.67	7.613
581.01	7.226
581.35	7.539
581.68	7.152
582.02	7.329
582.35	7.382
582.69	7.184
583.02	7.307
583.36	7.866
583.70	7.839
584.03	7.463
584.37	7.998
584.70	7.824
585.04	7.370
585.37	7.534
585.71	7.508
586.04	7.508
586.38	7.405
586.72	7.170
587.05	7.240
587.39	7.155
587.72	7.440
588.06	7.930
588.39	7.667
588.73	7.434
589.06	7.562
589.40	7.621
589.73	8.194
590.07	8.322
590.40	8.181
590.73	7.741
591.07	8.079
591.40	8.204
591.74	7.591
592.07	8.526
592.41	8.044
592.74	7.526
593.08	7.930
593.41	7.757
593.75	7.328
594.08	7.816
594.41	7.692
594.75	7.406
595.08	7.402
595.42	7.695
595.75	7.362
596.09	7.862
596.42	7.703
596.75	8.221
597.09	7.798
597.42	7.946
597.75	7.213
598.09	8.016
598.42	8.243
598.76	7.184
599.09	7.512
599.42	7.208
599.76	7.560
600.09	7.608
600.42	7.674
600.76	7.100
601.09	7.401
601.42	7.724
601.76	7.379
602.09	7.684
602.42	6.761
602.76	7.454
603.09	7.819
603.42	7.587
603.76	7.188
604.09	8.162
604.42	7.450
604.76	7.344
605.09	8.257
605.42	7.656
605.75	7.846
606.09	7.503
606.42	7.771
606.75	7.196
607.09	7.066
607.42	7.900
607.75	7.620
608.08	7.577
608.42	7.658
608.75	7.629
609.08	7.852
609.41	7.896
609.75	7.411
610.08	8.179
610.41	7.732
610.74	7.689
611.07	7.638
611.41	8.206
611.74	7.436
612.07	7.761
612.40	7.129
612.73	7.971
613.07	8.117
613.40	8.229
613.73	7.848
614.06	7.655
614.39	7.532
614.72	8.297
615.06	7.652
615.39	7.347
615.72	7.346
616.05	7.431
616.38	7.518
616.71	7.785
617.05	8.094
617.38	8.293
617.71	8.585
618.04	8.419
618.37	7.814
618.70	8.032
619.03	7.826
619.36	7.645
619.69	8.456
620.03	7.470
620.36	8.037
620.69	8.020
621.02	8.924
621.35	7.837
621.68	8.460
622.01	8.256
622.34	7.392
622.67	8.110
623.00	6.748
623.33	8.361
623.66	7.912
623.99	7.768
624.32	8.967
624.65	8.044
624.99	7.932
625.32	8.752
625.65	7.822
625.98	7.661
626.31	8.150
626.64	8.278
626.97	7.877
627.30	6.986
627.63	7.202
627.96	8.859
628.29	9.416
628.62	7.137
628.95	8.151
629.28	7.562
629.61	8.754
629.94	7.448
630.26	8.559
630.59	8.895
630.92	8.225
631.25	9.213
631.58	8.851
631.91	8.716
632.24	8.261
632.57	8.349
632.90	7.924
633.23	10.408
633.56	8.469
633.89	7.955
634.22	9.979
634.55	9.290
634.88	7.576
635.20	10.441
635.53	9.492
635.86	7.909
636.19	8.484
636.52	9.388
636.85	8.069
637.18	7.380
637.51	8.495
637.83	8.527
638.16	8.756
638.49	8.920
638.82	8.568
639.15	7.331
639.48	9.353
639.81	8.199
640.13	10.718
640.46	6.909
640.79	8.701
641.12	9.565
641.45	9.159
641.77	9.114
642.10	9.186
642.43	9.441
642.76	8.537
643.09	8.356
643.41	9.804
643.74	8.000
644.07	11.034
644.40	9.335
644.73	9.144
645.05	7.636
645.38	9.209
645.71	9.384
646.04	10.760
646.36	7.883
646.69	8.896
647.02	8.716
647.35	10.840
647.67	10.950
648.00	8.599
648.33	9.309
648.66	9.558
648.98	8.027
649.31	8.525
649.64	9.695
649.96	8.753
650.29	8.484
650.62	8.769
650.94	9.760
651.27	8.533
651.60	8.480
651.92	8.815
652.25	9.407
652.58	9.078
652.90	8.285
653.23	9.577
653.56	9.986
653.88	10.534
654.21	9.437
654.54	7.225
654.86	8.357
655.19	7.277
655.52	8.380
655.84	5.554
656.17	6.786
656.49	9.626
656.82	11.309
657.15	9.192
657.47	6.954
657.80	5.411
658.13	4.325
658.45	6.039
658.78	7.443
659.10	7.447
659.43	7.929
659.75	8.350
660.08	7.899
660.41	9.016
660.73	8.780
661.06	8.370
661.38	10.367
661.71	8.621
662.03	10.582
662.36	10.733
662.68	9.193
663.01	10.442
663.33	10.586
663.66	13.004
663.98	8.077
664.31	10.507
664.63	7.129
664.96	10.163
665.28	7.260
665.61	9.266
665.93	7.857
666.26	8.602
666.58	7.196
666.91	9.720
667.23	9.333
667.56	9.467
667.88	11.000
668.21	6.641
668.53	7.143
668.86	8.644
669.18	8.350
669.50	10.736
669.83	9.600
670.15	10.827
670.48	10.119
670.80	9.178
671.13	10.208
671.45	10.630
671.77	8.851
672.10	8.667
672.42	7.929
672.75	7.988
673.07	10.000
673.39	9.091
673.72	9.899
674.04	9.828
674.37	9.481
674.69	9.171
675.01	7.429
675.34	8.969
675.66	9.363
675.98	10.075
676.31	8.398
676.63	10.266
676.95	9.195
677.28	11.694
677.60	7.480
677.92	9.405
678.25	9.689
678.57	9.609
678.89	9.898
679.22	6.620
679.54	9.060
679.86	7.966
680.18	6.633
680.51	9.748
680.83	8.674
681.15	5.862
681.48	11.054
681.80	9.845
682.12	6.818
682.44	9.349
682.77	10.106
683.09	7.576
683.41	9.496
683.73	9.677
684.06	8.672
684.38	8.766
684.70	9.695
685.02	8.434
685.34	8.153
685.67	8.044
685.99	8.129
686.31	6.395
686.63	7.109
686.96	8.991
687.28	9.121
687.60	6.902
687.92	7.717
688.24	9.683
688.56	6.207
688.89	8.893
689.21	9.002
689.53	8.431
689.85	8.481
690.17	9.074
690.49	9.761
690.82	9.307
691.14	10.121
691.46	9.178
691.78	10.313
692.10	9.174
692.42	8.036
692.74	9.256
693.06	7.963
693.39	11.575
693.71	5.263
694.03	8.922
694.35	8.381
694.67	10.472
694.99	9.149
695.31	10.596
695.63	9.740
695.95	9.731
696.27	7.033
696.59	8.186
696.91	9.685
697.23	11.429
697.56	7.536
697.88	7.765
698.20	8.286
698.52	11.553
698.84	8.524
699.16	9.592
699.48	7.531
699.80	7.234
700.12	8.952
700.44	7.604
700.76	8.314
701.08	11.380
701.40	9.585
701.72	10.448
702.04	10.428
702.36	7.592
702.68	10.513
703.00	8.557
703.32	7.143
703.64	11.247
703.96	9.547
704.28	9.337
704.60	9.620
704.91	10.714
705.23	10.137
705.55	8.357
705.87	10.303
706.19	10.429
706.51	7.229
706.83	7.493
707.15	9.524
707.47	7.477
707.79	7.205
708.11	6.568
708.43	7.527
708.74	6.696
709.06	8.585
709.38	10.563
709.70	8.189
710.02	11.886
710.34	9.840
710.66	5.028
710.98	7.650
711.29	7.967
711.61	8.475
711.93	9.117
712.25	9.189
712.57	16.224
712.89	13.529
713.20	9.172
713.52	11.272
713.84	10.864
714.16	13.158
714.48	13.144
714.80	11.169
715.11	9.449
715.43	7.958
715.75	10.000
716.07	9.392
716.39	8.743
716.70	11.145
717.02	10.164
717.34	9.059
717.66	12.752
717.97	8.904
718.29	10.653
718.61	9.211
718.93	11.003
719.24	9.938
719.56	9.509
719.88	9.009
720.20	13.226
720.51	10.559
720.83	10.938
721.15	9.868
721.46	4.452
721.78	12.667
722.10	6.796
722.42	8.725
722.73	7.097
723.05	12.281
723.37	14.236
723.68	11.470
724.00	11.552
724.32	6.690
724.63	12.238
724.95	14.184
725.27	9.756
725.58	7.420
725.90	13.448
726.22	8.150
726.53	10.390
726.85	11.635
727.16	11.480
727.48	10.398
727.80	10.265
728.11	10.247
728.43	12.458
728.74	11.706
729.06	12.252
729.38	10.065
729.69	11.409
730.01	11.607
730.32	6.061
730.64	6.918
730.96	8.075
731.27	9.777
731.59	10.989
731.90	7.013
732.22	9.115
732.53	3.315
732.85	8.000
733.16	8.798
733.48	9.451
733.80	7.799
734.11	9.402
734.43	9.459
734.74	11.646
735.06	9.045
735.37	9.459
735.69	9.459
736.00	9.605
736.32	10.243
736.63	10.278
736.95	10.057
737.26	13.030
737.58	6.061
737.89	11.176
738.21	7.339
738.52	4.262
738.83	11.945
739.15	9.574
739.46	7.823
739.78	6.135
740.09	7.163
740.41	8.455
740.72	8.667
741.04	11.327
741.35	11.579
741.66	11.373
741.98	10.246
742.29	8.787
742.61	12.281
742.92	11.923
743.23	12.274
743.55	10.465
743.86	11.200
744.18	7.025
744.49	11.392
744.80	12.346
745.12	10.127
745.43	9.350
745.74	7.759
746.06	8.051
746.37	12.658
746.68	14.634
747.00	11.250
747.31	9.013
747.62	15.000
747.94	8.502
748.25	6.827
748.56	7.347
748.88	12.821
749.19	14.655
749.50	7.359
749.82	11.245
750.13	12.456
750.44	4.333
750.75	8.000
751.07	8.923
751.38	10.095
751.69	6.390
752.01	7.767
752.32	6.536
752.63	8.163
752.94	8.304
753.26	7.063
753.57	8.519
753.88	7.116
754.19	10.289
754.51	7.074
754.82	9.325
755.13	11.803
755.44	9.898
755.75	10.526
756.07	11.045
756.38	5.346
756.69	10.241
757.00	6.371
757.31	8.470
757.63	9.463
757.94	7.512
758.25	9.707
758.56	7.625
758.87	11.364
759.18	10.400
759.50	13.031
759.81	8.683
760.12	6.739
760.43	9.375
760.74	9.852
761.05	6.000
761.36	6.747
761.67	7.107
761.99	8.649
762.30	6.707
762.61	6.931
762.92	11.940
763.23	9.363
763.54	14.029
763.85	9.278
764.16	9.091
764.47	10.211
764.78	12.141
765.10	10.264
765.41	9.487
765.72	8.466
766.03	12.147
766.34	5.329
766.65	6.272
766.96	11.952
767.27	7.834
767.58	7.463
767.89	16.827
768.20	7.512
768.51	8.796
768.82	12.048
769.13	10.985
769.44	8.077
769.75	9.025
770.06	8.846
770.37	14.567
770.68	8.085
770.99	6.478
771.30	13.704
771.61	8.365
771.92	9.630
772.23	10.121
772.54	9.722
772.85	11.982
773.16	13.810
773.47	9.524
773.78	5.405
774.09	11.932
774.39	19.000
774.70	17.486
775.01	14.634
775.32	7.647
775.63	14.724
775.94	9.554
776.25	16.129
776.56	16.667
776.87	18.367
777.18	13.103
777.48	13.986
777.79	10.135
778.10	7.353
778.41	12.500
778.72	11.034
779.03	6.790
779.34	12.727
779.65	10.881
779.95	14.444
780.26	14.205
780.57	12.903
780.88	22.464
781.19	27.742
781.50	20.588
781.80	15.054
782.11	12.169
782.42	13.636
782.73	5.988
783.04	12.291
783.34	12.121
783.65	7.843
783.96	10.559
784.27	9.524
784.57	20.530
784.88	13.571
785.19	17.323
785.50	12.598
785.81	19.549
786.11	19.231
786.42	15.108
786.73	11.511
787.04	14.286
787.34	12.295
787.65	13.600
787.96	11.194
788.26	14.685
788.57	18.881
788.88	12.500
789.19	13.072
789.49	15.753
789.80	21.986
790.11	24.409
790.41	11.719
790.72	6.780
791.03	4.854
791.33	18.261
791.64	14.912
791.95	8.929
792.25	12.381
792.56	23.214
792.87	14.583
793.17	30.357
793.48	15.625
793.79	13.253
794.09	11.009
794.40	2.752
794.70	18.367
795.01	12.338
795.32	11.644
795.62	17.606
795.93	5.303
796.23	6.557
796.54	23.214
796.85	11.702
797.15	16.304
797.46	2.740
797.76	20.000
798.07	21.739
798.37	17.526
798.68	3.896
798.99	22.989
799.29	17.978
799.60	21.277
799.90	15.663
800.21	13.846
800.51	0.000
800.82	7.353
801.12	-1.370
801.43	-1.471
801.73	6.780
802.04	19.697
802.34	15.000
802.65	22.034
802.95	31.343
803.26	10.169
803.56	21.918
803.87	15.714
804.17	15.068
804.48	-8.772
804.78	23.611
805.09	12.069
805.39	25.676
805.70	8.451
806.00	19.512
806.30	26.506
806.61	19.178
806.91	24.038
807.22	17.778
807.52	6.897
807.83	19.444
808.13	30.120
808.43	19.101
808.74	23.750
809.04	17.647
809.35	25.333
809.65	30.000
809.95	21.918
810.26	-3.509
810.56	34.483
810.86	25.000
811.17	17.544
811.47	9.836
811.77	6.667
812.08	27.119
812.38	20.000
812.69	31.034
812.99	22.642
813.29	23.077
813.59	44.000
813.90	29.825
814.20	16.364
814.50	43.662
814.81	29.487
815.11	27.869
815.41	37.313
815.72	31.034
816.02	23.214
816.32	28.889
816.62	29.545
816.93	15.556
817.23	40.741
817.53	40.426
817.84	33.333
818.14	38.235
818.44	26.531
818.74	35.556
819.04	15.385
819.35	25.714
819.65	15.385
819.95	33.962
820.25	22.222
820.56	40.476
820.86	21.875
821.16	33.333
821.46	41.860
821.76	14.000
822.07	30.357
822.37	10.870
822.67	25.532
822.97	-10.811
823.27	17.500
823.57	48.980
823.88	46.667
824.18	27.500
824.48	23.333
824.78	32.000
825.08	15.152
825.38	44.444
825.69	46.809
825.99	27.778
826.29	-25.714
826.59	25.641
826.89	13.953
827.19	24.000
827.49	70.588
827.79	22.917
828.09	37.838
828.39	23.333
828.70	29.268
829.00	18.605
829.30	10.714
829.60	58.824
829.90	23.913
830.20	17.143
830.50	37.931
830.80	38.889
831.10	0.000
831.40	38.235
831.70	66.667
832.00	93.548
832.30	-5.882
832.60	54.167
832.90	53.846
833.20	47.368
833.50	75.000
833.80	0.000
834.10	-47.619
834.40	52.778
834.70	71.875
835.00	8.571
835.30	11.765
835.60	33.333
835.90	72.000
836.20	9.091
836.50	88.000
836.80	24.242
837.10	48.148
837.40	74.074
837.70	6.250
838.00	60.714
838.30	21.739
838.60	48.276
838.90	64.286
839.19	-8.696
839.49	41.667
839.79	91.304
840.09	-12.500
840.39	25.000
840.69	70.968
840.99	28.571
841.29	40.000
841.59	84.211
841.88	43.590
842.18	30.769
842.48	20.000
842.78	70.000
843.08	73.333
843.38	70.968
843.68	111.111
843.97	58.824
844.27	112.500
844.57	89.474
844.87	90.000
845.17	13.333
845.47	109.524
845.76	23.810
846.06	33.333
846.36	41.176
846.66	65.385
846.96	26.667
847.25	35.294
847.55	73.913
847.85	90.000
848.15	117.647
848.44	172.727
848.74	66.667
849.04	54.167
849.34	93.750
849.63	56.522
849.93	-300.000
850.23	73.333
850.53	69.231
850.82	100.000
851.12	118.182
851.42	163.636
851.71	169.231
852.01	25.000
852.31	61.538
852.61	68.421
852.90	133.333
853.20	94.444
853.50	88.889
853.79	52.381
854.09	9.091
854.39	-33.333
854.68	19.355
854.98	30.769
855.28	116.667
855.57	32.143
855.87	24.000
856.17	50.000
856.46	59.259
856.76	83.333
857.05	43.478
857.35	12.500
857.65	61.538
857.94	42.857
858.24	59.259
858.53	91.304
858.83	94.118
859.13	76.471
859.42	76.471
859.72	78.571
860.01	35.000
860.31	0.000
860.60	160.000
860.90	153.333
861.20	27.778
861.49	84.615
861.79	20.000
862.08	76.923
862.38	71.875
862.67	100.000
862.97	62.500
863.26	133.333
863.56	140.000
863.85	118.182
864.15	72.222
864.44	333.333
864.74	42.857
865.03	68.750
865.33	30.000
865.62	29.032
865.92	63.636
866.21	56.522
866.51	135.714
866.80	200.000
867.10	83.333
867.39	116.667
867.69	-100.000
867.98	200.000
868.27	94.118
868.57	-600.000
868.86	-40.000
869.16	71.429
869.45	25.000
869.75	45.455
870.04	114.286
870.33	66.667
870.63	0.000
870.92	275.000
871.22	-12.500
871.51	54.545
871.80	66.667
872.10	-150.000
>>>>>End Processed Spectral Data<<<<<
