SpectraSuite Data File
++++++++++++++++++++++++++++++++++++
Date: Thu May 14 15:25:12 PDT 2015
User: schluterlab
Dark Spectrum Present: Yes
Reference Spectrum Present: Yes
Number of Sampled Component Spectra: 1
Spectrometers: USB2E3373
Integration Time (usec): 3000 (USB2E3373)
Spectra Averaged: 3 (USB2E3373)
Boxcar Smoothing: 0 (USB2E3373)
Correct for Electrical Dark: No (USB2E3373)
Strobe/Lamp Enabled: No (USB2E3373)
Correct for Detector Non-linearity: No (USB2E3373)
Correct for Stray Light: No (USB2E3373)
Number of Pixels in Processed Spectrum: 2048
>>>>>Begin Processed Spectral Data<<<<<
178.53	0.000
178.91	657.143
179.29	-5400.000
179.67	-4600.000
180.04	450.000
180.42	500.000
180.80	1100.000
181.18	-5100.000
181.56	-3800.000
181.94	1025.000
182.31	-975.000
182.69	1500.000
183.07	-2300.000
183.45	1425.000
183.83	-750.000
184.20	-1533.333
184.58	4800.000
184.96	-1275.000
185.34	-444.444
185.72	-820.000
186.09	600.000
186.47	2300.000
186.85	960.000
187.23	-533.333
187.61	-5000.000
187.98	840.000
188.36	1450.000
188.74	-1325.000
189.12	-1433.333
189.49	-237.500
189.87	-587.500
190.25	-488.889
190.63	-980.000
191.00	-600.000
191.38	0.000
191.76	-1425.000
192.14	-800.000
192.51	2500.000
192.89	-733.333
193.27	0.000
193.65	-700.000
194.02	-5800.000
194.40	-571.429
194.78	771.429
195.15	0.000
195.53	-381.818
195.91	0.000
196.29	-900.000
196.66	-307.692
197.04	-5100.000
197.42	-728.571
197.79	-2350.000
198.17	-650.000
198.55	-685.714
198.92	-477.778
199.30	-625.000
199.68	-381.818
200.05	-342.857
200.43	-2500.000
200.81	928.571
201.18	0.000
201.56	644.444
201.94	0.000
202.31	1733.333
202.69	-555.556
203.07	5300.000
203.44	-544.444
203.82	-1275.000
204.19	-341.667
204.57	-833.333
204.95	-662.500
205.32	-5100.000
205.70	1100.000
206.08	-716.667
206.45	-816.667
206.83	1260.000
207.20	-700.000
207.58	-980.000
207.96	-866.667
208.33	-650.000
208.71	458.333
209.08	-700.000
209.46	0.000
209.84	816.667
210.21	2050.000
210.59	2400.000
210.96	1933.333
211.34	-1075.000
211.71	-525.000
212.09	-4500.000
212.46	0.000
212.84	2650.000
213.22	-1060.000
213.59	-1150.000
213.97	-450.000
214.34	-1500.000
214.72	800.000
215.09	-1250.000
215.47	0.000
215.84	714.286
216.22	2500.000
216.59	-920.000
216.97	-980.000
217.34	-1175.000
217.72	-475.000
218.09	-1200.000
218.47	-1075.000
218.84	0.000
219.22	900.000
219.59	-235.294
219.97	-175.000
220.34	2250.000
220.72	-544.444
221.09	-330.769
221.47	-1533.333
221.84	-510.000
222.22	-685.714
222.59	0.000
222.97	-512.500
223.34	-1100.000
223.72	-5300.000
224.09	-1125.000
224.46	-1225.000
224.84	-960.000
225.21	-771.429
225.59	-1550.000
225.96	-1125.000
226.34	-134.615
226.71	933.333
227.08	-2450.000
227.46	-306.667
227.83	-1325.000
228.21	-242.105
228.58	787.500
228.95	2800.000
229.33	-291.667
229.70	-440.000
230.08	-194.737
230.45	530.000
230.82	-1800.000
231.20	-364.286
231.57	-375.000
231.95	-381.818
232.32	-372.727
232.69	-200.000
233.07	-1200.000
233.44	-258.824
233.81	-450.000
234.19	-205.556
234.56	-177.273
234.93	-113.793
235.31	-236.842
235.68	-233.333
236.05	-250.000
236.43	-142.308
236.80	-148.000
237.17	-162.963
237.55	-124.242
237.92	-600.000
238.29	-164.516
238.67	-104.545
239.04	-116.667
239.41	-109.524
239.79	-113.043
240.16	-85.185
240.53	-117.391
240.91	-96.078
241.28	-67.213
241.65	-61.194
242.02	-66.216
242.40	-81.538
242.77	-53.333
243.14	-54.878
243.51	-80.263
243.89	-66.667
244.26	-37.624
244.63	-41.176
245.00	-42.056
245.38	-41.228
245.75	-56.637
246.12	-25.397
246.49	-34.109
246.87	-32.143
247.24	-23.841
247.61	-28.947
247.98	-30.201
248.36	-26.543
248.73	-31.902
249.10	-24.044
249.47	-13.930
249.84	-17.801
250.22	-24.352
250.59	-23.333
250.96	-16.818
251.33	-26.020
251.70	-17.094
252.08	-17.500
252.45	-14.754
252.82	-18.595
253.19	-16.797
253.56	-18.251
253.94	-18.846
254.31	-20.076
254.68	-11.888
255.05	-8.795
255.42	-12.925
255.79	-14.239
256.16	-15.563
256.54	-15.563
256.91	-13.115
257.28	-16.066
257.65	-13.376
258.02	-15.044
258.39	-9.687
258.76	-9.786
259.14	-10.632
259.51	-10.951
259.88	-9.915
260.25	-12.222
260.62	-9.589
260.99	-9.563
261.36	-9.383
261.73	-10.080
262.10	-12.088
262.47	-13.137
262.85	-8.333
263.22	-12.468
263.59	-14.474
263.96	-11.253
264.33	-11.765
264.70	-9.383
265.07	-10.263
265.44	-7.029
265.81	-9.954
266.18	-7.029
266.55	-10.045
266.92	-10.706
267.29	-7.440
267.66	-9.313
268.03	-8.079
268.40	-8.351
268.77	-11.845
269.14	-9.471
269.51	-9.211
269.88	-7.377
270.25	-7.243
270.62	-8.017
270.99	-5.455
271.36	-7.327
271.73	-6.287
272.10	-4.409
272.47	-8.617
272.84	-8.032
273.21	-8.216
273.58	-8.871
273.95	-7.308
274.32	-7.795
274.69	-9.478
275.06	-7.692
275.43	-10.536
275.80	-4.938
276.17	-7.778
276.54	-7.463
276.91	-8.229
277.28	-5.967
277.65	-6.643
278.02	-6.801
278.39	-8.152
278.76	-8.260
279.13	-8.156
279.50	-5.155
279.87	-6.082
280.23	-7.923
280.60	-4.407
280.97	-5.428
281.34	-7.640
281.71	-4.907
282.08	-5.814
282.45	-6.056
282.82	-7.221
283.19	-7.916
283.56	-5.738
283.92	-3.453
284.29	-3.476
284.66	-5.255
285.03	-8.013
285.40	-4.328
285.77	-6.347
286.14	-4.122
286.51	-5.936
286.87	-6.477
287.24	-5.271
287.61	-6.428
287.98	-6.042
288.35	-5.178
288.72	-5.325
289.08	-5.271
289.45	-6.953
289.82	-5.572
290.19	-5.460
290.56	-4.507
290.93	-5.278
291.29	-4.408
291.66	-4.408
292.03	-4.749
292.40	-3.946
292.77	-5.526
293.13	-4.465
293.50	-4.862
293.87	-5.235
294.24	-3.467
294.60	-3.540
294.97	-6.040
295.34	-3.073
295.71	-4.288
296.08	-4.393
296.44	-4.167
296.81	-4.263
297.18	-4.732
297.55	-4.009
297.91	-4.389
298.28	-3.199
298.65	-3.092
299.02	-4.486
299.38	-2.860
299.75	-2.921
300.12	-4.745
300.48	-4.493
300.85	-3.150
301.22	-3.244
301.59	-3.425
301.95	-3.277
302.32	-1.778
302.69	-3.067
303.05	-2.720
303.42	-2.328
303.79	-2.500
304.15	-2.313
304.52	-3.171
304.89	-3.560
305.25	-2.795
305.62	-2.090
305.99	-2.577
306.35	-2.419
306.72	-1.448
307.09	-2.741
307.45	-2.277
307.82	-3.027
308.19	-3.229
308.55	-2.122
308.92	-2.337
309.29	-1.533
309.65	-2.729
310.02	-2.475
310.38	-1.870
310.75	-0.971
311.12	-0.575
311.48	-2.639
311.85	-1.614
312.22	-1.898
312.58	-1.784
312.95	-1.816
313.31	-1.084
313.68	-0.916
314.05	-0.632
314.41	-0.546
314.78	-1.181
315.14	-0.998
315.51	-0.462
315.87	-0.540
316.24	-0.457
316.61	-0.178
316.97	-1.900
317.34	-1.675
317.70	-0.087
318.07	-0.882
318.43	0.765
318.80	1.338
319.16	0.515
319.53	-1.114
319.89	-0.263
320.26	1.157
320.62	-0.177
320.99	-0.739
321.35	-0.555
321.72	-0.930
322.08	-1.262
322.45	0.632
322.81	0.090
323.18	-0.354
323.54	1.121
323.91	0.623
324.27	1.205
324.64	1.511
325.00	0.415
325.37	0.573
325.73	0.496
326.10	1.379
326.46	2.606
326.83	1.922
327.19	1.339
327.56	1.976
327.92	1.495
328.29	1.129
328.65	0.921
329.01	0.846
329.38	1.938
329.74	3.082
330.11	1.969
330.47	1.432
330.84	1.464
331.20	2.250
331.56	0.607
331.93	3.849
332.29	2.373
332.66	2.907
333.02	2.010
333.38	3.188
333.75	2.609
334.11	2.002
334.48	1.980
334.84	2.549
335.20	1.763
335.57	2.445
335.93	3.058
336.29	1.997
336.66	1.682
337.02	2.676
337.38	2.806
337.75	2.479
338.11	2.607
338.47	2.399
338.84	2.369
339.20	1.432
339.56	2.883
339.93	2.709
340.29	2.335
340.65	3.487
341.02	3.272
341.38	3.800
341.74	2.663
342.11	2.253
342.47	2.224
342.83	3.543
343.20	2.944
343.56	2.165
343.92	2.482
344.28	2.969
344.65	3.488
345.01	2.808
345.37	2.799
345.73	2.104
346.10	3.120
346.46	2.373
346.82	2.846
347.19	3.056
347.55	3.566
347.91	2.452
348.27	2.504
348.63	3.275
349.00	3.430
349.36	4.089
349.72	3.199
350.08	3.343
350.45	1.673
350.81	2.715
351.17	2.932
351.53	3.336
351.89	3.569
352.26	3.433
352.62	3.209
352.98	2.443
353.34	3.137
353.70	2.619
354.07	2.981
354.43	3.417
354.79	3.141
355.15	3.385
355.51	4.459
355.87	3.441
356.24	4.106
356.60	2.587
356.96	3.484
357.32	2.677
357.68	3.221
358.04	3.144
358.40	3.209
358.77	3.728
359.13	2.954
359.49	2.602
359.85	3.771
360.21	3.515
360.57	2.943
360.93	3.526
361.29	3.860
361.66	3.621
362.02	3.897
362.38	3.373
362.74	3.492
363.10	3.989
363.46	3.809
363.82	3.906
364.18	3.871
364.54	4.564
364.90	4.147
365.26	4.000
365.62	4.933
365.98	4.357
366.35	4.228
366.71	4.014
367.07	5.007
367.43	4.531
367.79	3.915
368.15	5.485
368.51	5.074
368.87	4.311
369.23	4.333
369.59	4.167
369.95	5.274
370.31	4.659
370.67	4.746
371.03	4.501
371.39	4.030
371.75	4.608
372.11	4.810
372.47	4.739
372.83	5.366
373.19	4.937
373.55	3.794
373.91	4.703
374.27	4.916
374.63	4.533
374.99	4.509
375.35	4.675
375.71	4.968
376.07	5.294
376.42	5.479
376.78	6.401
377.14	5.926
377.50	4.997
377.86	6.527
378.22	6.407
378.58	6.302
378.94	6.397
379.30	5.858
379.66	5.879
380.02	6.463
380.38	7.085
380.74	5.746
381.09	6.562
381.45	6.989
381.81	6.909
382.17	6.710
382.53	6.257
382.89	6.716
383.25	6.858
383.61	5.729
383.97	6.360
384.32	7.057
384.68	6.903
385.04	6.825
385.40	7.543
385.76	7.503
386.12	7.062
386.48	7.647
386.83	8.284
387.19	7.242
387.55	6.631
387.91	6.906
388.27	7.794
388.62	7.675
388.98	7.163
389.34	7.896
389.70	7.844
390.06	7.223
390.42	7.831
390.77	8.188
391.13	7.981
391.49	8.031
391.85	7.273
392.20	6.999
392.56	8.860
392.92	8.397
393.28	8.734
393.64	7.877
393.99	7.728
394.35	7.886
394.71	8.683
395.07	7.186
395.42	7.938
395.78	8.775
396.14	8.081
396.50	8.195
396.85	8.527
397.21	8.343
397.57	7.951
397.92	9.278
398.28	7.985
398.64	8.066
399.00	8.272
399.35	8.325
399.71	9.022
400.07	8.198
400.42	8.556
400.78	9.086
401.14	9.220
401.49	8.357
401.85	8.547
402.21	9.096
402.57	8.920
402.92	8.688
403.28	8.607
403.63	7.458
403.99	8.195
404.35	8.243
404.70	9.292
405.06	8.587
405.42	8.841
405.77	9.106
406.13	9.238
406.49	8.052
406.84	9.030
407.20	8.776
407.55	8.359
407.91	8.360
408.27	8.304
408.62	8.144
408.98	9.112
409.34	7.977
409.69	9.147
410.05	8.675
410.40	9.339
410.76	9.086
411.11	9.468
411.47	8.415
411.83	9.289
412.18	9.639
412.54	8.536
412.89	8.906
413.25	8.691
413.60	8.558
413.96	9.266
414.31	8.895
414.67	8.229
415.03	9.600
415.38	9.142
415.74	8.674
416.09	9.624
416.45	8.829
416.80	8.078
417.16	9.642
417.51	9.340
417.87	8.706
418.22	9.820
418.58	8.674
418.93	10.070
419.29	9.494
419.64	8.764
420.00	9.199
420.35	9.208
420.71	9.765
421.06	9.431
421.42	10.206
421.77	8.939
422.12	9.302
422.48	9.780
422.83	9.529
423.19	9.761
423.54	9.458
423.90	9.829
424.25	10.400
424.61	9.185
424.96	10.159
425.31	11.306
425.67	9.769
426.02	10.183
426.38	9.874
426.73	9.710
427.09	10.323
427.44	10.104
427.79	10.227
428.15	9.418
428.50	9.944
428.85	9.472
429.21	11.489
429.56	10.760
429.92	10.369
430.27	10.410
430.62	10.454
430.98	10.034
431.33	10.459
431.68	10.584
432.04	11.224
432.39	11.087
432.74	10.160
433.10	10.546
433.45	9.978
433.80	10.676
434.16	11.209
434.51	11.357
434.86	11.075
435.22	10.999
435.57	10.436
435.92	10.907
436.28	10.239
436.63	10.978
436.98	10.789
437.34	10.541
437.69	10.732
438.04	11.052
438.39	10.798
438.75	10.293
439.10	11.522
439.45	11.738
439.81	11.186
440.16	11.475
440.51	10.925
440.86	11.284
441.22	11.683
441.57	11.059
441.92	11.785
442.27	12.071
442.63	11.326
442.98	11.206
443.33	10.573
443.68	12.488
444.03	12.512
444.39	11.835
444.74	11.996
445.09	10.948
445.44	11.117
445.79	11.590
446.15	11.357
446.50	11.525
446.85	11.819
447.20	11.992
447.55	12.134
447.91	11.309
448.26	10.888
448.61	11.849
448.96	12.607
449.31	11.559
449.66	11.492
450.02	11.762
450.37	12.893
450.72	11.302
451.07	11.845
451.42	10.803
451.77	11.340
452.12	11.569
452.47	10.992
452.83	12.162
453.18	11.384
453.53	11.832
453.88	12.258
454.23	13.107
454.58	12.420
454.93	11.044
455.28	12.041
455.63	11.256
455.98	11.955
456.34	11.955
456.69	10.935
457.04	11.761
457.39	12.694
457.74	11.689
458.09	12.026
458.44	12.608
458.79	11.913
459.14	12.795
459.49	11.885
459.84	13.169
460.19	11.549
460.54	12.039
460.89	12.811
461.24	11.897
461.59	12.175
461.94	11.751
462.29	12.206
462.64	11.648
462.99	12.492
463.34	11.421
463.69	12.309
464.04	12.396
464.39	11.659
464.74	12.372
465.09	12.168
465.44	12.124
465.79	12.269
466.14	12.350
466.49	12.789
466.84	12.066
467.19	12.197
467.54	12.045
467.89	11.264
468.24	12.742
468.59	11.812
468.94	11.189
469.29	11.938
469.64	12.460
469.99	11.600
470.34	12.191
470.68	11.552
471.03	11.395
471.38	11.445
471.73	11.248
472.08	12.373
472.43	11.981
472.78	12.091
473.13	12.137
473.48	13.172
473.83	12.652
474.17	12.134
474.52	12.928
474.87	12.791
475.22	12.225
475.57	12.305
475.92	12.792
476.27	12.833
476.61	12.773
476.96	12.409
477.31	13.416
477.66	13.274
478.01	13.218
478.36	12.213
478.70	12.759
479.05	12.986
479.40	12.389
479.75	13.689
480.10	13.122
480.45	13.309
480.79	13.379
481.14	13.143
481.49	13.085
481.84	13.185
482.19	13.032
482.53	13.467
482.88	12.805
483.23	13.161
483.58	12.882
483.92	12.810
484.27	13.294
484.62	12.583
484.97	12.986
485.31	13.024
485.66	12.098
486.01	12.355
486.36	13.409
486.70	14.419
487.05	14.838
487.40	14.395
487.75	13.868
488.09	13.750
488.44	13.440
488.79	13.659
489.13	13.686
489.48	12.738
489.83	12.475
490.17	12.839
490.52	12.972
490.87	13.959
491.22	13.562
491.56	13.609
491.91	13.214
492.26	13.544
492.60	13.599
492.95	13.339
493.30	12.999
493.64	13.535
493.99	13.421
494.34	13.458
494.68	13.490
495.03	13.744
495.37	13.582
495.72	12.789
496.07	13.760
496.41	13.514
496.76	13.720
497.11	13.800
497.45	12.861
497.80	14.438
498.14	14.014
498.49	13.603
498.84	13.940
499.18	13.180
499.53	13.632
499.87	13.846
500.22	12.511
500.56	13.405
500.91	12.952
501.26	13.727
501.60	13.124
501.95	13.113
502.29	13.120
502.64	13.336
502.98	13.330
503.33	13.348
503.67	12.996
504.02	13.441
504.36	13.450
504.71	13.964
505.06	13.370
505.40	13.117
505.75	13.980
506.09	13.582
506.44	14.113
506.78	13.394
507.13	13.647
507.47	14.211
507.82	14.583
508.16	13.576
508.51	13.221
508.85	13.462
509.19	13.406
509.54	13.641
509.88	13.210
510.23	14.085
510.57	14.161
510.92	14.030
511.26	13.324
511.61	12.844
511.95	14.104
512.30	14.426
512.64	13.143
512.98	14.007
513.33	14.264
513.67	13.514
514.02	13.797
514.36	14.066
514.70	13.594
515.05	13.608
515.39	14.488
515.74	14.263
516.08	14.791
516.42	14.338
516.77	13.775
517.11	13.615
517.46	14.634
517.80	14.484
518.14	15.288
518.49	14.371
518.83	13.571
519.17	13.463
519.52	14.675
519.86	14.361
520.20	14.537
520.55	14.239
520.89	14.752
521.23	14.350
521.58	14.068
521.92	13.994
522.26	14.261
522.61	14.294
522.95	13.552
523.29	14.195
523.64	15.135
523.98	14.889
524.32	14.728
524.66	14.570
525.01	14.553
525.35	14.302
525.69	14.327
526.04	14.409
526.38	13.736
526.72	14.475
527.06	13.666
527.41	14.577
527.75	15.499
528.09	13.813
528.43	14.624
528.78	14.104
529.12	14.966
529.46	14.165
529.80	14.416
530.15	14.899
530.49	14.828
530.83	14.404
531.17	13.620
531.51	15.162
531.86	14.303
532.20	14.573
532.54	14.542
532.88	14.788
533.22	14.673
533.57	14.426
533.91	14.815
534.25	14.019
534.59	15.115
534.93	14.318
535.27	14.648
535.62	14.781
535.96	14.294
536.30	14.277
536.64	14.715
536.98	15.129
537.32	14.506
537.66	15.159
538.01	14.018
538.35	14.129
538.69	14.363
539.03	15.144
539.37	14.193
539.71	14.715
540.05	15.108
540.39	14.670
540.73	14.268
541.07	14.040
541.42	14.826
541.76	14.413
542.10	14.958
542.44	14.312
542.78	15.085
543.12	14.958
543.46	14.164
543.80	14.269
544.14	14.123
544.48	14.539
544.82	14.722
545.16	14.609
545.50	14.320
545.84	13.840
546.18	15.247
546.52	14.586
546.86	13.774
547.20	14.059
547.54	14.295
547.88	14.105
548.22	14.503
548.56	14.453
548.90	13.851
549.24	14.772
549.58	14.448
549.92	14.286
550.26	14.304
550.60	14.933
550.94	15.071
551.28	14.125
551.62	14.825
551.96	14.498
552.30	14.786
552.64	14.063
552.98	15.034
553.32	14.084
553.66	14.469
554.00	13.745
554.34	14.157
554.68	14.590
555.02	14.192
555.36	14.859
555.69	14.542
556.03	13.493
556.37	15.207
556.71	13.887
557.05	14.888
557.39	13.205
557.73	14.135
558.07	14.768
558.41	15.216
558.75	15.145
559.08	14.544
559.42	13.786
559.76	15.129
560.10	14.267
560.44	14.050
560.78	15.125
561.12	14.101
561.45	14.173
561.79	13.431
562.13	15.034
562.47	14.427
562.81	13.924
563.15	14.899
563.48	14.543
563.82	13.724
564.16	14.476
564.50	14.184
564.84	14.572
565.17	13.824
565.51	13.867
565.85	14.786
566.19	13.940
566.52	13.634
566.86	14.997
567.20	13.921
567.54	13.702
567.88	14.424
568.21	13.982
568.55	15.108
568.89	13.572
569.23	15.040
569.56	13.912
569.90	14.077
570.24	14.435
570.57	13.983
570.91	13.870
571.25	14.030
571.59	14.779
571.92	14.552
572.26	14.293
572.60	14.414
572.93	14.556
573.27	13.908
573.61	14.161
573.95	14.178
574.28	13.945
574.62	14.211
574.96	14.160
575.29	13.946
575.63	13.999
575.97	13.940
576.30	14.014
576.64	13.696
576.98	13.690
577.31	13.776
577.65	14.115
577.98	13.780
578.32	14.304
578.66	14.191
578.99	14.008
579.33	14.184
579.67	13.894
580.00	13.846
580.34	13.983
580.67	13.945
581.01	13.717
581.35	13.735
581.68	13.771
582.02	13.990
582.35	14.551
582.69	14.300
583.02	14.465
583.36	14.089
583.70	14.042
584.03	13.895
584.37	13.750
584.70	13.667
585.04	13.601
585.37	13.389
585.71	13.765
586.04	13.430
586.38	13.974
586.72	14.289
587.05	13.763
587.39	13.887
587.72	14.115
588.06	14.144
588.39	14.239
588.73	13.677
589.06	14.362
589.40	14.167
589.73	14.267
590.07	14.158
590.40	14.030
590.73	13.892
591.07	14.296
591.40	13.569
591.74	13.951
592.07	13.804
592.41	13.959
592.74	14.058
593.08	14.363
593.41	14.057
593.75	14.310
594.08	14.390
594.41	14.199
594.75	13.650
595.08	14.233
595.42	13.766
595.75	14.110
596.09	13.995
596.42	14.009
596.75	14.473
597.09	14.505
597.42	13.588
597.75	13.681
598.09	13.889
598.42	14.475
598.76	13.374
599.09	14.347
599.42	13.745
599.76	13.437
600.09	14.314
600.42	14.348
600.76	14.102
601.09	14.238
601.42	13.697
601.76	13.621
602.09	14.046
602.42	13.450
602.76	14.059
603.09	13.473
603.42	13.403
603.76	13.319
604.09	14.585
604.42	14.422
604.76	13.775
605.09	14.160
605.42	13.716
605.75	14.000
606.09	13.550
606.42	13.462
606.75	13.681
607.09	13.095
607.42	14.143
607.75	13.951
608.08	13.733
608.42	13.785
608.75	14.179
609.08	13.752
609.41	13.763
609.75	13.571
610.08	13.984
610.41	13.806
610.74	14.412
611.07	14.076
611.41	14.529
611.74	14.134
612.07	13.978
612.40	13.118
612.73	14.132
613.07	14.230
613.40	14.196
613.73	14.396
614.06	14.132
614.39	13.557
614.72	13.925
615.06	13.811
615.39	13.968
615.72	14.408
616.05	13.842
616.38	14.026
616.71	14.002
617.05	13.685
617.38	14.607
617.71	14.039
618.04	13.869
618.37	13.934
618.70	14.140
619.03	13.919
619.36	13.502
619.69	14.350
620.03	14.062
620.36	13.865
620.69	14.312
621.02	14.501
621.35	13.135
621.68	15.112
622.01	13.310
622.34	13.040
622.67	14.502
623.00	12.281
623.33	14.333
623.66	14.397
623.99	13.298
624.32	14.165
624.65	13.900
624.99	13.914
625.32	14.239
625.65	14.295
625.98	14.102
626.31	13.253
626.64	13.626
626.97	14.029
627.30	12.756
627.63	13.278
627.96	14.339
628.29	14.163
628.62	12.678
628.95	12.708
629.28	14.019
629.61	13.973
629.94	13.054
630.26	13.559
630.59	13.126
630.92	14.026
631.25	14.311
631.58	14.972
631.91	13.496
632.24	14.505
632.57	14.896
632.90	12.738
633.23	13.673
633.56	15.612
633.89	13.533
634.22	13.514
634.55	14.927
634.88	13.636
635.20	15.823
635.53	14.124
635.86	14.085
636.19	15.483
636.52	13.713
636.85	12.768
637.18	12.890
637.51	13.333
637.83	13.068
638.16	13.710
638.49	13.850
638.82	13.867
639.15	12.027
639.48	14.203
639.81	14.781
640.13	14.370
640.46	12.364
640.79	12.868
641.12	13.540
641.45	13.300
641.77	13.479
642.10	12.073
642.43	13.963
642.76	13.415
643.09	12.192
643.41	12.045
643.74	14.207
644.07	12.414
644.40	13.013
644.73	11.466
645.05	12.335
645.38	13.669
645.71	13.343
646.04	14.491
646.36	11.533
646.69	12.117
647.02	14.679
647.35	12.824
647.67	12.399
648.00	10.510
648.33	12.613
648.66	14.551
648.98	12.245
649.31	10.961
649.64	13.944
649.96	14.324
650.29	10.987
650.62	12.730
650.94	13.213
651.27	11.976
651.60	12.281
651.92	10.790
652.25	13.748
652.58	14.030
652.90	12.791
653.23	11.549
653.56	12.268
653.88	13.483
654.21	12.817
654.54	12.717
654.86	11.756
655.19	13.049
655.52	16.441
655.84	15.314
656.17	17.219
656.49	23.937
656.82	25.723
657.15	19.937
657.47	15.317
657.80	11.204
658.13	8.676
658.45	10.782
658.78	12.874
659.10	11.944
659.43	11.670
659.75	10.255
660.08	9.524
660.41	9.843
660.73	10.148
661.06	10.132
661.38	9.410
661.71	11.207
662.03	11.640
662.36	13.417
662.68	10.319
663.01	10.442
663.33	11.153
663.66	12.637
663.98	11.154
664.31	12.758
664.63	11.753
664.96	11.797
665.28	11.797
665.61	12.238
665.93	12.143
666.26	12.186
666.58	9.410
666.91	14.019
667.23	13.524
667.56	10.454
667.88	12.800
668.21	9.375
668.53	10.425
668.86	12.574
669.18	10.998
669.50	11.332
669.83	9.600
670.15	11.220
670.48	13.889
670.80	9.369
671.13	11.531
671.45	10.236
671.77	10.923
672.10	11.333
672.42	11.489
672.75	12.135
673.07	11.791
673.39	11.402
673.72	11.409
674.04	11.552
674.37	11.628
674.69	14.109
675.01	10.286
675.34	9.351
675.66	10.861
675.98	10.448
676.31	10.156
676.63	13.308
676.95	9.579
677.28	13.105
677.60	10.433
677.92	11.516
678.25	13.528
678.57	12.100
678.89	13.993
679.22	10.627
679.54	10.769
679.86	8.136
680.18	10.116
680.51	11.792
680.83	12.275
681.15	10.517
681.48	11.226
681.80	10.535
682.12	11.014
682.44	8.514
682.77	11.879
683.09	9.470
683.41	12.597
683.73	11.006
684.06	12.915
684.38	9.123
684.70	11.490
685.02	9.466
685.34	11.314
685.67	11.514
685.99	10.890
686.31	9.302
686.63	9.163
686.96	12.303
687.28	11.889
687.60	10.101
687.92	12.058
688.24	12.020
688.56	9.483
688.89	11.252
689.21	9.198
689.53	9.412
689.85	9.073
690.17	8.333
690.49	11.355
690.82	9.505
691.14	10.526
691.46	9.943
691.78	9.208
692.10	8.073
692.42	11.607
692.74	9.437
693.06	6.852
693.39	9.108
693.71	9.586
694.03	10.409
694.35	6.857
694.67	9.035
694.99	8.298
695.31	10.155
695.63	9.091
695.95	10.766
696.27	7.473
696.59	9.956
696.91	9.459
697.23	10.330
697.56	7.332
697.88	9.470
698.20	10.358
698.52	11.174
698.84	9.563
699.16	11.429
699.48	9.833
699.80	7.447
700.12	7.205
700.44	7.373
700.76	9.976
701.08	9.443
701.40	6.736
701.72	6.965
702.04	6.952
702.36	4.974
702.68	8.802
703.00	4.890
703.32	7.143
703.64	8.802
703.96	11.217
704.28	6.388
704.60	9.620
704.91	8.673
705.23	8.219
705.55	9.192
705.87	4.848
706.19	6.135
706.51	3.614
706.83	4.323
707.15	7.407
707.47	7.243
707.79	6.987
708.11	6.144
708.43	7.957
708.74	6.920
709.06	6.497
709.38	8.685
709.70	8.685
710.02	6.460
710.34	5.851
710.66	4.190
710.98	6.557
711.29	4.670
711.61	4.237
711.93	5.983
712.25	8.378
712.57	10.029
712.89	7.941
713.20	3.846
713.52	6.358
713.84	6.128
714.16	7.632
714.48	8.763
714.80	9.091
715.11	4.462
715.43	6.101
715.75	8.421
716.07	1.934
716.39	6.011
716.70	3.313
717.02	2.295
717.34	0.697
717.66	2.685
717.97	1.027
718.29	0.000
718.61	2.632
718.93	2.265
719.24	5.901
719.56	2.454
719.88	1.502
720.20	6.129
720.51	1.553
720.83	5.625
721.15	1.316
721.46	0.685
721.78	5.000
722.10	1.942
722.42	-0.671
722.73	3.548
723.05	-1.053
723.37	1.736
723.68	4.659
724.00	-0.361
724.32	1.408
724.63	4.545
724.95	4.255
725.27	2.787
725.58	-0.353
725.90	3.448
726.22	0.000
726.53	3.247
726.85	2.201
727.16	6.344
727.48	10.398
727.80	3.642
728.11	0.000
728.43	2.020
728.74	2.341
729.06	2.980
729.38	4.221
729.69	3.356
730.01	2.976
730.32	0.909
730.64	5.031
730.96	1.553
731.27	5.587
731.59	4.670
731.90	3.377
732.22	5.729
732.53	3.591
732.85	4.286
733.16	4.985
733.48	1.220
733.80	6.407
734.11	3.704
734.43	4.054
734.74	6.076
735.06	7.286
735.37	6.486
735.69	5.405
736.00	3.672
736.32	4.852
736.63	6.111
736.95	2.874
737.26	4.545
737.58	2.424
737.89	2.941
738.21	1.529
738.52	1.311
738.83	0.683
739.15	0.709
739.46	4.082
739.78	5.828
740.09	3.152
740.41	6.414
740.72	2.667
741.04	1.618
741.35	1.754
741.66	0.784
741.98	0.820
742.29	-0.418
742.61	-2.632
742.92	-0.769
743.23	2.166
743.55	0.388
743.86	-4.400
744.18	-2.066
744.49	0.422
744.80	0.412
745.12	0.844
745.43	0.000
745.74	-2.155
746.06	-1.271
746.37	1.266
746.68	3.659
747.00	-0.833
747.31	-4.292
747.62	2.692
747.94	-1.215
748.25	-3.213
748.56	-0.816
748.88	-0.427
749.19	4.310
749.50	-3.896
749.82	-0.402
750.13	0.712
750.44	0.333
750.75	3.077
751.07	2.154
751.38	2.839
751.69	0.000
752.01	-0.324
752.32	3.595
752.63	1.020
752.94	0.346
753.26	-3.717
753.57	-0.741
753.88	-0.749
754.19	5.788
754.51	0.000
754.82	2.894
755.13	6.885
755.44	4.437
755.75	2.303
756.07	7.761
756.38	2.830
756.69	4.819
757.00	2.770
757.31	2.732
757.63	2.813
757.94	5.164
758.25	6.321
758.56	5.447
758.87	5.227
759.18	3.200
759.50	2.833
759.81	5.042
760.12	5.121
760.43	5.729
760.74	5.911
761.05	3.750
761.36	0.723
761.67	2.284
761.99	2.973
762.30	2.439
762.61	-1.650
762.92	1.866
763.23	-0.749
763.54	1.079
763.85	-1.031
764.16	2.020
764.47	2.113
764.78	2.236
765.10	2.346
765.41	6.667
765.72	1.323
766.03	3.107
766.34	0.627
766.65	-3.136
766.96	0.797
767.27	-2.765
767.58	-8.458
767.89	0.481
768.20	0.469
768.51	-3.704
768.82	-3.213
769.13	-3.788
769.44	-6.538
769.75	-0.722
770.06	1.154
770.37	1.181
770.68	-2.553
770.99	-3.644
771.30	6.296
771.61	-5.323
771.92	-2.593
772.23	0.405
772.54	-5.556
772.85	1.382
773.16	-4.286
773.47	-13.228
773.78	-14.054
774.09	-5.682
774.39	-3.500
774.70	-2.186
775.01	-10.366
775.32	-11.176
775.63	-7.362
775.94	-18.471
776.25	-11.613
776.56	-1.923
776.87	-7.483
777.18	-12.414
777.48	-18.881
777.79	-13.514
778.10	-15.441
778.41	-15.278
778.72	-11.724
779.03	-10.494
779.34	-10.303
779.65	-4.145
779.95	-3.333
780.26	-10.227
780.57	-12.903
780.88	-18.841
781.19	-6.452
781.50	0.588
781.80	-8.065
782.11	-9.524
782.42	-9.596
782.73	-15.569
783.04	-5.028
783.34	-16.364
783.65	-18.301
783.96	-18.012
784.27	-14.881
784.57	-11.921
784.88	-20.000
785.19	-19.685
785.50	-19.685
785.81	-20.301
786.11	-10.000
786.42	-18.705
786.73	-20.863
787.04	-15.038
787.34	-20.492
787.65	-19.200
787.96	-17.164
788.26	-5.594
788.57	-4.895
788.88	-8.553
789.19	-11.111
789.49	-13.014
789.80	-14.894
790.11	-16.535
790.41	-12.500
790.72	-18.644
791.03	-38.835
791.33	-29.565
791.64	-19.298
791.95	-27.679
792.25	-25.714
792.56	-22.321
792.87	-28.125
793.17	-20.536
793.48	-31.250
793.79	-49.398
794.09	-29.358
794.40	-32.110
794.70	-14.286
795.01	-18.831
795.32	-18.493
795.62	-13.380
795.93	-15.152
796.23	-20.492
796.54	-26.786
796.85	-40.426
797.15	-45.652
797.46	-52.055
797.76	-41.250
798.07	-31.522
798.37	-36.082
798.68	-40.260
798.99	-37.931
799.29	-47.191
799.60	-32.979
799.90	-40.964
800.21	-61.538
800.51	-61.194
800.82	-52.941
801.12	-63.014
801.43	-64.706
801.73	-67.797
802.04	-46.970
802.34	-61.667
802.65	-45.763
802.95	-41.791
803.26	-50.847
803.56	-42.466
803.87	-58.571
804.17	-50.685
804.48	-91.228
804.78	-52.778
805.09	-84.483
805.39	-41.892
805.70	-54.930
806.00	-43.902
806.30	-37.349
806.61	-61.644
806.91	-24.038
807.22	-24.444
807.52	-50.575
807.83	-43.056
808.13	-34.940
808.43	-40.449
808.74	-51.250
809.04	-61.765
809.35	-42.667
809.65	-47.143
809.95	-50.685
810.26	-80.702
810.56	-58.621
810.86	-54.412
811.17	-68.421
811.47	-77.049
811.77	-88.889
812.08	-64.407
812.38	-61.667
812.69	-56.897
812.99	-73.585
813.29	-117.949
813.59	-78.000
813.90	-61.404
814.20	-70.909
814.50	-46.479
814.81	-38.462
815.11	-55.738
815.41	-53.731
815.72	-50.000
816.02	-58.929
816.32	-73.333
816.62	-75.000
816.93	-100.000
817.23	-72.222
817.53	-91.489
817.84	-90.476
818.14	-108.824
818.44	-79.592
818.74	-84.444
819.04	-138.462
819.35	-125.714
819.65	-165.385
819.95	-71.698
820.25	-82.222
820.56	-109.524
820.86	-128.125
821.16	-102.564
821.46	-102.326
821.76	-82.000
822.07	-75.000
822.37	-89.130
822.67	-93.617
822.97	-135.135
823.27	-100.000
823.57	-65.306
823.88	-64.444
824.18	-97.500
824.48	-146.667
824.78	-172.000
825.08	-109.091
825.38	-77.778
825.69	-80.851
825.99	-111.111
826.29	-122.857
826.59	-115.385
826.89	-118.605
827.19	-90.000
827.49	-126.471
827.79	-85.417
828.09	-137.838
828.39	-133.333
828.70	-107.317
829.00	-102.326
829.30	-178.571
829.60	-126.471
829.90	-91.304
830.20	-108.571
830.50	-141.379
830.80	-238.889
831.10	-161.538
831.40	-108.824
831.70	-204.762
832.00	-116.129
832.30	-294.118
832.60	-187.500
832.90	-415.385
833.20	-252.632
833.50	-275.000
833.80	-236.842
834.10	-300.000
834.40	-102.778
834.70	-128.125
835.00	-148.571
835.30	-126.471
835.60	-166.667
835.90	-196.000
836.20	-236.364
836.50	-144.000
836.80	-142.424
837.10	-177.778
837.40	-140.741
837.70	-312.500
838.00	-160.714
838.30	-213.043
838.60	-124.138
838.90	-321.429
839.19	-234.783
839.49	-458.333
839.79	-200.000
840.09	-300.000
840.39	-250.000
840.69	-129.032
840.99	-175.000
841.29	-293.333
841.59	-263.158
841.88	-87.179
842.18	-146.154
842.48	-450.000
842.78	-195.000
843.08	-130.000
843.38	-129.032
843.68	-300.000
843.97	-129.412
844.27	-318.750
844.57	-273.684
844.87	-570.000
845.17	-320.000
845.47	-157.143
845.76	-200.000
846.06	-533.333
846.36	-317.647
846.66	-203.846
846.96	-313.333
847.25	-276.471
847.55	-195.652
847.85	-245.000
848.15	-176.471
848.44	-381.818
848.74	-176.190
849.04	-183.333
849.34	-312.500
849.63	-186.957
849.93	2450.000
850.23	-240.000
850.53	-146.154
850.82	-354.545
851.12	-186.364
851.42	-463.636
851.71	-292.308
852.01	-235.000
852.31	-376.923
852.61	-236.842
852.90	-300.000
853.20	-227.778
853.50	-600.000
853.79	-261.905
854.09	-263.636
854.39	-433.333
854.68	-141.935
854.98	-176.923
855.28	-244.444
855.57	-157.143
855.87	-176.000
856.17	-209.091
856.46	-170.370
856.76	-261.111
857.05	-165.217
857.35	-212.500
857.65	-376.923
857.94	-166.667
858.24	-111.111
858.53	-165.217
858.83	-247.059
859.13	-311.765
859.42	-200.000
859.72	-300.000
860.01	-235.000
860.31	-544.444
860.60	-430.000
860.90	-313.333
861.20	-216.667
861.49	-353.846
861.79	-146.667
862.08	-346.154
862.38	-100.000
862.67	-276.471
862.97	-306.250
863.26	-488.889
863.56	-440.000
863.85	-409.091
864.15	-244.444
864.44	-1533.333
864.74	-335.714
865.03	-300.000
865.33	-570.000
865.62	-145.161
865.92	-163.636
866.21	-182.609
866.51	-285.714
866.80	-960.000
867.10	-450.000
867.39	-483.333
867.69	6200.000
867.98	-500.000
868.27	-229.412
868.57	-6100.000
868.86	-540.000
869.16	-204.762
869.45	-179.167
869.75	-318.182
870.04	-671.429
870.33	-358.333
870.63	-785.714
870.92	-1025.000
871.22	-675.000
871.51	-490.909
871.80	-1800.000
872.10	-2650.000
>>>>>End Processed Spectral Data<<<<<
