SpectraSuite Data File
++++++++++++++++++++++++++++++++++++
Date: Thu May 14 15:05:27 PDT 2015
User: schluterlab
Dark Spectrum Present: Yes
Reference Spectrum Present: Yes
Number of Sampled Component Spectra: 1
Spectrometers: USB2E3373
Integration Time (usec): 3000 (USB2E3373)
Spectra Averaged: 3 (USB2E3373)
Boxcar Smoothing: 0 (USB2E3373)
Correct for Electrical Dark: No (USB2E3373)
Strobe/Lamp Enabled: No (USB2E3373)
Correct for Detector Non-linearity: No (USB2E3373)
Correct for Stray Light: No (USB2E3373)
Number of Pixels in Processed Spectrum: 2048
>>>>>Begin Processed Spectral Data<<<<<
178.53	0.000
178.91	328.571
179.29	-2800.000
179.67	-2100.000
180.04	285.714
180.42	310.000
180.80	700.000
181.18	-2700.000
181.56	-1500.000
181.94	750.000
182.31	-650.000
182.69	733.333
183.07	-1550.000
183.45	700.000
183.83	-333.333
184.20	-433.333
184.58	2700.000
184.96	-600.000
185.34	-266.667
185.72	-280.000
186.09	477.778
186.47	1650.000
186.85	780.000
187.23	-344.444
187.61	-3000.000
187.98	520.000
188.36	575.000
188.74	-525.000
189.12	-700.000
189.49	-112.500
189.87	-275.000
190.25	-166.667
190.63	-520.000
191.00	-400.000
191.38	0.000
191.76	-800.000
192.14	-466.667
192.51	1500.000
192.89	-266.667
193.27	0.000
193.65	-357.143
194.02	-2600.000
194.40	-285.714
194.78	257.143
195.15	0.000
195.53	-163.636
195.91	0.000
196.29	-375.000
196.66	-130.769
197.04	-3000.000
197.42	-271.429
197.79	-1650.000
198.17	-300.000
198.55	-314.286
198.92	-244.444
199.30	-425.000
199.68	-145.455
200.05	-150.000
200.43	-1950.000
200.81	471.429
201.18	0.000
201.56	233.333
201.94	0.000
202.31	966.667
202.69	-322.222
203.07	2300.000
203.44	-288.889
203.82	-525.000
204.19	-216.667
204.57	-333.333
204.95	-237.500
205.32	-2900.000
205.70	625.000
206.08	-400.000
206.45	-366.667
206.83	700.000
207.20	-350.000
207.58	-580.000
207.96	-466.667
208.33	-266.667
208.71	308.333
209.08	-383.333
209.46	0.000
209.84	416.667
210.21	1000.000
210.59	1500.000
210.96	1000.000
211.34	-425.000
211.71	-237.500
212.09	-3000.000
212.46	0.000
212.84	1600.000
213.22	-440.000
213.59	-550.000
213.97	-200.000
214.34	-466.667
214.72	416.667
215.09	-775.000
215.47	0.000
215.84	271.429
216.22	1600.000
216.59	-440.000
216.97	-420.000
217.34	-600.000
217.72	-225.000
218.09	-575.000
218.47	-725.000
218.84	0.000
219.22	420.000
219.59	-76.471
219.97	-115.000
220.34	1700.000
220.72	-266.667
221.09	-100.000
221.47	-1133.333
221.84	-170.000
222.22	-400.000
222.59	0.000
222.97	-387.500
223.34	-820.000
223.72	-2700.000
224.09	-525.000
224.46	-850.000
224.84	-360.000
225.21	-528.571
225.59	-675.000
225.96	-750.000
226.34	-69.231
226.71	616.667
227.08	-1650.000
227.46	-133.333
227.83	-725.000
228.21	-121.053
228.58	325.000
228.95	700.000
229.33	-125.000
229.70	-270.000
230.08	-63.158
230.45	250.000
230.82	-666.667
231.20	-164.286
231.57	-133.333
231.95	-290.909
232.32	-236.364
232.69	-95.000
233.07	-425.000
233.44	-152.941
233.81	-190.000
234.19	-83.333
234.56	-104.545
234.93	-58.621
235.31	-94.737
235.68	-66.667
236.05	-170.000
236.43	-100.000
236.80	-4.000
237.17	-62.963
237.55	-42.424
237.92	-220.000
238.29	-51.613
238.67	-43.182
239.04	-36.111
239.41	-57.143
239.79	-34.783
240.16	-20.370
240.53	-26.087
240.91	-25.490
241.28	-18.033
241.65	-5.970
242.02	0.000
242.40	-13.846
242.77	-13.333
243.14	-21.951
243.51	-32.895
243.89	-28.205
244.26	-6.931
244.63	3.922
245.00	1.869
245.38	-4.386
245.75	-13.274
246.12	0.000
246.49	-5.426
246.87	2.857
247.24	14.570
247.61	8.553
247.98	3.356
248.36	0.617
248.73	3.067
249.10	1.093
249.47	11.940
249.84	14.136
250.22	5.699
250.59	7.778
250.96	12.727
251.33	2.041
251.70	11.538
252.08	8.333
252.45	10.246
252.82	11.983
253.19	8.203
253.56	8.365
253.94	8.462
254.31	16.667
254.68	10.140
255.05	8.795
255.42	11.224
255.79	11.003
256.16	8.609
256.54	9.272
256.91	11.475
257.28	9.836
257.65	7.962
258.02	8.260
258.39	10.541
258.76	11.009
259.14	16.379
259.51	11.816
259.88	11.331
260.25	13.056
260.62	13.425
260.99	13.388
261.36	13.941
261.73	12.467
262.10	11.538
262.47	13.137
262.85	16.667
263.22	12.208
263.59	12.368
263.96	12.532
264.33	11.509
264.70	14.815
265.07	14.558
265.44	14.512
265.81	11.343
266.18	12.698
266.55	14.062
266.92	11.845
267.29	14.223
267.66	12.417
268.03	13.537
268.40	13.779
268.77	10.934
269.14	10.573
269.51	14.254
269.88	16.189
270.25	11.871
270.62	15.190
270.99	14.949
271.36	12.475
271.73	15.128
272.10	13.828
272.47	12.024
272.84	15.863
273.21	13.627
273.58	14.315
273.95	11.923
274.32	11.407
274.69	11.412
275.06	14.286
275.43	12.015
275.80	15.344
276.17	12.407
276.54	12.873
276.91	13.059
277.28	13.562
277.65	15.081
278.02	14.338
278.39	14.493
278.76	12.478
279.13	14.539
279.50	16.667
279.87	14.490
280.23	10.387
280.60	14.068
280.97	14.309
281.34	13.582
281.71	13.706
282.08	11.628
282.45	12.766
282.82	12.402
283.19	12.924
283.56	14.098
283.92	13.514
284.29	14.376
284.66	14.286
285.03	11.699
285.40	13.447
285.77	12.848
286.14	14.656
286.51	11.568
286.87	12.480
287.24	13.855
287.61	12.108
287.98	13.293
288.35	13.757
288.72	14.053
289.08	13.470
289.45	12.426
289.82	11.295
290.19	11.782
290.56	13.803
290.93	13.552
291.29	13.085
291.66	13.774
292.03	12.483
292.40	14.014
292.77	12.938
293.13	10.690
293.50	9.855
293.87	10.872
294.24	13.467
294.60	13.021
294.97	10.067
295.34	12.420
295.71	11.602
296.08	11.886
296.44	12.010
296.81	12.424
297.18	9.838
297.55	10.849
297.91	11.151
298.28	10.427
298.65	11.296
299.02	10.862
299.38	12.471
299.75	10.047
300.12	10.301
300.48	10.253
300.85	12.148
301.22	9.843
301.59	12.100
301.95	10.847
302.32	12.556
302.69	9.639
303.05	11.099
303.42	11.973
303.79	11.354
304.15	10.831
304.52	11.734
304.89	10.890
305.25	11.180
305.62	11.285
305.99	11.031
306.35	11.290
306.72	11.582
307.09	12.081
307.45	10.041
307.82	10.696
308.19	10.192
308.55	11.475
308.92	11.295
309.29	11.877
309.65	10.624
310.02	11.485
310.38	11.319
310.75	12.233
311.12	12.081
311.48	12.121
311.85	12.441
312.22	11.575
312.58	11.831
312.95	10.899
313.31	12.105
313.68	12.912
314.05	13.911
314.41	13.570
314.78	13.079
315.14	14.065
315.51	13.758
315.87	14.491
316.24	14.612
316.61	15.897
316.97	14.842
317.34	13.757
317.70	14.760
318.07	15.256
318.43	15.986
318.80	16.806
319.16	16.137
319.53	14.482
319.89	14.461
320.26	16.993
320.62	16.401
320.99	16.251
321.35	17.560
321.72	16.930
322.08	17.674
322.45	18.880
322.81	18.953
323.18	18.938
323.54	19.828
323.91	19.395
324.27	19.707
324.64	20.739
325.00	20.398
325.37	21.867
325.73	21.901
326.10	24.899
326.46	23.860
326.83	24.580
327.19	24.331
327.56	25.850
327.92	26.279
328.29	24.597
328.65	26.382
329.01	27.157
329.38	28.054
329.74	28.510
330.11	29.538
330.47	28.475
330.84	28.079
331.20	28.917
331.56	28.769
331.93	30.042
332.29	30.254
332.66	31.645
333.02	30.653
333.38	30.872
333.75	30.976
334.11	31.776
334.48	31.188
334.84	32.455
335.20	31.906
335.57	32.209
335.93	33.388
336.29	31.614
336.66	33.221
337.02	33.027
337.38	32.313
337.75	31.818
338.11	32.044
338.47	32.837
338.84	33.418
339.20	31.508
339.56	33.196
339.93	32.677
340.29	32.448
340.65	31.630
341.02	32.881
341.38	32.741
341.74	33.979
342.11	32.422
342.47	32.010
342.83	33.172
343.20	34.260
343.56	33.360
343.92	34.107
344.28	33.047
344.65	32.791
345.01	33.307
345.37	33.904
345.73	33.281
346.10	34.009
346.46	33.228
346.82	33.708
347.19	32.468
347.55	34.294
347.91	32.912
348.27	34.522
348.63	34.349
349.00	34.154
349.36	32.788
349.72	32.887
350.08	34.993
350.45	33.612
350.81	33.409
351.17	33.985
351.53	34.041
351.89	33.257
352.26	33.881
352.62	32.612
352.98	34.046
353.34	33.010
353.70	34.977
354.07	33.756
354.43	34.548
354.79	33.957
355.15	34.731
355.51	34.430
355.87	34.929
356.24	35.133
356.60	33.259
356.96	34.544
357.32	33.457
357.68	33.895
358.04	34.057
358.40	35.224
358.77	35.015
359.13	33.973
359.49	33.755
359.85	34.010
360.21	35.079
360.57	34.099
360.93	34.767
361.29	35.088
361.66	34.468
362.02	37.091
362.38	35.770
362.74	36.173
363.10	35.695
363.46	36.011
363.82	35.085
364.18	35.890
364.54	35.546
364.90	36.321
365.26	35.586
365.62	36.533
365.98	36.419
366.35	35.973
366.71	36.122
367.07	36.130
367.43	35.391
367.79	37.558
368.15	36.589
368.51	35.792
368.87	37.165
369.23	36.467
369.59	38.388
369.95	36.917
370.31	36.597
370.67	38.033
371.03	36.773
371.39	36.938
371.75	36.176
372.11	37.060
372.47	37.441
372.83	37.827
373.19	38.359
373.55	37.873
373.91	37.696
374.27	37.063
374.63	38.227
374.99	37.666
375.35	38.896
375.71	37.613
376.07	38.476
376.42	39.106
376.78	38.782
377.14	38.553
377.50	40.228
377.86	39.840
378.22	39.222
378.58	39.417
378.94	38.498
379.30	39.836
379.66	39.859
380.02	40.739
380.38	40.150
380.74	40.507
381.09	40.883
381.45	40.227
381.81	41.686
382.17	41.211
382.53	40.819
382.89	40.293
383.25	42.732
383.61	41.146
383.97	41.225
384.32	42.045
384.68	41.821
385.04	42.047
385.40	42.546
385.76	42.556
386.12	42.430
386.48	42.471
386.83	42.491
387.19	41.947
387.55	43.016
387.91	42.694
388.27	43.014
388.62	41.753
388.98	42.132
389.34	43.135
389.70	42.766
390.06	42.688
390.42	42.349
390.77	42.685
391.13	41.784
391.49	42.995
391.85	42.061
392.20	42.823
392.56	43.119
392.92	42.857
393.28	42.676
393.64	43.408
393.99	43.347
394.35	43.107
394.71	43.174
395.07	42.515
395.42	41.805
395.78	43.083
396.14	43.375
396.50	42.458
396.85	42.159
397.21	42.485
397.57	41.814
397.92	42.784
398.28	41.662
398.64	41.819
399.00	41.309
399.35	41.518
399.71	41.902
400.07	41.550
400.42	41.793
400.78	42.245
401.14	41.320
401.49	41.785
401.85	42.616
402.21	42.874
402.57	42.958
402.92	42.080
403.28	41.042
403.63	41.587
403.99	40.439
404.35	41.615
404.70	40.793
405.06	40.707
405.42	41.218
405.77	41.439
406.13	41.383
406.49	40.372
406.84	40.665
407.20	40.693
407.55	40.339
407.91	40.038
408.27	40.931
408.62	40.198
408.98	39.872
409.34	40.176
409.69	41.347
410.05	40.328
410.40	40.603
410.76	40.381
411.11	41.262
411.47	41.585
411.83	40.682
412.18	41.024
412.54	39.893
412.89	39.930
413.25	41.084
413.60	41.011
413.96	40.676
414.31	39.943
414.67	40.608
415.03	40.431
415.38	40.605
415.74	40.073
416.09	40.531
416.45	40.701
416.80	40.208
417.16	41.060
417.51	40.411
417.87	40.773
418.22	40.599
418.58	41.202
418.93	41.676
419.29	42.663
419.64	41.657
420.00	42.433
420.35	42.392
420.71	42.562
421.06	41.461
421.42	42.259
421.77	41.896
422.12	42.600
422.48	42.243
422.83	43.593
423.19	42.546
423.54	43.418
423.90	42.352
424.25	44.267
424.61	42.939
424.96	44.152
425.31	44.214
425.67	44.391
426.02	43.498
426.38	44.719
426.73	44.141
427.09	45.905
427.44	44.620
427.79	45.384
428.15	44.178
428.50	44.663
428.85	44.948
429.21	45.745
429.56	45.311
429.92	45.749
430.27	46.410
430.62	45.481
430.98	45.991
431.33	45.992
431.68	46.456
432.04	46.826
432.39	46.331
432.74	46.461
433.10	46.674
433.45	46.377
433.80	47.264
434.16	46.643
434.51	48.201
434.86	49.023
435.22	49.150
435.57	48.231
435.92	45.687
436.28	47.782
436.63	48.771
436.98	47.075
437.34	47.745
437.69	49.367
438.04	47.805
438.39	47.731
438.75	48.257
439.10	47.939
439.45	48.351
439.81	48.588
440.16	48.847
440.51	47.993
440.86	48.027
441.22	48.124
441.57	48.480
441.92	48.206
442.27	49.343
442.63	48.783
442.98	49.039
443.33	49.237
443.68	49.604
444.03	50.800
444.39	49.884
444.74	49.668
445.09	49.316
445.44	49.579
445.79	51.293
446.15	50.771
446.50	49.922
446.85	50.195
447.20	50.387
447.55	49.843
447.91	49.791
448.26	50.211
448.61	51.063
448.96	50.697
449.31	49.576
449.66	50.000
450.02	50.369
450.37	50.186
450.72	50.215
451.07	50.285
451.42	49.856
451.77	49.138
452.12	50.734
452.47	50.862
452.83	52.083
453.18	50.321
453.53	51.350
453.88	50.359
454.23	51.469
454.58	52.118
454.93	50.667
455.28	50.873
455.63	50.085
455.98	51.899
456.34	51.178
456.69	51.205
457.04	51.418
457.39	52.106
457.74	51.622
458.09	51.620
458.44	51.940
458.79	51.831
459.14	50.708
459.49	51.500
459.84	51.679
460.19	50.527
460.54	51.221
460.89	51.615
461.24	51.609
461.59	51.909
461.94	51.740
462.29	51.512
462.64	51.177
462.99	51.977
463.34	52.109
463.69	49.238
464.04	51.918
464.39	51.850
464.74	51.140
465.09	52.018
465.44	52.039
465.79	51.772
466.14	51.068
466.49	51.474
466.84	53.168
467.19	51.503
467.54	51.410
467.89	50.920
468.24	50.416
468.59	51.129
468.94	51.399
469.29	50.930
469.64	50.032
469.99	51.179
470.34	51.176
470.68	51.743
471.03	51.932
471.38	53.107
471.73	50.780
472.08	51.459
472.43	51.415
472.78	51.700
473.13	52.149
473.48	52.508
473.83	52.118
474.17	51.290
474.52	52.255
474.87	52.270
475.22	51.831
475.57	51.246
475.92	51.717
476.27	51.810
476.61	51.506
476.96	52.138
477.31	51.386
477.66	52.728
478.01	51.144
478.36	51.645
478.70	51.133
479.05	53.988
479.40	51.728
479.75	53.554
480.10	51.776
480.45	52.005
480.79	52.472
481.14	51.746
481.49	51.613
481.84	52.306
482.19	52.559
482.53	53.083
482.88	52.725
483.23	53.224
483.58	52.052
483.92	51.950
484.27	51.101
484.62	51.279
484.97	51.322
485.31	50.088
485.66	47.934
486.01	48.532
486.36	50.941
486.70	54.239
487.05	55.567
487.40	54.400
487.75	52.570
488.09	52.043
488.44	50.832
488.79	50.995
489.13	49.819
489.48	51.146
489.83	49.899
490.17	50.871
490.52	51.683
490.87	52.200
491.22	52.686
491.56	52.048
491.91	51.199
492.26	52.099
492.60	51.334
492.95	51.514
493.30	52.039
493.64	52.037
493.99	51.623
494.34	50.653
494.68	50.835
495.03	52.159
495.37	51.398
495.72	51.701
496.07	51.139
496.41	51.480
496.76	52.419
497.11	52.866
497.45	51.877
497.80	51.133
498.14	52.109
498.49	51.976
498.84	51.600
499.18	51.822
499.53	52.422
499.87	50.681
500.22	51.336
500.56	51.507
500.91	51.625
501.26	52.091
501.60	50.817
501.95	51.585
502.29	52.084
502.64	52.164
502.98	51.553
503.33	51.965
503.67	51.897
504.02	51.138
504.36	51.609
504.71	51.860
505.06	50.250
505.40	51.051
505.75	51.685
506.09	51.934
506.44	53.157
506.78	52.248
507.13	51.268
507.47	51.871
507.82	52.320
508.16	52.342
508.51	50.774
508.85	52.055
509.19	51.445
509.54	52.113
509.88	52.453
510.23	53.230
510.57	53.262
510.92	51.863
511.26	50.649
511.61	52.294
511.95	52.367
512.30	52.683
512.64	51.074
512.98	51.176
513.33	52.268
513.67	52.677
514.02	52.529
514.36	52.941
514.70	52.135
515.05	51.929
515.39	52.861
515.74	52.280
516.08	52.615
516.42	53.009
516.77	53.207
517.11	51.264
517.46	53.234
517.80	53.715
518.14	53.754
518.49	53.362
518.83	51.357
519.17	52.181
519.52	51.625
519.86	52.587
520.20	52.290
520.55	51.479
520.89	53.209
521.23	53.099
521.58	52.542
521.92	52.408
522.26	52.062
522.61	52.546
522.95	51.499
523.29	52.529
523.64	52.298
523.98	52.196
524.32	53.926
524.66	53.386
525.01	51.359
525.35	51.177
525.69	51.740
526.04	50.517
526.38	52.011
526.72	52.710
527.06	53.724
527.41	52.128
527.75	52.494
528.09	52.597
528.43	51.687
528.78	51.792
529.12	51.606
529.46	51.771
529.80	52.117
530.15	52.000
530.49	51.661
530.83	52.125
531.17	52.389
531.51	51.324
531.86	52.043
532.20	52.378
532.54	51.227
532.88	51.030
533.22	51.679
533.57	51.068
533.91	51.571
534.25	49.915
534.59	52.644
534.93	52.009
535.27	51.268
535.62	51.507
535.96	52.469
536.30	52.233
536.64	50.571
536.98	51.907
537.32	51.420
537.66	51.466
538.01	49.547
538.35	50.426
538.69	51.022
539.03	51.931
539.37	50.824
539.71	50.811
540.05	50.779
540.39	50.061
540.73	50.273
541.07	51.686
541.42	49.734
541.76	48.280
542.10	50.000
542.44	50.548
542.78	50.000
543.12	49.762
543.46	51.099
543.80	50.000
544.14	50.449
544.48	50.591
544.82	51.466
545.16	51.044
545.50	50.449
545.84	49.663
546.18	51.975
546.52	50.318
546.86	50.881
547.20	51.081
547.54	49.688
547.88	50.452
548.22	50.117
548.56	50.380
548.90	52.000
549.24	50.334
549.58	50.221
549.92	51.212
550.26	50.809
550.60	49.840
550.94	49.871
551.28	50.099
551.62	51.415
551.96	50.227
552.30	51.753
552.64	50.156
552.98	50.655
553.32	51.768
553.66	49.711
554.00	49.874
554.34	50.837
554.68	49.387
555.02	50.394
555.36	50.230
555.69	48.559
556.03	50.757
556.37	51.815
556.71	51.744
557.05	51.246
557.39	50.697
557.73	49.868
558.07	51.722
558.41	51.030
558.75	50.778
559.08	51.914
559.42	49.794
559.76	51.018
560.10	50.435
560.44	49.604
560.78	50.625
561.12	49.631
561.45	51.338
561.79	50.672
562.13	51.201
562.47	48.520
562.81	50.949
563.15	51.073
563.48	50.715
563.82	49.819
564.16	49.122
564.50	48.868
564.84	50.442
565.17	49.647
565.51	49.252
565.85	51.247
566.19	48.790
566.52	49.444
566.86	50.085
567.20	48.341
567.54	48.858
567.88	50.459
568.21	50.889
568.55	50.887
568.89	49.932
569.23	49.261
569.56	49.472
569.90	49.216
570.24	49.949
570.57	49.102
570.91	48.683
571.25	48.076
571.59	48.149
571.92	48.694
572.26	48.280
572.60	49.222
572.93	48.511
573.27	47.682
573.61	48.174
573.95	48.143
574.28	47.956
574.62	47.635
574.96	47.574
575.29	47.125
575.63	47.886
575.97	47.665
576.30	47.520
576.64	47.936
576.98	47.790
577.31	47.635
577.65	48.060
577.98	47.572
578.32	46.810
578.66	47.965
578.99	47.614
579.33	47.710
579.67	47.960
580.00	47.112
580.34	46.793
580.67	46.536
581.01	47.707
581.35	46.873
581.68	46.815
582.02	47.459
582.35	48.701
582.69	48.768
583.02	48.533
583.36	48.470
583.70	47.853
584.03	47.420
584.37	46.877
584.70	45.917
585.04	46.617
585.37	46.354
585.71	47.530
586.04	46.984
586.38	47.354
586.72	47.606
587.05	47.480
587.39	48.093
587.72	48.278
588.06	47.655
588.39	48.195
588.73	47.566
589.06	48.251
589.40	47.941
589.73	47.719
590.07	47.745
590.40	48.411
590.73	47.720
591.07	48.846
591.40	47.551
591.74	47.655
592.07	48.234
592.41	47.989
592.74	47.994
593.08	47.739
593.41	48.790
593.75	48.362
594.08	48.955
594.41	48.974
594.75	47.924
595.08	48.250
595.42	47.532
595.75	47.756
596.09	48.323
596.42	47.546
596.75	47.819
597.09	48.202
597.42	47.199
597.75	46.727
598.09	47.222
598.42	48.090
598.76	46.427
599.09	47.739
599.42	46.229
599.76	47.276
600.09	47.181
600.42	47.514
600.76	47.787
601.09	47.262
601.42	47.202
601.76	47.276
602.09	47.248
602.42	46.456
602.76	47.122
603.09	47.871
603.42	48.266
603.76	46.829
604.09	48.332
604.42	47.927
604.76	47.108
605.09	47.507
605.42	47.648
605.75	46.615
606.09	47.779
606.42	46.662
606.75	46.252
607.09	45.853
607.42	46.859
607.75	47.831
608.08	47.395
608.42	46.110
608.75	46.891
609.08	46.859
609.41	46.890
609.75	47.500
610.08	47.405
610.41	47.536
610.74	46.765
611.07	47.336
611.41	47.713
611.74	46.836
612.07	46.844
612.40	46.863
612.73	47.579
613.07	47.090
613.40	46.968
613.73	47.135
614.06	46.712
614.39	46.356
614.72	46.240
615.06	45.525
615.39	47.269
615.72	47.725
616.05	47.159
616.38	47.931
616.71	46.290
617.05	46.965
617.38	47.084
617.71	46.598
618.04	47.598
618.37	47.705
618.70	47.342
619.03	48.029
619.36	46.856
619.69	47.213
620.03	46.955
620.36	46.687
620.69	47.625
621.02	47.244
621.35	48.186
621.68	46.999
622.01	47.687
622.34	46.862
622.67	47.148
623.00	45.749
623.33	48.308
623.66	46.952
623.99	46.741
624.32	47.368
624.65	46.718
624.99	48.375
625.32	48.596
625.65	46.527
625.98	46.915
626.31	47.626
626.64	46.667
626.97	46.137
627.30	47.001
627.63	46.812
627.96	47.297
628.29	46.615
628.62	46.012
628.95	47.502
629.28	48.343
629.61	48.064
629.94	46.025
630.26	47.119
630.59	47.496
630.92	47.186
631.25	48.032
631.58	48.682
631.91	47.704
632.24	48.607
632.57	47.628
632.90	47.442
633.23	47.041
633.56	46.633
633.89	45.971
634.22	48.857
634.55	48.747
634.88	47.511
635.20	47.470
635.53	49.153
635.86	46.696
636.19	46.978
636.52	47.363
636.85	44.433
637.18	45.842
637.51	46.774
637.83	47.398
638.16	48.387
638.49	47.653
638.82	46.110
639.15	47.652
639.48	49.885
639.81	46.305
640.13	47.703
640.46	47.758
640.79	45.956
641.12	48.820
641.45	45.295
641.77	49.679
642.10	47.507
642.43	50.266
642.76	43.767
643.09	46.575
643.41	48.039
643.74	46.759
644.07	47.586
644.40	46.818
644.73	45.138
645.05	48.311
645.38	46.619
645.71	46.774
646.04	50.215
646.36	46.131
646.69	46.319
647.02	48.012
647.35	47.176
647.67	47.021
648.00	47.452
648.33	49.399
648.66	46.362
648.98	45.170
649.31	48.038
649.64	48.074
649.96	45.225
650.29	46.314
650.62	44.979
650.94	46.396
651.27	44.910
651.60	44.298
651.92	46.505
652.25	46.744
652.58	45.667
652.90	45.203
653.23	45.915
653.56	44.793
653.88	46.770
654.21	45.070
654.54	43.786
654.86	45.609
655.19	43.664
655.52	47.885
655.84	47.650
656.17	53.626
656.49	74.332
656.82	80.224
657.15	63.351
657.47	48.054
657.80	35.632
658.13	27.631
658.45	35.960
658.78	42.665
659.10	40.187
659.43	39.138
659.75	36.563
660.08	35.910
660.41	37.800
660.73	38.426
661.06	41.410
661.38	41.467
661.71	45.517
662.03	44.444
662.36	43.649
662.68	46.341
663.01	42.301
663.33	45.369
663.66	44.689
663.98	47.308
664.31	44.090
664.63	44.701
664.96	44.828
665.28	45.009
665.61	45.280
665.93	45.357
666.26	41.756
666.58	42.989
666.91	44.112
667.23	43.429
667.56	46.943
667.88	42.800
668.21	42.578
668.53	42.664
668.86	44.990
669.18	42.974
669.50	43.141
669.83	42.800
670.15	45.472
670.48	43.452
670.80	44.359
671.13	41.399
671.45	46.063
671.77	48.211
672.10	43.333
672.42	43.366
672.75	44.700
673.07	40.896
673.39	44.684
673.72	42.617
674.04	46.207
674.37	44.365
674.69	43.210
675.01	43.048
675.34	40.267
675.66	43.071
675.98	44.030
676.31	45.313
676.63	42.776
676.95	45.019
677.28	41.129
677.60	40.157
677.92	43.378
678.25	43.510
678.57	43.594
678.89	41.638
679.22	42.334
679.54	42.393
679.86	41.186
680.18	40.299
680.51	41.824
680.83	43.208
681.15	45.172
681.48	44.214
681.80	44.560
682.12	44.580
682.44	42.237
682.77	42.021
683.09	42.992
683.41	43.411
683.73	42.125
684.06	39.668
684.38	42.218
684.70	46.320
685.02	44.578
685.34	40.599
685.67	44.164
685.99	41.411
686.31	40.988
686.63	43.760
686.96	39.905
687.28	40.717
687.60	41.919
687.92	39.711
688.24	41.068
688.56	40.517
688.89	42.468
689.21	44.227
689.53	42.549
689.85	43.590
690.17	39.074
690.49	40.837
690.82	42.376
691.14	41.296
691.46	41.109
691.78	43.278
692.10	41.468
692.42	41.429
692.74	39.927
693.06	38.148
693.39	42.694
693.71	40.977
694.03	39.219
694.35	40.952
694.67	40.657
694.99	41.702
695.31	40.618
695.63	41.126
695.95	36.439
696.27	38.242
696.59	40.265
696.91	38.514
697.23	41.758
697.56	40.530
697.88	38.636
698.20	42.561
698.52	41.477
698.84	41.372
699.16	43.265
699.48	39.540
699.80	38.936
700.12	40.175
700.44	38.249
700.76	40.618
701.08	40.678
701.40	38.601
701.72	40.796
702.04	40.909
702.36	39.267
702.68	38.142
703.00	41.320
703.32	36.946
703.64	41.565
703.96	41.289
704.28	38.084
704.60	38.228
704.91	38.776
705.23	39.726
705.55	39.554
705.87	39.091
706.19	45.092
706.51	37.349
706.83	40.346
707.15	38.360
707.47	38.785
707.79	36.026
708.11	38.559
708.43	36.559
708.74	36.607
709.06	36.195
709.38	39.671
709.70	39.702
710.02	37.209
710.34	38.830
710.66	35.475
710.98	40.437
711.29	37.637
711.61	40.113
711.93	39.316
712.25	37.297
712.57	38.348
712.89	42.647
713.20	33.432
713.52	37.283
713.84	38.997
714.16	37.895
714.48	36.082
714.80	39.481
715.11	36.220
715.43	37.666
715.75	35.263
716.07	38.674
716.39	38.525
716.70	31.928
717.02	43.607
717.34	33.798
717.66	36.577
717.97	35.616
718.29	34.021
718.61	38.158
718.93	36.570
719.24	34.783
719.56	34.969
719.88	37.237
720.20	35.161
720.51	39.130
720.83	34.063
721.15	35.526
721.46	33.562
721.78	38.000
722.10	36.570
722.42	32.550
722.73	30.645
723.05	37.895
723.37	30.208
723.68	40.860
724.00	37.906
724.32	33.803
724.63	34.266
724.95	40.426
725.27	39.024
725.58	33.922
725.90	39.655
726.22	34.169
726.53	36.364
726.85	34.906
727.16	36.254
727.48	37.003
727.80	35.099
728.11	31.802
728.43	36.700
728.74	31.773
729.06	35.099
729.38	38.636
729.69	35.570
730.01	37.202
730.32	35.758
730.64	34.906
730.96	33.540
731.27	34.358
731.59	36.813
731.90	31.429
732.22	30.208
732.53	34.807
732.85	33.714
733.16	35.777
733.48	31.707
733.80	34.819
734.11	33.048
734.43	35.405
734.74	38.228
735.06	33.417
735.37	37.027
735.69	36.486
736.00	36.723
736.32	35.849
736.63	35.833
736.95	34.483
737.26	34.242
737.58	34.545
737.89	36.471
738.21	33.639
738.52	32.787
738.83	35.154
739.15	37.234
739.46	34.694
739.78	34.356
740.09	30.946
740.41	29.446
740.72	31.667
741.04	32.686
741.35	34.386
741.66	29.020
741.98	35.246
742.29	31.381
742.61	32.456
742.92	30.769
743.23	33.213
743.55	28.682
743.86	32.000
744.18	24.380
744.49	30.380
744.80	32.099
745.12	35.021
745.43	34.959
745.74	32.759
746.06	30.085
746.37	35.865
746.68	34.146
747.00	30.417
747.31	31.760
747.62	35.000
747.94	38.057
748.25	28.916
748.56	27.347
748.88	31.624
749.19	31.466
749.50	27.273
749.82	38.153
750.13	35.587
750.44	34.000
750.75	32.615
751.07	36.308
751.38	31.230
751.69	29.073
752.01	28.479
752.32	30.719
752.63	33.673
752.94	31.834
753.26	26.766
753.57	31.111
753.88	29.213
754.19	38.264
754.51	30.868
754.82	35.691
755.13	32.787
755.44	35.495
755.75	34.539
756.07	33.134
756.38	31.132
756.69	34.639
757.00	31.579
757.31	34.153
757.63	29.668
757.94	32.629
758.25	36.117
758.56	32.026
758.87	32.727
759.18	29.600
759.50	36.827
759.81	34.734
760.12	30.189
760.43	35.417
760.74	33.990
761.05	32.500
761.36	32.530
761.67	34.010
761.99	29.189
762.30	31.098
762.61	30.693
762.92	33.582
763.23	31.835
763.54	34.892
763.85	28.522
764.16	30.976
764.47	32.042
764.78	33.227
765.10	34.311
765.41	35.641
765.72	31.481
766.03	33.898
766.34	29.781
766.65	28.920
766.96	32.271
767.27	24.424
767.58	28.856
767.89	32.692
768.20	24.883
768.51	30.093
768.82	29.317
769.13	31.061
769.44	26.154
769.75	32.491
770.06	27.692
770.37	32.283
770.68	34.894
770.99	23.887
771.30	34.444
771.61	30.418
771.92	31.111
772.23	30.364
772.54	25.463
772.85	33.641
773.16	28.095
773.47	17.460
773.78	20.541
774.09	28.409
774.39	32.000
774.70	28.962
775.01	16.463
775.32	25.294
775.63	23.313
775.94	19.108
776.25	29.677
776.56	26.923
776.87	25.850
777.18	21.379
777.48	23.077
777.79	22.973
778.10	9.559
778.41	15.972
778.72	29.655
779.03	26.543
779.34	26.667
779.65	26.943
779.95	26.111
780.26	23.864
780.57	29.032
780.88	28.986
781.19	30.323
781.50	31.176
781.80	22.581
782.11	27.513
782.42	26.768
782.73	23.952
783.04	22.905
783.34	20.606
783.65	16.340
783.96	19.876
784.27	25.595
784.57	27.152
784.88	19.286
785.19	18.898
785.50	17.323
785.81	18.045
786.11	27.692
786.42	15.108
786.73	16.547
787.04	21.805
787.34	24.590
787.65	24.800
787.96	22.388
788.26	24.476
788.57	20.280
788.88	23.026
789.19	29.412
789.49	17.808
789.80	19.858
790.11	19.685
790.41	12.500
790.72	11.864
791.03	3.883
791.33	16.522
791.64	9.649
791.95	8.929
792.25	13.333
792.56	16.964
792.87	9.375
793.17	10.714
793.48	10.417
793.79	1.205
794.09	12.844
794.40	11.009
794.70	17.687
795.01	9.740
795.32	10.959
795.62	14.085
795.93	9.091
796.23	21.311
796.54	12.500
796.85	12.766
797.15	6.522
797.46	1.370
797.76	0.000
798.07	8.696
798.37	11.340
798.68	-2.597
798.99	1.149
799.29	1.124
799.60	13.830
799.90	-3.614
800.21	-10.769
800.51	-16.418
800.82	-11.765
801.12	-13.699
801.43	-1.471
801.73	6.780
802.04	-4.545
802.34	-5.000
802.65	5.085
802.95	-2.985
803.26	-5.085
803.56	6.849
803.87	5.714
804.17	-4.110
804.48	-31.579
804.78	-2.778
805.09	-6.897
805.39	-4.054
805.70	-11.268
806.00	8.537
806.30	6.024
806.61	5.479
806.91	11.538
807.22	7.778
807.52	4.598
807.83	11.111
808.13	19.277
808.43	7.865
808.74	-2.500
809.04	-13.235
809.35	2.667
809.65	-8.571
809.95	-4.110
810.26	-35.088
810.56	12.069
810.86	-7.353
811.17	-14.035
811.47	-18.033
811.77	-46.667
812.08	-10.169
812.38	-8.333
812.69	0.000
812.99	-20.755
813.29	-35.897
813.59	-16.000
813.90	0.000
814.20	3.636
814.50	2.817
814.81	1.282
815.11	-24.590
815.41	2.985
815.72	1.724
816.02	-1.786
816.32	6.667
816.62	0.000
816.93	-11.111
817.23	20.370
817.53	-25.532
817.84	0.000
818.14	-20.588
818.44	-22.449
818.74	-22.222
819.04	-30.769
819.35	-51.429
819.65	-88.462
819.95	-28.302
820.25	-8.889
820.56	-38.095
820.86	-40.625
821.16	-17.949
821.46	-34.884
821.76	-44.000
822.07	-21.429
822.37	-32.609
822.67	-42.553
822.97	-70.270
823.27	-32.500
823.57	0.000
823.88	-20.000
824.18	-25.000
824.48	-43.333
824.78	-60.000
825.08	-18.182
825.38	-8.889
825.69	-17.021
825.99	-33.333
826.29	-74.286
826.59	-43.590
826.89	-30.233
827.19	-10.000
827.49	-11.765
827.79	-6.250
828.09	-48.649
828.39	-90.000
828.70	-51.220
829.00	-41.860
829.30	-64.286
829.60	-76.471
829.90	-30.435
830.20	-60.000
830.50	-72.414
830.80	-94.444
831.10	-88.462
831.40	-41.176
831.70	-57.143
832.00	-29.032
832.30	-152.941
832.60	-79.167
832.90	-192.308
833.20	-94.737
833.50	-90.000
833.80	-94.737
834.10	-123.810
834.40	-50.000
834.70	-65.625
835.00	-68.571
835.30	-29.412
835.60	-86.667
835.90	-56.000
836.20	-131.818
836.50	-52.000
836.80	-51.515
837.10	-48.148
837.40	-85.185
837.70	-131.250
838.00	-32.143
838.30	-104.348
838.60	-75.862
838.90	-150.000
839.19	-108.696
839.49	-150.000
839.79	-69.565
840.09	-125.000
840.39	-145.000
840.69	-29.032
840.99	-82.143
841.29	-73.333
841.59	-115.789
841.88	-25.641
842.18	-42.308
842.48	-180.000
842.78	-115.000
843.08	-56.667
843.38	-38.710
843.68	-100.000
843.97	0.000
844.27	-137.500
844.57	-131.579
844.87	-240.000
845.17	-213.333
845.47	-85.714
845.76	-85.714
846.06	-277.778
846.36	-117.647
846.66	-34.615
846.96	-180.000
847.25	-182.353
847.55	-91.304
847.85	-90.000
848.15	-105.882
848.44	-190.909
848.74	-95.238
849.04	-87.500
849.34	-137.500
849.63	-52.174
849.93	1600.000
850.23	-126.667
850.53	-26.923
850.82	-272.727
851.12	-100.000
851.42	-127.273
851.71	-92.308
852.01	-135.000
852.31	-200.000
852.61	-105.263
852.90	-91.667
853.20	-83.333
853.50	-344.444
853.79	-123.810
854.09	-81.818
854.39	-216.667
854.68	-45.161
854.98	-50.000
855.28	-44.444
855.57	-75.000
855.87	-80.000
856.17	-86.364
856.46	-77.778
856.76	-94.444
857.05	-121.739
857.35	-100.000
857.65	-161.538
857.94	-61.905
858.24	-29.630
858.53	-65.217
858.83	-70.588
859.13	-129.412
859.42	-117.647
859.72	-135.714
860.01	-95.000
860.31	-222.222
860.60	-170.000
860.90	-113.333
861.20	-105.556
861.49	-146.154
861.79	-36.667
862.08	-230.769
862.38	-25.000
862.67	-41.176
862.97	-87.500
863.26	-266.667
863.56	-200.000
863.85	-309.091
864.15	-122.222
864.44	-866.667
864.74	-100.000
865.03	-137.500
865.33	-220.000
865.62	-54.839
865.92	-72.727
866.21	-86.957
866.51	-114.286
866.80	-520.000
867.10	-225.000
867.39	-208.333
867.69	2700.000
867.98	-314.286
868.27	-76.471
868.57	-3700.000
868.86	-270.000
869.16	-95.238
869.45	-58.333
869.75	-154.545
870.04	-371.429
870.33	-91.667
870.63	-471.429
870.92	-275.000
871.22	-462.500
871.51	-218.182
871.80	-1100.000
872.10	-1300.000
>>>>>End Processed Spectral Data<<<<<
