SpectraSuite Data File
++++++++++++++++++++++++++++++++++++
Date: Thu May 14 14:40:02 PDT 2015
User: schluterlab
Dark Spectrum Present: Yes
Reference Spectrum Present: Yes
Number of Sampled Component Spectra: 1
Spectrometers: USB2E3373
Integration Time (usec): 3000 (USB2E3373)
Spectra Averaged: 3 (USB2E3373)
Boxcar Smoothing: 0 (USB2E3373)
Correct for Electrical Dark: No (USB2E3373)
Strobe/Lamp Enabled: No (USB2E3373)
Correct for Detector Non-linearity: No (USB2E3373)
Correct for Stray Light: No (USB2E3373)
Number of Pixels in Processed Spectrum: 2048
>>>>>Begin Processed Spectral Data<<<<<
178.53	0.000
178.91	-57.143
179.29	-200.000
179.67	1100.000
180.04	-14.286
180.42	-150.000
180.80	-200.000
181.18	1300.000
181.56	2200.000
181.94	-50.000
182.31	250.000
182.69	-266.667
183.07	700.000
183.45	-275.000
183.83	166.667
184.20	600.000
184.58	-900.000
184.96	300.000
185.34	155.556
185.72	120.000
186.09	66.667
186.47	-400.000
186.85	-160.000
187.23	100.000
187.61	200.000
187.98	-140.000
188.36	-175.000
188.74	225.000
189.12	600.000
189.49	81.250
189.87	100.000
190.25	177.778
190.63	400.000
191.00	88.889
191.38	0.000
191.76	200.000
192.14	266.667
192.51	-950.000
192.89	350.000
193.27	0.000
193.65	257.143
194.02	300.000
194.40	185.714
194.78	-128.571
195.15	0.000
195.53	109.091
195.91	0.000
196.29	425.000
196.66	115.385
197.04	800.000
197.42	171.429
197.79	650.000
198.17	125.000
198.55	214.286
198.92	100.000
199.30	50.000
199.68	81.818
200.05	92.857
200.43	-100.000
200.81	-28.571
201.18	0.000
201.56	-66.667
201.94	0.000
202.31	-100.000
202.69	133.333
203.07	-1900.000
203.44	33.333
203.82	200.000
204.19	91.667
204.57	166.667
204.95	187.500
205.32	1000.000
205.70	-250.000
206.08	66.667
206.45	350.000
206.83	-180.000
207.20	133.333
207.58	60.000
207.96	150.000
208.33	333.333
208.71	-8.333
209.08	166.667
209.46	0.000
209.84	-66.667
210.21	-550.000
210.59	-900.000
210.96	-133.333
211.34	425.000
211.71	237.500
212.09	900.000
212.46	0.000
212.84	-450.000
213.22	40.000
213.59	25.000
213.97	80.000
214.34	266.667
214.72	-133.333
215.09	425.000
215.47	0.000
215.84	-157.143
216.22	-350.000
216.59	280.000
216.97	220.000
217.34	350.000
217.72	100.000
218.09	25.000
218.47	175.000
218.84	0.000
219.22	-240.000
219.59	76.471
219.97	70.000
220.34	-200.000
220.72	122.222
221.09	153.846
221.47	200.000
221.84	120.000
222.22	157.143
222.59	0.000
222.97	137.500
223.34	60.000
223.72	100.000
224.09	125.000
224.46	175.000
224.84	480.000
225.21	28.571
225.59	150.000
225.96	75.000
226.34	69.231
226.71	-83.333
227.08	1150.000
227.46	66.667
227.83	50.000
228.21	100.000
228.58	-112.500
228.95	-200.000
229.33	108.333
229.70	150.000
230.08	121.053
230.45	-90.000
230.82	366.667
231.20	121.429
231.57	75.000
231.95	118.182
232.32	118.182
232.69	70.000
233.07	250.000
233.44	11.765
233.81	70.000
234.19	77.778
234.56	77.273
234.93	44.828
235.31	84.211
235.68	50.000
236.05	30.000
236.43	92.308
236.80	88.000
237.17	77.778
237.55	48.485
237.92	100.000
238.29	35.484
238.67	22.727
239.04	2.778
239.41	30.952
239.79	34.783
240.16	29.630
240.53	39.130
240.91	15.686
241.28	26.230
241.65	28.358
242.02	25.676
242.40	6.154
242.77	24.000
243.14	-1.220
243.51	3.947
243.89	6.410
244.26	19.802
244.63	21.569
245.00	18.692
245.38	7.018
245.75	0.000
246.12	8.730
246.49	6.202
246.87	14.286
247.24	15.894
247.61	4.605
247.98	10.067
248.36	4.938
248.73	7.362
249.10	8.743
249.47	14.925
249.84	13.613
250.22	9.845
250.59	7.778
250.96	13.636
251.33	6.122
251.70	13.675
252.08	12.083
252.45	11.475
252.82	9.504
253.19	6.641
253.56	11.407
253.94	10.000
254.31	10.606
254.68	10.490
255.05	12.052
255.42	7.823
255.79	8.091
256.16	10.596
256.54	8.940
256.91	8.197
257.28	10.492
257.65	7.325
258.02	6.195
258.39	7.407
258.76	11.621
259.14	11.207
259.51	8.069
259.88	4.816
260.25	6.667
260.62	10.959
260.99	12.295
261.36	9.651
261.73	5.836
262.10	8.791
262.47	8.043
262.85	11.111
263.22	6.234
263.59	4.737
263.96	8.951
264.33	6.650
264.70	8.889
265.07	8.592
265.44	10.884
265.81	7.639
266.18	9.977
266.55	6.473
266.92	6.606
267.29	9.190
267.66	7.761
268.03	9.389
268.40	7.933
268.77	7.973
269.14	5.507
269.51	8.333
269.88	8.402
270.25	7.847
270.62	9.283
270.99	8.687
271.36	7.921
271.73	8.251
272.10	7.615
272.47	7.014
272.84	8.434
273.21	8.216
273.58	7.661
273.95	5.577
274.32	5.133
274.69	5.609
275.06	6.960
275.43	6.839
275.80	8.642
276.17	7.037
276.54	8.022
276.91	8.229
277.28	5.787
277.65	7.720
278.02	7.537
278.39	6.884
278.76	4.042
279.13	6.738
279.50	7.388
279.87	7.156
280.23	3.345
280.60	6.610
280.97	8.059
281.34	4.244
281.71	7.614
282.08	6.478
282.45	5.728
282.82	6.279
283.19	6.785
283.56	5.410
283.92	7.508
284.29	8.373
284.66	8.539
285.03	4.808
285.40	7.110
285.77	6.347
286.14	7.176
286.51	6.240
286.87	5.845
287.24	6.175
287.61	5.082
287.98	5.287
288.35	6.953
288.72	6.509
289.08	6.735
289.45	6.065
289.82	6.175
290.19	3.448
290.56	6.338
290.93	5.563
291.29	6.198
291.66	5.372
292.03	4.885
292.40	8.707
292.77	5.121
293.13	5.819
293.50	5.913
293.87	6.174
294.24	7.467
294.60	6.574
294.97	2.819
295.34	6.402
295.71	4.161
296.08	5.685
296.44	4.779
296.81	5.359
297.18	4.732
297.55	5.071
297.91	5.457
298.28	4.621
298.65	5.351
299.02	5.785
299.38	5.721
299.75	5.374
300.12	4.630
300.48	4.724
300.85	5.512
301.22	5.257
301.59	5.822
301.95	5.763
302.32	5.556
302.69	4.710
303.05	5.876
303.42	5.322
303.79	5.938
304.15	4.627
304.52	3.594
304.89	6.283
305.25	5.383
305.62	4.598
305.99	4.536
306.35	4.839
306.72	5.688
307.09	5.685
307.45	4.244
307.82	5.348
308.19	4.440
308.55	5.979
308.92	4.869
309.29	5.939
309.65	5.068
310.02	6.040
310.38	5.118
310.75	4.951
311.12	5.465
311.48	3.812
311.85	5.413
312.22	4.934
312.58	6.009
312.95	4.780
313.31	5.420
313.68	6.319
314.05	6.504
314.41	7.832
314.78	6.903
315.14	7.532
315.51	5.725
315.87	7.561
316.24	7.032
316.61	7.638
316.97	7.511
317.34	6.349
317.70	7.773
318.07	8.642
318.43	8.418
318.80	8.696
319.16	7.725
319.53	7.712
319.89	7.362
320.26	8.986
320.62	8.511
320.99	8.864
321.35	8.318
321.72	9.953
322.08	8.566
322.45	9.485
322.81	11.101
323.18	9.823
323.54	11.121
323.91	10.409
324.27	11.102
324.64	11.671
325.00	11.360
325.37	12.285
325.73	11.818
326.10	13.544
326.46	13.599
326.83	13.291
327.19	13.307
327.56	14.466
327.92	13.533
328.29	14.032
328.65	15.159
329.01	14.721
329.38	16.175
329.74	16.781
330.11	16.610
330.47	15.670
330.84	17.743
331.20	17.500
331.56	17.158
331.93	16.736
332.29	17.373
332.66	17.442
333.02	16.583
333.38	17.953
333.75	16.919
334.11	19.266
334.48	19.059
334.84	19.456
335.20	18.304
335.57	19.983
335.93	18.678
336.29	17.720
336.66	19.092
337.02	19.816
337.38	20.068
337.75	19.008
338.11	19.596
338.47	18.280
338.84	18.274
339.20	17.944
339.56	19.522
339.93	18.801
340.29	19.485
340.65	18.897
341.02	19.234
341.38	20.129
341.74	18.644
342.11	19.549
342.47	18.666
342.83	20.209
343.20	20.114
343.56	19.888
343.92	19.856
344.28	19.766
344.65	21.085
345.01	19.813
345.37	20.918
345.73	19.096
346.10	19.579
346.46	21.282
346.82	19.850
347.19	20.626
347.55	20.713
347.91	19.911
348.27	20.637
348.63	19.497
349.00	20.209
349.36	20.149
349.72	19.568
350.08	20.877
350.45	19.544
350.81	19.834
351.17	20.000
351.53	20.394
351.89	20.197
352.26	20.000
352.62	19.627
352.98	20.076
353.34	19.791
353.70	20.801
354.07	19.747
354.43	21.336
354.79	19.895
355.15	20.824
355.51	21.199
355.87	20.868
356.24	20.837
356.60	20.769
356.96	19.718
357.32	20.223
357.68	21.157
358.04	20.509
358.40	21.119
358.77	21.345
359.13	21.049
359.49	20.595
359.85	20.885
360.21	21.879
360.57	21.536
360.93	21.016
361.29	21.754
361.66	22.013
362.02	22.408
362.38	23.120
362.74	21.508
363.10	21.871
363.46	21.745
363.82	21.946
364.18	22.449
364.54	22.337
364.90	23.077
365.26	22.345
365.62	22.400
365.98	22.192
366.35	21.611
366.71	22.789
367.07	22.936
367.43	22.981
367.79	23.225
368.15	23.278
368.51	23.884
368.87	24.167
369.23	24.133
369.59	23.224
369.95	23.259
370.31	23.970
370.67	23.590
371.03	24.515
371.39	22.834
371.75	24.897
372.11	23.780
372.47	24.171
372.83	24.215
373.19	24.750
373.55	25.203
373.91	23.517
374.27	25.032
374.63	25.710
374.99	24.469
375.35	25.519
375.71	25.935
376.07	24.597
376.42	25.378
376.78	25.979
377.14	25.265
377.50	25.933
377.86	25.924
378.22	26.886
378.58	26.635
378.94	26.878
379.30	25.952
379.66	26.631
380.02	27.121
380.38	27.707
380.74	27.606
381.09	27.875
381.45	26.932
381.81	28.162
382.17	27.969
382.53	27.719
382.89	27.709
383.25	28.370
383.61	28.356
383.97	29.034
384.32	29.665
384.68	28.364
385.04	29.381
385.40	28.933
385.76	29.132
386.12	29.324
386.48	30.294
386.83	30.393
387.19	28.737
387.55	29.636
387.91	29.452
388.27	30.081
388.62	30.241
388.98	30.118
389.34	30.760
389.70	31.145
390.06	30.432
390.42	30.723
390.77	30.885
391.13	31.631
391.49	31.824
391.85	30.788
392.20	30.724
392.56	31.128
392.92	31.461
393.28	31.951
393.64	31.844
393.99	31.726
394.35	32.710
394.71	32.754
395.07	32.156
395.42	32.381
395.78	32.480
396.14	32.739
396.50	31.948
396.85	32.737
397.21	32.959
397.57	33.274
397.92	32.532
398.28	30.907
398.64	32.609
399.00	31.780
399.35	32.042
399.71	32.554
400.07	32.285
400.42	33.295
400.78	32.465
401.14	32.385
401.49	32.860
401.85	33.605
402.21	33.604
402.57	33.275
402.92	31.915
403.28	33.431
403.63	33.353
403.99	32.482
404.35	32.405
404.70	33.654
405.06	32.554
405.42	33.197
405.77	34.079
406.13	33.441
406.49	33.559
406.84	32.632
407.20	33.147
407.55	33.071
407.91	32.747
408.27	32.332
408.62	33.392
408.98	33.720
409.34	32.786
409.69	33.560
410.05	33.411
410.40	33.295
410.76	32.754
411.11	32.788
411.47	34.459
411.83	33.745
412.18	34.458
412.54	33.847
412.89	34.051
413.25	33.916
413.60	34.003
413.96	33.683
414.31	33.541
414.67	33.691
415.03	33.108
415.38	34.426
415.74	34.026
416.09	33.498
416.45	34.252
416.80	33.231
417.16	34.163
417.51	33.126
417.87	34.090
418.22	34.311
418.58	33.271
418.93	34.109
419.29	35.450
419.64	34.634
420.00	34.125
420.35	34.194
420.71	34.348
421.06	34.848
421.42	35.264
421.77	34.033
422.12	34.355
422.48	33.897
422.83	34.556
423.19	34.801
423.54	35.675
423.90	34.456
424.25	34.560
424.61	35.362
424.96	35.036
425.31	35.350
425.67	35.910
426.02	34.864
426.38	34.615
426.73	35.324
427.09	36.044
427.44	34.080
427.79	35.158
428.15	35.217
428.50	35.337
428.85	34.845
429.21	35.745
429.56	35.884
429.92	35.037
430.27	36.337
430.62	36.150
430.98	35.908
431.33	34.897
431.68	35.057
432.04	35.348
432.39	35.404
432.74	36.130
433.10	35.587
433.45	34.560
433.80	36.695
434.16	36.415
434.51	37.205
434.86	37.622
435.22	36.929
435.57	36.026
435.92	37.006
436.28	36.746
436.63	36.483
436.98	36.447
437.34	36.077
437.69	36.874
438.04	36.859
438.39	37.048
438.75	36.469
439.10	38.161
439.45	36.724
439.81	35.819
440.16	36.890
440.51	37.458
440.86	37.076
441.22	36.549
441.57	38.260
441.92	36.857
442.27	37.525
442.63	37.407
442.98	38.260
443.33	37.454
443.68	37.909
444.03	38.476
444.39	37.910
444.74	37.825
445.09	37.608
445.44	38.988
445.79	38.123
446.15	38.798
446.50	38.450
446.85	37.938
447.20	37.379
447.55	38.703
447.91	38.534
448.26	38.372
448.61	38.682
448.96	39.592
449.31	39.130
449.66	37.745
450.02	39.293
450.37	39.691
450.72	38.375
451.07	38.724
451.42	38.879
451.77	38.744
452.12	38.600
452.47	38.087
452.83	39.471
453.18	39.171
453.53	39.058
453.88	38.763
454.23	38.644
454.58	39.698
454.93	39.442
455.28	38.772
455.63	39.511
455.98	39.218
456.34	39.223
456.69	38.977
457.04	40.130
457.39	39.135
457.74	39.206
458.09	38.935
458.44	39.709
458.79	38.989
459.14	39.276
459.49	39.162
459.84	39.402
460.19	38.812
460.54	39.637
460.89	41.080
461.24	39.828
461.59	39.070
461.94	39.076
462.29	40.202
462.64	39.046
462.99	40.427
463.34	40.688
463.69	39.215
464.04	39.300
464.39	39.798
464.74	38.597
465.09	38.639
465.44	40.021
465.79	39.609
466.14	39.396
466.49	38.895
466.84	40.000
467.19	40.347
467.54	39.189
467.89	38.448
468.24	39.058
468.59	38.043
468.94	38.520
469.29	38.632
469.64	39.224
469.99	37.986
470.34	39.604
470.68	39.713
471.03	39.817
471.38	39.699
471.73	39.207
472.08	40.419
472.43	39.735
472.78	39.358
473.13	39.317
473.48	39.517
473.83	39.002
474.17	38.453
474.52	39.808
474.87	39.147
475.22	40.451
475.57	38.110
475.92	38.278
476.27	38.392
476.61	39.045
476.96	38.425
477.31	39.554
477.66	39.087
478.01	38.688
478.36	38.933
478.70	39.015
479.05	40.849
479.40	38.993
479.75	39.385
480.10	39.270
480.45	39.380
480.79	37.959
481.14	39.017
481.49	38.255
481.84	39.382
482.19	39.355
482.53	39.790
482.88	40.585
483.23	38.862
483.58	39.214
483.92	38.652
484.27	39.246
484.62	38.573
484.97	38.725
485.31	38.261
485.66	37.483
486.01	36.473
486.36	37.854
486.70	39.306
487.05	39.778
487.40	39.749
487.75	39.491
488.09	39.448
488.44	38.903
488.79	39.966
489.13	38.921
489.48	38.447
489.83	39.034
490.17	38.720
490.52	37.438
490.87	38.832
491.22	38.865
491.56	39.078
491.91	39.075
492.26	38.641
492.60	38.041
492.95	38.964
493.30	39.220
493.64	38.327
493.99	38.772
494.34	38.110
494.68	38.244
495.03	38.899
495.37	39.015
495.72	38.639
496.07	39.483
496.41	38.181
496.76	38.907
497.11	38.471
497.45	38.196
497.80	38.738
498.14	38.821
498.49	39.108
498.84	39.122
499.18	38.911
499.53	38.879
499.87	38.462
500.22	37.890
500.56	39.226
500.91	39.085
501.26	39.000
501.60	38.091
501.95	38.602
502.29	39.754
502.64	40.096
502.98	38.697
503.33	39.006
503.67	39.250
504.02	37.566
504.36	39.231
504.71	38.631
505.06	38.336
505.40	37.843
505.75	38.434
506.09	38.122
506.44	38.719
506.78	39.266
507.13	37.805
507.47	38.797
507.82	37.784
508.16	39.006
508.51	38.209
508.85	39.443
509.19	39.176
509.54	39.145
509.88	38.077
510.23	38.805
510.57	39.681
510.92	39.090
511.26	39.202
511.61	37.711
511.95	38.751
512.30	39.980
512.64	38.231
512.98	39.170
513.33	38.962
513.67	38.960
514.02	40.010
514.36	38.926
514.70	38.281
515.05	38.895
515.39	39.790
515.74	38.176
516.08	38.510
516.42	39.560
516.77	39.064
517.11	37.906
517.46	38.971
517.80	39.284
518.14	39.227
518.49	39.100
518.83	37.626
519.17	38.072
519.52	38.941
519.86	38.807
520.20	39.191
520.55	38.719
520.89	39.358
521.23	38.079
521.58	39.096
521.92	38.584
522.26	38.087
522.61	39.873
522.95	38.408
523.29	37.931
523.64	38.061
523.98	39.361
524.32	39.427
524.66	39.271
525.01	39.298
525.35	38.369
525.69	38.515
526.04	37.428
526.38	38.908
526.72	37.889
527.06	38.358
527.41	39.067
527.75	40.202
528.09	37.839
528.43	38.544
528.78	37.977
529.12	38.475
529.46	38.786
529.80	38.787
530.15	38.261
530.49	38.493
530.83	38.076
531.17	38.590
531.51	38.628
531.86	39.483
532.20	39.024
532.54	37.702
532.88	38.061
533.22	38.598
533.57	37.738
533.91	38.721
534.25	38.666
534.59	38.333
534.93	38.370
535.27	38.535
535.62	39.682
535.96	39.279
536.30	38.484
536.64	39.520
536.98	38.438
537.32	38.148
537.66	39.488
538.01	37.160
538.35	38.002
538.69	37.981
539.03	38.627
539.37	37.986
539.71	38.378
540.05	38.729
540.39	37.531
540.73	38.009
541.07	38.136
541.42	37.389
541.76	37.248
542.10	36.550
542.44	37.698
542.78	38.929
543.12	38.677
543.46	37.729
543.80	37.350
544.14	38.480
544.48	38.652
544.82	37.941
545.16	38.402
545.50	37.747
545.84	37.906
546.18	38.580
546.52	38.089
546.86	37.296
547.20	38.868
547.54	37.391
547.88	38.517
548.22	37.895
548.56	38.444
548.90	38.149
549.24	38.298
549.58	38.423
549.92	38.074
550.26	38.058
550.60	37.588
550.94	38.486
551.28	38.218
551.62	38.544
551.96	37.540
552.30	38.623
552.64	37.772
552.98	38.865
553.32	38.199
553.66	38.135
554.00	38.462
554.34	39.833
554.68	38.089
555.02	39.028
555.36	39.185
555.69	37.540
556.03	38.777
556.37	38.924
556.71	37.920
557.05	38.786
557.39	39.018
557.73	37.450
558.07	37.616
558.41	39.269
558.75	38.404
559.08	38.553
559.42	37.586
559.76	39.349
560.10	37.776
560.44	37.533
560.78	38.375
561.12	38.362
561.45	38.808
561.79	38.156
562.13	37.646
562.47	38.348
562.81	38.101
563.15	38.131
563.48	38.222
563.82	37.364
564.16	38.462
564.50	37.664
564.84	39.056
565.17	38.000
565.51	38.032
565.85	37.767
566.19	37.212
566.52	39.321
566.86	39.049
567.20	37.738
567.54	37.387
567.88	37.819
568.21	37.796
568.55	37.746
568.89	37.812
569.23	37.305
569.56	37.397
569.90	38.168
570.24	37.572
570.57	36.626
570.91	37.508
571.25	36.535
571.59	37.239
571.92	37.180
572.26	37.242
572.60	37.210
572.93	37.406
573.27	37.426
573.61	37.083
573.95	36.975
574.28	36.907
574.62	37.131
574.96	35.929
575.29	36.484
575.63	36.775
575.97	37.389
576.30	36.467
576.64	37.008
576.98	36.538
577.31	37.100
577.65	37.103
577.98	36.653
578.32	36.477
578.66	36.393
578.99	37.518
579.33	37.439
579.67	37.171
580.00	36.750
580.34	37.020
580.67	36.628
581.01	36.629
581.35	35.944
581.68	36.025
582.02	36.694
582.35	37.011
582.69	37.119
583.02	37.526
583.36	37.236
583.70	37.764
584.03	37.437
584.37	37.423
584.70	37.115
585.04	36.852
585.37	36.522
585.71	36.742
586.04	37.296
586.38	37.303
586.72	36.525
587.05	37.657
587.39	36.899
587.72	37.249
588.06	37.452
588.39	37.043
588.73	37.169
589.06	37.274
589.40	38.230
589.73	37.629
590.07	38.064
590.40	37.728
590.73	36.974
591.07	37.789
591.40	37.792
591.74	38.315
592.07	38.043
592.41	37.027
592.74	37.238
593.08	36.497
593.41	37.241
593.75	37.040
594.08	37.807
594.41	38.237
594.75	37.263
595.08	38.156
595.42	37.662
595.75	37.326
596.09	38.495
596.42	37.836
596.75	38.672
597.09	38.101
597.42	37.386
597.75	37.828
598.09	37.063
598.42	37.595
598.76	37.027
599.09	37.095
599.42	36.641
599.76	36.745
600.09	37.171
600.42	37.671
600.76	36.988
601.09	37.770
601.42	37.693
601.76	37.414
602.09	37.277
602.42	37.259
602.76	37.232
603.09	38.142
603.42	37.355
603.76	36.927
604.09	38.219
604.42	37.211
604.76	37.709
605.09	37.495
605.42	37.321
605.75	37.885
606.09	38.037
606.42	36.811
606.75	37.256
607.09	36.790
607.42	38.189
607.75	37.671
608.08	37.135
608.42	37.404
608.75	37.977
609.08	36.248
609.41	37.803
609.75	36.964
610.08	37.995
610.41	36.746
610.74	37.059
611.07	38.099
611.41	38.027
611.74	37.367
612.07	38.149
612.40	37.595
612.73	37.848
613.07	38.289
613.40	37.199
613.73	37.554
614.06	37.978
614.39	37.949
614.72	37.215
615.06	37.440
615.39	36.443
615.72	37.536
616.05	36.863
616.38	38.396
616.71	38.506
617.05	37.753
617.38	37.828
617.71	38.337
618.04	37.399
618.37	38.962
618.70	39.140
619.03	37.814
619.36	37.793
619.69	36.707
620.03	38.418
620.36	37.117
620.69	37.261
621.02	37.927
621.35	39.042
621.68	38.756
622.01	37.936
622.34	36.890
622.67	38.625
623.00	36.910
623.33	38.421
623.66	38.651
623.99	37.656
624.32	37.947
624.65	37.967
624.99	39.077
625.32	38.733
625.65	38.233
625.98	37.220
626.31	37.775
626.64	39.267
626.97	38.035
627.30	37.434
627.63	37.134
627.96	37.988
628.29	38.288
628.62	37.615
628.95	38.913
629.28	37.723
629.61	39.646
629.94	36.904
630.26	39.661
630.59	38.515
630.92	38.095
631.25	38.730
631.58	39.077
631.91	38.613
632.24	39.577
632.57	38.425
632.90	38.415
633.23	39.388
633.56	39.694
633.89	36.983
634.22	41.684
634.55	38.205
634.88	39.394
635.20	40.151
635.53	40.113
635.86	39.978
636.19	38.812
636.52	40.084
636.85	37.181
637.18	36.590
637.51	38.710
637.83	38.870
638.16	38.710
638.49	39.202
638.82	38.331
639.15	38.946
639.48	39.607
639.81	38.222
640.13	39.812
640.46	38.788
640.79	38.480
641.12	39.379
641.45	38.143
641.77	40.693
642.10	40.945
642.43	41.090
642.76	39.837
643.09	39.589
643.41	41.597
643.74	38.483
644.07	40.414
644.40	39.321
644.73	39.768
645.05	40.088
645.38	39.856
645.71	39.589
646.04	41.033
646.36	36.934
646.69	39.110
647.02	41.590
647.35	39.695
647.67	40.419
648.00	38.854
648.33	40.390
648.66	37.518
648.98	37.279
649.31	39.648
649.64	40.239
649.96	39.523
650.29	37.274
650.62	39.887
650.94	40.691
651.27	39.072
651.60	38.012
651.92	37.538
652.25	41.245
652.58	37.414
652.90	38.081
653.23	39.718
653.56	36.805
653.88	39.607
654.21	37.887
654.54	38.006
654.86	39.235
655.19	36.261
655.52	35.595
655.84	32.599
656.17	39.639
656.49	56.744
656.82	63.748
657.15	50.535
657.47	38.614
657.80	29.059
658.13	22.822
658.45	30.425
658.78	37.097
659.10	36.792
659.43	35.907
659.75	35.955
660.08	35.406
660.41	36.394
660.73	38.084
661.06	37.592
661.38	37.959
661.71	40.345
662.03	37.390
662.36	39.177
662.68	41.088
663.01	35.575
663.33	38.185
663.66	38.462
663.98	39.423
664.31	42.777
664.63	38.921
664.96	39.564
665.28	35.027
665.61	40.210
665.93	39.643
666.26	38.710
666.58	40.406
666.91	40.561
667.23	40.571
667.56	42.209
667.88	42.000
668.21	36.914
668.53	37.452
668.86	38.703
669.18	40.530
669.50	39.563
669.83	40.800
670.15	39.173
670.48	41.667
670.80	37.667
671.13	41.966
671.45	39.173
671.77	41.431
672.10	38.333
672.42	37.702
672.75	37.788
673.07	35.821
673.39	35.285
673.72	39.597
674.04	40.000
674.37	36.852
674.69	38.448
675.01	40.952
675.34	37.023
675.66	36.891
675.98	38.433
676.31	37.500
676.63	40.304
676.95	41.379
677.28	39.718
677.60	35.827
677.92	41.267
678.25	40.402
678.57	38.434
678.89	38.567
679.22	35.192
679.54	37.949
679.86	36.610
680.18	36.650
680.51	38.050
680.83	36.661
681.15	36.379
681.48	38.342
681.80	38.169
682.12	36.364
682.44	37.062
682.77	35.284
683.09	37.121
683.41	37.791
683.73	36.243
684.06	39.852
684.38	35.242
684.70	39.318
685.02	39.931
685.34	34.609
685.67	35.962
685.99	36.963
686.31	33.576
686.63	35.229
686.96	35.962
687.28	35.016
687.60	34.007
687.92	34.887
688.24	37.229
688.56	34.655
688.89	36.298
689.21	38.160
689.53	37.255
689.85	36.489
690.17	35.370
690.49	38.446
690.82	35.050
691.14	38.259
691.46	37.476
691.78	37.385
692.10	34.679
692.42	35.357
692.74	34.664
693.06	34.815
693.39	37.192
693.71	35.338
694.03	36.059
694.35	36.000
694.67	36.550
694.99	35.319
695.31	37.307
695.63	39.394
695.95	35.611
696.27	35.824
696.59	39.159
696.91	38.063
697.23	38.022
697.56	36.660
697.88	35.985
698.20	36.347
698.52	38.826
698.84	38.669
699.16	39.592
699.48	36.611
699.80	39.362
700.12	38.428
700.44	34.101
700.76	33.492
701.08	36.320
701.40	37.565
701.72	37.065
702.04	38.503
702.36	35.864
702.68	37.408
703.00	35.208
703.32	35.222
703.64	38.142
703.96	36.993
704.28	34.644
704.60	35.949
704.91	39.286
705.23	40.000
705.55	39.554
705.87	41.515
706.19	38.957
706.51	37.349
706.83	34.582
707.15	36.772
707.47	35.981
707.79	35.808
708.11	33.475
708.43	35.054
708.74	35.268
709.06	33.179
709.38	39.671
709.70	35.980
710.02	36.951
710.34	39.096
710.66	37.430
710.98	33.060
711.29	34.890
711.61	36.441
711.93	41.595
712.25	36.757
712.57	40.118
712.89	36.471
713.20	34.024
713.52	37.572
713.84	36.490
714.16	37.895
714.48	35.825
714.80	33.766
715.11	34.121
715.43	34.483
715.75	33.684
716.07	33.425
716.39	39.617
716.70	35.843
717.02	43.279
717.34	40.767
717.66	40.268
717.97	33.904
718.29	36.082
718.61	36.842
718.93	35.922
719.24	36.646
719.56	35.276
719.88	36.036
720.20	31.935
720.51	34.472
720.83	35.313
721.15	37.171
721.46	36.301
721.78	39.667
722.10	35.922
722.42	34.899
722.73	36.452
723.05	37.193
723.37	34.028
723.68	38.710
724.00	38.628
724.32	36.972
724.63	35.664
724.95	35.106
725.27	34.146
725.58	37.102
725.90	38.621
726.22	35.737
726.53	39.286
726.85	35.535
727.16	32.628
727.48	33.945
727.80	35.762
728.11	34.629
728.43	35.017
728.74	33.445
729.06	31.788
729.38	35.390
729.69	36.913
730.01	34.524
730.32	32.424
730.64	37.421
730.96	31.056
731.27	39.665
731.59	35.440
731.90	32.468
732.22	32.812
732.53	31.768
732.85	33.429
733.16	31.672
733.48	34.451
733.80	28.691
734.11	33.333
734.43	35.676
734.74	36.203
735.06	32.915
735.37	33.784
735.69	36.216
736.00	34.746
736.32	35.040
736.63	32.500
736.95	34.195
737.26	34.242
737.58	34.545
737.89	35.294
738.21	33.945
738.52	32.787
738.83	34.812
739.15	34.397
739.46	34.694
739.78	33.742
740.09	32.951
740.41	36.735
740.72	33.000
741.04	38.511
741.35	36.140
741.66	33.725
741.98	33.607
742.29	37.657
742.61	39.912
742.92	32.308
743.23	35.018
743.55	36.434
743.86	34.400
744.18	38.843
744.49	38.397
744.80	35.391
745.12	37.131
745.43	33.333
745.74	31.897
746.06	37.288
746.37	42.616
746.68	41.870
747.00	34.583
747.31	34.764
747.62	34.231
747.94	32.794
748.25	35.743
748.56	35.918
748.88	32.479
749.19	35.345
749.50	35.498
749.82	35.743
750.13	34.520
750.44	31.000
750.75	31.077
751.07	33.231
751.38	32.808
751.69	32.268
752.01	32.362
752.32	33.660
752.63	38.095
752.94	29.758
753.26	31.227
753.57	31.111
753.88	25.843
754.19	32.797
754.51	36.013
754.82	34.084
755.13	36.066
755.44	32.082
755.75	32.237
756.07	36.119
756.38	35.535
756.69	32.530
757.00	27.424
757.31	30.874
757.63	30.946
757.94	30.282
758.25	32.957
758.56	31.590
758.87	30.000
759.18	31.200
759.50	33.144
759.81	31.373
760.12	31.536
760.43	30.469
760.74	33.005
761.05	28.500
761.36	30.120
761.67	31.726
761.99	32.432
762.30	30.183
762.61	29.373
762.92	32.463
763.23	31.461
763.54	31.655
763.85	33.333
764.16	29.630
764.47	29.930
764.78	32.907
765.10	32.258
765.41	27.692
765.72	26.720
766.03	33.898
766.34	30.721
766.65	28.223
766.96	31.474
767.27	34.562
767.58	29.851
767.89	35.096
768.20	42.254
768.51	36.111
768.82	30.120
769.13	31.439
769.44	30.769
769.75	31.769
770.06	33.846
770.37	33.858
770.68	30.638
770.99	27.126
771.30	37.037
771.61	30.798
771.92	30.370
772.23	37.247
772.54	36.574
772.85	37.788
773.16	36.667
773.47	27.513
773.78	35.135
774.09	35.227
774.39	31.000
774.70	37.158
775.01	33.537
775.32	31.765
775.63	33.742
775.94	26.752
776.25	34.839
776.56	39.744
776.87	27.211
777.18	37.241
777.48	27.972
777.79	34.459
778.10	23.529
778.41	38.194
778.72	33.793
779.03	35.185
779.34	35.758
779.65	33.679
779.95	33.889
780.26	32.955
780.57	30.323
780.88	41.304
781.19	27.742
781.50	35.882
781.80	36.022
782.11	34.921
782.42	26.263
782.73	25.150
783.04	32.961
783.34	27.273
783.65	25.490
783.96	30.435
784.27	32.143
784.57	29.801
784.88	27.143
785.19	38.583
785.50	38.583
785.81	42.857
786.11	33.846
786.42	30.935
786.73	33.813
787.04	35.338
787.34	37.705
787.65	41.600
787.96	33.582
788.26	35.664
788.57	47.552
788.88	32.895
789.19	39.216
789.49	28.767
789.80	34.752
790.11	33.071
790.41	21.094
790.72	30.508
791.03	24.272
791.33	37.391
791.64	35.088
791.95	26.786
792.25	37.143
792.56	40.179
792.87	43.750
793.17	35.714
793.48	42.708
793.79	37.349
794.09	32.110
794.40	35.780
794.70	31.973
795.01	29.221
795.32	32.192
795.62	30.986
795.93	34.091
796.23	37.705
796.54	26.786
796.85	39.362
797.15	32.609
797.46	54.795
797.76	37.500
798.07	30.435
798.37	18.557
798.68	41.558
798.99	27.586
799.29	34.831
799.60	41.489
799.90	44.578
800.21	30.769
800.51	37.313
800.82	35.294
801.12	20.548
801.43	29.412
801.73	42.373
802.04	39.394
802.34	56.667
802.65	59.322
802.95	43.284
803.26	50.847
803.56	43.836
803.87	45.714
804.17	52.055
804.48	36.842
804.78	30.556
805.09	25.862
805.39	37.838
805.70	28.169
806.00	34.146
806.30	34.940
806.61	45.205
806.91	36.538
807.22	28.889
807.52	27.586
807.83	38.889
808.13	33.735
808.43	39.326
808.74	33.750
809.04	32.353
809.35	40.000
809.65	35.714
809.95	46.575
810.26	17.544
810.56	37.931
810.86	47.059
811.17	50.877
811.47	36.066
811.77	44.444
812.08	40.678
812.38	48.333
812.69	67.241
812.99	32.075
813.29	23.077
813.59	58.000
813.90	35.088
814.20	36.364
814.50	43.662
814.81	30.769
815.11	40.984
815.41	40.299
815.72	62.069
816.02	41.071
816.32	64.444
816.62	70.455
816.93	53.333
817.23	44.444
817.53	48.936
817.84	57.143
818.14	50.000
818.44	51.020
818.74	53.333
819.04	17.949
819.35	60.000
819.65	50.000
819.95	41.509
820.25	48.889
820.56	28.571
820.86	53.125
821.16	33.333
821.46	51.163
821.76	32.000
822.07	35.714
822.37	41.304
822.67	44.681
822.97	21.622
823.27	50.000
823.57	57.143
823.88	64.444
824.18	45.000
824.48	83.333
824.78	64.000
825.08	39.394
825.38	57.778
825.69	42.553
825.99	38.889
826.29	48.571
826.59	48.718
826.89	27.907
827.19	40.000
827.49	61.765
827.79	43.750
828.09	37.838
828.39	30.000
828.70	36.585
829.00	30.233
829.30	17.857
829.60	73.529
829.90	47.826
830.20	28.571
830.50	31.034
830.80	94.444
831.10	69.231
831.40	29.412
831.70	47.619
832.00	64.516
832.30	17.647
832.60	41.667
832.90	107.692
833.20	5.263
833.50	55.000
833.80	94.737
834.10	38.095
834.40	44.444
834.70	84.375
835.00	31.429
835.30	50.000
835.60	60.000
835.90	60.000
836.20	9.091
836.50	64.000
836.80	33.333
837.10	81.481
837.40	18.519
837.70	75.000
838.00	78.571
838.30	78.261
838.60	34.483
838.90	100.000
839.19	21.739
839.49	41.667
839.79	34.783
840.09	62.500
840.39	65.000
840.69	61.290
840.99	35.714
841.29	73.333
841.59	47.368
841.88	48.718
842.18	88.462
842.48	200.000
842.78	75.000
843.08	63.333
843.38	64.516
843.68	44.444
843.97	50.000
844.27	75.000
844.57	73.684
844.87	110.000
845.17	120.000
845.47	152.381
845.76	42.857
846.06	11.111
846.36	35.294
846.66	34.615
846.96	140.000
847.25	88.235
847.55	73.913
847.85	100.000
848.15	76.471
848.44	145.455
848.74	152.381
849.04	116.667
849.34	12.500
849.63	69.565
849.93	-150.000
850.23	140.000
850.53	111.538
850.82	163.636
851.12	100.000
851.42	118.182
851.71	115.385
852.01	50.000
852.31	200.000
852.61	57.895
852.90	100.000
853.20	88.889
853.50	44.444
853.79	38.095
854.09	63.636
854.39	25.000
854.68	32.258
854.98	57.692
855.28	88.889
855.57	57.143
855.87	72.000
856.17	95.455
856.46	59.259
856.76	61.111
857.05	73.913
857.35	37.500
857.65	-23.077
857.94	71.429
858.24	62.963
858.53	100.000
858.83	88.235
859.13	70.588
859.42	82.353
859.72	50.000
860.01	90.000
860.31	66.667
860.60	180.000
860.90	146.667
861.20	88.889
861.49	92.308
861.79	60.000
862.08	123.077
862.38	50.000
862.67	100.000
862.97	93.750
863.26	22.222
863.56	90.000
863.85	36.364
864.15	72.222
864.44	366.667
864.74	85.714
865.03	112.500
865.33	90.000
865.62	70.968
865.92	68.182
866.21	86.957
866.51	150.000
866.80	80.000
867.10	100.000
867.39	83.333
867.69	300.000
867.98	57.143
868.27	100.000
868.57	200.000
868.86	130.000
869.16	47.619
869.45	66.667
869.75	163.636
870.04	185.714
870.33	116.667
870.63	114.286
870.92	250.000
871.22	-100.000
871.51	-9.091
871.80	333.333
872.10	300.000
>>>>>End Processed Spectral Data<<<<<
