SpectraSuite Data File
++++++++++++++++++++++++++++++++++++
Date: Thu May 14 14:53:31 PDT 2015
User: schluterlab
Dark Spectrum Present: Yes
Reference Spectrum Present: Yes
Number of Sampled Component Spectra: 1
Spectrometers: USB2E3373
Integration Time (usec): 3000 (USB2E3373)
Spectra Averaged: 3 (USB2E3373)
Boxcar Smoothing: 0 (USB2E3373)
Correct for Electrical Dark: No (USB2E3373)
Strobe/Lamp Enabled: No (USB2E3373)
Correct for Detector Non-linearity: No (USB2E3373)
Correct for Stray Light: No (USB2E3373)
Number of Pixels in Processed Spectrum: 2048
>>>>>Begin Processed Spectral Data<<<<<
178.53	0.000
178.91	200.000
179.29	-2500.000
179.67	-900.000
180.04	200.000
180.42	140.000
180.80	400.000
181.18	-1100.000
181.56	100.000
181.94	150.000
182.31	-400.000
182.69	333.333
183.07	-350.000
183.45	500.000
183.83	-300.000
184.20	-366.667
184.58	1500.000
184.96	-250.000
185.34	-133.333
185.72	-20.000
186.09	277.778
186.47	850.000
186.85	380.000
187.23	-188.889
187.61	-2000.000
187.98	280.000
188.36	600.000
188.74	-250.000
189.12	-366.667
189.49	-6.250
189.87	-150.000
190.25	-77.778
190.63	-240.000
191.00	-222.222
191.38	0.000
191.76	-700.000
192.14	-316.667
192.51	1000.000
192.89	33.333
193.27	0.000
193.65	-128.571
194.02	-1900.000
194.40	-228.571
194.78	200.000
195.15	0.000
195.53	-63.636
195.91	0.000
196.29	-75.000
196.66	-46.154
197.04	-1300.000
197.42	-285.714
197.79	-850.000
198.17	-50.000
198.55	-171.429
198.92	-111.111
199.30	-237.500
199.68	-45.455
200.05	-7.143
200.43	-500.000
200.81	200.000
201.18	0.000
201.56	255.556
201.94	0.000
202.31	533.333
202.69	-144.444
203.07	900.000
203.44	-88.889
203.82	-675.000
204.19	-133.333
204.57	-216.667
204.95	-175.000
205.32	-1700.000
205.70	300.000
206.08	-166.667
206.45	-66.667
206.83	280.000
207.20	-150.000
207.58	-440.000
207.96	-233.333
208.33	-116.667
208.71	116.667
209.08	-133.333
209.46	0.000
209.84	200.000
210.21	500.000
210.59	900.000
210.96	766.667
211.34	-350.000
211.71	-187.500
212.09	-1600.000
212.46	0.000
212.84	1100.000
213.22	-260.000
213.59	-225.000
213.97	-40.000
214.34	-333.333
214.72	216.667
215.09	-225.000
215.47	0.000
215.84	228.571
216.22	500.000
216.59	-220.000
216.97	-120.000
217.34	-300.000
217.72	-150.000
218.09	-400.000
218.47	-300.000
218.84	0.000
219.22	280.000
219.59	-82.353
219.97	-20.000
220.34	850.000
220.72	-33.333
221.09	-38.462
221.47	-466.667
221.84	-60.000
222.22	-214.286
222.59	0.000
222.97	62.500
223.34	-360.000
223.72	-1000.000
224.09	-225.000
224.46	-475.000
224.84	-220.000
225.21	-214.286
225.59	-475.000
225.96	-500.000
226.34	-65.385
226.71	333.333
227.08	-700.000
227.46	-53.333
227.83	-175.000
228.21	0.000
228.58	212.500
228.95	1350.000
229.33	-50.000
229.70	-110.000
230.08	-5.263
230.45	110.000
230.82	-300.000
231.20	-42.857
231.57	-66.667
231.95	-154.545
232.32	-181.818
232.69	-25.000
233.07	-300.000
233.44	-70.588
233.81	-110.000
234.19	-22.222
234.56	-50.000
234.93	-34.483
235.31	-10.526
235.68	-61.111
236.05	-135.000
236.43	-26.923
236.80	20.000
237.17	-7.407
237.55	-48.485
237.92	-110.000
238.29	-25.806
238.67	-11.364
239.04	-33.333
239.41	-4.762
239.79	-36.957
240.16	0.000
240.53	-41.304
240.91	-37.255
241.28	-14.754
241.65	2.985
242.02	-5.405
242.40	-13.846
242.77	-2.667
243.14	-8.537
243.51	-19.737
243.89	-12.821
244.26	-1.980
244.63	-4.902
245.00	-7.477
245.38	-11.404
245.75	-11.504
246.12	-4.762
246.49	-8.527
246.87	-9.286
247.24	0.662
247.61	1.316
247.98	-8.054
248.36	-4.321
248.73	-12.270
249.10	-3.279
249.47	-2.488
249.84	-3.141
250.22	-7.254
250.59	-7.778
250.96	0.000
251.33	-5.612
251.70	0.855
252.08	-1.250
252.45	1.639
252.82	-7.025
253.19	-5.859
253.56	-2.281
253.94	-6.154
254.31	-1.136
254.68	0.699
255.05	-2.606
255.42	-1.701
255.79	-5.825
256.16	-2.980
256.54	-6.623
256.91	-0.328
257.28	-0.328
257.65	-2.229
258.02	-2.950
258.39	-0.570
258.76	5.810
259.14	-0.862
259.51	0.288
259.88	-1.983
260.25	-1.944
260.62	-0.548
260.99	0.820
261.36	0.000
261.73	-2.653
262.10	-3.571
262.47	-1.340
262.85	2.273
263.22	-2.078
263.59	-4.474
263.96	-0.512
264.33	-2.046
264.70	-1.481
265.07	1.193
265.44	2.268
265.81	-0.694
266.18	0.454
266.55	-1.563
266.92	-2.050
267.29	1.094
267.66	0.443
268.03	-0.655
268.40	0.835
268.77	-3.189
269.14	-3.304
269.51	-0.439
269.88	-0.205
270.25	1.207
270.62	0.000
270.99	2.222
271.36	2.178
271.73	0.786
272.10	1.603
272.47	1.002
272.84	-0.201
273.21	-0.401
273.58	0.403
273.95	1.154
274.32	-1.711
274.69	0.387
275.06	-1.099
275.43	-2.218
275.80	0.705
276.17	-2.222
276.54	-0.746
276.91	-1.610
277.28	-1.627
277.65	0.000
278.02	0.000
278.39	-0.906
278.76	-2.460
279.13	-1.241
279.50	1.546
279.87	0.179
280.23	-1.585
280.60	1.864
280.97	-0.329
281.34	-0.340
281.71	1.354
282.08	1.661
282.45	-0.655
282.82	1.727
283.19	-0.485
283.56	-1.311
283.92	1.051
284.29	2.054
284.66	1.642
285.03	-1.282
285.40	1.391
285.77	-0.464
286.14	1.069
286.51	1.522
286.87	-0.158
287.24	1.205
287.61	-0.598
287.98	-1.360
288.35	0.444
288.72	1.331
289.08	1.903
289.45	-0.888
289.82	0.151
290.19	0.144
290.56	1.408
290.93	-0.143
291.29	0.689
291.66	0.000
292.03	0.000
292.40	1.633
292.77	0.000
293.13	0.947
293.50	-0.263
293.87	0.805
294.24	1.333
294.60	1.264
294.97	-0.940
295.34	2.177
295.71	-0.252
296.08	0.000
296.44	0.735
296.81	2.436
297.18	1.868
297.55	0.825
297.91	0.949
298.28	0.237
298.65	1.070
299.02	-0.236
299.38	1.602
299.75	1.519
300.12	-0.116
300.48	1.382
300.85	1.687
301.22	1.342
301.59	1.256
301.95	1.017
302.32	2.444
302.69	1.314
303.05	1.850
303.42	2.439
303.79	1.042
304.15	1.472
304.52	1.691
304.89	1.047
305.25	2.484
305.62	1.254
305.99	3.299
306.35	1.109
306.72	1.758
307.09	0.812
307.45	2.692
307.82	1.009
308.19	1.514
308.55	2.893
308.92	2.921
309.29	2.586
309.65	2.534
310.02	1.584
310.38	3.248
310.75	2.913
311.12	4.027
311.48	2.444
311.85	2.659
312.22	2.751
312.58	3.192
312.95	2.868
313.31	3.071
313.68	4.029
314.05	5.330
314.41	4.827
314.78	4.269
315.14	4.719
315.51	5.448
315.87	5.401
316.24	5.936
316.61	5.062
316.97	5.882
317.34	5.467
317.70	7.598
318.07	6.702
318.43	8.078
318.80	8.946
319.16	8.326
319.53	7.198
319.89	8.151
320.26	9.431
320.62	8.777
320.99	9.880
321.35	9.797
321.72	10.326
322.08	10.189
322.45	9.937
322.81	11.823
323.18	10.619
323.54	12.759
323.91	12.900
324.27	12.565
324.64	14.274
325.00	12.687
325.37	14.169
325.73	14.959
326.10	15.247
326.46	16.531
326.83	15.853
327.19	16.378
327.56	17.945
327.92	17.703
328.29	17.581
328.65	16.750
329.01	18.782
329.38	19.461
329.74	18.750
330.11	19.777
330.47	18.955
330.84	20.155
331.20	19.750
331.56	19.497
331.93	20.251
332.29	21.780
332.66	19.518
333.02	20.519
333.38	20.973
333.75	20.370
334.11	20.183
334.48	20.462
334.84	21.240
335.20	20.655
335.57	21.079
335.93	20.909
336.29	20.383
336.66	20.690
337.02	22.074
337.38	22.109
337.75	20.248
338.11	21.531
338.47	20.678
338.84	21.151
339.20	21.146
339.56	20.181
339.93	21.429
340.29	21.256
340.65	21.087
341.02	21.628
341.38	20.695
341.74	21.872
342.11	21.480
342.47	21.048
342.83	21.176
343.20	21.423
343.56	20.609
343.92	20.737
344.28	20.625
344.65	21.395
345.01	20.437
345.37	20.529
345.73	20.421
346.10	21.217
346.46	20.965
346.82	20.899
347.19	21.620
347.55	20.789
347.91	20.208
348.27	20.865
348.63	21.554
349.00	20.209
349.36	20.297
349.72	21.354
350.08	20.208
350.45	20.228
350.81	20.136
351.17	21.203
351.53	21.456
351.89	20.729
352.26	21.119
352.62	20.448
352.98	20.840
353.34	19.866
353.70	20.031
354.07	21.013
354.43	20.425
354.79	21.017
355.15	21.266
355.51	21.126
355.87	19.820
356.24	21.445
356.60	19.586
356.96	20.608
357.32	20.669
357.68	19.766
358.04	20.808
358.40	20.373
358.77	20.614
359.13	20.901
359.49	19.926
359.85	19.579
360.21	20.803
360.57	21.034
360.93	20.451
361.29	20.702
361.66	21.072
362.02	21.921
362.38	20.942
362.74	20.670
363.10	21.389
363.46	21.122
363.82	20.952
364.18	21.182
364.54	21.093
364.90	20.602
365.26	21.103
365.62	21.533
365.98	21.375
366.35	21.074
366.71	21.361
367.07	21.786
367.43	20.749
367.79	21.168
368.15	21.405
368.51	21.448
368.87	21.750
369.23	21.133
369.59	21.311
369.95	21.569
370.31	21.810
370.67	20.633
371.03	21.676
371.39	20.819
371.75	21.596
372.11	22.358
372.47	21.666
372.83	21.859
373.19	21.214
373.55	20.461
373.91	20.859
374.27	21.928
374.63	20.501
374.99	21.751
375.35	22.597
375.71	22.258
376.07	22.660
376.42	21.851
376.78	22.126
377.14	22.396
377.50	22.517
377.86	22.291
378.22	22.216
378.58	21.879
378.94	21.772
379.30	22.086
379.66	22.163
380.02	22.100
380.38	22.869
380.74	22.085
381.09	22.067
381.45	22.386
381.81	23.595
382.17	22.862
382.53	22.807
382.89	22.065
383.25	22.274
383.61	22.454
383.97	22.615
384.32	22.847
384.68	22.216
385.04	23.308
385.40	22.746
385.76	22.860
386.12	22.861
386.48	23.529
386.83	22.765
387.19	23.581
387.55	23.239
387.91	22.660
388.27	23.326
388.62	23.139
388.98	22.391
389.34	23.276
389.70	21.964
390.06	23.327
390.42	23.133
390.77	24.022
391.13	23.181
391.49	23.490
391.85	22.606
392.20	23.250
392.56	23.804
392.92	23.010
393.28	24.323
393.64	23.575
393.99	23.475
394.35	23.598
394.71	23.713
395.07	23.174
395.42	23.187
395.78	24.314
396.14	23.945
396.50	23.872
396.85	24.389
397.21	23.728
397.57	23.675
397.92	24.055
398.28	23.954
398.64	23.627
399.00	22.932
399.35	23.403
399.71	22.826
400.07	24.424
400.42	24.505
400.78	23.727
401.14	23.449
401.49	24.161
401.85	23.953
402.21	24.623
402.57	24.061
402.92	23.641
403.28	24.473
403.63	22.733
403.99	23.931
404.35	23.309
404.70	24.646
405.06	23.424
405.42	24.532
405.77	24.427
406.13	23.663
406.49	24.606
406.84	24.488
407.20	24.371
407.55	24.167
407.91	24.890
408.27	24.382
408.62	24.666
408.98	25.073
409.34	24.399
409.69	24.227
410.05	24.091
410.40	25.522
410.76	24.397
411.11	24.722
411.47	25.799
411.83	25.044
412.18	25.181
412.54	25.015
412.89	25.146
413.25	24.718
413.60	25.215
413.96	25.058
414.31	24.816
414.67	24.985
415.03	24.738
415.38	25.536
415.74	24.924
416.09	26.465
416.45	24.671
416.80	25.214
417.16	26.373
417.51	24.844
417.87	25.567
418.22	25.988
418.58	25.403
418.93	25.844
419.29	26.510
419.64	25.810
420.00	25.579
420.35	25.997
420.71	26.422
421.06	26.337
421.42	26.147
421.77	26.010
422.12	25.687
422.48	25.960
422.83	26.123
423.19	26.260
423.54	26.438
423.90	27.002
424.25	27.200
424.61	27.153
424.96	27.238
425.31	26.858
425.67	26.409
426.02	27.559
426.38	27.325
426.73	26.953
427.09	27.855
427.44	27.581
427.79	26.755
428.15	26.712
428.50	27.809
428.85	27.382
429.21	28.404
429.56	27.641
429.92	27.125
430.27	28.627
430.62	28.139
430.98	28.775
431.33	27.517
431.68	28.688
432.04	29.457
432.39	28.763
432.74	28.368
433.10	28.880
433.45	28.205
433.80	28.112
434.16	28.409
434.51	28.417
434.86	28.990
435.22	29.118
435.57	29.658
435.92	28.325
436.28	29.579
436.63	29.656
436.98	28.986
437.34	29.200
437.69	29.499
438.04	28.715
438.39	29.179
438.75	29.386
439.10	29.810
439.45	29.681
439.81	29.266
440.16	29.920
440.51	30.323
440.86	28.961
441.22	30.011
441.57	29.193
441.92	29.777
442.27	29.798
442.63	30.402
442.98	29.669
443.33	29.984
443.68	30.773
444.03	30.386
444.39	29.958
444.74	30.015
445.09	29.701
445.44	31.349
445.79	30.891
446.15	30.473
446.50	30.388
446.85	30.350
447.20	30.754
447.55	31.015
447.91	30.995
448.26	31.924
448.61	29.809
448.96	31.599
449.31	30.541
449.66	30.610
450.02	31.487
450.37	31.273
450.72	30.140
451.07	30.979
451.42	30.503
451.77	30.684
452.12	30.813
452.47	31.016
452.83	31.588
453.18	31.290
453.53	29.983
453.88	30.591
454.23	32.316
454.58	30.586
454.93	31.553
455.28	31.728
455.63	31.325
455.98	30.223
456.34	31.272
456.69	31.746
457.04	31.915
457.39	30.322
457.74	31.935
458.09	31.192
458.44	32.220
458.79	31.253
459.14	30.991
459.49	32.088
459.84	31.480
460.19	31.038
460.54	31.914
460.89	32.186
461.24	31.437
461.59	31.876
461.94	29.778
462.29	31.915
462.64	30.658
462.99	31.387
463.34	32.771
463.69	31.301
464.04	32.129
464.39	32.063
464.74	30.787
465.09	31.892
465.44	32.028
465.79	31.623
466.14	31.006
466.49	32.053
466.84	31.405
467.19	31.850
467.54	30.494
467.89	31.207
468.24	31.413
468.59	30.515
468.94	30.944
469.29	31.014
469.64	31.850
469.99	31.612
470.34	31.064
470.68	32.331
471.03	32.024
471.38	31.720
471.73	31.014
472.08	31.091
472.43	30.945
472.78	32.494
473.13	31.353
473.48	31.420
473.83	31.573
474.17	31.653
474.52	30.968
474.87	31.285
475.22	31.718
475.57	30.997
475.92	31.259
476.27	31.097
476.61	31.101
476.96	31.283
477.31	31.733
477.66	32.162
478.01	30.554
478.36	30.259
478.70	31.773
479.05	32.413
479.40	31.639
479.75	31.604
480.10	30.602
480.45	32.179
480.79	30.839
481.14	31.342
481.49	31.031
481.84	31.506
482.19	30.753
482.53	31.701
482.88	32.167
483.23	31.303
483.58	31.528
483.92	30.807
484.27	30.440
484.62	30.569
484.97	31.299
485.31	30.553
485.66	29.355
486.01	29.437
486.36	30.338
486.70	31.776
487.05	32.429
487.40	31.855
487.75	31.298
488.09	31.361
488.44	30.456
488.79	30.860
489.13	30.775
489.48	30.175
489.83	30.141
490.17	30.701
490.52	30.378
490.87	30.838
491.22	31.369
491.56	30.845
491.91	30.746
492.26	30.766
492.60	31.089
492.95	31.593
493.30	29.628
493.64	30.442
493.99	30.746
494.34	30.706
494.68	29.979
495.03	30.837
495.37	31.913
495.72	30.476
496.07	30.806
496.41	30.116
496.76	30.651
497.11	30.446
497.45	31.204
497.80	30.120
498.14	29.887
498.49	30.515
498.84	30.576
499.18	29.915
499.53	30.045
499.87	30.681
500.22	30.098
500.56	30.769
500.91	30.572
501.26	30.818
501.60	30.711
501.95	30.178
502.29	30.057
502.64	30.695
502.98	29.638
503.33	30.410
503.67	30.135
504.02	28.853
504.36	31.189
504.71	30.684
505.06	29.513
505.40	30.256
505.75	30.419
506.09	30.755
506.44	30.084
506.78	30.321
507.13	29.783
507.47	30.554
507.82	30.303
508.16	30.306
508.51	29.395
508.85	29.901
509.19	29.465
509.54	30.500
509.88	30.257
510.23	30.840
510.57	30.063
510.92	30.527
511.26	30.111
511.61	29.165
511.95	29.673
512.30	30.478
512.64	28.436
512.98	29.365
513.33	30.393
513.67	29.322
514.02	30.353
514.36	30.128
514.70	30.312
515.05	30.501
515.39	29.344
515.74	29.905
516.08	29.477
516.42	29.147
516.77	30.547
517.11	28.984
517.46	29.852
517.80	30.572
518.14	29.978
518.49	29.555
518.83	28.792
519.17	29.079
519.52	29.665
519.86	29.514
520.20	30.245
520.55	28.587
520.89	28.885
521.23	29.034
521.58	29.774
521.92	29.235
522.26	29.897
522.61	29.398
522.95	28.316
523.29	29.828
523.64	29.260
523.98	29.378
524.32	29.971
524.66	29.254
525.01	29.332
525.35	29.294
525.69	28.712
526.04	28.358
526.38	28.793
526.72	29.239
527.06	30.323
527.41	29.329
527.75	28.563
528.09	28.512
528.43	28.242
528.78	28.266
529.12	29.014
529.46	28.331
529.80	28.547
530.15	29.681
530.49	28.351
530.83	29.752
531.17	28.315
531.51	29.242
531.86	30.349
532.20	28.476
532.54	27.768
532.88	28.545
533.22	28.226
533.57	28.505
533.91	28.788
534.25	29.226
534.59	28.218
534.93	27.957
535.27	27.324
535.62	28.596
535.96	28.298
536.30	27.615
536.64	28.589
536.98	28.352
537.32	28.519
537.66	27.885
538.01	27.311
538.35	27.588
538.69	27.644
539.03	28.081
539.37	27.797
539.71	28.168
540.05	27.278
540.39	27.017
540.73	27.505
541.07	27.774
541.42	27.053
541.76	27.758
542.10	26.297
542.44	28.136
542.78	27.737
543.12	27.533
543.46	27.778
543.80	26.799
544.14	26.750
544.48	27.541
544.82	27.289
545.16	27.549
545.50	27.561
545.84	26.822
546.18	27.963
546.52	26.688
546.86	26.415
547.20	25.445
547.54	26.280
547.88	25.678
548.22	25.556
548.56	26.448
548.90	26.925
549.24	26.930
549.58	26.625
549.92	26.467
550.26	26.731
550.60	26.484
550.94	25.679
551.28	26.205
551.62	27.965
551.96	25.113
552.30	26.386
552.64	25.949
552.98	25.889
553.32	26.559
553.66	25.659
554.00	26.671
554.34	25.676
554.68	25.823
555.02	25.296
555.36	26.956
555.69	25.753
556.03	26.419
556.37	26.220
556.71	25.872
557.05	25.495
557.39	26.344
557.73	26.420
558.07	25.430
558.41	25.249
558.75	25.085
559.08	25.470
559.42	25.240
559.76	25.712
560.10	25.184
560.44	25.396
560.78	25.812
561.12	25.431
561.45	25.304
561.79	24.725
562.13	25.200
562.47	23.983
562.81	24.494
563.15	25.505
563.48	25.668
563.82	25.272
564.16	24.046
564.50	24.017
564.84	25.133
565.17	25.412
565.51	23.705
565.85	24.644
566.19	23.906
566.52	24.459
566.86	24.731
567.20	23.709
567.54	23.739
567.88	23.598
568.21	24.160
568.55	23.789
568.89	24.557
569.23	24.208
569.56	23.447
569.90	23.913
570.24	24.283
570.57	23.477
570.91	23.821
571.25	23.344
571.59	23.908
571.92	23.801
572.26	23.240
572.60	23.888
572.93	23.100
573.27	23.181
573.61	23.293
573.95	22.700
574.28	23.032
574.62	22.829
574.96	22.475
575.29	22.736
575.63	22.754
575.97	23.138
576.30	22.625
576.64	23.026
576.98	22.392
577.31	22.536
577.65	22.452
577.98	22.515
578.32	21.769
578.66	22.201
578.99	22.507
579.33	22.321
579.67	22.371
580.00	22.432
580.34	22.753
580.67	22.220
581.01	21.376
581.35	21.547
581.68	21.686
582.02	22.134
582.35	22.262
582.69	22.408
583.02	22.706
583.36	22.181
583.70	22.086
584.03	21.526
584.37	22.069
584.70	21.443
585.04	21.321
585.37	21.697
585.71	21.165
586.04	21.576
586.38	21.750
586.72	21.710
587.05	21.540
587.39	21.815
587.72	21.268
588.06	21.639
588.39	21.434
588.73	21.825
589.06	21.247
589.40	21.481
589.73	21.176
590.07	21.485
590.40	20.960
590.73	21.881
591.07	21.296
591.40	20.568
591.74	21.224
592.07	21.803
592.41	20.899
592.74	20.199
593.08	20.955
593.41	21.581
593.75	20.776
594.08	21.478
594.41	21.474
594.75	20.790
595.08	20.626
595.42	21.169
595.75	20.827
596.09	21.247
596.42	20.494
596.75	20.494
597.09	21.253
597.42	20.660
597.75	20.659
598.09	20.754
598.42	20.869
598.76	20.443
599.09	19.972
599.42	19.779
599.76	20.106
600.09	20.354
600.42	20.487
600.76	19.815
601.09	20.146
601.42	20.494
601.76	19.759
602.09	19.693
602.42	19.811
602.76	20.111
603.09	19.714
603.42	19.653
603.76	19.626
604.09	20.405
604.42	20.110
604.76	19.292
605.09	19.904
605.42	19.458
605.75	19.154
606.09	19.112
606.42	19.555
606.75	18.741
607.09	19.086
607.42	19.692
607.75	19.304
608.08	19.140
608.42	19.226
608.75	20.025
609.08	19.440
609.41	19.541
609.75	19.196
610.08	19.041
610.41	19.796
610.74	19.034
611.07	18.650
611.41	19.417
611.74	19.122
612.07	19.635
612.40	19.487
612.73	18.729
613.07	19.658
613.40	18.961
613.73	18.681
614.06	18.891
614.39	18.465
614.72	19.117
615.06	17.854
615.39	18.801
615.72	18.152
616.05	18.796
616.38	19.273
616.71	19.175
617.05	19.276
617.38	19.262
617.71	18.467
618.04	18.403
618.37	19.071
618.70	18.495
619.03	18.937
619.36	18.742
619.69	18.001
620.03	18.393
620.36	18.650
620.69	17.335
621.02	19.094
621.35	19.448
621.68	19.234
622.01	18.505
622.34	17.992
622.67	18.007
623.00	17.004
623.33	18.580
623.66	18.807
623.99	18.038
624.32	19.493
624.65	17.568
624.99	18.921
625.32	18.027
625.65	18.341
625.98	17.831
626.31	18.710
626.64	18.095
626.97	18.305
627.30	17.540
627.63	17.104
627.96	20.045
628.29	17.588
628.62	16.541
628.95	18.142
629.28	17.587
629.61	17.172
629.94	17.992
630.26	17.034
630.59	17.444
630.92	16.710
631.25	17.710
631.58	17.043
631.91	17.807
632.24	16.234
632.57	16.319
632.90	16.148
633.23	17.347
633.56	18.163
633.89	16.839
634.22	17.360
634.55	17.015
634.88	16.667
635.20	17.546
635.53	18.192
635.86	17.551
636.19	17.709
636.52	17.194
636.85	16.650
637.18	17.152
637.51	16.129
637.83	17.386
638.16	18.318
638.49	17.723
638.82	16.911
639.15	17.297
639.48	18.129
639.81	16.628
640.13	18.728
640.46	14.667
640.79	16.422
641.12	15.404
641.45	17.566
641.77	17.843
642.10	15.354
642.43	16.888
642.76	16.802
643.09	16.849
643.41	16.106
643.74	16.000
644.07	17.379
644.40	16.124
644.73	15.965
645.05	15.272
645.38	17.122
645.71	15.982
646.04	17.504
646.36	15.182
646.69	15.798
647.02	15.902
647.35	17.252
647.67	16.103
648.00	15.287
648.33	16.817
648.66	15.549
648.98	15.782
649.31	16.779
649.64	16.999
649.96	15.119
650.29	13.630
650.62	17.115
650.94	15.465
651.27	14.820
651.60	14.766
651.92	16.109
652.25	14.038
652.58	15.406
652.90	13.953
653.23	15.775
653.56	13.980
653.88	15.590
654.21	15.211
654.54	15.029
654.86	15.156
655.19	14.806
655.52	15.962
655.84	16.053
656.17	18.670
656.49	25.889
656.82	28.421
657.15	22.492
657.47	16.928
657.80	12.536
658.13	9.736
658.45	12.882
658.78	14.886
659.10	14.169
659.43	14.093
659.75	13.296
660.08	13.053
660.41	13.482
660.73	12.543
661.06	14.244
661.38	14.514
661.71	15.690
662.03	16.226
662.36	15.206
662.68	14.447
663.01	14.513
663.33	15.690
663.66	15.201
663.98	16.154
664.31	15.197
664.63	12.139
664.96	15.245
665.28	12.704
665.61	15.385
665.93	13.393
666.26	16.667
666.58	12.362
666.91	14.019
667.23	14.095
667.56	14.004
667.88	16.200
668.21	11.914
668.53	9.846
668.86	13.163
669.18	12.831
669.50	14.115
669.83	11.800
670.15	12.402
670.48	12.897
670.80	12.811
671.13	14.178
671.45	14.764
671.77	15.631
672.10	10.833
672.42	13.269
672.75	13.057
673.07	14.627
673.39	12.635
673.72	13.423
674.04	13.276
674.37	13.417
674.69	15.873
675.01	11.238
675.34	13.168
675.66	11.610
675.98	13.619
676.31	12.891
676.63	16.350
676.95	14.176
677.28	12.298
677.60	10.433
677.92	12.092
678.25	15.174
678.57	13.523
678.89	15.017
679.22	13.066
679.54	12.137
679.86	11.525
680.18	12.106
680.51	13.050
680.83	11.129
681.15	11.724
681.48	13.817
681.80	13.299
682.12	12.413
682.44	11.686
682.77	14.184
683.09	13.636
683.41	10.853
683.73	12.713
684.06	13.284
684.38	10.197
684.70	11.490
685.02	13.425
685.34	12.313
685.67	11.830
685.99	13.344
686.31	12.500
686.63	12.796
686.96	10.252
687.28	12.052
687.60	10.774
687.92	11.415
688.24	11.519
688.56	12.759
688.89	10.889
689.21	13.503
689.53	11.569
689.85	12.032
690.17	13.148
690.49	11.952
690.82	13.069
691.14	10.931
691.46	12.237
691.78	14.733
692.10	11.560
692.42	10.357
692.74	11.252
693.06	9.630
693.39	14.042
693.71	10.902
694.03	14.312
694.35	9.714
694.67	11.294
694.99	10.426
695.31	9.492
695.63	8.658
695.95	11.387
696.27	10.549
696.59	13.053
696.91	11.036
697.23	15.165
697.56	10.998
697.88	10.417
698.20	10.169
698.52	14.773
698.84	9.148
699.16	12.041
699.48	10.460
699.80	11.915
700.12	10.480
700.44	8.986
700.76	11.401
701.08	11.864
701.40	9.585
701.72	12.687
702.04	11.497
702.36	7.068
702.68	9.291
703.00	9.291
703.32	8.374
703.64	9.535
703.96	11.695
704.28	12.776
704.60	13.671
704.91	10.714
705.23	11.233
705.55	9.471
705.87	9.394
706.19	10.429
706.51	5.422
706.83	8.934
707.15	8.466
707.47	10.748
707.79	10.917
708.11	7.627
708.43	10.323
708.74	8.036
709.06	10.441
709.38	14.085
709.70	12.903
710.02	10.853
710.34	9.840
710.66	11.173
710.98	11.749
711.29	7.143
711.61	7.627
711.93	11.396
712.25	10.541
712.57	12.979
712.89	12.353
713.20	7.396
713.52	9.249
713.84	8.914
714.16	9.211
714.48	9.536
714.80	12.727
715.11	10.236
715.43	11.671
715.75	10.263
716.07	7.459
716.39	10.656
716.70	10.542
717.02	7.869
717.34	6.969
717.66	7.383
717.97	7.877
718.29	7.216
718.61	8.224
718.93	8.738
719.24	7.453
719.56	10.736
719.88	9.009
720.20	10.645
720.51	10.559
720.83	9.375
721.15	8.224
721.46	5.822
721.78	7.667
722.10	6.472
722.42	7.718
722.73	7.742
723.05	8.070
723.37	10.069
723.68	6.810
724.00	7.581
724.32	6.338
724.63	8.392
724.95	14.539
725.27	11.498
725.58	7.420
725.90	11.034
726.22	10.972
726.53	9.091
726.85	11.321
727.16	9.668
727.48	11.927
727.80	7.947
728.11	6.714
728.43	9.764
728.74	10.033
729.06	8.278
729.38	8.117
729.69	7.383
730.01	11.012
730.32	6.667
730.64	6.604
730.96	7.764
731.27	11.453
731.59	10.440
731.90	6.753
732.22	9.635
732.53	6.354
732.85	11.429
733.16	10.557
733.48	6.707
733.80	7.799
734.11	8.262
734.43	8.378
734.74	8.608
735.06	5.528
735.37	9.730
735.69	7.568
736.00	10.734
736.32	6.739
736.63	8.889
736.95	6.322
737.26	6.061
737.58	4.242
737.89	9.118
738.21	5.810
738.52	5.574
738.83	9.215
739.15	9.220
739.46	6.122
739.78	8.589
740.09	6.017
740.41	10.496
740.72	8.667
741.04	4.854
741.35	8.772
741.66	8.627
741.98	7.787
742.29	5.021
742.61	10.965
742.92	6.923
743.23	6.498
743.55	9.690
743.86	6.000
744.18	-1.240
744.49	8.861
744.80	9.877
745.12	10.127
745.43	8.130
745.74	2.155
746.06	7.203
746.37	6.751
746.68	12.195
747.00	7.083
747.31	3.004
747.62	9.231
747.94	4.858
748.25	6.024
748.56	6.122
748.88	5.983
749.19	7.328
749.50	4.762
749.82	8.032
750.13	8.185
750.44	2.667
750.75	8.615
751.07	9.231
751.38	7.571
751.69	3.195
752.01	4.531
752.32	9.804
752.63	8.503
752.94	7.266
753.26	2.602
753.57	4.815
753.88	5.993
754.19	5.788
754.51	2.572
754.82	7.074
755.13	7.213
755.44	6.826
755.75	7.237
756.07	7.761
756.38	6.289
756.69	9.337
757.00	8.587
757.31	7.923
757.63	7.161
757.94	7.042
758.25	7.449
758.56	5.664
758.87	9.091
759.18	7.467
759.50	7.649
759.81	7.003
760.12	6.739
760.43	8.854
760.74	8.128
761.05	7.750
761.36	4.337
761.67	5.076
761.99	7.568
762.30	7.012
762.61	4.290
762.92	5.224
763.23	6.367
763.54	6.115
763.85	4.124
764.16	7.407
764.47	6.338
764.78	2.556
765.10	5.865
765.41	9.487
765.72	4.233
766.03	6.780
766.34	5.016
766.65	2.787
766.96	5.578
767.27	3.226
767.58	0.498
767.89	6.731
768.20	1.878
768.51	2.778
768.82	8.835
769.13	5.682
769.44	1.154
769.75	7.581
770.06	10.000
770.37	9.449
770.68	0.426
770.99	1.215
771.30	8.889
771.61	7.605
771.92	5.185
772.23	7.692
772.54	1.389
772.85	13.825
773.16	11.905
773.47	4.233
773.78	1.622
774.09	2.841
774.39	13.000
774.70	8.197
775.01	-1.220
775.32	-1.176
775.63	6.748
775.94	-0.637
776.25	7.097
776.56	1.923
776.87	8.163
777.18	2.069
777.48	4.196
777.79	2.703
778.10	-1.471
778.41	6.944
778.72	-2.759
779.03	0.617
779.34	6.667
779.65	3.627
779.95	3.889
780.26	6.250
780.57	0.645
780.88	12.319
781.19	9.032
781.50	7.059
781.80	4.301
782.11	2.646
782.42	0.505
782.73	2.395
783.04	2.793
783.34	2.424
783.65	-6.536
783.96	1.242
784.27	-0.595
784.57	0.000
784.88	2.143
785.19	-3.150
785.50	5.512
785.81	3.759
786.11	-0.769
786.42	4.317
786.73	0.000
787.04	0.752
787.34	5.738
787.65	0.800
787.96	0.000
788.26	1.399
788.57	6.993
788.88	3.289
789.19	6.536
789.49	4.110
789.80	2.837
790.11	-2.362
790.41	3.125
790.72	0.000
791.03	-13.592
791.33	2.609
791.64	5.263
791.95	0.893
792.25	3.810
792.56	4.464
792.87	-8.333
793.17	1.786
793.48	-7.292
793.79	-16.867
794.09	-1.835
794.40	-4.587
794.70	6.122
795.01	-1.299
795.32	0.685
795.62	2.113
795.93	-3.030
796.23	1.639
796.54	-4.464
796.85	0.000
797.15	1.087
797.46	-9.589
797.76	-7.500
798.07	-1.087
798.37	-5.155
798.68	-7.792
798.99	-4.598
799.29	-4.494
799.60	3.191
799.90	6.024
800.21	-6.154
800.51	-19.403
800.82	-8.824
801.12	-13.699
801.43	-17.647
801.73	-16.949
802.04	-3.030
802.34	-30.000
802.65	-6.780
802.95	2.985
803.26	-11.864
803.56	-1.370
803.87	-10.000
804.17	-9.589
804.48	-24.561
804.78	-15.278
805.09	-18.966
805.39	-9.459
805.70	-15.493
806.00	-6.098
806.30	-4.819
806.61	-20.548
806.91	0.000
807.22	-4.444
807.52	-1.149
807.83	-4.167
808.13	-2.410
808.43	-1.124
808.74	-12.500
809.04	-35.294
809.35	-4.000
809.65	-30.000
809.95	-6.849
810.26	-21.053
810.56	-5.172
810.86	4.412
811.17	-15.789
811.47	-22.951
811.77	-42.222
812.08	-11.864
812.38	-13.333
812.69	-1.724
812.99	-30.189
813.29	-38.462
813.59	2.000
813.90	-12.281
814.20	-18.182
814.50	-1.408
814.81	-1.282
815.11	-6.557
815.41	-4.478
815.72	-13.793
816.02	7.143
816.32	2.222
816.62	-9.091
816.93	4.444
817.23	1.852
817.53	-23.404
817.84	-26.190
818.14	-5.882
818.44	-10.204
818.74	-6.667
819.04	-25.641
819.35	-45.714
819.65	-38.462
819.95	-15.094
820.25	-8.889
820.56	-11.905
820.86	-28.125
821.16	-41.026
821.46	-27.907
821.76	-30.000
822.07	-7.143
822.37	-28.261
822.67	-2.128
822.97	-24.324
823.27	-30.000
823.57	-6.122
823.88	-17.778
824.18	-7.500
824.48	-50.000
824.78	-36.000
825.08	-45.455
825.38	13.333
825.69	-8.511
825.99	-2.778
826.29	-51.429
826.59	-23.077
826.89	-27.907
827.19	-22.000
827.49	-23.529
827.79	-6.250
828.09	-32.432
828.39	-46.667
828.70	-19.512
829.00	-6.977
829.30	-53.571
829.60	-23.529
829.90	6.522
830.20	-37.143
830.50	-58.621
830.80	-77.778
831.10	-69.231
831.40	-38.235
831.70	-47.619
832.00	-3.226
832.30	-152.941
832.60	-41.667
832.90	-130.769
833.20	-63.158
833.50	-35.000
833.80	-47.368
834.10	-52.381
834.40	-11.111
834.70	-3.125
835.00	-48.571
835.30	-8.824
835.60	-43.333
835.90	-76.000
836.20	-72.727
836.50	-8.000
836.80	-57.576
837.10	-77.778
837.40	-59.259
837.70	-87.500
838.00	-7.143
838.30	-47.826
838.60	-20.690
838.90	-121.429
839.19	-69.565
839.49	-83.333
839.79	-13.043
840.09	-118.750
840.39	-75.000
840.69	-22.581
840.99	-50.000
841.29	-40.000
841.59	-68.421
841.88	28.205
842.18	-46.154
842.48	-170.000
842.78	-70.000
843.08	-23.333
843.38	-38.710
843.68	-72.222
843.97	-41.176
844.27	-93.750
844.57	-84.211
844.87	-200.000
845.17	-93.333
845.47	-38.095
845.76	-42.857
846.06	-111.111
846.36	-70.588
846.66	-50.000
846.96	-126.667
847.25	-117.647
847.55	-21.739
847.85	-65.000
848.15	-117.647
848.44	-54.545
848.74	4.762
849.04	-16.667
849.34	-112.500
849.63	-34.783
849.93	1250.000
850.23	-133.333
850.53	-23.077
850.82	-172.727
851.12	-13.636
851.42	-145.455
851.71	-123.077
852.01	-65.000
852.31	-69.231
852.61	-36.842
852.90	-33.333
853.20	-88.889
853.50	-188.889
853.79	-61.905
854.09	-77.273
854.39	-183.333
854.68	-6.452
854.98	-26.923
855.28	-50.000
855.57	-46.429
855.87	-48.000
856.17	-63.636
856.46	-33.333
856.76	-83.333
857.05	-69.565
857.35	-62.500
857.65	-115.385
857.94	-14.286
858.24	-29.630
858.53	-56.522
858.83	-70.588
859.13	-23.529
859.42	-35.294
859.72	-42.857
860.01	-75.000
860.31	-155.556
860.60	-40.000
860.90	-73.333
861.20	-94.444
861.49	-53.846
861.79	-13.333
862.08	-84.615
862.38	-6.250
862.67	0.000
862.97	-87.500
863.26	-177.778
863.56	-60.000
863.85	-90.909
864.15	-50.000
864.44	-366.667
864.74	-14.286
865.03	-93.750
865.33	-130.000
865.62	-54.839
865.92	-36.364
866.21	-43.478
866.51	-64.286
866.80	-320.000
867.10	-158.333
867.39	-75.000
867.69	2300.000
867.98	-157.143
868.27	-11.765
868.57	-1500.000
868.86	-110.000
869.16	-61.905
869.45	-16.667
869.75	-109.091
870.04	-257.143
870.33	-41.667
870.63	-385.714
870.92	-275.000
871.22	-237.500
871.51	-190.909
871.80	-500.000
872.10	-800.000
>>>>>End Processed Spectral Data<<<<<
