SpectraSuite Data File
++++++++++++++++++++++++++++++++++++
Date: Thu May 14 15:04:08 PDT 2015
User: schluterlab
Dark Spectrum Present: Yes
Reference Spectrum Present: Yes
Number of Sampled Component Spectra: 1
Spectrometers: USB2E3373
Integration Time (usec): 3000 (USB2E3373)
Spectra Averaged: 3 (USB2E3373)
Boxcar Smoothing: 0 (USB2E3373)
Correct for Electrical Dark: No (USB2E3373)
Strobe/Lamp Enabled: No (USB2E3373)
Correct for Detector Non-linearity: No (USB2E3373)
Correct for Stray Light: No (USB2E3373)
Number of Pixels in Processed Spectrum: 2048
>>>>>Begin Processed Spectral Data<<<<<
178.53	0.000
178.91	314.286
179.29	-3600.000
179.67	-3200.000
180.04	300.000
180.42	250.000
180.80	560.000
181.18	-2000.000
181.56	-1900.000
181.94	675.000
182.31	-475.000
182.69	600.000
183.07	-1500.000
183.45	675.000
183.83	-316.667
184.20	-733.333
184.58	2300.000
184.96	-750.000
185.34	-244.444
185.72	-360.000
186.09	333.333
186.47	1300.000
186.85	700.000
187.23	-400.000
187.61	-3000.000
187.98	520.000
188.36	575.000
188.74	-625.000
189.12	-866.667
189.49	-125.000
189.87	-425.000
190.25	-255.556
190.63	-420.000
191.00	-300.000
191.38	0.000
191.76	-775.000
192.14	-450.000
192.51	1000.000
192.89	-500.000
193.27	0.000
193.65	-185.714
194.02	-2500.000
194.40	-414.286
194.78	428.571
195.15	0.000
195.53	-254.545
195.91	0.000
196.29	-675.000
196.66	-169.231
197.04	-2600.000
197.42	-328.571
197.79	-1350.000
198.17	-337.500
198.55	-371.429
198.92	-244.444
199.30	-400.000
199.68	-172.727
200.05	-100.000
200.43	-1400.000
200.81	385.714
201.18	0.000
201.56	400.000
201.94	0.000
202.31	1000.000
202.69	-244.444
203.07	2000.000
203.44	-355.556
203.82	-775.000
204.19	-158.333
204.57	-566.667
204.95	-237.500
205.32	-2700.000
205.70	650.000
206.08	-316.667
206.45	-300.000
206.83	600.000
207.20	-433.333
207.58	-620.000
207.96	-366.667
208.33	-383.333
208.71	216.667
209.08	-283.333
209.46	0.000
209.84	533.333
210.21	1250.000
210.59	1000.000
210.96	733.333
211.34	-575.000
211.71	-225.000
212.09	-2500.000
212.46	0.000
212.84	1400.000
213.22	-520.000
213.59	-500.000
213.97	-200.000
214.34	-500.000
214.72	433.333
215.09	-575.000
215.47	0.000
215.84	271.429
216.22	1500.000
216.59	-500.000
216.97	-500.000
217.34	-425.000
217.72	-250.000
218.09	-625.000
218.47	-725.000
218.84	0.000
219.22	380.000
219.59	-76.471
219.97	-80.000
220.34	1250.000
220.72	-344.444
221.09	-138.462
221.47	-800.000
221.84	-180.000
222.22	-371.429
222.59	0.000
222.97	-187.500
223.34	-680.000
223.72	-2600.000
224.09	-500.000
224.46	-775.000
224.84	-360.000
225.21	-457.143
225.59	-575.000
225.96	-800.000
226.34	-65.385
226.71	483.333
227.08	-1350.000
227.46	-120.000
227.83	-775.000
228.21	-136.842
228.58	387.500
228.95	1650.000
229.33	-208.333
229.70	-240.000
230.08	-68.421
230.45	290.000
230.82	-866.667
231.20	-157.143
231.57	-150.000
231.95	-236.364
232.32	-245.455
232.69	-135.000
233.07	-750.000
233.44	-117.647
233.81	-290.000
234.19	-111.111
234.56	-113.636
234.93	-10.345
235.31	-126.316
235.68	-88.889
236.05	-125.000
236.43	-38.462
236.80	-72.000
237.17	-55.556
237.55	-75.758
237.92	-270.000
238.29	-70.968
238.67	-45.455
239.04	-50.000
239.41	-61.905
239.79	-45.652
240.16	-29.630
240.53	-45.652
240.91	-70.588
241.28	-36.066
241.65	-17.910
242.02	-20.270
242.40	-49.231
242.77	-33.333
243.14	-31.707
243.51	-38.158
243.89	-32.051
244.26	-13.861
244.63	-8.824
245.00	-15.888
245.38	-21.053
245.75	-23.894
246.12	-21.429
246.49	-14.729
246.87	-7.143
247.24	-5.960
247.61	-12.500
247.98	-13.423
248.36	-11.728
248.73	-7.975
249.10	-6.011
249.47	-0.995
249.84	-8.377
250.22	-9.845
250.59	-12.778
250.96	-6.364
251.33	-14.286
251.70	-3.419
252.08	-2.083
252.45	-4.098
252.82	-8.678
253.19	-7.422
253.56	-3.802
253.94	-6.154
254.31	-5.682
254.68	-1.748
255.05	-2.280
255.42	-5.782
255.79	-6.796
256.16	-5.298
256.54	-4.967
256.91	-4.262
257.28	-5.574
257.65	-8.599
258.02	-5.900
258.39	-3.989
258.76	-2.141
259.14	-0.575
259.51	-4.323
259.88	-4.533
260.25	-2.222
260.62	-1.918
260.99	0.546
261.36	-2.413
261.73	-6.101
262.10	-5.220
262.47	-0.536
262.85	1.010
263.22	-3.896
263.59	-5.000
263.96	-1.279
264.33	-4.092
264.70	-0.494
265.07	0.477
265.44	0.227
265.81	-3.241
266.18	0.000
266.55	-0.670
266.92	-3.189
267.29	1.094
267.66	-0.222
268.03	-1.747
268.40	0.000
268.77	-6.150
269.14	-0.220
269.51	-2.412
269.88	0.000
270.25	1.408
270.62	-2.321
270.99	0.808
271.36	-0.594
271.73	-0.589
272.10	0.000
272.47	0.000
272.84	-1.004
273.21	-2.605
273.58	-0.202
273.95	-1.154
274.32	-1.711
274.69	-1.741
275.06	0.183
275.43	-1.664
275.80	1.411
276.17	-2.037
276.54	-0.373
276.91	-0.716
277.28	0.723
277.65	-0.180
278.02	0.919
278.39	-1.087
278.76	-2.988
279.13	-1.596
279.50	2.921
279.87	0.358
280.23	-3.521
280.60	0.169
280.97	0.658
281.34	-1.868
281.71	0.508
282.08	-0.498
282.45	-2.455
282.82	0.628
283.19	-1.616
283.56	-1.639
283.92	1.802
284.29	1.738
284.66	1.970
285.03	-1.603
285.40	0.927
285.77	-1.238
286.14	1.527
286.51	-0.913
286.87	-1.264
287.24	0.452
287.61	-0.149
287.98	-0.151
288.35	0.592
288.72	0.296
289.08	0.146
289.45	1.627
289.82	-0.753
290.19	-0.431
290.56	0.000
290.93	1.284
291.29	-0.551
291.66	0.689
292.03	0.136
292.40	1.361
292.77	-0.270
293.13	0.677
293.50	-0.657
293.87	0.134
294.24	2.267
294.60	1.770
294.97	-0.537
295.34	0.768
295.71	0.378
296.08	-0.646
296.44	-0.368
296.81	0.365
297.18	-0.249
297.55	-0.118
297.91	0.593
298.28	0.000
298.65	1.189
299.02	0.590
299.38	0.686
299.75	0.935
300.12	-0.231
300.48	0.691
300.85	1.237
301.22	1.566
301.59	0.913
301.95	1.130
302.32	0.889
302.69	0.000
303.05	0.435
303.42	-0.333
303.79	1.875
304.15	1.788
304.52	0.634
304.89	1.361
305.25	0.828
305.62	1.567
305.99	1.237
306.35	1.411
306.72	0.620
307.09	1.624
307.45	1.760
307.82	1.211
308.19	1.917
308.55	2.700
308.92	2.045
309.29	1.916
309.65	2.047
310.02	1.188
310.38	2.264
310.75	3.107
311.12	2.685
311.48	3.128
311.85	3.419
312.22	3.795
312.58	4.413
312.95	2.390
313.31	4.426
313.68	3.114
314.05	4.697
314.41	5.647
314.78	4.814
315.14	5.354
315.51	4.986
315.87	5.671
316.24	6.119
316.61	7.460
316.97	6.244
317.34	6.878
317.70	7.686
318.07	7.055
318.43	8.078
318.80	9.197
319.16	7.382
319.53	6.512
319.89	7.625
320.26	8.808
320.62	9.131
320.99	10.249
321.35	10.074
321.72	10.977
322.08	11.091
322.45	11.653
322.81	13.267
323.18	12.655
323.54	14.052
323.91	15.302
324.27	15.060
324.64	17.380
325.00	16.998
325.37	16.953
325.73	18.595
326.10	20.114
326.46	20.277
326.83	21.537
327.19	22.362
327.56	21.976
327.92	23.289
328.29	23.065
328.65	24.372
329.01	23.435
329.38	26.453
329.74	27.226
330.11	26.455
330.47	26.453
330.84	27.046
331.20	27.833
331.56	29.029
331.93	28.285
332.29	28.136
332.66	28.156
333.02	28.978
333.38	27.013
333.75	29.040
334.11	30.525
334.48	29.868
334.84	29.822
335.20	28.296
335.57	30.691
335.93	30.083
336.29	28.286
336.66	30.530
337.02	29.933
337.38	30.527
337.75	29.256
338.11	29.773
338.47	30.273
338.84	29.949
339.20	29.739
339.56	29.325
339.93	31.527
340.29	29.066
340.65	29.846
341.02	31.125
341.38	30.639
341.74	29.056
342.11	30.732
342.47	29.309
342.83	30.757
343.20	30.499
343.56	29.832
343.92	29.864
344.28	29.297
344.65	31.395
345.01	29.875
345.37	29.549
345.73	29.072
346.10	30.967
346.46	29.747
346.82	29.438
347.19	30.252
347.55	30.653
347.91	29.421
348.27	30.046
348.63	29.855
349.00	30.276
349.36	30.260
349.72	30.506
350.08	30.535
350.45	30.875
350.81	30.618
351.17	29.925
351.53	29.947
351.89	31.435
352.26	30.075
352.62	30.075
352.98	29.847
353.34	28.603
353.70	30.894
354.07	30.924
354.43	30.220
354.79	30.441
355.15	29.801
355.51	29.971
355.87	29.918
356.24	31.407
356.60	29.786
356.96	30.689
357.32	30.409
357.68	29.795
358.04	29.940
358.40	30.149
358.77	31.360
359.13	29.099
359.49	30.112
359.85	30.674
360.21	30.703
360.57	30.007
360.93	29.901
361.29	30.386
361.66	30.920
362.02	31.663
362.38	31.272
362.74	31.774
363.10	30.743
363.46	31.510
363.82	31.747
364.18	32.231
364.54	30.982
364.90	31.438
365.26	31.172
365.62	31.200
365.98	31.178
366.35	30.537
366.71	32.109
367.07	30.717
367.43	31.451
367.79	31.586
368.15	32.776
368.51	31.800
368.87	31.352
369.23	31.133
369.59	32.923
369.95	31.508
370.31	32.005
370.67	32.600
371.03	32.410
371.39	31.095
371.75	32.462
372.11	31.030
372.47	32.363
372.83	33.050
373.19	30.887
373.55	32.724
373.91	31.834
374.27	32.083
374.63	32.747
374.99	32.228
375.35	33.442
375.71	32.323
376.07	33.183
376.42	33.564
376.78	33.810
377.14	32.876
377.50	33.333
377.86	33.621
378.22	34.132
378.58	34.661
378.94	33.568
379.30	33.040
379.66	34.215
380.02	33.526
380.38	33.986
380.74	33.803
381.09	34.088
381.45	32.727
381.81	34.133
382.17	35.036
382.53	32.924
382.89	33.409
383.25	33.646
383.61	32.581
383.97	34.217
384.32	33.911
384.68	34.107
385.04	35.049
385.40	34.355
385.76	34.994
386.12	34.051
386.48	34.941
386.83	35.280
387.19	34.531
387.55	33.392
387.91	33.847
388.27	34.931
388.62	34.307
388.98	33.221
389.34	34.826
389.70	34.515
390.06	34.873
390.42	33.795
390.77	34.738
391.13	34.800
391.49	34.722
391.85	33.879
392.20	34.045
392.56	34.672
392.92	36.150
393.28	35.102
393.64	34.581
393.99	34.689
394.35	35.397
394.71	34.491
395.07	34.431
395.42	33.581
395.78	35.161
396.14	34.225
396.50	34.917
396.85	33.512
397.21	33.964
397.57	34.629
397.92	33.505
398.28	33.732
398.64	33.009
399.00	33.508
399.35	33.770
399.71	33.152
400.07	34.194
400.42	33.877
400.78	34.317
401.14	34.206
401.49	34.224
401.85	34.535
402.21	34.125
402.57	34.038
402.92	34.220
403.28	33.489
403.63	33.294
403.99	34.442
404.35	32.689
404.70	34.278
405.06	33.967
405.42	32.963
405.77	34.460
406.13	33.495
406.49	34.178
406.84	34.072
407.20	33.706
407.55	33.677
407.91	32.935
408.27	32.450
408.62	34.090
408.98	32.966
409.34	34.194
409.69	33.622
410.05	34.525
410.40	34.281
410.76	33.259
411.11	33.723
411.47	33.784
411.83	33.333
412.18	33.675
412.54	34.499
412.89	33.236
413.25	34.481
413.60	34.635
413.96	34.674
414.31	33.654
414.67	34.168
415.03	33.231
415.38	34.300
415.74	34.270
416.09	34.732
416.45	33.500
416.80	32.987
417.16	34.291
417.51	34.807
417.87	33.967
418.22	35.150
418.58	34.696
418.93	35.914
419.29	35.018
419.64	34.274
420.00	33.412
420.35	34.643
420.71	35.382
421.06	35.480
421.42	36.181
421.77	34.680
422.12	35.465
422.48	36.713
422.83	36.747
423.19	35.915
423.54	37.002
423.90	36.444
424.25	36.907
424.61	36.739
424.96	37.013
425.31	37.686
425.67	37.735
426.02	36.303
426.38	38.060
426.73	38.058
427.09	37.889
427.44	37.302
427.79	38.585
428.15	38.413
428.50	38.146
428.85	38.462
429.21	39.202
429.56	39.191
429.92	39.214
430.27	39.518
430.62	38.593
430.98	38.908
431.33	39.345
431.68	39.943
432.04	39.868
432.39	40.386
432.74	40.297
433.10	41.536
433.45	39.911
433.80	40.236
434.16	41.787
434.51	41.572
434.86	42.562
435.22	42.083
435.57	42.335
435.92	42.070
436.28	40.842
436.63	43.801
436.98	41.224
437.34	42.334
437.69	42.267
438.04	42.094
438.39	42.160
438.75	42.999
439.10	43.552
439.45	43.600
439.81	43.390
440.16	43.003
440.51	43.645
440.86	41.690
441.22	42.551
441.57	43.973
441.92	43.744
442.27	43.889
442.63	43.716
442.98	44.237
443.33	44.555
443.68	44.747
444.03	45.343
444.39	45.076
444.74	44.155
445.09	44.197
445.44	44.995
445.79	44.875
446.15	44.861
446.50	45.375
446.85	45.039
447.20	45.551
447.55	46.548
447.91	45.654
448.26	45.719
448.61	45.112
448.96	46.942
449.31	45.493
449.66	44.717
450.02	45.622
450.37	46.723
450.72	46.663
451.07	46.697
451.42	47.198
451.77	45.859
452.12	47.856
452.47	46.405
452.83	47.410
453.18	46.818
453.53	46.525
453.88	46.383
454.23	46.384
454.58	47.707
454.93	46.481
455.28	47.742
455.63	46.845
455.98	47.263
456.34	47.998
456.69	47.325
457.04	48.286
457.39	47.506
457.74	47.539
458.09	47.172
458.44	48.437
458.79	47.602
459.14	48.401
459.49	48.161
459.84	49.265
460.19	48.251
460.54	49.063
460.89	49.762
461.24	48.621
461.59	48.700
461.94	47.861
462.29	49.664
462.64	47.616
462.99	47.834
463.34	47.631
463.69	47.890
464.04	49.027
464.39	48.262
464.74	47.605
465.09	48.962
465.44	49.034
465.79	49.075
466.14	48.515
466.49	48.263
466.84	49.366
467.19	48.497
467.54	47.709
467.89	48.103
468.24	49.474
468.59	48.639
468.94	48.077
469.29	47.750
469.64	49.015
469.99	48.948
470.34	49.196
470.68	50.308
471.03	49.640
471.38	48.921
471.73	49.610
472.08	48.794
472.43	49.849
472.78	48.237
473.13	50.126
473.48	49.245
473.83	50.377
474.17	49.941
474.52	49.549
474.87	50.609
475.22	50.254
475.57	50.883
475.92	50.224
476.27	49.521
476.61	49.533
476.96	48.905
477.31	49.653
477.66	50.157
478.01	50.330
478.36	48.804
478.70	49.803
479.05	50.971
479.40	50.888
479.75	50.048
480.10	50.166
480.45	51.322
480.79	50.159
481.14	50.276
481.49	51.431
481.84	49.608
482.19	51.054
482.53	50.809
482.88	50.953
483.23	50.600
483.58	50.568
483.92	49.246
484.27	50.466
484.62	49.464
484.97	49.028
485.31	49.490
485.66	47.367
486.01	47.645
486.36	50.054
486.70	52.987
487.05	54.299
487.40	52.635
487.75	51.476
488.09	50.803
488.44	49.075
488.79	49.073
489.13	49.529
489.48	48.816
489.83	50.262
490.17	49.534
490.52	49.836
490.87	50.338
491.22	51.300
491.56	50.469
491.91	51.199
492.26	50.238
492.60	50.372
492.95	51.338
493.30	51.143
493.64	51.205
493.99	51.404
494.34	49.434
494.68	49.893
495.03	51.454
495.37	50.777
495.72	51.338
496.07	50.745
496.41	50.064
496.76	50.667
497.11	51.380
497.45	50.626
497.80	50.955
498.14	51.338
498.49	49.586
498.84	50.868
499.18	50.517
499.53	51.256
499.87	51.692
500.22	49.377
500.56	51.372
500.91	52.082
501.26	51.773
501.60	50.508
501.95	51.715
502.29	51.602
502.64	51.377
502.98	49.698
503.33	51.015
503.67	50.153
504.02	51.270
504.36	51.877
504.71	52.228
505.06	50.705
505.40	50.823
505.75	51.093
506.09	50.829
506.44	51.996
506.78	51.514
507.13	50.254
507.47	51.729
507.82	51.184
508.16	51.291
508.51	51.336
508.85	52.102
509.19	50.924
509.54	51.057
509.88	50.898
510.23	52.258
510.57	51.474
510.92	51.766
511.26	49.976
511.61	50.169
511.95	51.342
512.30	50.812
512.64	49.325
512.98	51.026
513.33	51.915
513.67	51.453
514.02	51.405
514.36	51.509
514.70	51.979
515.05	52.033
515.39	51.129
515.74	52.174
516.08	51.400
516.42	51.334
516.77	51.420
517.11	51.728
517.46	51.750
517.80	51.737
518.14	51.415
518.49	51.247
518.83	50.506
519.17	50.027
519.52	50.786
519.86	50.581
520.20	51.491
520.55	50.876
520.89	51.577
521.23	50.977
521.58	51.525
521.92	49.632
522.26	50.687
522.61	51.042
522.95	50.519
523.29	51.092
523.64	50.224
523.98	50.998
524.32	52.149
524.66	50.541
525.01	50.906
525.35	50.201
525.69	49.304
526.04	49.541
526.38	51.379
526.72	50.115
527.06	50.968
527.41	51.837
527.75	51.603
528.09	50.295
528.43	50.918
528.78	50.751
529.12	51.089
529.46	50.253
529.80	49.657
530.15	50.609
530.49	51.246
530.83	51.181
531.17	50.538
531.51	50.000
531.86	50.661
532.20	50.671
532.54	49.013
532.88	50.788
533.22	49.322
533.57	50.375
533.91	50.000
534.25	50.480
534.59	50.287
534.93	49.972
535.27	51.324
535.62	51.507
535.96	50.087
536.30	50.470
536.64	50.631
536.98	50.431
537.32	49.630
537.66	49.283
538.01	47.069
538.35	49.330
538.69	50.120
539.03	50.521
539.37	48.999
539.71	49.249
540.05	49.221
540.39	49.083
540.73	49.302
541.07	49.050
541.42	48.848
541.76	48.992
542.10	48.372
542.44	47.929
542.78	50.061
543.12	49.285
543.46	49.451
543.80	48.381
544.14	48.833
544.48	48.936
544.82	49.970
545.16	49.195
545.50	48.232
545.84	48.316
546.18	51.235
546.52	49.299
546.86	48.679
547.20	49.555
547.54	48.439
547.88	48.764
548.22	49.649
548.56	48.566
548.90	49.493
549.24	48.571
549.58	49.274
549.92	48.597
550.26	49.773
550.60	49.138
550.94	50.194
551.28	48.185
551.62	50.472
551.96	48.544
552.30	49.140
552.64	48.475
552.98	50.218
553.32	51.061
553.66	48.810
554.00	49.685
554.34	48.970
554.68	47.385
555.02	49.277
555.36	47.995
555.69	47.726
556.03	48.739
556.37	48.623
556.71	49.334
557.05	49.457
557.39	49.370
557.73	49.339
558.07	48.940
558.41	49.435
558.75	49.290
559.08	49.408
559.42	48.971
559.76	50.136
560.10	48.962
560.44	48.879
560.78	49.375
561.12	48.091
561.45	48.723
561.79	48.718
562.13	49.353
562.47	48.027
562.81	47.911
563.15	48.737
563.48	49.720
563.82	48.186
564.16	47.668
564.50	48.868
564.84	48.909
565.17	48.882
565.51	47.526
565.85	48.515
566.19	47.581
566.52	48.391
566.86	48.161
567.20	47.254
567.54	48.540
567.88	48.675
568.21	48.073
568.55	47.722
568.89	48.479
569.23	47.951
569.56	48.144
569.90	47.078
570.24	47.892
570.57	47.466
570.91	46.663
571.25	47.498
571.59	48.010
571.92	46.828
572.26	46.983
572.60	46.437
572.93	46.618
573.27	46.474
573.61	46.003
573.95	45.496
574.28	46.484
574.62	46.203
574.96	45.523
575.29	45.803
575.63	46.131
575.97	46.036
576.30	44.880
576.64	44.619
576.98	45.740
577.31	46.277
577.65	46.884
577.98	45.670
578.32	45.560
578.66	45.552
578.99	45.505
579.33	46.576
579.67	45.172
580.00	45.448
580.34	44.917
580.67	44.748
581.01	45.370
581.35	45.139
581.68	45.271
582.02	45.472
582.35	46.744
582.69	46.408
583.02	45.973
583.36	45.779
583.70	45.467
584.03	45.236
584.37	45.495
584.70	44.597
585.04	44.478
585.37	45.205
585.71	45.502
586.04	45.641
586.38	45.984
586.72	45.550
587.05	46.175
587.39	45.999
587.72	46.292
588.06	45.986
588.39	45.706
588.73	45.317
589.06	45.626
589.40	46.189
589.73	46.176
590.07	46.187
590.40	46.281
590.73	46.518
591.07	46.128
591.40	46.306
591.74	46.502
592.07	45.838
592.41	44.756
592.74	45.545
593.08	46.433
593.41	46.573
593.75	46.379
594.08	46.774
594.41	46.090
594.75	45.500
595.08	45.861
595.42	46.006
595.75	45.786
596.09	46.256
596.42	46.363
596.75	45.851
597.09	46.061
597.42	46.246
597.75	45.551
598.09	45.675
598.42	45.275
598.76	44.746
599.09	45.247
599.42	45.223
599.76	45.428
600.09	45.946
600.42	45.345
600.76	45.343
601.09	44.574
601.42	44.456
601.76	44.621
602.09	44.889
602.42	44.856
602.76	44.539
603.09	46.109
603.42	45.990
603.76	45.067
604.09	46.309
604.42	45.725
604.76	44.368
605.09	44.914
605.42	45.056
605.75	45.077
606.09	44.942
606.42	43.999
606.75	44.190
607.09	44.585
607.42	44.855
607.75	45.057
608.08	44.002
608.42	43.571
608.75	44.569
609.08	43.930
609.41	44.817
609.75	43.750
610.08	45.383
610.41	43.798
610.74	44.790
611.07	43.206
611.41	44.709
611.74	44.758
612.07	44.881
612.40	44.154
612.73	44.352
613.07	44.108
613.40	43.744
613.73	43.861
614.06	44.504
614.39	42.420
614.72	42.601
615.06	42.974
615.39	44.128
615.72	43.365
616.05	43.225
616.38	43.996
616.71	44.305
617.05	43.078
617.38	43.767
617.71	44.762
618.04	43.119
618.37	43.880
618.70	43.778
619.03	43.369
619.36	42.725
619.69	43.049
620.03	44.068
620.36	43.006
620.69	43.492
621.02	43.898
621.35	43.687
621.68	43.745
622.01	42.705
622.34	42.887
622.67	43.918
623.00	43.117
623.33	44.393
623.66	44.423
623.99	43.450
624.32	44.314
624.65	43.050
624.99	44.148
625.32	44.807
625.65	43.560
625.98	41.763
626.31	43.373
626.64	42.125
626.97	42.536
627.30	43.964
627.63	41.785
627.96	43.769
628.29	43.346
628.62	43.157
628.95	43.558
629.28	42.651
629.61	43.098
629.94	41.757
630.26	43.305
630.59	44.301
630.92	42.511
631.25	44.812
631.58	44.350
631.91	43.486
632.24	44.573
632.57	42.884
632.90	42.728
633.23	43.469
633.56	42.857
633.89	42.045
634.22	44.699
634.55	44.259
634.88	43.939
635.20	42.734
635.53	44.520
635.86	41.278
636.19	44.327
636.52	42.827
636.85	40.756
637.18	41.892
637.51	43.118
637.83	42.525
638.16	42.512
638.49	40.962
638.82	41.939
639.15	41.123
639.48	43.533
639.81	42.148
640.13	43.110
640.46	39.515
640.79	40.931
641.12	43.354
641.45	41.907
641.77	44.416
642.10	43.176
642.43	43.351
642.76	42.005
643.09	40.822
643.41	42.717
643.74	43.034
644.07	42.345
644.40	42.433
644.73	41.509
645.05	42.144
645.38	41.151
645.71	42.082
646.04	43.042
646.36	39.854
646.69	41.564
647.02	42.813
647.35	39.847
647.67	42.995
648.00	42.994
648.33	41.441
648.66	40.514
648.98	40.816
649.31	41.137
649.64	43.426
649.96	40.186
650.29	38.804
650.62	40.594
650.94	42.042
651.27	39.222
651.60	39.912
651.92	41.793
652.25	41.245
652.58	38.790
652.90	39.390
653.23	40.845
653.56	40.228
653.88	43.118
654.21	40.563
654.54	40.173
654.86	42.210
655.19	38.394
655.52	41.261
655.84	41.308
656.17	48.011
656.49	65.724
656.82	70.951
657.15	54.405
657.47	41.269
657.80	30.042
658.13	23.060
658.45	29.921
658.78	35.105
659.10	33.911
659.43	31.987
659.75	31.374
660.08	30.364
660.41	31.431
660.73	34.094
661.06	34.361
661.38	36.045
661.71	38.793
662.03	39.859
662.36	38.998
662.68	37.711
663.01	38.407
663.33	38.752
663.66	38.828
663.98	39.231
664.31	40.713
664.63	38.921
664.96	41.198
665.28	35.572
665.61	40.385
665.93	37.857
666.26	39.964
666.58	38.745
666.91	39.439
667.23	37.143
667.56	39.053
667.88	37.400
668.21	38.477
668.53	37.838
668.86	37.525
669.18	36.049
669.50	38.171
669.83	38.800
670.15	37.598
670.48	37.897
670.80	39.006
671.13	34.216
671.45	36.811
671.77	38.230
672.10	36.333
672.42	34.951
672.75	38.710
673.07	36.119
673.39	35.593
673.72	36.242
674.04	37.759
674.37	38.283
674.69	37.566
675.01	35.810
675.34	36.450
675.66	36.517
675.98	36.754
676.31	37.891
676.63	35.932
676.95	38.314
677.28	37.500
677.60	36.614
677.92	36.660
678.25	35.283
678.57	36.833
678.89	37.884
679.22	35.366
679.54	33.504
679.86	34.576
680.18	35.158
680.51	34.748
680.83	35.188
681.15	35.517
681.48	34.024
681.80	35.406
682.12	34.615
682.44	35.559
682.77	36.170
683.09	35.417
683.41	35.659
683.73	34.915
684.06	35.055
684.38	34.347
684.70	36.625
685.02	36.317
685.34	34.276
685.67	35.016
685.99	32.515
686.31	32.122
686.63	32.701
686.96	36.120
687.28	36.482
687.60	33.333
687.92	32.154
688.24	31.886
688.56	33.276
688.89	34.846
689.21	34.638
689.53	30.980
689.85	33.333
690.17	33.333
690.49	33.466
690.82	32.673
691.14	33.603
691.46	32.887
691.78	34.438
692.10	32.294
692.42	32.500
692.74	33.212
693.06	30.556
693.39	30.740
693.71	31.955
694.03	31.784
694.35	31.429
694.67	33.676
694.99	30.426
695.31	33.996
695.63	32.468
695.95	31.884
696.27	32.308
696.59	31.195
696.91	34.234
697.23	33.187
697.56	32.587
697.88	30.492
698.20	30.885
698.52	35.606
698.84	34.096
699.16	35.306
699.48	33.264
699.80	31.277
700.12	32.969
700.44	32.028
700.76	31.591
701.08	32.930
701.40	33.938
701.72	31.592
702.04	34.759
702.36	29.319
702.68	29.584
703.00	32.518
703.32	29.557
703.64	31.296
703.96	31.265
704.28	32.924
704.60	31.392
704.91	31.633
705.23	33.151
705.55	30.919
705.87	29.394
706.19	29.141
706.51	24.096
706.83	31.124
707.15	30.159
707.47	32.009
707.79	29.694
708.11	29.025
708.43	30.538
708.74	26.562
709.06	28.306
709.38	32.864
709.70	30.769
710.02	26.615
710.34	32.447
710.66	28.492
710.98	25.137
711.29	29.945
711.61	31.073
711.93	29.060
712.25	27.568
712.57	33.333
712.89	30.294
713.20	24.556
713.52	33.526
713.84	26.462
714.16	30.263
714.48	29.124
714.80	28.052
715.11	27.034
715.43	28.117
715.75	29.737
716.07	28.177
716.39	28.689
716.70	24.398
717.02	28.525
717.34	23.345
717.66	25.839
717.97	26.027
718.29	26.117
718.61	26.645
718.93	25.243
719.24	27.019
719.56	25.153
719.88	27.928
720.20	28.387
720.51	29.193
720.83	21.250
721.15	26.974
721.46	22.945
721.78	24.333
722.10	24.595
722.42	24.161
722.73	20.968
723.05	27.018
723.37	24.306
723.68	26.882
724.00	30.686
724.32	24.296
724.63	23.077
724.95	29.078
725.27	22.648
725.58	27.208
725.90	28.276
726.22	20.690
726.53	26.623
726.85	29.560
727.16	22.961
727.48	23.547
727.80	24.503
728.11	22.261
728.43	26.599
728.74	22.408
729.06	23.841
729.38	27.273
729.69	25.503
730.01	23.214
730.32	21.515
730.64	25.157
730.96	22.360
731.27	26.816
731.59	27.198
731.90	22.078
732.22	23.958
732.53	22.652
732.85	24.571
733.16	26.979
733.48	23.780
733.80	20.891
734.11	25.356
734.43	25.405
734.74	27.848
735.06	23.869
735.37	24.865
735.69	22.162
736.00	25.424
736.32	23.720
736.63	26.389
736.95	25.287
737.26	23.636
737.58	20.000
737.89	25.882
738.21	19.572
738.52	21.967
738.83	22.184
739.15	22.695
739.46	25.170
739.78	26.380
740.09	20.630
740.41	22.449
740.72	22.333
741.04	22.330
741.35	26.316
741.66	22.353
741.98	20.902
742.29	21.757
742.61	25.439
742.92	26.538
743.23	21.661
743.55	23.256
743.86	22.400
744.18	16.942
744.49	20.675
744.80	20.165
745.12	27.426
745.43	18.699
745.74	19.828
746.06	17.797
746.37	23.629
746.68	22.764
747.00	23.750
747.31	16.309
747.62	24.615
747.94	17.409
748.25	18.876
748.56	19.592
748.88	20.085
749.19	22.845
749.50	19.048
749.82	24.900
750.13	25.623
750.44	20.333
750.75	21.231
751.07	22.154
751.38	20.505
751.69	22.684
752.01	23.625
752.32	22.222
752.63	21.769
752.94	19.031
753.26	18.959
753.57	25.556
753.88	23.221
754.19	20.257
754.51	19.293
754.82	22.186
755.13	24.590
755.44	23.208
755.75	24.013
756.07	23.582
756.38	19.182
756.69	24.398
757.00	20.222
757.31	20.492
757.63	19.182
757.94	20.892
758.25	20.316
758.56	21.133
758.87	21.818
759.18	19.467
759.50	23.229
759.81	23.249
760.12	23.450
760.43	23.437
760.74	20.936
761.05	22.250
761.36	20.482
761.67	18.782
761.99	21.892
762.30	21.646
762.61	18.152
762.92	19.403
763.23	24.719
763.54	17.986
763.85	20.275
764.16	18.519
764.47	24.296
764.78	23.003
765.10	21.994
765.41	22.564
765.72	19.312
766.03	17.797
766.34	15.047
766.65	15.331
766.96	13.147
767.27	19.355
767.58	16.915
767.89	22.115
768.20	17.371
768.51	13.426
768.82	17.671
769.13	18.939
769.44	11.923
769.75	19.856
770.06	15.000
770.37	23.622
770.68	16.170
770.99	14.170
771.30	23.333
771.61	18.251
771.92	16.296
772.23	16.194
772.54	11.574
772.85	16.129
773.16	15.714
773.47	8.995
773.78	11.351
774.09	14.773
774.39	21.500
774.70	18.579
775.01	11.585
775.32	7.647
775.63	14.724
775.94	2.548
776.25	16.774
776.56	11.538
776.87	19.048
777.18	6.207
777.48	5.594
777.79	8.784
778.10	6.618
778.41	16.667
778.72	9.655
779.03	11.728
779.34	15.758
779.65	11.399
779.95	9.444
780.26	15.909
780.57	14.194
780.88	13.768
781.19	9.032
781.50	12.353
781.80	19.355
782.11	14.286
782.42	7.576
782.73	7.784
783.04	10.056
783.34	9.091
783.65	7.190
783.96	14.286
784.27	11.905
784.57	7.947
784.88	2.143
785.19	3.150
785.50	14.173
785.81	13.534
786.11	8.462
786.42	-2.158
786.73	0.000
787.04	10.526
787.34	4.918
787.65	9.600
787.96	8.955
788.26	18.881
788.57	16.084
788.88	9.868
789.19	15.033
789.49	7.534
789.80	1.418
790.11	9.449
790.41	3.906
790.72	13.559
791.03	-1.942
791.33	6.087
791.64	9.649
791.95	-0.893
792.25	0.000
792.56	0.893
792.87	0.000
793.17	6.250
793.48	-7.292
793.79	-24.096
794.09	-3.670
794.40	-2.752
794.70	12.925
795.01	8.442
795.32	7.534
795.62	8.451
795.93	9.848
796.23	13.115
796.54	0.893
796.85	-1.064
797.15	-7.609
797.46	-10.959
797.76	-18.750
798.07	6.522
798.37	-8.247
798.68	-18.182
798.99	-2.299
799.29	4.494
799.60	-3.191
799.90	-2.410
800.21	-23.077
800.51	-20.896
800.82	-19.118
801.12	-36.986
801.43	-10.294
801.73	-33.898
802.04	-12.121
802.34	-35.000
802.65	-11.864
802.95	-1.493
803.26	-3.390
803.56	-5.479
803.87	-15.714
804.17	2.740
804.48	-26.316
804.78	-1.389
805.09	-32.759
805.39	-16.216
805.70	-19.718
806.00	0.000
806.30	-2.410
806.61	-9.589
806.91	0.962
807.22	-6.667
807.52	-9.195
807.83	-2.778
808.13	-9.639
808.43	-6.742
808.74	-12.500
809.04	-26.471
809.35	-18.667
809.65	-25.714
809.95	-19.178
810.26	-33.333
810.56	-31.034
810.86	0.000
811.17	-8.772
811.47	-18.033
811.77	-48.889
812.08	-11.864
812.38	-6.667
812.69	-13.793
812.99	-20.755
813.29	-25.641
813.59	-4.000
813.90	-10.526
814.20	-30.909
814.50	1.408
814.81	7.692
815.11	-14.754
815.41	-22.388
815.72	-12.069
816.02	-3.571
816.32	-8.889
816.62	-31.818
816.93	-33.333
817.23	-20.370
817.53	-25.532
817.84	-35.714
818.14	-52.941
818.44	-28.571
818.74	-28.889
819.04	-41.026
819.35	-51.429
819.65	-107.692
819.95	-9.434
820.25	-22.222
820.56	-14.286
820.86	-65.625
821.16	-43.590
821.46	-46.512
821.76	-48.000
822.07	-32.143
822.37	-30.435
822.67	-36.170
822.97	-67.568
823.27	-60.000
823.57	-22.449
823.88	-33.333
824.18	-45.000
824.48	-36.667
824.78	-64.000
825.08	-42.424
825.38	-15.556
825.69	-25.532
825.99	-47.222
826.29	-60.000
826.59	-64.103
826.89	-48.837
827.19	-22.000
827.49	-67.647
827.79	-14.583
828.09	-54.054
828.39	-66.667
828.70	-53.659
829.00	-37.209
829.30	-82.143
829.60	-20.588
829.90	-23.913
830.20	-45.714
830.50	-96.552
830.80	-94.444
831.10	-92.308
831.40	-50.000
831.70	-85.714
832.00	-51.613
832.30	-129.412
832.60	-62.500
832.90	-253.846
833.20	-94.737
833.50	-60.000
833.80	-121.053
834.10	-147.619
834.40	-61.111
834.70	-43.750
835.00	-85.714
835.30	-26.471
835.60	-46.667
835.90	-52.000
836.20	-131.818
836.50	-60.000
836.80	-78.788
837.10	-81.481
837.40	-81.481
837.70	-212.500
838.00	-60.714
838.30	-91.304
838.60	-79.310
838.90	-150.000
839.19	-134.783
839.49	-283.333
839.79	-95.652
840.09	-212.500
840.39	-95.000
840.69	-41.935
840.99	-89.286
841.29	-193.333
841.59	-126.316
841.88	-2.564
842.18	-73.077
842.48	-190.000
842.78	-85.000
843.08	-80.000
843.38	-41.935
843.68	-188.889
843.97	-41.176
844.27	-143.750
844.57	-142.105
844.87	-300.000
845.17	-220.000
845.47	-47.619
845.76	-147.619
846.06	-311.111
846.36	-158.824
846.66	-61.538
846.96	-133.333
847.25	-135.294
847.55	-60.870
847.85	-110.000
848.15	-94.118
848.44	-172.727
848.74	-80.952
849.04	-95.833
849.34	-112.500
849.63	-82.609
849.93	1350.000
850.23	-113.333
850.53	-23.077
850.82	-209.091
851.12	-27.273
851.42	-154.545
851.71	-76.923
852.01	-120.000
852.31	-207.692
852.61	-100.000
852.90	-183.333
853.20	-122.222
853.50	-344.444
853.79	-114.286
854.09	-150.000
854.39	-241.667
854.68	-67.742
854.98	-65.385
855.28	-94.444
855.57	-71.429
855.87	-76.000
856.17	-100.000
856.46	-62.963
856.76	-150.000
857.05	-126.087
857.35	-95.833
857.65	-130.769
857.94	-42.857
858.24	-51.852
858.53	-78.261
858.83	-135.294
859.13	-141.176
859.42	-111.765
859.72	-107.143
860.01	-110.000
860.31	-333.333
860.60	-130.000
860.90	-106.667
861.20	-127.778
861.49	-223.077
861.79	-63.333
862.08	-246.154
862.38	-25.000
862.67	-117.647
862.97	-156.250
863.26	-266.667
863.56	-230.000
863.85	-227.273
864.15	-44.444
864.44	-666.667
864.74	-157.143
865.03	-118.750
865.33	-280.000
865.62	-67.742
865.92	-22.727
866.21	-82.609
866.51	-78.571
866.80	-660.000
867.10	-291.667
867.39	-266.667
867.69	3200.000
867.98	-385.714
868.27	-135.294
868.57	-3600.000
868.86	-340.000
869.16	-138.095
869.45	-83.333
869.75	-163.636
870.04	-371.429
870.33	-133.333
870.63	-514.286
870.92	-550.000
871.22	-362.500
871.51	-209.091
871.80	-1133.333
872.10	-1300.000
>>>>>End Processed Spectral Data<<<<<
