SpectraSuite Data File
++++++++++++++++++++++++++++++++++++
Date: Thu May 14 14:31:04 PDT 2015
User: schluterlab
Dark Spectrum Present: Yes
Reference Spectrum Present: Yes
Number of Sampled Component Spectra: 1
Spectrometers: USB2E3373
Integration Time (usec): 3000 (USB2E3373)
Spectra Averaged: 3 (USB2E3373)
Boxcar Smoothing: 0 (USB2E3373)
Correct for Electrical Dark: No (USB2E3373)
Strobe/Lamp Enabled: No (USB2E3373)
Correct for Detector Non-linearity: No (USB2E3373)
Correct for Stray Light: No (USB2E3373)
Number of Pixels in Processed Spectrum: 2048
>>>>>Begin Processed Spectral Data<<<<<
178.53	0.000
178.91	-300.000
179.29	800.000
179.67	900.000
180.04	14.286
180.42	-110.000
180.80	-340.000
181.18	1200.000
181.56	2400.000
181.94	-575.000
182.31	475.000
182.69	-466.667
183.07	600.000
183.45	-400.000
183.83	250.000
184.20	566.667
184.58	-1000.000
184.96	400.000
185.34	244.444
185.72	360.000
186.09	-22.222
186.47	-350.000
186.85	-100.000
187.23	188.889
187.61	1100.000
187.98	-260.000
188.36	-300.000
188.74	375.000
189.12	766.667
189.49	143.750
189.87	87.500
190.25	177.778
190.63	400.000
191.00	155.556
191.38	0.000
191.76	175.000
192.14	300.000
192.51	-950.000
192.89	533.333
193.27	0.000
193.65	314.286
194.02	600.000
194.40	271.429
194.78	-57.143
195.15	0.000
195.53	145.455
195.91	0.000
196.29	550.000
196.66	146.154
197.04	600.000
197.42	200.000
197.79	850.000
198.17	175.000
198.55	228.571
198.92	222.222
199.30	187.500
199.68	172.727
200.05	128.571
200.43	350.000
200.81	-100.000
201.18	0.000
201.56	-111.111
201.94	0.000
202.31	-366.667
202.69	144.444
203.07	-2200.000
203.44	177.778
203.82	300.000
204.19	141.667
204.57	366.667
204.95	175.000
205.32	800.000
205.70	-225.000
206.08	283.333
206.45	266.667
206.83	-120.000
207.20	150.000
207.58	380.000
207.96	183.333
208.33	333.333
208.71	-150.000
209.08	266.667
209.46	0.000
209.84	-50.000
210.21	-800.000
210.59	-1000.000
210.96	-366.667
211.34	425.000
211.71	162.500
212.09	500.000
212.46	0.000
212.84	50.000
213.22	380.000
213.59	500.000
213.97	180.000
214.34	533.333
214.72	-133.333
215.09	375.000
215.47	0.000
215.84	-157.143
216.22	-500.000
216.59	380.000
216.97	420.000
217.34	550.000
217.72	200.000
218.09	450.000
218.47	225.000
218.84	0.000
219.22	-380.000
219.59	100.000
219.97	125.000
220.34	-700.000
220.72	22.222
221.09	161.538
221.47	366.667
221.84	110.000
222.22	171.429
222.59	0.000
222.97	275.000
223.34	260.000
223.72	900.000
224.09	325.000
224.46	150.000
224.84	600.000
225.21	257.143
225.59	200.000
225.96	375.000
226.34	88.462
226.71	-100.000
227.08	850.000
227.46	140.000
227.83	675.000
228.21	110.526
228.58	-87.500
228.95	-500.000
229.33	183.333
229.70	110.000
230.08	131.579
230.45	-80.000
230.82	366.667
231.20	150.000
231.57	225.000
231.95	163.636
232.32	227.273
232.69	125.000
233.07	575.000
233.44	64.706
233.81	80.000
234.19	100.000
234.56	95.455
234.93	103.448
235.31	94.737
235.68	111.111
236.05	30.000
236.43	107.692
236.80	108.000
237.17	62.963
237.55	54.545
237.92	150.000
238.29	64.516
238.67	70.455
239.04	61.111
239.41	57.143
239.79	39.130
240.16	44.444
240.53	50.000
240.91	13.725
241.28	32.787
241.65	41.791
242.02	47.297
242.40	27.692
242.77	30.667
243.14	34.146
243.51	26.316
243.89	29.487
244.26	39.604
244.63	35.294
245.00	32.710
245.38	30.702
245.75	24.779
246.12	28.571
246.49	22.481
246.87	28.571
247.24	29.801
247.61	26.316
247.98	24.161
248.36	25.309
248.73	25.767
249.10	20.765
249.47	28.856
249.84	26.702
250.22	24.352
250.59	20.000
250.96	25.455
251.33	19.898
251.70	26.923
252.08	22.083
252.45	24.590
252.82	18.182
253.19	19.141
253.56	27.757
253.94	17.308
254.31	26.136
254.68	22.378
255.05	22.476
255.42	21.429
255.79	16.828
256.16	18.543
256.54	19.205
256.91	16.393
257.28	19.672
257.65	14.331
258.02	17.109
258.39	18.519
258.76	22.630
259.14	23.563
259.51	20.461
259.88	19.547
260.25	20.833
260.62	20.274
260.99	22.678
261.36	21.180
261.73	19.363
262.10	20.879
262.47	23.324
262.85	25.758
263.22	18.701
263.59	16.316
263.96	18.670
264.33	18.926
264.70	20.247
265.07	21.718
265.44	22.902
265.81	21.528
266.18	21.088
266.55	21.429
266.92	17.540
267.29	22.101
267.66	18.847
268.03	20.087
268.40	20.668
268.77	17.540
269.14	16.740
269.51	21.272
269.88	21.107
270.25	19.115
270.62	18.987
270.99	21.010
271.36	20.198
271.73	18.861
272.10	20.040
272.47	19.840
272.84	18.876
273.21	18.838
273.58	19.355
273.95	18.462
274.32	16.920
274.69	17.795
275.06	19.597
275.43	16.451
275.80	18.519
276.17	18.333
276.54	17.537
276.91	18.068
277.28	18.445
277.65	20.108
278.02	16.912
278.39	18.478
278.76	16.696
279.13	16.489
279.50	19.244
279.87	19.141
280.23	16.021
280.60	18.644
280.97	19.901
281.34	16.978
281.71	18.951
282.08	18.937
282.45	16.367
282.82	15.071
283.19	17.447
283.56	18.033
283.92	17.417
284.29	19.115
284.66	18.062
285.03	15.705
285.40	18.393
285.77	15.325
286.14	18.168
286.51	16.743
286.87	17.062
287.24	17.319
287.61	14.499
287.98	14.955
288.35	16.568
288.72	15.680
289.08	16.398
289.45	16.420
289.82	16.867
290.19	15.517
290.56	16.338
290.93	16.690
291.29	18.044
291.66	16.529
292.03	15.739
292.40	15.918
292.77	14.151
293.13	15.832
293.50	12.878
293.87	14.765
294.24	16.400
294.60	14.286
294.97	13.289
295.34	16.261
295.71	13.619
296.08	14.341
296.44	14.093
296.81	14.616
297.18	13.574
297.55	12.972
297.91	14.828
298.28	13.270
298.65	14.150
299.02	14.404
299.38	14.760
299.75	13.201
300.12	12.731
300.48	13.479
300.85	12.711
301.22	13.199
301.59	11.530
301.95	12.768
302.32	13.444
302.69	13.363
303.05	13.166
303.42	11.863
303.79	13.229
304.15	12.934
304.52	12.474
304.89	13.298
305.25	12.836
305.62	13.480
305.99	12.680
306.35	13.508
306.72	11.479
307.09	12.792
307.45	11.698
307.82	13.320
308.19	12.109
308.55	12.825
308.92	12.366
309.29	13.027
309.65	11.501
310.02	13.465
310.38	12.500
310.75	12.718
311.12	12.560
311.48	12.023
311.85	13.105
312.22	12.334
312.58	12.394
312.95	11.759
313.31	10.840
313.68	11.630
314.05	12.556
314.41	12.477
314.78	12.625
315.14	12.069
315.51	12.742
315.87	13.681
316.24	11.598
316.61	12.256
316.97	11.584
317.34	12.169
317.70	12.576
318.07	12.875
318.43	10.969
318.80	12.960
319.16	11.760
319.53	12.168
319.89	11.744
320.26	12.722
320.62	12.411
320.99	11.542
321.35	11.645
321.72	12.558
322.08	11.993
322.45	12.647
322.81	12.004
323.18	12.212
323.54	12.069
323.91	12.367
324.27	11.274
324.64	13.098
325.00	11.692
325.37	12.367
325.73	11.983
326.10	12.652
326.46	12.378
326.83	12.330
327.19	11.575
327.56	11.858
327.92	12.352
328.29	12.097
328.65	11.055
329.01	13.113
329.38	11.710
329.74	13.271
330.11	12.671
330.47	13.311
330.84	12.920
331.20	12.500
331.56	12.565
331.93	12.720
332.29	11.949
332.66	12.209
333.02	11.474
333.38	12.500
333.75	12.710
334.11	11.426
334.48	12.541
334.84	11.725
335.20	11.755
335.57	12.310
335.93	11.322
336.29	11.730
336.66	12.616
337.02	10.786
337.38	12.670
337.75	12.149
338.11	11.606
338.47	12.572
338.84	12.775
339.20	11.542
339.56	11.697
339.93	11.741
340.29	11.111
340.65	12.409
341.02	12.051
341.38	12.611
341.74	10.896
342.11	12.470
342.47	11.199
342.83	12.560
343.20	12.510
343.56	11.548
343.92	12.570
344.28	12.188
344.65	12.016
345.01	12.168
345.37	11.897
345.73	10.522
346.10	12.012
346.46	10.918
346.82	10.861
347.19	11.612
347.55	12.671
347.91	11.664
348.27	11.684
348.63	11.577
349.00	11.335
349.36	11.450
349.72	11.607
350.08	12.481
350.45	11.331
350.81	11.312
351.17	11.429
351.53	12.206
351.89	12.528
352.26	12.388
352.62	11.194
352.98	10.763
353.34	11.128
353.70	11.094
354.07	11.177
354.43	10.478
354.79	11.593
355.15	10.743
355.51	12.719
355.87	11.219
356.24	11.559
356.60	11.456
356.96	10.378
357.32	10.632
357.68	11.054
358.04	11.452
358.40	11.493
358.77	11.696
359.13	10.783
359.49	10.632
359.85	10.515
360.21	11.191
360.57	11.845
360.93	11.354
361.29	11.368
361.66	11.296
362.02	12.457
362.38	10.752
362.74	11.034
363.10	11.554
363.46	11.496
363.82	11.293
364.18	11.612
364.54	10.512
364.90	10.100
365.26	11.172
365.62	12.267
365.98	10.756
366.35	10.940
366.71	11.633
367.07	9.946
367.43	12.081
367.79	11.546
368.15	12.308
368.51	10.961
368.87	10.581
369.23	9.867
369.59	10.929
369.95	11.089
370.31	11.074
370.67	11.004
371.03	10.873
371.39	10.880
371.75	10.798
372.11	10.772
372.47	10.968
372.83	12.107
373.19	10.674
373.55	11.043
373.91	10.429
374.27	11.384
374.63	10.825
374.99	10.875
375.35	10.779
375.71	11.742
376.07	10.523
376.42	10.453
376.78	11.187
377.14	11.167
377.50	10.816
377.86	12.069
378.22	11.317
378.58	10.939
378.94	11.385
379.30	10.076
379.66	11.464
380.02	11.021
380.38	10.138
380.74	10.761
381.09	11.498
381.45	10.739
381.81	11.007
382.17	11.045
382.53	10.643
382.89	11.117
383.25	10.785
383.61	10.532
383.97	10.895
384.32	11.782
384.68	10.789
385.04	12.146
385.40	11.903
385.76	11.254
386.12	11.251
386.48	10.706
386.83	11.085
387.19	10.950
387.55	11.444
387.91	11.130
388.27	11.259
388.62	10.997
388.98	10.942
389.34	11.491
389.70	11.331
390.06	10.894
390.42	11.084
390.77	11.258
391.13	11.092
391.49	11.715
391.85	10.727
392.20	11.447
392.56	12.050
392.92	11.396
393.28	11.940
393.64	11.117
393.99	11.098
394.35	10.923
394.71	11.976
395.07	10.000
395.42	10.965
395.78	11.152
396.14	11.289
396.50	10.808
396.85	10.853
397.21	10.651
397.57	11.484
397.92	10.939
398.28	10.158
398.64	10.641
399.00	10.471
399.35	11.204
399.71	11.304
400.07	10.668
400.42	11.118
400.78	10.243
401.14	11.440
401.49	11.484
401.85	10.988
402.21	11.298
402.57	11.092
402.92	11.288
403.28	11.124
403.63	10.919
403.99	11.045
404.35	10.688
404.70	10.878
405.06	10.870
405.42	10.539
405.77	11.559
406.13	10.913
406.49	11.655
406.84	11.524
407.20	10.397
407.55	11.024
407.91	11.062
408.27	11.131
408.62	11.344
408.98	11.201
409.34	10.264
409.69	11.372
410.05	11.547
410.40	11.717
410.76	11.161
411.11	10.754
411.47	12.285
411.83	11.875
412.18	10.361
412.54	11.618
412.89	11.234
413.25	11.174
413.60	10.626
413.96	11.072
414.31	11.161
414.67	11.807
415.03	11.015
415.38	11.286
415.74	11.301
416.09	11.968
416.45	10.645
416.80	11.261
417.16	11.239
417.51	10.959
417.87	11.649
418.22	11.617
418.58	11.586
418.93	11.758
419.29	10.789
419.64	11.104
420.00	10.682
420.35	11.960
420.71	11.315
421.06	10.638
421.42	11.411
421.77	10.070
422.12	11.628
422.48	10.701
422.83	11.172
423.19	11.247
423.54	11.670
423.90	10.878
424.25	10.667
424.61	10.735
424.96	11.422
425.31	11.730
425.67	11.004
426.02	11.068
426.38	11.711
426.73	10.882
427.09	11.995
427.44	10.923
427.79	11.277
428.15	10.160
428.50	11.011
428.85	10.964
429.21	11.809
429.56	11.254
429.92	10.762
430.27	10.410
430.62	10.650
430.98	10.772
431.33	10.704
431.68	10.680
432.04	10.919
432.39	11.141
432.74	11.872
433.10	11.195
433.45	10.535
433.80	10.783
434.16	10.899
434.51	11.459
434.86	11.021
435.22	11.105
435.57	12.146
435.92	11.297
436.28	11.206
436.63	11.688
436.98	10.950
437.34	10.992
437.69	10.787
438.04	10.999
438.39	12.119
438.75	11.068
439.10	11.681
439.45	11.124
439.81	11.638
440.16	10.563
440.51	12.263
440.86	10.839
441.22	11.040
441.57	11.478
441.92	11.154
442.27	11.061
442.63	11.773
442.98	11.153
443.33	11.625
443.68	11.397
444.03	11.665
444.39	11.142
444.74	10.975
445.09	11.201
445.44	11.064
445.79	11.351
446.15	11.665
446.50	11.835
446.85	11.333
447.20	11.509
447.55	12.082
447.91	11.152
448.26	11.628
448.61	11.424
448.96	12.285
449.31	11.506
449.66	11.002
450.02	12.289
450.37	11.721
450.72	11.087
451.07	11.446
451.42	11.150
451.77	11.395
452.12	11.230
452.47	11.943
452.83	11.712
453.18	12.318
453.53	10.913
453.88	11.320
454.23	11.130
454.58	12.362
454.93	11.044
455.28	12.101
455.63	11.768
455.98	11.899
456.34	12.662
456.69	11.875
457.04	11.466
457.39	11.419
457.74	11.689
458.09	11.807
458.44	11.584
458.79	11.655
459.14	11.746
459.49	11.941
459.84	11.700
460.19	12.049
460.54	12.209
460.89	12.070
461.24	11.437
461.59	11.898
461.94	10.782
462.29	12.094
462.64	12.311
462.99	11.111
463.34	12.524
463.69	12.485
464.04	12.840
464.39	12.276
464.74	11.688
465.09	11.880
465.44	12.500
465.79	12.533
466.14	11.047
466.49	11.632
466.84	11.846
467.19	11.792
467.54	11.163
467.89	12.184
468.24	11.856
468.59	11.118
468.94	11.946
469.29	10.978
469.64	11.697
469.99	11.536
470.34	12.376
470.68	12.030
471.03	12.377
471.38	12.688
471.73	12.094
472.08	12.246
472.43	12.161
472.78	12.972
473.13	12.073
473.48	12.991
473.83	12.304
474.17	12.309
474.52	12.568
474.87	12.403
475.22	12.225
475.57	12.150
475.92	11.847
476.27	11.768
476.61	11.734
476.96	11.940
477.31	12.673
477.66	12.434
478.01	12.354
478.36	12.114
478.70	12.069
479.05	12.372
479.40	11.254
479.75	12.104
480.10	11.890
480.45	11.987
480.79	12.336
481.14	11.903
481.49	11.995
481.84	11.749
482.19	12.301
482.53	12.068
482.88	12.229
483.23	11.739
483.58	11.397
483.92	11.835
484.27	11.981
484.62	11.964
484.97	11.936
485.31	11.088
485.66	11.369
486.01	11.043
486.36	10.638
486.70	10.517
487.05	10.796
487.40	10.727
487.75	11.094
488.09	11.327
488.44	11.313
488.79	12.175
489.13	11.984
489.48	11.573
489.83	11.992
490.17	11.300
490.52	11.905
490.87	12.225
491.22	11.958
491.56	11.988
491.91	11.906
492.26	12.116
492.60	12.024
492.95	12.242
493.30	11.923
493.64	12.790
493.99	11.667
494.34	12.369
494.68	11.606
495.03	12.775
495.37	12.561
495.72	11.020
496.07	12.182
496.41	11.626
496.76	12.093
497.11	11.805
497.45	12.171
497.80	12.750
498.14	11.701
498.49	12.224
498.84	12.797
499.18	12.101
499.53	12.870
499.87	12.088
500.22	12.199
500.56	11.741
500.91	12.174
501.26	12.727
501.60	12.196
501.95	13.200
502.29	12.462
502.64	12.768
502.98	12.856
503.33	12.311
503.67	12.211
504.02	12.391
504.36	12.824
504.71	12.632
505.06	12.278
505.40	12.797
505.75	12.614
506.09	12.615
506.44	12.396
506.78	13.165
507.13	12.771
507.47	12.838
507.82	12.879
508.16	12.380
508.51	12.002
508.85	12.187
509.19	12.838
509.54	13.064
509.88	12.579
510.23	13.405
510.57	13.243
510.92	13.014
511.26	12.458
511.61	12.506
511.95	12.787
512.30	12.358
512.64	12.944
512.98	13.057
513.33	13.256
513.67	13.514
514.02	13.337
514.36	13.555
514.70	13.594
515.05	12.878
515.39	13.701
515.74	13.945
516.08	13.735
516.42	14.443
516.77	13.302
517.11	12.635
517.46	13.309
517.80	13.469
518.14	13.547
518.49	13.557
518.83	14.050
519.17	12.924
519.52	14.308
519.86	13.516
520.20	13.738
520.55	13.855
520.89	13.345
521.23	13.568
521.58	14.011
521.92	13.484
522.26	13.230
522.61	14.120
522.95	13.956
523.29	13.851
523.64	14.013
523.98	13.976
524.32	13.983
524.66	13.717
525.01	13.080
525.35	14.187
525.69	13.457
526.04	13.892
526.38	14.080
526.72	14.014
527.06	13.607
527.41	13.878
527.75	14.667
528.09	14.050
528.43	13.203
528.78	13.295
529.12	13.245
529.46	13.603
529.80	13.730
530.15	14.145
530.49	13.938
530.83	14.463
531.17	14.098
531.51	13.237
531.86	13.882
532.20	14.573
532.54	13.585
532.88	14.545
533.22	13.494
533.57	14.253
533.91	14.590
534.25	13.793
534.59	13.218
534.93	12.677
535.27	13.577
535.62	13.872
535.96	13.713
536.30	13.984
536.64	14.835
536.98	14.822
537.32	13.765
537.66	14.660
538.01	14.562
538.35	13.276
538.69	13.522
539.03	14.040
539.37	13.958
539.71	13.754
540.05	14.388
540.39	13.447
540.73	13.418
541.07	13.795
541.42	13.881
541.76	13.523
542.10	13.390
542.44	13.581
542.78	13.990
543.12	13.290
543.46	13.675
543.80	13.789
544.14	13.824
544.48	14.421
544.82	14.004
545.16	13.536
545.50	13.721
545.84	13.962
546.18	14.877
546.52	13.439
546.86	14.277
547.20	13.804
547.54	14.232
547.88	13.261
548.22	13.216
548.56	13.517
548.90	13.373
549.24	14.225
549.58	13.628
549.92	13.776
550.26	14.175
550.60	14.550
550.94	14.424
551.28	14.521
551.62	14.690
551.96	14.045
552.30	14.595
552.64	14.188
552.98	13.225
553.32	14.148
553.66	13.826
554.00	14.250
554.34	14.157
554.68	14.138
555.02	14.455
555.36	13.412
555.69	14.734
556.03	13.052
556.37	14.268
556.71	14.902
557.05	13.994
557.39	14.200
557.73	14.003
558.07	14.040
558.41	14.419
558.75	14.266
559.08	14.823
559.42	13.512
559.76	14.654
560.10	15.003
560.44	14.116
560.78	14.188
561.12	13.362
561.45	13.990
561.79	13.553
562.13	14.479
562.47	13.379
562.81	14.430
563.15	13.952
563.48	14.916
563.82	14.268
564.16	13.022
564.50	13.528
564.84	13.569
565.17	14.529
565.51	14.097
565.85	14.133
566.19	13.018
566.52	13.751
566.86	14.148
567.20	13.703
567.54	12.374
567.88	13.099
568.21	13.340
568.55	12.806
568.89	13.709
569.23	13.435
569.56	12.700
569.90	12.687
570.24	12.681
570.57	11.963
570.91	11.543
571.25	12.034
571.59	12.357
571.92	11.834
572.26	12.017
572.60	12.039
572.93	12.163
573.27	12.223
573.61	12.255
573.95	11.848
574.28	11.796
574.62	11.460
574.96	11.557
575.29	11.655
575.63	11.296
575.97	11.880
576.30	11.966
576.64	11.453
576.98	11.731
577.31	11.301
577.65	11.618
577.98	11.126
578.32	11.546
578.66	11.270
578.99	11.407
579.33	11.227
579.67	11.582
580.00	11.463
580.34	11.627
580.67	11.275
581.01	11.359
581.35	11.709
581.68	11.269
582.02	11.596
582.35	11.230
582.69	11.238
583.02	11.418
583.36	11.193
583.70	11.475
584.03	11.255
584.37	11.503
584.70	11.614
585.04	11.486
585.37	11.268
585.71	11.629
586.04	11.449
586.38	11.583
586.72	11.331
587.05	11.640
587.39	11.493
587.72	11.818
588.06	11.847
588.39	12.123
588.73	11.614
589.06	11.653
589.40	12.446
589.73	12.179
590.07	12.268
590.40	12.847
590.73	12.337
591.07	12.695
591.40	12.519
591.74	12.560
592.07	12.992
592.41	12.224
592.74	12.212
593.08	12.707
593.41	12.278
593.75	12.155
594.08	12.420
594.41	12.179
594.75	12.521
595.08	11.844
595.42	12.338
595.75	12.044
596.09	12.775
596.42	12.218
596.75	12.814
597.09	13.333
597.42	12.753
597.75	12.466
598.09	12.540
598.42	13.229
598.76	12.342
599.09	12.567
599.42	12.169
599.76	11.885
600.09	12.613
600.42	12.179
600.76	12.417
601.09	12.081
601.42	12.221
601.76	11.966
602.09	12.616
602.42	12.214
602.76	12.731
603.09	12.225
603.42	12.825
603.76	11.452
604.09	13.023
604.42	12.550
604.76	12.861
605.09	12.405
605.42	13.118
605.75	11.885
606.09	12.393
606.42	12.039
606.75	11.882
607.09	12.212
607.42	12.640
607.75	13.169
608.08	12.786
608.42	12.696
608.75	12.645
609.08	12.606
609.41	13.013
609.75	12.366
610.08	12.313
610.41	12.404
610.74	12.227
611.07	12.744
611.41	13.587
611.74	13.118
612.07	12.903
612.40	12.357
612.73	13.056
613.07	13.301
613.40	13.667
613.73	12.374
614.06	12.856
614.39	13.460
614.72	13.586
615.06	13.234
615.39	13.195
615.72	13.412
616.05	12.433
616.38	13.320
616.71	13.062
617.05	13.472
617.38	13.697
617.71	13.931
618.04	13.654
618.37	14.590
618.70	13.009
619.03	13.202
619.36	13.748
619.69	13.645
620.03	13.999
620.36	12.638
620.69	13.448
621.02	13.976
621.35	15.022
621.68	15.329
622.01	14.947
622.34	13.389
622.67	13.058
623.00	12.686
623.33	15.129
623.66	14.527
623.99	13.693
624.32	14.750
624.65	12.741
624.99	13.719
625.32	14.043
625.65	14.363
625.98	13.898
626.31	13.891
626.64	14.066
626.97	14.254
627.30	12.908
627.63	14.779
627.96	15.315
628.29	14.786
628.62	15.197
628.95	14.023
629.28	14.528
629.61	13.805
629.94	14.728
630.26	14.153
630.59	15.371
630.92	15.065
631.25	14.848
631.58	16.478
631.91	14.902
632.24	14.121
632.57	15.844
632.90	15.346
633.23	15.918
633.56	15.816
633.89	15.186
634.22	15.904
634.55	15.762
634.88	16.667
635.20	17.223
635.53	14.915
635.86	16.901
636.19	16.437
636.52	16.034
636.85	15.628
637.18	15.904
637.51	15.914
637.83	17.940
638.16	16.705
638.49	16.549
638.82	16.911
639.15	14.891
639.48	16.628
639.81	16.051
640.13	17.668
640.46	14.545
640.79	15.931
641.12	16.894
641.45	17.566
641.77	18.742
642.10	17.979
642.43	17.287
642.76	17.751
643.09	18.219
643.41	16.667
643.74	16.828
644.07	17.517
644.40	15.559
644.73	17.417
645.05	16.300
645.38	16.547
645.71	18.475
646.04	18.508
646.36	17.080
646.69	17.945
647.02	19.266
647.35	17.252
647.67	18.357
648.00	17.357
648.33	18.619
648.66	17.118
648.98	16.871
649.31	17.185
649.64	16.866
649.96	16.976
650.29	13.908
650.62	15.134
650.94	15.616
651.27	16.617
651.60	16.228
651.92	17.629
652.25	16.643
652.58	17.607
652.90	16.570
653.23	15.775
653.56	16.976
653.88	18.539
654.21	15.775
654.54	16.185
654.86	17.422
655.19	14.304
655.52	13.727
655.84	10.713
656.17	12.919
656.49	18.080
656.82	20.183
657.15	15.456
657.47	11.390
657.80	8.287
658.13	6.700
658.45	8.874
658.78	10.861
659.10	10.773
659.43	11.251
659.75	11.593
660.08	12.661
660.41	15.219
660.73	14.481
661.06	15.859
661.38	17.065
661.71	19.828
662.03	17.989
662.36	18.962
662.68	18.386
663.01	17.522
663.33	19.093
663.66	18.681
663.98	18.269
664.31	18.011
664.63	16.185
664.96	18.149
665.28	17.241
665.61	19.056
665.93	17.321
666.26	18.996
666.58	16.605
666.91	21.121
667.23	18.476
667.56	19.329
667.88	18.200
668.21	17.969
668.53	16.216
668.86	19.646
669.18	16.293
669.50	17.694
669.83	19.000
670.15	19.094
670.48	17.857
670.80	16.444
671.13	18.526
671.45	16.535
671.77	19.397
672.10	16.500
672.42	17.638
672.75	15.515
673.07	15.224
673.39	15.100
673.72	16.779
674.04	18.103
674.37	19.141
674.69	18.519
675.01	17.714
675.34	14.695
675.66	17.603
675.98	16.045
676.31	16.797
676.63	20.913
676.95	20.690
677.28	18.952
677.60	15.551
677.92	18.426
678.25	19.744
678.57	18.861
678.89	19.454
679.22	15.854
679.54	17.778
679.86	16.780
680.18	18.242
680.51	16.352
680.83	16.039
681.15	16.724
681.48	18.653
681.80	19.171
682.12	16.434
682.44	17.195
682.77	16.667
683.09	16.856
683.41	17.829
683.73	18.786
684.06	17.528
684.38	15.385
684.70	17.774
685.02	18.589
685.34	16.306
685.67	14.984
685.99	14.571
686.31	16.715
686.63	15.956
686.96	18.139
687.28	15.961
687.60	14.310
687.92	15.434
688.24	18.197
688.56	16.034
688.89	15.971
689.21	15.068
689.53	14.902
689.85	13.018
690.17	15.000
690.49	16.135
690.82	14.851
691.14	13.360
691.46	16.635
691.78	17.127
692.10	16.697
692.42	16.250
692.74	15.789
693.06	13.889
693.39	17.647
693.71	17.481
694.03	17.286
694.35	16.190
694.67	16.838
694.99	15.745
695.31	16.556
695.63	17.532
695.95	19.048
696.27	16.703
696.59	22.124
696.91	18.468
697.23	18.901
697.56	17.108
697.88	17.803
698.20	15.819
698.52	18.561
698.84	16.840
699.16	19.796
699.48	15.481
699.80	14.255
700.12	17.031
700.44	17.972
700.76	15.914
701.08	19.128
701.40	15.544
701.72	19.900
702.04	20.588
702.36	15.183
702.68	15.403
703.00	20.049
703.32	16.749
703.64	17.115
703.96	17.184
704.28	12.285
704.60	22.025
704.91	18.878
705.23	20.274
705.55	16.992
705.87	19.697
706.19	18.712
706.51	17.169
706.83	15.274
707.15	17.725
707.47	17.290
707.79	14.192
708.11	13.347
708.43	14.839
708.74	15.402
709.06	16.241
709.38	20.657
709.70	19.851
710.02	16.021
710.34	18.351
710.66	15.642
710.98	19.945
711.29	17.582
711.61	21.186
711.93	18.519
712.25	16.757
712.57	20.059
712.89	19.118
713.20	15.385
713.52	17.341
713.84	19.499
714.16	22.105
714.48	18.041
714.80	20.000
715.11	15.223
715.43	17.241
715.75	20.000
716.07	17.127
716.39	16.667
716.70	13.855
717.02	20.656
717.34	16.725
717.66	19.128
717.97	18.493
718.29	18.557
718.61	20.724
718.93	18.447
719.24	21.118
719.56	19.018
719.88	21.021
720.20	20.000
720.51	20.186
720.83	19.375
721.15	17.763
721.46	16.438
721.78	18.667
722.10	18.123
722.42	19.463
722.73	19.032
723.05	21.053
723.37	20.139
723.68	16.129
724.00	22.383
724.32	17.254
724.63	18.182
724.95	23.759
725.27	20.209
725.58	17.668
725.90	22.069
726.22	19.749
726.53	19.481
726.85	17.296
727.16	19.637
727.48	22.630
727.80	20.530
728.11	15.548
728.43	16.498
728.74	13.712
729.06	17.219
729.38	17.532
729.69	18.121
730.01	16.964
730.32	17.576
730.64	16.981
730.96	13.354
731.27	19.274
731.59	21.978
731.90	14.545
732.22	15.365
732.53	12.155
732.85	16.000
733.16	17.009
733.48	14.024
733.80	18.384
734.11	17.094
734.43	15.135
734.74	19.241
735.06	14.322
735.37	17.297
735.69	14.865
736.00	18.644
736.32	16.981
736.63	18.333
736.95	15.230
737.26	19.697
737.58	18.485
737.89	18.235
738.21	14.067
738.52	14.098
738.83	21.160
739.15	15.248
739.46	15.646
739.78	18.712
740.09	18.625
740.41	21.866
740.72	17.333
741.04	17.799
741.35	21.754
741.66	21.569
741.98	22.541
742.29	18.828
742.61	14.912
742.92	16.923
743.23	20.578
743.55	17.054
743.86	17.600
744.18	18.595
744.49	19.831
744.80	20.988
745.12	20.675
745.43	20.325
745.74	21.121
746.06	19.915
746.37	18.143
746.68	21.545
747.00	20.417
747.31	21.030
747.62	18.462
747.94	18.623
748.25	17.671
748.56	19.184
748.88	17.094
749.19	26.293
749.50	17.316
749.82	20.080
750.13	20.641
750.44	11.000
750.75	21.538
751.07	18.462
751.38	11.987
751.69	15.655
752.01	16.181
752.32	19.281
752.63	18.367
752.94	18.685
753.26	13.383
753.57	17.037
753.88	15.356
754.19	17.363
754.51	16.077
754.82	20.579
755.13	21.311
755.44	21.502
755.75	18.750
756.07	19.403
756.38	15.409
756.69	16.867
757.00	12.742
757.31	16.940
757.63	13.811
757.94	15.962
758.25	16.479
758.56	14.597
758.87	16.136
759.18	14.133
759.50	17.564
759.81	20.728
760.12	14.825
760.43	15.365
760.74	16.749
761.05	16.000
761.36	14.699
761.67	15.228
761.99	15.676
762.30	16.159
762.61	15.842
762.92	15.299
763.23	16.854
763.54	17.986
763.85	17.869
764.16	18.855
764.47	19.014
764.78	14.696
765.10	16.422
765.41	19.744
765.72	13.757
766.03	15.537
766.34	16.928
766.65	18.467
766.96	15.538
767.27	18.894
767.58	17.910
767.89	22.115
768.20	20.188
768.51	20.833
768.82	17.269
769.13	16.288
769.44	15.385
769.75	21.300
770.06	19.231
770.37	20.079
770.68	12.766
770.99	14.575
771.30	22.593
771.61	17.490
771.92	16.296
772.23	20.648
772.54	16.667
772.85	28.571
773.16	20.952
773.47	16.931
773.78	17.838
774.09	24.432
774.39	20.500
774.70	26.230
775.01	20.122
775.32	15.882
775.63	20.245
775.94	17.834
776.25	23.871
776.56	25.000
776.87	23.129
777.18	25.517
777.48	22.378
777.79	17.568
778.10	16.176
778.41	23.611
778.72	24.138
779.03	22.840
779.34	23.636
779.65	21.762
779.95	23.889
780.26	15.341
780.57	23.226
780.88	26.812
781.19	29.032
781.50	27.059
781.80	25.269
782.11	25.397
782.42	20.202
782.73	14.970
783.04	22.346
783.34	13.939
783.65	16.340
783.96	20.497
784.27	11.905
784.57	23.179
784.88	24.286
785.19	19.685
785.50	22.835
785.81	19.549
786.11	27.692
786.42	23.741
786.73	21.583
787.04	29.323
787.34	18.033
787.65	22.400
787.96	20.149
788.26	28.671
788.57	29.371
788.88	25.658
789.19	21.569
789.49	26.712
789.80	18.440
790.11	27.559
790.41	25.000
790.72	23.729
791.03	22.330
791.33	30.435
791.64	21.053
791.95	32.143
792.25	31.429
792.56	32.143
792.87	32.292
793.17	30.357
793.48	31.250
793.79	13.253
794.09	27.523
794.40	24.771
794.70	24.490
795.01	20.130
795.32	20.548
795.62	22.535
795.93	20.455
796.23	30.328
796.54	19.643
796.85	26.596
797.15	27.174
797.46	34.247
797.76	35.000
798.07	38.043
798.37	16.495
798.68	22.078
798.99	29.885
799.29	33.708
799.60	31.915
799.90	22.892
800.21	41.538
800.51	29.851
800.82	29.412
801.12	31.507
801.43	8.824
801.73	28.814
802.04	28.788
802.34	23.333
802.65	27.119
802.95	35.821
803.26	27.119
803.56	27.397
803.87	34.286
804.17	41.096
804.48	31.579
804.78	36.111
805.09	24.138
805.39	35.135
805.70	22.535
806.00	34.146
806.30	28.916
806.61	34.247
806.91	28.846
807.22	26.667
807.52	17.241
807.83	30.556
808.13	44.578
808.43	25.843
808.74	22.500
809.04	25.000
809.35	33.333
809.65	42.857
809.95	38.356
810.26	42.105
810.56	41.379
810.86	41.176
811.17	31.579
811.47	31.148
811.77	17.778
812.08	33.898
812.38	40.000
812.69	50.000
812.99	35.849
813.29	38.462
813.59	62.000
813.90	52.632
814.20	45.455
814.50	42.254
814.81	46.154
815.11	44.262
815.41	44.776
815.72	46.552
816.02	30.357
816.32	48.889
816.62	52.273
816.93	26.667
817.23	40.741
817.53	40.426
817.84	80.952
818.14	26.471
818.44	48.980
818.74	53.333
819.04	35.897
819.35	51.429
819.65	42.308
819.95	56.604
820.25	53.333
820.56	35.714
820.86	81.250
821.16	64.103
821.46	32.558
821.76	32.000
822.07	33.929
822.37	41.304
822.67	40.426
822.97	-2.703
823.27	55.000
823.57	44.898
823.88	68.889
824.18	62.500
824.48	53.333
824.78	76.000
825.08	78.788
825.38	60.000
825.69	78.723
825.99	27.778
826.29	48.571
826.59	61.538
826.89	23.256
827.19	42.000
827.49	44.118
827.79	41.667
828.09	18.919
828.39	70.000
828.70	21.951
829.00	34.884
829.30	64.286
829.60	58.824
829.90	28.261
830.20	48.571
830.50	75.862
830.80	22.222
831.10	30.769
831.40	70.588
831.70	95.238
832.00	83.871
832.30	0.000
832.60	87.500
832.90	61.538
833.20	121.053
833.50	75.000
833.80	73.684
834.10	42.857
834.40	50.000
834.70	84.375
835.00	37.143
835.30	41.176
835.60	53.333
835.90	76.000
836.20	40.909
836.50	76.000
836.80	72.727
837.10	55.556
837.40	55.556
837.70	56.250
838.00	71.429
838.30	65.217
838.60	48.276
838.90	135.714
839.19	43.478
839.49	166.667
839.79	82.609
840.09	87.500
840.39	120.000
840.69	61.290
840.99	57.143
841.29	146.667
841.59	78.947
841.88	94.872
842.18	53.846
842.48	220.000
842.78	80.000
843.08	70.000
843.38	80.645
843.68	33.333
843.97	79.412
844.27	87.500
844.57	68.421
844.87	30.000
845.17	26.667
845.47	109.524
845.76	19.048
846.06	188.889
846.36	52.941
846.66	38.462
846.96	60.000
847.25	135.294
847.55	65.217
847.85	90.000
848.15	129.412
848.44	45.455
848.74	147.619
849.04	45.833
849.34	93.750
849.63	95.652
849.93	-100.000
850.23	100.000
850.53	61.538
850.82	118.182
851.12	122.727
851.42	72.727
851.71	138.462
852.01	75.000
852.31	92.308
852.61	47.368
852.90	200.000
853.20	77.778
853.50	-88.889
853.79	109.524
854.09	100.000
854.39	0.000
854.68	67.742
854.98	53.846
855.28	116.667
855.57	50.000
855.87	76.000
856.17	95.455
856.46	62.963
856.76	100.000
857.05	39.130
857.35	70.833
857.65	30.769
857.94	114.286
858.24	48.148
858.53	113.043
858.83	58.824
859.13	58.824
859.42	111.765
859.72	100.000
860.01	65.000
860.31	122.222
860.60	70.000
860.90	106.667
861.20	100.000
861.49	153.846
861.79	70.000
862.08	7.692
862.38	103.125
862.67	147.059
862.97	68.750
863.26	111.111
863.56	260.000
863.85	136.364
864.15	66.667
864.44	400.000
864.74	92.857
865.03	93.750
865.33	90.000
865.62	22.581
865.92	81.818
866.21	69.565
866.51	114.286
866.80	80.000
867.10	141.667
867.39	83.333
867.69	-1500.000
867.98	385.714
868.27	135.294
868.57	300.000
868.86	70.000
869.16	71.429
869.45	104.167
869.75	236.364
870.04	300.000
870.33	158.333
870.63	271.429
870.92	425.000
871.22	87.500
871.51	200.000
871.80	200.000
872.10	600.000
>>>>>End Processed Spectral Data<<<<<
