SpectraSuite Data File
++++++++++++++++++++++++++++++++++++
Date: Thu May 14 15:02:33 PDT 2015
User: schluterlab
Dark Spectrum Present: Yes
Reference Spectrum Present: Yes
Number of Sampled Component Spectra: 1
Spectrometers: USB2E3373
Integration Time (usec): 3000 (USB2E3373)
Spectra Averaged: 3 (USB2E3373)
Boxcar Smoothing: 0 (USB2E3373)
Correct for Electrical Dark: No (USB2E3373)
Strobe/Lamp Enabled: No (USB2E3373)
Correct for Detector Non-linearity: No (USB2E3373)
Correct for Stray Light: No (USB2E3373)
Number of Pixels in Processed Spectrum: 2048
>>>>>Begin Processed Spectral Data<<<<<
178.53	0.000
178.91	285.714
179.29	-3400.000
179.67	-3200.000
180.04	285.714
180.42	270.000
180.80	520.000
181.18	-3000.000
181.56	-1700.000
181.94	325.000
182.31	-450.000
182.69	833.333
183.07	-650.000
183.45	575.000
183.83	-433.333
184.20	-633.333
184.58	2200.000
184.96	-800.000
185.34	-188.889
185.72	-400.000
186.09	344.444
186.47	1250.000
186.85	560.000
187.23	-222.222
187.61	-2600.000
187.98	540.000
188.36	725.000
188.74	-600.000
189.12	-500.000
189.49	-143.750
189.87	-337.500
190.25	-233.333
190.63	-400.000
191.00	-377.778
191.38	0.000
191.76	-1000.000
192.14	-466.667
192.51	800.000
192.89	-383.333
193.27	0.000
193.65	-300.000
194.02	-3000.000
194.40	-328.571
194.78	328.571
195.15	0.000
195.53	-190.909
195.91	0.000
196.29	-475.000
196.66	-115.385
197.04	-3600.000
197.42	-257.143
197.79	-1100.000
198.17	-175.000
198.55	-428.571
198.92	-233.333
199.30	-300.000
199.68	-200.000
200.05	-142.857
200.43	-1400.000
200.81	500.000
201.18	0.000
201.56	477.778
201.94	0.000
202.31	1133.333
202.69	-288.889
203.07	2300.000
203.44	-222.222
203.82	-550.000
204.19	-100.000
204.57	-233.333
204.95	-337.500
205.32	-3000.000
205.70	800.000
206.08	-450.000
206.45	-316.667
206.83	520.000
207.20	-316.667
207.58	-500.000
207.96	-366.667
208.33	-250.000
208.71	208.333
209.08	-216.667
209.46	0.000
209.84	483.333
210.21	1150.000
210.59	1350.000
210.96	900.000
211.34	-575.000
211.71	-237.500
212.09	-2700.000
212.46	0.000
212.84	1400.000
213.22	-540.000
213.59	-550.000
213.97	-250.000
214.34	-933.333
214.72	466.667
215.09	-650.000
215.47	0.000
215.84	371.429
216.22	1400.000
216.59	-420.000
216.97	-480.000
217.34	-525.000
217.72	-275.000
218.09	-375.000
218.47	-475.000
218.84	0.000
219.22	480.000
219.59	-111.765
219.97	-110.000
220.34	1300.000
220.72	-244.444
221.09	-130.769
221.47	-666.667
221.84	-330.000
222.22	-500.000
222.59	0.000
222.97	-212.500
223.34	-260.000
223.72	-1500.000
224.09	-575.000
224.46	-750.000
224.84	-320.000
225.21	-471.429
225.59	-700.000
225.96	-550.000
226.34	-50.000
226.71	566.667
227.08	-1050.000
227.46	-93.333
227.83	-475.000
228.21	-115.789
228.58	400.000
228.95	1350.000
229.33	-133.333
229.70	-160.000
230.08	-52.632
230.45	320.000
230.82	-833.333
231.20	-142.857
231.57	-116.667
231.95	-200.000
232.32	-118.182
232.69	-70.000
233.07	-500.000
233.44	-129.412
233.81	-250.000
234.19	-111.111
234.56	-90.909
234.93	-41.379
235.31	-100.000
235.68	-161.111
236.05	-105.000
236.43	-46.154
236.80	-60.000
237.17	-66.667
237.55	-51.515
237.92	-330.000
238.29	-67.742
238.67	-45.455
239.04	-50.000
239.41	-47.619
239.79	-47.826
240.16	-40.741
240.53	-41.304
240.91	-54.902
241.28	-21.311
241.65	-13.433
242.02	-10.811
242.40	-29.231
242.77	-20.000
243.14	-20.732
243.51	-21.053
243.89	-21.795
244.26	-1.980
244.63	-8.824
245.00	-10.280
245.38	-8.772
245.75	-27.434
246.12	-4.762
246.49	-10.078
246.87	-2.143
247.24	-1.325
247.61	-1.974
247.98	-9.396
248.36	-6.173
248.73	-6.135
249.10	-7.104
249.47	1.990
249.84	0.000
250.22	-1.554
250.59	-2.222
250.96	1.364
251.33	-2.551
251.70	4.274
252.08	0.417
252.45	3.689
252.82	-1.653
253.19	-2.734
253.56	0.000
253.94	0.385
254.31	-1.136
254.68	4.545
255.05	3.909
255.42	2.721
255.79	0.324
256.16	-0.331
256.54	-1.987
256.91	-0.328
257.28	0.656
257.65	-2.866
258.02	-0.590
258.39	1.140
258.76	4.281
259.14	2.586
259.51	3.170
259.88	1.700
260.25	1.389
260.62	3.562
260.99	3.005
261.36	3.753
261.73	2.918
262.10	-0.824
262.47	1.877
262.85	3.788
263.22	-0.260
263.59	-1.842
263.96	2.046
264.33	-0.767
264.70	2.469
265.07	0.239
265.44	6.803
265.81	2.315
266.18	2.494
266.55	1.786
266.92	-0.456
267.29	5.689
267.66	4.435
268.03	3.057
268.40	4.384
268.77	-1.139
269.14	-1.322
269.51	1.754
269.88	4.303
270.25	2.012
270.62	3.797
270.99	6.465
271.36	5.545
271.73	3.733
272.10	5.210
272.47	1.603
272.84	4.016
273.21	4.208
273.58	3.831
273.95	3.462
274.32	1.331
274.69	2.321
275.06	5.495
275.43	1.479
275.80	5.291
276.17	2.222
276.54	1.306
276.91	2.147
277.28	3.255
277.65	3.591
278.02	2.757
278.39	2.355
278.76	2.285
279.13	1.596
279.50	2.234
279.87	1.789
280.23	1.408
280.60	4.237
280.97	2.796
281.34	3.905
281.71	5.415
282.08	2.990
282.45	0.655
282.82	2.198
283.19	2.585
283.56	2.951
283.92	5.556
284.29	6.635
284.66	4.433
285.03	1.763
285.40	2.937
285.77	3.251
286.14	5.954
286.51	3.957
286.87	3.002
287.24	4.217
287.61	4.036
287.98	2.115
288.35	3.846
288.72	4.586
289.08	3.953
289.45	5.473
289.82	4.367
290.19	4.598
290.56	5.352
290.93	4.850
291.29	4.408
291.66	4.683
292.03	4.071
292.40	6.667
292.77	4.852
293.13	4.601
293.50	5.388
293.87	4.295
294.24	6.000
294.60	5.563
294.97	3.758
295.34	7.810
295.71	6.053
296.08	6.977
296.44	4.289
296.81	4.385
297.18	5.230
297.55	5.189
297.91	5.813
298.28	5.924
298.65	5.232
299.02	5.785
299.38	6.636
299.75	6.308
300.12	6.134
300.48	7.028
300.85	6.524
301.22	7.047
301.59	5.708
301.95	6.554
302.32	7.889
302.69	6.791
303.05	7.291
303.42	7.206
303.79	6.771
304.15	7.256
304.52	6.448
304.89	7.435
305.25	6.418
305.62	7.732
305.99	6.907
306.35	7.560
306.72	7.446
307.09	7.614
307.45	9.006
307.82	7.366
308.19	8.678
308.55	9.450
308.92	8.763
309.29	8.429
309.65	8.285
310.02	7.921
310.38	8.366
310.75	8.252
311.12	9.875
311.48	7.918
311.85	9.877
312.22	8.444
312.58	9.390
312.95	8.795
313.31	9.214
313.68	9.615
314.05	11.111
314.41	10.200
314.78	10.445
315.14	10.889
315.51	10.988
315.87	11.251
316.24	10.046
316.61	10.568
316.97	9.683
317.34	9.877
317.70	11.092
318.07	11.376
318.43	11.224
318.80	12.542
319.16	12.361
319.53	10.540
319.89	10.167
320.26	12.011
320.62	11.613
320.99	11.450
321.35	12.107
321.72	14.512
322.08	12.534
322.45	12.737
322.81	13.087
323.18	12.832
323.54	12.759
323.91	13.345
324.27	13.769
324.64	15.785
325.00	13.599
325.37	14.660
325.73	15.785
326.10	15.815
326.46	16.775
326.83	17.774
327.19	17.402
327.56	17.866
327.92	17.939
328.29	16.935
328.65	17.923
329.01	17.174
329.38	19.798
329.74	19.178
330.11	19.521
330.47	19.545
330.84	20.327
331.20	21.000
331.56	21.837
331.93	21.172
332.29	21.610
332.66	21.013
333.02	21.106
333.38	20.805
333.75	22.138
334.11	22.435
334.48	20.545
334.84	21.920
335.20	21.998
335.57	22.513
335.93	22.562
336.29	21.963
336.66	21.615
337.02	21.906
337.38	22.194
337.75	22.149
338.11	23.297
338.47	22.167
338.84	22.166
339.20	21.230
339.56	21.746
339.93	22.085
340.29	21.095
340.65	22.060
341.02	22.586
341.38	22.070
341.74	21.630
342.11	22.446
342.47	21.287
342.83	22.786
343.20	22.404
343.56	21.973
343.92	22.738
344.28	21.953
344.65	22.016
345.01	22.309
345.37	22.240
345.73	20.577
346.10	22.231
346.46	22.073
346.82	22.397
347.19	21.925
347.55	22.458
347.91	22.511
348.27	22.382
348.63	21.782
349.00	22.521
349.36	22.900
349.72	22.173
350.08	23.254
350.45	23.574
350.81	22.474
351.17	22.256
351.53	23.351
351.89	23.007
352.26	22.388
352.62	21.642
352.98	21.603
353.34	21.509
353.70	22.727
354.07	22.057
354.43	21.944
354.79	22.588
355.15	22.443
355.51	22.807
355.87	22.513
356.24	22.281
356.60	22.764
356.96	23.128
357.32	22.974
357.68	22.401
358.04	22.156
358.40	21.791
358.77	23.099
359.13	21.123
359.49	22.379
359.85	23.060
360.21	22.238
360.57	22.685
360.93	22.496
361.29	23.298
361.66	22.230
362.02	23.382
362.38	23.190
362.74	22.905
363.10	23.796
363.46	23.199
363.82	23.366
364.18	23.434
364.54	23.513
364.90	22.876
365.26	22.690
365.62	24.467
365.98	22.737
366.35	24.497
366.71	22.857
367.07	22.598
367.43	24.032
367.79	24.088
368.15	23.077
368.51	24.222
368.87	22.600
369.23	23.400
369.59	23.702
369.95	24.611
370.31	24.105
370.67	23.659
371.03	24.307
371.39	24.513
371.75	24.347
372.11	23.374
372.47	24.035
372.83	25.196
373.19	24.283
373.55	23.577
373.91	23.995
374.27	23.739
374.63	24.357
374.99	24.271
375.35	25.974
375.71	23.548
376.07	25.629
376.42	25.441
376.78	25.855
377.14	25.203
377.50	24.668
377.86	25.369
378.22	26.347
378.58	24.792
378.94	25.235
379.30	25.542
379.66	25.926
380.02	25.678
380.38	26.555
380.74	25.859
381.09	26.307
381.45	27.102
381.81	26.288
382.17	27.316
382.53	26.316
382.89	26.749
383.25	27.374
383.61	26.215
383.97	27.739
384.32	27.931
384.68	26.450
385.04	26.663
385.40	26.871
385.76	28.546
386.12	26.810
386.48	28.529
386.83	28.248
387.19	27.810
387.55	27.876
387.91	28.082
388.27	28.406
388.62	28.809
388.98	28.144
389.34	28.580
389.70	29.634
390.06	27.827
390.42	28.855
390.77	29.199
391.13	27.993
391.49	29.106
391.85	29.394
392.20	29.004
392.56	29.770
392.92	29.008
393.28	28.358
393.64	27.989
393.99	29.053
394.35	28.797
394.71	29.521
395.07	28.383
395.42	28.098
395.78	29.129
396.14	29.471
396.50	29.394
396.85	28.742
397.21	29.290
397.57	28.857
397.92	29.553
398.28	28.843
398.64	28.719
399.00	28.168
399.35	29.110
399.71	29.620
400.07	29.534
400.42	29.453
400.78	29.803
401.14	29.141
401.49	29.164
401.85	30.349
402.21	29.606
402.57	30.810
402.92	28.664
403.28	28.981
403.63	28.640
403.99	28.504
404.35	28.994
404.70	28.895
405.06	28.859
405.42	29.450
405.77	30.153
406.13	28.849
406.49	29.505
406.84	29.474
407.20	29.122
407.55	29.376
407.91	28.473
408.27	29.682
408.62	29.029
408.98	29.367
409.34	28.915
409.69	29.975
410.05	28.312
410.40	29.640
410.76	28.603
411.11	29.340
411.47	29.115
411.83	30.159
412.18	28.675
412.54	28.334
412.89	29.220
413.25	28.442
413.60	28.374
413.96	28.613
414.31	28.725
414.67	28.742
415.03	28.862
415.38	29.445
415.74	28.894
416.09	29.056
416.45	27.927
416.80	28.274
417.16	30.013
417.51	28.643
417.87	29.246
418.22	28.982
418.58	28.810
418.93	29.395
419.29	30.086
419.64	29.292
420.00	29.258
420.35	29.029
420.71	28.604
421.06	28.465
421.42	29.071
421.77	28.541
422.12	28.594
422.48	28.930
422.83	29.901
423.19	29.125
423.54	29.425
423.90	29.431
424.25	29.333
424.61	28.416
424.96	28.666
425.31	28.928
425.67	28.610
426.02	29.330
426.38	29.104
426.73	28.795
427.09	29.642
427.44	28.454
427.79	29.906
428.15	28.653
428.50	28.258
428.85	29.334
429.21	29.415
429.56	28.578
429.92	28.747
430.27	28.771
430.62	29.018
430.98	28.972
431.33	28.886
431.68	28.544
432.04	29.050
432.39	29.566
432.74	29.566
433.10	29.692
433.45	28.930
433.80	28.648
434.16	29.545
434.51	28.571
434.86	29.967
435.22	29.330
435.57	29.658
435.92	29.883
436.28	29.238
436.63	29.383
436.98	27.966
437.34	29.932
437.69	28.949
438.04	29.508
438.39	29.466
438.75	28.334
439.10	29.968
439.45	29.402
439.81	28.814
440.16	28.257
440.51	29.153
440.86	28.627
441.22	29.100
441.57	29.350
441.92	29.195
442.27	30.000
442.63	28.316
442.98	29.883
443.33	30.142
443.68	28.940
444.03	29.680
444.39	29.404
444.74	29.862
445.09	29.295
445.44	29.874
445.79	30.029
446.15	30.524
446.50	29.664
446.85	29.621
447.20	29.449
447.55	29.812
447.91	29.372
448.26	28.541
448.61	29.330
448.96	29.828
449.31	28.844
449.66	29.248
450.02	29.219
450.37	29.409
450.72	28.794
451.07	29.499
451.42	29.405
451.77	28.849
452.12	29.233
452.47	28.996
452.83	30.068
453.18	29.013
453.53	27.685
453.88	28.382
454.23	29.322
454.58	30.064
454.93	28.519
455.28	29.440
455.63	29.051
455.98	29.497
456.34	29.034
456.69	28.513
457.04	28.783
457.39	28.880
457.74	29.362
458.09	28.940
458.44	29.364
458.79	29.551
459.14	29.680
459.49	30.390
459.84	29.958
460.19	28.928
460.54	29.756
460.89	29.487
461.24	28.851
461.59	30.216
461.94	28.865
462.29	29.899
462.64	29.692
462.99	29.818
463.34	29.916
463.69	29.367
464.04	30.295
464.39	29.036
464.74	29.304
465.09	28.835
465.44	30.150
465.79	29.561
466.14	28.765
466.49	29.316
466.84	29.477
467.19	29.595
467.54	28.143
467.89	28.161
468.24	30.083
468.59	29.299
468.94	29.021
469.29	29.274
469.64	28.862
469.99	29.254
470.34	29.270
470.68	29.255
471.03	28.946
471.38	28.842
471.73	28.934
472.08	30.076
472.43	28.657
472.78	29.219
473.13	29.204
473.48	29.668
473.83	30.180
474.17	29.074
474.52	30.126
474.87	29.956
475.22	29.577
475.57	28.712
475.92	29.318
476.27	29.180
476.61	28.972
476.96	28.728
477.31	29.950
477.66	30.640
478.01	29.792
478.36	28.066
478.70	29.409
479.05	29.499
479.40	29.714
479.75	29.875
480.10	29.417
480.45	29.672
480.79	28.980
481.14	29.825
481.49	29.032
481.84	29.069
482.19	29.677
482.53	30.039
482.88	30.572
483.23	30.102
483.58	29.825
483.92	29.078
484.27	29.636
484.62	29.744
484.97	29.666
485.31	29.391
485.66	27.491
486.01	27.165
486.36	28.746
486.70	30.941
487.05	31.597
487.40	30.717
487.75	30.585
488.09	30.347
488.44	29.377
488.79	30.185
489.13	29.327
489.48	28.699
489.83	28.209
490.17	29.648
490.52	29.146
490.87	29.653
491.22	29.549
491.56	29.608
491.91	30.397
492.26	29.511
492.60	29.952
492.95	30.584
493.30	29.225
493.64	29.873
493.99	29.386
494.34	28.659
494.68	29.122
495.03	30.088
495.37	29.960
495.72	29.569
496.07	30.149
496.41	28.958
496.76	29.108
497.11	29.554
497.45	29.219
497.80	29.409
498.14	29.070
498.49	29.779
498.84	29.570
499.18	28.610
499.53	29.417
499.87	29.275
500.22	29.475
500.56	29.645
500.91	29.428
501.26	29.864
501.60	29.474
501.95	29.744
502.29	30.233
502.64	29.733
502.98	29.292
503.33	28.769
503.67	29.394
504.02	29.028
504.36	30.340
504.71	29.904
505.06	29.377
505.40	29.936
505.75	29.781
506.09	29.880
506.44	29.434
506.78	30.550
507.13	29.829
507.47	29.986
507.82	30.114
508.16	29.254
508.51	29.723
508.85	30.326
509.19	30.412
509.54	30.788
509.88	30.452
510.23	31.034
510.57	30.691
510.92	29.947
511.26	29.582
511.61	29.503
511.95	29.819
512.30	31.364
512.64	29.685
512.98	30.365
513.33	30.393
513.67	30.291
514.02	31.017
514.36	30.946
514.70	31.094
515.05	31.804
515.39	30.656
515.74	31.124
516.08	30.586
516.42	31.763
516.77	30.231
517.11	30.634
517.46	30.965
517.80	31.320
518.14	31.610
518.49	30.857
518.83	30.761
519.17	30.479
519.52	30.241
519.86	30.940
520.20	30.777
520.55	30.340
520.89	30.574
521.23	30.653
521.58	32.599
521.92	32.408
522.26	31.730
522.61	31.076
522.95	30.681
523.29	30.345
523.64	31.278
523.98	31.603
524.32	32.722
524.66	31.531
525.01	30.521
525.35	30.385
525.69	30.568
526.04	30.769
526.38	32.414
526.72	30.334
527.06	32.434
527.41	30.904
527.75	31.116
528.09	31.346
528.43	30.669
528.78	31.040
529.12	30.046
529.46	30.916
529.80	31.979
530.15	30.899
530.49	31.198
530.83	31.169
531.17	30.824
531.51	31.649
531.86	31.611
532.20	30.488
532.54	31.538
532.88	31.152
533.22	30.348
533.57	30.698
533.91	30.976
534.25	31.034
534.59	31.379
534.93	32.145
535.27	31.155
535.62	31.893
535.96	30.564
536.30	31.199
536.64	31.111
536.98	31.796
537.32	31.975
537.66	31.379
538.01	30.514
538.35	30.451
538.69	30.349
539.03	31.147
539.37	31.095
539.71	30.931
540.05	30.995
540.39	31.418
540.73	30.480
541.07	31.637
541.42	31.305
541.76	30.486
542.10	31.303
542.44	30.268
542.78	30.474
543.12	30.453
543.46	31.441
543.80	29.736
544.14	30.880
544.48	31.206
544.82	31.119
545.16	31.187
545.50	30.318
545.84	30.802
546.18	31.358
546.52	30.828
546.86	30.755
547.20	31.489
547.54	29.900
547.88	31.163
548.22	30.058
548.56	30.252
548.90	30.985
549.24	30.274
549.58	31.230
549.92	30.485
550.26	30.680
550.60	30.568
550.94	31.565
551.28	30.099
551.62	31.536
551.96	30.227
552.30	31.867
552.64	30.367
552.98	30.880
553.32	31.318
553.66	30.997
554.00	30.391
554.34	30.631
554.68	29.567
555.02	30.946
555.36	30.638
555.69	28.956
556.03	30.391
556.37	31.977
556.71	30.628
557.05	30.351
557.39	30.325
557.73	30.317
558.07	30.199
558.41	30.365
558.75	30.967
559.08	31.037
559.42	30.247
559.76	30.393
560.10	30.007
560.44	31.003
560.78	30.062
561.12	30.973
561.45	31.204
561.79	29.915
562.13	31.177
562.47	29.162
562.81	30.253
563.15	30.114
563.48	31.200
563.82	30.351
564.16	30.951
564.50	30.572
564.84	30.383
565.17	30.765
565.51	29.862
565.85	29.632
566.19	29.608
566.52	30.369
566.86	30.334
567.20	28.874
567.54	29.421
567.88	29.867
568.21	29.694
568.55	30.168
568.89	29.823
569.23	30.165
569.56	28.761
569.90	29.651
570.24	29.005
570.57	29.666
570.91	28.873
571.25	29.100
571.59	29.196
571.92	29.025
572.26	28.692
572.60	28.638
572.93	28.416
573.27	28.828
573.61	29.063
573.95	28.089
574.28	28.218
574.62	28.672
574.96	27.989
575.29	27.980
575.63	28.529
575.97	28.048
576.30	28.275
576.64	28.132
576.98	27.927
577.31	28.296
577.65	28.333
577.98	27.880
578.32	28.222
578.66	27.648
578.99	28.036
579.33	28.568
579.67	27.833
580.00	28.568
580.34	27.989
580.67	27.913
581.01	28.235
581.35	27.801
581.68	27.737
582.02	27.915
582.35	28.297
582.69	28.344
583.02	28.200
583.36	28.445
583.70	28.107
584.03	28.318
584.37	28.487
584.70	27.971
585.04	27.552
585.37	27.464
585.71	27.228
586.04	27.719
586.38	28.018
586.72	27.601
587.05	27.859
587.39	27.524
587.72	28.469
588.06	28.482
588.39	28.205
588.73	27.487
589.06	27.652
589.40	28.396
589.73	27.442
590.07	28.316
590.40	28.634
590.73	28.455
591.07	28.332
591.40	28.033
591.74	27.862
592.07	28.908
592.41	28.076
592.74	27.228
593.08	28.344
593.41	27.676
593.75	27.529
594.08	28.234
594.41	28.045
594.75	27.499
595.08	27.894
595.42	27.987
595.75	27.801
596.09	28.092
596.42	28.019
596.75	28.136
597.09	28.202
597.42	27.453
597.75	27.832
598.09	28.175
598.42	29.152
598.76	27.130
599.09	27.056
599.42	26.886
599.76	26.609
600.09	28.195
600.42	27.661
600.76	27.741
601.09	27.116
601.42	27.669
601.76	28.241
602.09	27.913
602.42	27.336
602.76	27.196
603.09	27.570
603.42	27.493
603.76	28.013
604.09	28.389
604.42	28.183
604.76	27.397
605.09	27.403
605.42	27.552
605.75	27.269
606.09	27.100
606.42	26.888
606.75	27.099
607.09	27.458
607.42	27.630
607.75	27.550
608.08	27.506
608.42	27.247
608.75	28.151
609.08	26.443
609.41	27.525
609.75	27.098
610.08	27.485
610.41	26.805
610.74	27.353
611.07	27.842
611.41	28.655
611.74	28.268
612.07	27.583
612.40	26.806
612.73	27.384
613.07	27.531
613.40	28.056
613.73	27.443
614.06	27.331
614.39	27.357
614.72	26.686
615.06	26.853
615.39	26.776
615.72	26.682
616.05	28.218
616.38	27.649
616.71	27.429
617.05	26.092
617.38	27.501
617.71	27.538
618.04	27.361
618.37	27.705
618.70	27.885
619.03	27.300
619.36	26.942
619.69	27.611
620.03	26.930
620.36	26.258
620.69	27.020
621.02	28.018
621.35	28.302
621.68	28.706
622.01	27.402
622.34	27.057
622.67	27.560
623.00	26.923
623.33	27.538
623.66	27.691
623.99	27.452
624.32	28.330
624.65	26.963
624.99	28.023
625.32	28.805
625.65	27.849
625.98	26.780
626.31	28.136
626.64	28.645
626.97	27.607
627.30	27.259
627.63	29.482
627.96	28.303
628.29	28.482
628.62	27.120
628.95	28.221
629.28	27.528
629.61	27.525
629.94	28.619
630.26	27.373
630.59	28.066
630.92	27.706
631.25	29.428
631.58	29.473
631.91	30.272
632.24	27.666
632.57	27.704
632.90	28.686
633.23	27.245
633.56	28.571
633.89	27.789
634.22	29.314
634.55	30.167
634.88	28.896
635.20	29.064
635.53	29.718
635.86	28.386
636.19	27.784
636.52	28.586
636.85	27.171
637.18	29.834
637.51	29.462
637.83	28.239
638.16	28.687
638.49	26.878
638.82	27.508
639.15	28.064
639.48	28.522
639.81	28.406
640.13	29.682
640.46	28.121
640.79	26.961
641.12	28.075
641.45	28.733
641.77	28.498
642.10	28.478
642.43	27.660
642.76	28.997
643.09	28.356
643.41	29.412
643.74	27.586
644.07	28.138
644.40	27.157
644.73	27.141
645.05	29.956
645.38	28.489
645.71	26.540
646.04	30.416
646.36	25.985
646.69	29.294
647.02	29.052
647.35	27.939
647.67	28.180
648.00	27.707
648.33	29.279
648.66	26.391
648.98	26.939
649.31	28.146
649.64	26.826
649.96	27.851
650.29	26.565
650.62	25.743
650.94	28.228
651.27	28.144
651.60	27.193
651.92	27.812
652.25	27.207
652.58	28.198
652.90	27.180
653.23	28.169
653.56	26.961
653.88	30.197
654.21	27.465
654.54	26.445
654.86	27.479
655.19	25.471
655.52	28.013
655.84	26.290
656.17	30.410
656.49	42.280
656.82	46.356
657.15	36.361
657.47	28.047
657.80	20.916
658.13	16.182
658.45	21.660
658.78	25.747
659.10	25.012
659.43	24.117
659.75	23.510
660.08	22.521
660.41	22.911
660.73	24.287
661.06	24.376
661.38	25.199
661.71	26.724
662.03	28.395
662.36	28.623
662.68	28.143
663.01	26.018
663.33	29.301
663.66	28.571
663.98	27.500
664.31	29.456
664.63	24.663
664.96	26.679
665.28	26.134
665.61	29.021
665.93	27.679
666.26	27.240
666.58	25.092
666.91	28.037
667.23	29.333
667.56	27.811
667.88	27.800
668.21	25.977
668.53	27.992
668.86	28.291
669.18	25.255
669.50	26.441
669.83	25.000
670.15	27.559
670.48	28.571
670.80	27.725
671.13	27.032
671.45	27.165
671.77	27.872
672.10	27.667
672.42	24.757
672.75	26.728
673.07	24.328
673.39	24.807
673.72	25.839
674.04	26.552
674.37	27.907
674.69	27.866
675.01	24.952
675.34	26.336
675.66	25.281
675.98	26.493
676.31	26.172
676.63	30.038
676.95	28.352
677.28	25.806
677.60	22.835
677.92	25.336
678.25	27.057
678.57	25.979
678.89	25.085
679.22	24.913
679.54	25.812
679.86	25.932
680.18	25.207
680.51	27.044
680.83	25.859
681.15	25.517
681.48	26.079
681.80	26.598
682.12	25.874
682.44	26.711
682.77	22.695
683.09	26.136
683.41	26.163
683.73	26.565
684.06	24.170
684.38	22.182
684.70	25.135
685.02	26.850
685.34	24.792
685.67	23.817
685.99	24.387
686.31	24.709
686.63	26.382
686.96	24.921
687.28	27.362
687.60	24.747
687.92	24.598
688.24	26.043
688.56	25.172
688.89	26.860
689.21	26.223
689.53	25.490
689.85	26.430
690.17	23.519
690.49	26.494
690.82	24.158
691.14	22.874
691.46	25.813
691.78	26.335
692.10	24.404
692.42	25.536
692.74	25.771
693.06	20.926
693.39	23.340
693.71	22.932
694.03	26.022
694.35	24.000
694.67	24.641
694.99	24.255
695.31	24.062
695.63	25.108
695.95	25.052
696.27	25.714
696.59	26.549
696.91	25.225
697.23	25.714
697.56	24.236
697.88	24.621
698.20	25.989
698.52	25.758
698.84	24.532
699.16	24.286
699.48	25.523
699.80	25.319
700.12	25.546
700.44	22.811
700.76	28.979
701.08	25.182
701.40	25.130
701.72	23.632
702.04	24.064
702.36	23.560
702.68	23.716
703.00	24.450
703.32	23.645
703.64	23.227
703.96	25.298
704.28	22.850
704.60	26.835
704.91	26.531
705.23	24.384
705.55	23.120
705.87	24.848
706.19	22.393
706.51	21.687
706.83	20.461
707.15	23.810
707.47	23.832
707.79	23.362
708.11	21.186
708.43	21.290
708.74	18.527
709.06	22.738
709.38	22.770
709.70	24.069
710.02	23.256
710.34	22.340
710.66	21.508
710.98	18.579
711.29	23.626
711.61	24.011
711.93	25.071
712.25	22.432
712.57	25.074
712.89	22.941
713.20	22.781
713.52	22.254
713.84	24.791
714.16	22.368
714.48	22.165
714.80	24.416
715.11	20.997
715.43	22.546
715.75	21.579
716.07	20.166
716.39	24.317
716.70	22.289
717.02	21.967
717.34	21.254
717.66	18.456
717.97	21.233
718.29	21.649
718.61	19.079
718.93	20.065
719.24	22.050
719.56	16.871
719.88	21.021
720.20	22.258
720.51	22.671
720.83	18.750
721.15	18.750
721.46	17.123
721.78	22.667
722.10	19.417
722.42	20.134
722.73	17.419
723.05	21.404
723.37	20.833
723.68	22.581
724.00	20.578
724.32	19.366
724.63	18.881
724.95	20.567
725.27	20.906
725.58	18.021
725.90	26.897
726.22	20.690
726.53	19.156
726.85	22.013
727.16	19.637
727.48	21.713
727.80	20.530
728.11	24.028
728.43	21.212
728.74	17.726
729.06	20.199
729.38	23.377
729.69	22.483
730.01	22.619
730.32	15.152
730.64	20.126
730.96	20.807
731.27	22.346
731.59	21.429
731.90	19.481
732.22	20.573
732.53	17.956
732.85	21.714
733.16	21.408
733.48	17.988
733.80	20.891
734.11	19.088
734.43	19.459
734.74	22.785
735.06	21.608
735.37	22.973
735.69	19.730
736.00	19.209
736.32	18.598
736.63	20.556
736.95	19.828
737.26	19.697
737.58	18.788
737.89	23.824
738.21	18.043
738.52	16.721
738.83	18.771
739.15	20.213
739.46	20.748
739.78	19.018
740.09	19.484
740.41	20.408
740.72	16.333
741.04	19.741
741.35	18.246
741.66	17.255
741.98	24.180
742.29	19.247
742.61	15.789
742.92	21.154
743.23	23.827
743.55	20.543
743.86	18.800
744.18	13.223
744.49	16.878
744.80	18.519
745.12	19.831
745.43	21.138
745.74	17.672
746.06	17.373
746.37	21.941
746.68	21.138
747.00	14.167
747.31	14.592
747.62	18.846
747.94	16.194
748.25	17.269
748.56	15.102
748.88	15.812
749.19	18.103
749.50	18.182
749.82	21.687
750.13	23.488
750.44	18.667
750.75	19.077
751.07	19.077
751.38	20.820
751.69	19.489
752.01	15.858
752.32	19.608
752.63	21.088
752.94	19.377
753.26	15.242
753.57	17.037
753.88	21.723
754.19	18.328
754.51	17.685
754.82	20.257
755.13	20.000
755.44	20.137
755.75	18.750
756.07	21.791
756.38	16.667
756.69	21.386
757.00	16.620
757.31	21.858
757.63	19.693
757.94	18.545
758.25	19.639
758.56	20.261
758.87	18.182
759.18	16.267
759.50	22.663
759.81	21.008
760.12	21.294
760.43	17.187
760.74	18.966
761.05	19.750
761.36	18.554
761.67	17.766
761.99	17.297
762.30	20.122
762.61	17.492
762.92	18.284
763.23	18.727
763.54	16.547
763.85	17.182
764.16	17.845
764.47	17.606
764.78	20.128
765.10	20.528
765.41	21.282
765.72	16.402
766.03	17.232
766.34	15.987
766.65	14.634
766.96	15.936
767.27	12.442
767.58	12.438
767.89	18.750
768.20	16.432
768.51	13.426
768.82	16.867
769.13	19.697
769.44	13.462
769.75	15.884
770.06	15.000
770.37	20.866
770.68	17.872
770.99	10.526
771.30	22.222
771.61	12.928
771.92	15.185
772.23	18.623
772.54	12.963
772.85	17.051
773.16	20.000
773.47	10.053
773.78	11.892
774.09	15.341
774.39	18.000
774.70	14.208
775.01	4.878
775.32	6.471
775.63	11.043
775.94	5.732
776.25	16.129
776.56	10.256
776.87	14.966
777.18	8.276
777.48	9.091
777.79	12.162
778.10	8.824
778.41	20.833
778.72	8.966
779.03	12.346
779.34	15.152
779.65	12.435
779.95	16.667
780.26	11.364
780.57	12.258
780.88	15.217
781.19	15.484
781.50	11.765
781.80	20.968
782.11	7.937
782.42	12.121
782.73	13.174
783.04	9.497
783.34	7.879
783.65	5.229
783.96	10.559
784.27	10.714
784.57	13.245
784.88	11.429
785.19	10.236
785.50	16.535
785.81	11.278
786.11	17.692
786.42	3.597
786.73	5.036
787.04	21.805
787.34	6.557
787.65	10.400
787.96	14.179
788.26	15.385
788.57	11.189
788.88	11.184
789.19	13.072
789.49	14.384
789.80	12.057
790.11	11.024
790.41	3.125
790.72	2.542
791.03	5.825
791.33	5.217
791.64	16.667
791.95	7.143
792.25	7.619
792.56	7.143
792.87	-2.083
793.17	8.929
793.48	8.333
793.79	-4.819
794.09	3.670
794.40	2.752
794.70	9.524
795.01	2.597
795.32	9.589
795.62	0.704
795.93	8.333
796.23	1.639
796.54	3.571
796.85	0.000
797.15	2.174
797.46	-1.370
797.76	-2.500
798.07	5.435
798.37	-8.247
798.68	-3.896
798.99	2.299
799.29	5.618
799.60	5.319
799.90	2.410
800.21	-32.308
800.51	-13.433
800.82	-11.765
801.12	-21.918
801.43	-13.235
801.73	-28.814
802.04	-7.576
802.34	-20.000
802.65	-5.085
802.95	-11.940
803.26	-15.254
803.56	-2.740
803.87	-2.857
804.17	1.370
804.48	-31.579
804.78	-15.278
805.09	-24.138
805.39	1.351
805.70	-23.944
806.00	3.659
806.30	-3.614
806.61	-4.110
806.91	-2.885
807.22	-10.000
807.52	-8.046
807.83	-9.722
808.13	4.819
808.43	-5.618
808.74	-1.250
809.04	-26.471
809.35	-14.667
809.65	-15.714
809.95	1.370
810.26	-26.316
810.56	-10.345
810.86	-13.235
811.17	-12.281
811.47	-26.230
811.77	-51.111
812.08	-13.559
812.38	-5.000
812.69	-17.241
812.99	-39.623
813.29	-64.103
813.59	-10.000
813.90	-12.281
814.20	-18.182
814.50	5.634
814.81	-7.692
815.11	-19.672
815.41	0.000
815.72	5.172
816.02	-12.500
816.32	0.000
816.62	-22.727
816.93	-35.556
817.23	-7.407
817.53	-25.532
817.84	-11.905
818.14	-14.706
818.44	-16.327
818.74	-26.667
819.04	-38.462
819.35	-37.143
819.65	-103.846
819.95	-15.094
820.25	-15.556
820.56	-38.095
820.86	-37.500
821.16	-33.333
821.46	-48.837
821.76	-40.000
822.07	-25.000
822.37	-28.261
822.67	-38.298
822.97	-59.459
823.27	-52.500
823.57	-14.286
823.88	-24.444
824.18	-22.500
824.48	-46.667
824.78	-84.000
825.08	-54.545
825.38	-11.111
825.69	-36.170
825.99	-19.444
826.29	-54.286
826.59	-48.718
826.89	-27.907
827.19	-16.000
827.49	-67.647
827.79	-16.667
828.09	-48.649
828.39	-76.667
828.70	-60.976
829.00	-41.860
829.30	-67.857
829.60	-35.294
829.90	-19.565
830.20	-42.857
830.50	-68.966
830.80	-122.222
831.10	-80.769
831.40	-58.824
831.70	-76.190
832.00	-25.806
832.30	-141.176
832.60	-70.833
832.90	-130.769
833.20	-147.368
833.50	-170.000
833.80	-78.947
834.10	-119.048
834.40	-36.111
834.70	-28.125
835.00	-51.429
835.30	-41.176
835.60	-53.333
835.90	-36.000
836.20	-109.091
836.50	-8.000
836.80	-45.455
837.10	-66.667
837.40	-59.259
837.70	-168.750
838.00	-60.714
838.30	-95.652
838.60	-68.966
838.90	-164.286
839.19	-165.217
839.49	-283.333
839.79	-60.870
840.09	-100.000
840.39	-95.000
840.69	-22.581
840.99	-82.143
841.29	-113.333
841.59	-100.000
841.88	-30.769
842.18	-53.846
842.48	-120.000
842.78	-115.000
843.08	-43.333
843.38	-74.194
843.68	-138.889
843.97	-20.588
844.27	-131.250
844.57	-121.053
844.87	-210.000
845.17	-153.333
845.47	-52.381
845.76	-128.571
846.06	-288.889
846.36	-164.706
846.66	-50.000
846.96	-166.667
847.25	-111.765
847.55	-52.174
847.85	-90.000
848.15	-82.353
848.44	-200.000
848.74	-100.000
849.04	-79.167
849.34	-143.750
849.63	-56.522
849.93	1350.000
850.23	-93.333
850.53	-38.462
850.82	-227.273
851.12	-63.636
851.42	-136.364
851.71	-92.308
852.01	-90.000
852.31	-138.462
852.61	-126.316
852.90	-108.333
853.20	-61.111
853.50	-311.111
853.79	-109.524
854.09	-95.455
854.39	-225.000
854.68	-35.484
854.98	-88.462
855.28	-100.000
855.57	-53.571
855.87	-52.000
856.17	-77.273
856.46	-59.259
856.76	-122.222
857.05	-73.913
857.35	-33.333
857.65	-138.462
857.94	-76.190
858.24	-51.852
858.53	-82.609
858.83	-70.588
859.13	-88.235
859.42	-94.118
859.72	-157.143
860.01	-90.000
860.31	-177.778
860.60	-80.000
860.90	-93.333
861.20	-88.889
861.49	-169.231
861.79	-30.000
862.08	-223.077
862.38	-43.750
862.67	-58.824
862.97	-68.750
863.26	-300.000
863.56	-210.000
863.85	-245.455
864.15	-94.444
864.44	-766.667
864.74	-157.143
865.03	-150.000
865.33	-270.000
865.62	-103.226
865.92	-77.273
866.21	-65.217
866.51	-121.429
866.80	-420.000
867.10	-166.667
867.39	-183.333
867.69	1700.000
867.98	-171.429
868.27	-70.588
868.57	-2800.000
868.86	-180.000
869.16	-95.238
869.45	-41.667
869.75	-145.455
870.04	-242.857
870.33	-191.667
870.63	-557.143
870.92	-375.000
871.22	-412.500
871.51	-209.091
871.80	-1033.333
872.10	-1350.000
>>>>>End Processed Spectral Data<<<<<
