SpectraSuite Data File
++++++++++++++++++++++++++++++++++++
Date: Thu May 14 14:30:12 PDT 2015
User: schluterlab
Dark Spectrum Present: Yes
Reference Spectrum Present: Yes
Number of Sampled Component Spectra: 1
Spectrometers: USB2E3373
Integration Time (usec): 3000 (USB2E3373)
Spectra Averaged: 3 (USB2E3373)
Boxcar Smoothing: 0 (USB2E3373)
Correct for Electrical Dark: No (USB2E3373)
Strobe/Lamp Enabled: No (USB2E3373)
Correct for Detector Non-linearity: No (USB2E3373)
Correct for Stray Light: No (USB2E3373)
Number of Pixels in Processed Spectrum: 2048
>>>>>Begin Processed Spectral Data<<<<<
178.53	0.000
178.91	-328.571
179.29	1100.000
179.67	1200.000
180.04	-7.143
180.42	-80.000
180.80	-140.000
181.18	1000.000
181.56	1700.000
181.94	-300.000
182.31	475.000
182.69	-500.000
183.07	550.000
183.45	-300.000
183.83	300.000
184.20	833.333
184.58	-2300.000
184.96	425.000
185.34	122.222
185.72	420.000
186.09	-44.444
186.47	-600.000
186.85	-140.000
187.23	77.778
187.61	0.000
187.98	-320.000
188.36	-225.000
188.74	175.000
189.12	400.000
189.49	100.000
189.87	75.000
190.25	266.667
190.63	320.000
191.00	111.111
191.38	0.000
191.76	575.000
192.14	166.667
192.51	-700.000
192.89	266.667
193.27	0.000
193.65	228.571
194.02	1000.000
194.40	214.286
194.78	-100.000
195.15	0.000
195.53	109.091
195.91	0.000
196.29	525.000
196.66	115.385
197.04	700.000
197.42	271.429
197.79	900.000
198.17	50.000
198.55	257.143
198.92	211.111
199.30	112.500
199.68	72.727
200.05	121.429
200.43	50.000
200.81	-100.000
201.18	0.000
201.56	-55.556
201.94	0.000
202.31	-433.333
202.69	144.444
203.07	-2100.000
203.44	233.333
203.82	175.000
204.19	158.333
204.57	300.000
204.95	87.500
205.32	1100.000
205.70	-525.000
206.08	333.333
206.45	216.667
206.83	-260.000
207.20	166.667
207.58	400.000
207.96	133.333
208.33	233.333
208.71	-66.667
209.08	400.000
209.46	0.000
209.84	-216.667
210.21	-950.000
210.59	-750.000
210.96	-600.000
211.34	575.000
211.71	187.500
212.09	800.000
212.46	0.000
212.84	-350.000
213.22	100.000
213.59	425.000
213.97	290.000
214.34	900.000
214.72	-183.333
215.09	375.000
215.47	0.000
215.84	-257.143
216.22	-350.000
216.59	220.000
216.97	140.000
217.34	200.000
217.72	200.000
218.09	375.000
218.47	150.000
218.84	0.000
219.22	-340.000
219.59	129.412
219.97	110.000
220.34	-650.000
220.72	44.444
221.09	200.000
221.47	600.000
221.84	200.000
222.22	228.571
222.59	0.000
222.97	300.000
223.34	80.000
223.72	1400.000
224.09	325.000
224.46	225.000
224.84	380.000
225.21	114.286
225.59	275.000
225.96	275.000
226.34	92.308
226.71	50.000
227.08	750.000
227.46	146.667
227.83	275.000
228.21	136.842
228.58	-0.000
228.95	-950.000
229.33	200.000
229.70	170.000
230.08	157.895
230.45	-100.000
230.82	566.667
231.20	107.143
231.57	158.333
231.95	172.727
232.32	236.364
232.69	150.000
233.07	575.000
233.44	88.235
233.81	90.000
234.19	127.778
234.56	122.727
234.93	127.586
235.31	89.474
235.68	155.556
236.05	75.000
236.43	92.308
236.80	124.000
237.17	118.519
237.55	118.182
237.92	220.000
238.29	100.000
238.67	72.727
239.04	102.778
239.41	85.714
239.79	84.783
240.16	66.667
240.53	82.609
240.91	62.745
241.28	52.459
241.65	73.134
242.02	87.838
242.40	63.077
242.77	65.333
243.14	76.829
243.51	75.000
243.89	76.923
244.26	83.168
244.63	76.471
245.00	64.486
245.38	56.140
245.75	44.248
246.12	60.317
246.49	68.992
246.87	57.857
247.24	54.305
247.61	59.211
247.98	65.101
248.36	61.111
248.73	62.577
249.10	58.470
249.47	61.194
249.84	60.733
250.22	56.995
250.59	62.222
250.96	57.273
251.33	56.633
251.70	54.274
252.08	53.333
252.45	55.328
252.82	54.545
253.19	48.828
253.56	56.274
253.94	53.846
254.31	52.273
254.68	62.238
255.05	57.655
255.42	53.741
255.79	51.780
256.16	58.278
256.54	50.993
256.91	58.361
257.28	56.393
257.65	53.185
258.02	52.212
258.39	54.131
258.76	59.021
259.14	54.598
259.51	55.620
259.88	54.958
260.25	52.778
260.62	55.068
260.99	55.191
261.36	53.083
261.73	52.255
262.10	57.967
262.47	55.496
262.85	53.788
263.22	56.883
263.59	52.632
263.96	56.522
264.33	51.662
264.70	55.062
265.07	52.506
265.44	55.556
265.81	50.694
266.18	55.782
266.55	55.804
266.92	52.620
267.29	54.923
267.66	57.650
268.03	53.493
268.40	50.731
268.77	51.481
269.14	52.863
269.51	54.825
269.88	53.484
270.25	51.911
270.62	55.063
270.99	56.364
271.36	51.485
271.73	50.491
272.10	54.910
272.47	53.908
272.84	50.803
273.21	50.301
273.58	53.427
273.95	47.500
274.32	51.331
274.69	49.710
275.06	51.832
275.43	48.983
275.80	49.559
276.17	51.852
276.54	53.545
276.91	50.805
277.28	49.910
277.65	52.065
278.02	51.838
278.39	49.275
278.76	50.088
279.13	52.305
279.50	50.000
279.87	50.089
280.23	47.183
280.60	48.983
280.97	49.342
281.34	49.576
281.71	48.900
282.08	49.502
282.45	48.282
282.82	47.253
283.19	47.496
283.56	47.377
283.92	49.700
284.29	48.499
284.66	49.754
285.03	46.474
285.40	48.223
285.77	46.594
286.14	48.244
286.51	48.097
286.87	47.393
287.24	48.645
287.61	47.833
287.98	48.489
288.35	47.781
288.72	45.266
289.08	46.559
289.45	45.562
289.82	46.536
290.19	43.966
290.56	46.901
290.93	44.650
291.29	45.868
291.66	43.664
292.03	42.198
292.40	43.129
292.77	43.531
293.13	42.355
293.50	41.787
293.87	42.013
294.24	42.000
294.60	43.236
294.97	40.805
295.34	39.437
295.71	39.344
296.08	38.889
296.44	38.848
296.81	39.829
297.18	40.349
297.55	40.330
297.91	37.604
298.28	38.863
298.65	39.477
299.02	37.544
299.38	37.185
299.75	37.850
300.12	36.806
300.48	38.364
300.85	37.570
301.22	36.577
301.59	36.644
301.95	37.740
302.32	37.000
302.69	36.035
303.05	38.194
303.42	36.142
303.79	36.562
304.15	36.172
304.52	36.469
304.89	36.859
305.25	35.404
305.62	35.214
305.99	36.186
306.35	36.996
306.72	37.435
307.09	34.924
307.45	37.060
307.82	35.621
308.19	36.226
308.55	36.741
308.92	35.638
309.29	34.866
309.65	35.770
310.02	35.644
310.38	35.138
310.75	36.117
311.12	35.858
311.48	34.702
311.85	35.233
312.22	36.243
312.58	36.432
312.95	34.417
313.31	35.140
313.68	34.249
314.05	35.592
314.41	36.703
314.78	35.422
315.14	35.481
315.51	36.103
315.87	36.184
316.24	36.621
316.61	36.146
316.97	35.294
317.34	35.097
317.70	35.284
318.07	35.538
318.43	35.799
318.80	35.535
319.16	36.481
319.53	34.704
319.89	35.846
320.26	37.189
320.62	35.638
320.99	37.396
321.35	36.506
321.72	37.488
322.08	36.880
322.45	35.953
322.81	36.191
323.18	36.814
323.54	36.379
323.91	37.900
324.27	35.628
324.64	37.280
325.00	36.318
325.37	38.657
325.73	38.843
326.10	38.118
326.46	38.925
326.83	39.792
327.19	38.189
327.56	38.814
327.92	37.215
328.29	37.984
328.65	38.023
329.01	38.156
329.38	39.764
329.74	39.640
330.11	39.127
330.47	40.607
330.84	40.999
331.20	39.250
331.56	39.688
331.93	38.912
332.29	40.847
332.66	40.282
333.02	39.028
333.38	39.178
333.75	39.226
334.11	40.200
334.48	39.274
334.84	40.782
335.20	38.791
335.57	40.219
335.93	38.843
336.29	38.602
336.66	38.856
337.02	40.301
337.38	40.221
337.75	38.678
338.11	40.370
338.47	38.792
338.84	38.832
339.20	39.259
339.56	39.786
339.93	37.767
340.29	38.245
340.65	39.416
341.02	39.266
341.38	39.046
341.74	38.660
342.11	40.788
342.47	38.364
342.83	39.291
343.20	38.594
343.56	38.893
343.92	39.311
344.28	38.828
344.65	38.837
345.01	38.534
345.37	39.191
345.73	37.412
346.10	38.612
346.46	37.737
346.82	39.101
347.19	38.350
347.55	38.695
347.91	37.147
348.27	38.240
348.63	37.091
349.00	37.509
349.36	36.729
349.72	38.021
350.08	37.890
350.45	38.783
350.81	37.632
351.17	38.872
351.53	37.604
351.89	37.889
352.26	38.134
352.62	37.761
352.98	37.481
353.34	37.416
353.70	38.906
354.07	37.258
354.43	37.737
354.79	37.846
355.15	37.160
355.51	37.719
355.87	37.547
356.24	38.631
356.60	37.472
356.96	37.658
357.32	36.580
357.68	37.994
358.04	38.024
358.40	37.313
358.77	38.012
359.13	37.740
359.49	36.357
359.85	37.781
360.21	36.514
360.57	38.191
360.93	37.306
361.29	37.895
361.66	37.726
362.02	37.091
362.38	36.191
362.74	38.198
363.10	37.827
363.46	38.504
363.82	39.063
364.18	37.931
364.54	38.174
364.90	38.528
365.26	38.138
365.62	38.800
365.98	38.189
366.35	38.255
366.71	38.367
367.07	38.363
367.43	37.820
367.79	38.089
368.15	37.926
368.51	37.348
368.87	38.929
369.23	38.067
369.59	39.344
369.95	37.931
370.31	38.960
370.67	38.652
371.03	38.435
371.39	36.870
371.75	37.964
372.11	38.279
372.47	37.508
372.83	38.024
373.19	38.559
373.55	38.889
373.91	38.037
374.27	37.646
374.63	39.242
374.99	38.528
375.35	37.078
375.71	39.419
376.07	38.025
376.42	38.791
376.78	39.590
377.14	38.553
377.50	40.038
377.86	38.362
378.22	39.820
378.58	38.169
378.94	38.791
379.30	40.246
379.66	39.859
380.02	39.527
380.38	40.207
380.74	39.549
381.09	39.547
381.45	39.318
381.81	41.393
382.17	40.321
382.53	40.117
382.89	40.237
383.25	39.508
383.61	39.583
383.97	40.224
384.32	40.132
384.68	39.501
385.04	41.006
385.40	41.367
385.76	41.911
386.12	40.754
386.48	41.118
386.83	41.657
387.19	40.556
387.55	41.256
387.91	40.639
388.27	41.051
388.62	40.321
388.98	40.214
389.34	42.251
389.70	41.604
390.06	40.912
390.42	40.783
390.77	41.120
391.13	40.552
391.49	42.150
391.85	41.333
392.20	41.400
392.56	42.587
392.92	41.058
393.28	41.183
393.64	41.397
393.99	41.720
394.35	41.764
394.71	41.796
395.07	41.737
395.42	41.805
395.78	41.865
396.14	42.246
396.50	42.696
396.85	41.562
397.21	42.367
397.57	42.167
397.92	42.383
398.28	41.499
398.64	42.048
399.00	41.414
399.35	41.152
399.71	41.522
400.07	41.606
400.42	42.433
400.78	41.898
401.14	41.833
401.49	42.695
401.85	42.791
402.21	42.584
402.57	43.016
402.92	41.726
403.28	40.574
403.63	40.871
403.99	41.449
404.35	41.217
404.70	42.720
405.06	41.467
405.42	43.443
405.77	42.530
406.13	41.437
406.49	41.948
406.84	42.382
407.20	42.817
407.55	42.217
407.91	41.609
408.27	41.755
408.62	41.885
408.98	42.252
409.34	42.053
409.69	43.201
410.05	42.556
410.40	41.821
410.76	41.784
411.11	42.314
411.47	43.182
411.83	42.446
412.18	43.253
412.54	41.672
412.89	41.560
413.25	41.874
413.60	42.275
413.96	41.958
414.31	41.416
414.67	40.727
415.03	42.462
415.38	42.434
415.74	41.112
416.09	42.011
416.45	40.513
416.80	41.554
417.16	41.315
417.51	41.283
417.87	42.551
418.22	42.515
418.58	43.247
418.93	42.317
419.29	42.540
419.64	42.437
420.00	41.780
420.35	43.571
420.71	42.447
421.06	40.656
421.42	42.833
421.77	41.357
422.12	42.125
422.48	41.987
422.83	42.881
423.19	41.485
423.54	43.252
423.90	41.911
424.25	43.093
424.61	42.595
424.96	42.504
425.31	42.834
425.67	41.331
426.02	42.557
426.38	42.537
426.73	40.569
427.09	43.080
427.44	42.054
427.79	41.736
428.15	42.009
428.50	42.697
428.85	41.389
429.21	42.660
429.56	42.399
429.92	42.260
430.27	41.880
430.62	42.745
430.98	41.810
431.33	42.180
431.68	40.948
432.04	41.747
432.39	41.993
432.74	42.409
433.10	42.726
433.45	41.750
433.80	43.616
434.16	42.562
434.51	43.114
434.86	41.748
435.22	43.464
435.57	43.809
435.92	42.293
436.28	42.719
436.63	43.747
436.98	43.049
437.34	43.123
437.69	42.928
438.04	42.570
438.39	42.102
438.75	42.446
439.10	42.970
439.45	42.650
439.81	42.599
440.16	41.823
440.51	42.475
440.86	41.968
441.22	42.551
441.57	42.558
441.92	43.841
442.27	43.485
442.63	42.772
442.98	43.597
443.33	42.399
443.68	43.558
444.03	43.932
444.39	43.782
444.74	42.777
445.09	42.372
445.44	43.309
445.79	43.343
446.15	42.138
446.50	42.377
446.85	42.899
447.20	43.714
447.55	43.462
447.91	42.723
448.26	42.178
448.61	43.092
448.96	43.562
449.31	42.312
449.66	42.538
450.02	42.774
450.37	42.781
450.72	42.680
451.07	42.825
451.42	43.501
451.77	42.079
452.12	43.905
452.47	42.424
452.83	43.806
453.18	42.090
453.53	42.217
453.88	42.904
454.23	43.107
454.58	43.122
454.93	42.900
455.28	43.227
455.63	42.695
455.98	43.911
456.34	41.991
456.69	42.034
457.04	43.322
457.39	43.570
457.74	44.016
458.09	43.657
458.44	43.588
458.79	41.929
459.14	42.528
459.49	43.690
459.84	42.917
460.19	42.421
460.54	43.384
460.89	42.298
461.24	43.161
461.59	42.999
461.94	41.700
462.29	43.113
462.64	42.245
462.99	42.185
463.34	44.192
463.69	42.673
464.04	42.857
464.39	42.825
464.74	42.702
465.09	42.561
465.44	42.436
465.79	42.623
466.14	42.887
466.49	42.737
466.84	42.755
467.19	42.197
467.54	41.833
467.89	42.069
468.24	42.216
468.59	41.459
468.94	41.958
469.29	40.432
469.64	42.657
469.99	41.428
470.34	41.708
470.68	41.148
471.03	43.615
471.38	42.184
471.73	42.198
472.08	42.005
472.43	42.866
472.78	42.947
473.13	43.236
473.48	42.054
473.83	42.368
474.17	41.208
474.52	42.453
474.87	41.639
475.22	42.197
475.57	41.745
475.92	40.966
476.27	42.545
476.61	42.627
476.96	41.867
477.31	42.030
477.66	42.707
478.01	41.281
478.36	40.678
478.70	42.463
479.05	41.922
479.40	41.510
479.75	42.939
480.10	42.444
480.45	41.705
480.79	42.948
481.14	41.820
481.49	42.481
481.84	42.037
482.19	42.065
482.53	43.419
482.88	42.534
483.23	42.463
483.58	42.271
483.92	41.933
484.27	41.363
484.62	41.130
484.97	41.757
485.31	41.359
485.66	41.939
486.01	42.013
486.36	41.895
486.70	41.940
487.05	41.343
487.40	41.026
487.75	41.349
488.09	40.659
488.44	40.413
488.79	41.046
489.13	41.166
489.48	41.631
489.83	40.885
490.17	40.097
490.52	39.860
490.87	41.159
491.22	41.205
491.56	40.486
491.91	41.605
492.26	41.800
492.60	40.665
492.95	41.158
493.30	41.327
493.64	41.787
493.99	40.658
494.34	40.723
494.68	40.814
495.03	41.762
495.37	40.124
495.72	40.227
496.07	40.798
496.41	39.640
496.76	41.076
497.11	40.510
497.45	40.354
497.80	40.782
498.14	41.179
498.49	41.039
498.84	40.996
499.18	40.666
499.53	41.390
499.87	41.407
500.22	40.695
500.56	40.936
500.91	41.327
501.26	41.318
501.60	40.963
501.95	41.337
502.29	40.763
502.64	41.539
502.98	40.293
503.33	40.086
503.67	41.954
504.02	40.762
504.36	40.661
504.71	40.239
505.06	40.655
505.40	40.265
505.75	40.710
506.09	40.193
506.44	41.411
506.78	42.294
507.13	40.802
507.47	41.023
507.82	40.199
508.16	39.771
508.51	39.944
508.85	40.907
509.19	40.407
509.54	41.354
509.88	39.971
510.23	41.379
510.57	41.228
510.92	41.074
511.26	40.500
511.61	40.174
511.95	40.508
512.30	40.423
512.64	39.580
512.98	40.320
513.33	41.079
513.67	40.898
514.02	40.572
514.36	40.665
514.70	40.938
515.05	40.250
515.39	39.265
515.74	40.721
516.08	40.676
516.42	40.764
516.77	41.430
517.11	40.794
517.46	41.410
517.80	41.101
518.14	40.642
518.49	40.239
518.83	38.638
519.17	41.249
519.52	39.990
519.86	41.183
520.20	40.469
520.55	40.854
520.89	39.977
521.23	39.922
521.58	41.356
521.92	40.170
522.26	39.175
522.61	41.435
522.95	40.715
523.29	40.000
523.64	40.078
523.98	41.015
524.32	41.605
524.66	40.694
525.01	38.845
525.35	40.609
525.69	39.559
526.04	40.069
526.38	40.460
526.72	39.331
527.06	40.469
527.41	40.758
527.75	40.736
528.09	39.787
528.43	39.550
528.78	39.538
529.12	41.112
529.46	40.528
529.80	40.389
530.15	39.536
530.49	40.273
530.83	39.256
531.17	40.024
531.51	39.771
531.86	40.385
532.20	40.671
532.54	39.198
532.88	40.545
533.22	38.539
533.57	40.912
533.91	39.675
534.25	40.136
534.59	41.207
534.93	38.993
535.27	40.620
535.62	41.558
535.96	39.977
536.30	39.189
536.64	39.219
536.98	39.852
537.32	40.370
537.66	40.112
538.01	40.483
538.35	40.317
538.69	39.363
539.03	41.386
539.37	38.634
539.71	39.580
540.05	40.767
540.39	39.792
540.73	39.769
541.07	39.669
541.42	39.929
541.76	39.976
542.10	39.023
542.44	38.794
542.78	39.294
543.12	39.631
543.46	39.377
543.80	39.448
544.14	39.378
544.48	38.771
544.82	40.754
545.16	40.191
545.50	39.365
545.84	39.437
546.18	40.370
546.52	40.000
546.86	39.811
547.20	39.313
547.54	39.326
547.88	38.999
548.22	39.240
548.56	39.380
548.90	40.000
549.24	39.392
549.58	39.621
549.92	39.286
550.26	40.194
550.60	39.566
550.94	40.168
551.28	39.076
551.62	38.881
551.96	38.770
552.30	40.217
552.64	38.955
552.98	39.239
553.32	39.871
553.66	39.293
554.00	38.966
554.34	40.283
554.68	38.541
555.02	40.276
555.36	39.908
555.69	38.309
556.03	39.975
556.37	40.175
556.71	38.618
557.05	38.403
557.39	39.482
557.73	39.960
558.07	40.199
558.41	39.734
558.75	39.351
559.08	40.362
559.42	39.643
559.76	39.484
560.10	39.585
560.44	39.446
560.78	39.438
561.12	39.101
561.45	40.268
561.79	39.560
562.13	39.248
562.47	38.533
562.81	39.810
563.15	39.710
563.48	40.273
563.82	39.601
564.16	38.340
564.50	39.094
564.84	38.761
565.17	39.118
565.51	38.032
565.85	39.489
566.19	38.882
566.52	39.497
566.86	38.936
567.20	38.499
567.54	39.511
567.88	40.214
568.21	39.279
568.55	39.856
568.89	40.082
569.23	40.431
569.56	40.055
569.90	40.413
570.24	39.562
570.57	39.160
570.91	39.590
571.25	39.485
571.59	40.273
571.92	39.232
572.26	39.518
572.60	38.766
572.93	39.466
573.27	39.786
573.61	39.068
573.95	39.378
574.28	39.383
574.62	39.563
574.96	38.355
575.29	38.555
575.63	39.339
575.97	39.018
576.30	38.564
576.64	38.821
576.98	39.157
577.31	39.619
577.65	39.517
577.98	39.025
578.32	39.272
578.66	38.937
578.99	38.665
579.33	39.440
579.67	38.645
580.00	38.773
580.34	38.896
580.67	38.725
581.01	38.836
581.35	39.236
581.68	39.805
582.02	39.544
582.35	39.855
582.69	39.121
583.02	39.152
583.36	39.063
583.70	39.059
584.03	38.373
584.37	38.583
584.70	38.264
585.04	38.875
585.37	38.820
585.71	38.641
586.04	39.256
586.38	39.369
586.72	38.230
587.05	38.808
587.39	39.192
587.72	39.426
588.06	39.338
588.39	38.686
588.73	38.624
589.06	39.024
589.40	39.336
589.73	38.753
590.07	39.125
590.40	39.892
590.73	38.883
591.07	39.092
591.40	39.114
591.74	38.911
592.07	39.261
592.41	39.077
592.74	38.907
593.08	39.936
593.41	40.391
593.75	38.994
594.08	39.715
594.41	39.936
594.75	39.057
595.08	39.603
595.42	39.156
595.75	38.424
596.09	39.072
596.42	38.839
596.75	39.213
597.09	39.879
597.42	39.253
597.75	38.808
598.09	38.571
598.42	39.445
598.76	39.091
599.09	39.195
599.42	38.585
599.76	38.032
600.09	38.739
600.42	38.972
600.76	39.432
601.09	37.803
601.42	38.654
601.76	38.207
602.09	37.956
602.42	38.422
602.76	38.339
603.09	39.060
603.42	39.957
603.76	39.042
604.09	39.461
604.42	39.119
604.76	38.699
605.09	38.931
605.42	38.836
605.75	38.385
606.09	38.932
606.42	38.636
606.75	38.418
607.09	37.980
607.42	38.459
607.75	39.273
608.08	38.516
608.42	38.452
608.75	39.179
609.08	38.370
609.41	38.818
609.75	38.438
610.08	40.281
610.41	38.997
610.74	38.739
611.07	39.476
611.41	39.327
611.74	39.307
612.07	38.850
612.40	38.878
612.73	39.315
613.07	38.093
613.40	39.124
613.73	38.806
614.06	39.647
614.39	39.018
614.72	38.234
615.06	38.547
615.39	38.424
615.72	39.526
616.05	39.097
616.38	38.850
616.71	38.297
617.05	39.031
617.38	38.416
617.71	38.499
618.04	38.694
618.37	39.344
618.70	38.801
619.03	37.754
619.36	38.533
619.69	39.334
620.03	38.230
620.36	38.466
620.69	39.420
621.02	39.501
621.35	40.421
621.68	39.552
622.01	38.292
622.34	38.075
622.67	38.557
623.00	38.192
623.33	39.018
623.66	38.262
623.99	37.656
624.32	39.116
624.65	38.803
624.99	39.857
625.32	39.713
625.65	37.964
625.98	38.441
626.31	38.979
626.64	39.121
626.97	39.460
627.30	38.573
627.63	39.010
627.96	39.715
628.29	39.377
628.62	38.455
628.95	38.563
629.28	38.743
629.61	39.310
629.94	37.908
630.26	38.390
630.59	38.428
630.92	38.961
631.25	39.803
631.58	39.642
631.91	39.363
632.24	38.329
632.57	38.615
632.90	39.819
633.23	38.673
633.56	40.510
633.89	37.810
634.22	38.669
634.55	39.457
634.88	40.584
635.20	39.505
635.53	39.774
635.86	38.028
636.19	39.767
636.52	38.397
636.85	38.713
637.18	37.526
637.51	38.495
637.83	38.760
638.16	39.631
638.49	38.850
638.82	38.331
639.15	38.373
639.48	40.069
639.81	37.182
640.13	39.576
640.46	37.333
640.79	39.583
641.12	38.012
641.45	39.021
641.77	41.592
642.10	38.058
642.43	40.293
642.76	40.786
643.09	37.671
643.41	38.796
643.74	40.414
644.07	41.103
644.40	39.038
644.73	38.607
645.05	39.941
645.38	39.712
645.71	38.416
646.04	40.172
646.36	39.124
646.69	39.264
647.02	40.367
647.35	39.389
647.67	38.647
648.00	39.809
648.33	40.240
648.66	38.374
648.98	38.095
649.31	40.325
649.64	40.106
649.96	39.390
650.29	36.996
650.62	39.887
650.94	38.589
651.27	38.174
651.60	36.988
651.92	39.666
652.25	40.521
652.58	38.514
652.90	40.262
653.23	41.549
653.56	39.230
653.88	41.713
654.21	38.169
654.54	40.029
654.86	38.527
655.19	36.888
655.52	36.951
655.84	36.001
656.17	47.366
656.49	66.752
656.82	72.784
657.15	55.712
657.47	40.327
657.80	29.737
658.13	23.094
658.45	30.234
658.78	36.042
659.10	35.152
659.43	35.877
659.75	36.765
660.08	36.527
660.41	37.717
660.73	37.286
661.06	36.417
661.38	37.480
661.71	37.414
662.03	37.390
662.36	40.250
662.68	39.024
663.01	39.292
663.33	39.319
663.66	38.828
663.98	39.423
664.31	40.901
664.63	39.499
664.96	37.568
665.28	38.475
665.61	42.483
665.93	36.786
666.26	38.351
666.58	36.716
666.91	38.318
667.23	37.333
667.56	41.026
667.88	40.200
668.21	37.891
668.53	37.066
668.86	40.275
669.18	39.511
669.50	37.376
669.83	39.400
670.15	34.843
670.48	41.468
670.80	37.094
671.13	37.807
671.45	39.370
671.77	41.808
672.10	36.000
672.42	38.673
672.75	38.710
673.07	38.209
673.39	36.980
673.72	41.443
674.04	38.966
674.37	39.356
674.69	38.977
675.01	36.762
675.34	37.595
675.66	37.266
675.98	37.500
676.31	41.016
676.63	41.255
676.95	39.847
677.28	38.508
677.60	36.811
677.92	39.155
678.25	38.574
678.57	40.036
678.89	37.713
679.22	39.373
679.54	40.000
679.86	37.966
680.18	37.811
680.51	40.723
680.83	37.807
681.15	42.414
681.48	38.169
681.80	39.033
682.12	38.112
682.44	38.230
682.77	39.007
683.09	38.068
683.41	38.953
683.73	38.330
684.06	34.686
684.38	37.567
684.70	40.215
685.02	42.685
685.34	37.770
685.67	38.644
685.99	37.270
686.31	37.500
686.63	37.441
686.96	38.013
687.28	37.459
687.60	37.879
687.92	37.138
688.24	37.396
688.56	37.069
688.89	37.387
689.21	40.900
689.53	39.216
689.85	37.870
690.17	38.148
690.49	39.243
690.82	40.000
691.14	40.283
691.46	37.859
691.78	39.779
692.10	37.615
692.42	38.393
692.74	38.113
693.06	36.111
693.39	39.848
693.71	37.594
694.03	37.361
694.35	37.524
694.67	39.014
694.99	38.085
695.31	39.735
695.63	39.394
695.95	39.959
696.27	39.560
696.59	40.265
696.91	35.135
697.23	38.681
697.56	36.660
697.88	36.364
698.20	40.490
698.52	38.636
698.84	38.046
699.16	38.776
699.48	39.121
699.80	39.362
700.12	40.611
700.44	38.710
700.76	39.905
701.08	39.709
701.40	39.896
701.72	39.303
702.04	39.572
702.36	40.314
702.68	39.853
703.00	40.098
703.32	40.640
703.64	36.186
703.96	40.811
704.28	33.661
704.60	40.759
704.91	37.245
705.23	41.096
705.55	38.997
705.87	41.515
706.19	40.184
706.51	36.747
706.83	41.499
707.15	39.418
707.47	35.981
707.79	37.773
708.11	35.381
708.43	37.204
708.74	35.938
709.06	36.659
709.38	43.192
709.70	40.695
710.02	38.760
710.34	40.426
710.66	34.916
710.98	41.530
711.29	41.209
711.61	40.113
711.93	41.880
712.25	37.838
712.57	42.773
712.89	44.412
713.20	38.462
713.52	36.127
713.84	39.833
714.16	37.368
714.48	35.309
714.80	41.558
715.11	39.895
715.43	41.379
715.75	41.053
716.07	37.293
716.39	40.710
716.70	39.759
717.02	40.328
717.34	37.282
717.66	42.617
717.97	37.329
718.29	38.832
718.61	38.816
718.93	37.540
719.24	39.130
719.56	36.503
719.88	35.135
720.20	40.645
720.51	36.957
720.83	40.312
721.15	40.461
721.46	39.384
721.78	39.000
722.10	38.835
722.42	40.940
722.73	36.129
723.05	41.053
723.37	38.542
723.68	39.068
724.00	41.155
724.32	36.972
724.63	40.909
724.95	41.489
725.27	40.070
725.58	38.516
725.90	41.034
726.22	37.618
726.53	40.584
726.85	42.138
727.16	38.973
727.48	38.838
727.80	40.397
728.11	37.102
728.43	41.751
728.74	39.465
729.06	38.742
729.38	37.338
729.69	46.309
730.01	40.179
730.32	37.273
730.64	39.623
730.96	37.578
731.27	39.665
731.59	41.484
731.90	36.883
732.22	36.979
732.53	37.293
732.85	37.429
733.16	39.589
733.48	39.634
733.80	37.326
734.11	39.886
734.43	40.541
734.74	42.532
735.06	39.950
735.37	42.973
735.69	40.541
736.00	41.243
736.32	39.892
736.63	36.111
736.95	37.356
737.26	39.697
737.58	37.273
737.89	40.000
738.21	37.920
738.52	37.049
738.83	37.543
739.15	37.943
739.46	39.456
739.78	40.184
740.09	35.817
740.41	40.816
740.72	43.333
741.04	39.482
741.35	42.456
741.66	39.216
741.98	40.164
742.29	40.586
742.61	39.474
742.92	38.462
743.23	40.433
743.55	43.411
743.86	41.200
744.18	38.843
744.49	39.662
744.80	43.621
745.12	38.397
745.43	41.463
745.74	37.931
746.06	44.068
746.37	44.726
746.68	46.341
747.00	39.583
747.31	45.494
747.62	42.692
747.94	42.105
748.25	38.554
748.56	40.000
748.88	32.479
749.19	41.379
749.50	38.528
749.82	44.578
750.13	42.349
750.44	40.000
750.75	36.923
751.07	40.615
751.38	37.855
751.69	42.492
752.01	38.188
752.32	38.562
752.63	37.415
752.94	38.408
753.26	39.405
753.57	41.481
753.88	33.708
754.19	39.228
754.51	41.158
754.82	37.621
755.13	41.967
755.44	40.956
755.75	43.421
756.07	41.194
756.38	37.107
756.69	42.169
757.00	37.396
757.31	37.978
757.63	36.061
757.94	37.793
758.25	34.989
758.56	37.037
758.87	39.318
759.18	36.800
759.50	40.510
759.81	38.655
760.12	40.701
760.43	37.240
760.74	39.409
761.05	39.000
761.36	35.422
761.67	37.817
761.99	37.027
762.30	44.207
762.61	38.614
762.92	38.060
763.23	49.813
763.54	35.971
763.85	36.082
764.16	38.721
764.47	43.662
764.78	43.770
765.10	37.830
765.41	38.974
765.72	37.302
766.03	36.441
766.34	39.498
766.65	38.328
766.96	37.450
767.27	47.465
767.58	35.323
767.89	42.308
768.20	40.845
768.51	41.204
768.82	42.169
769.13	37.879
769.44	40.769
769.75	43.321
770.06	41.538
770.37	44.488
770.68	40.000
770.99	36.032
771.30	41.481
771.61	36.882
771.92	35.926
772.23	42.510
772.54	39.815
772.85	45.622
773.16	43.810
773.47	39.153
773.78	41.081
774.09	46.591
774.39	43.500
774.70	49.180
775.01	39.634
775.32	38.824
775.63	41.718
775.94	38.217
776.25	45.806
776.56	42.308
776.87	40.816
777.18	45.517
777.48	41.259
777.79	39.189
778.10	41.912
778.41	49.306
778.72	47.586
779.03	41.358
779.34	35.152
779.65	37.824
779.95	42.222
780.26	43.750
780.57	43.226
780.88	55.072
781.19	42.581
781.50	48.824
781.80	44.624
782.11	41.270
782.42	34.848
782.73	34.132
783.04	39.106
783.34	35.152
783.65	49.673
783.96	39.130
784.27	36.905
784.57	42.384
784.88	47.143
785.19	37.008
785.50	44.094
785.81	35.338
786.11	47.692
786.42	43.165
786.73	41.727
787.04	48.120
787.34	53.279
787.65	44.800
787.96	41.791
788.26	45.455
788.57	51.748
788.88	39.474
789.19	49.673
789.49	43.836
789.80	50.355
790.11	44.882
790.41	39.063
790.72	52.542
791.03	40.777
791.33	37.391
791.64	46.491
791.95	45.536
792.25	46.667
792.56	49.107
792.87	47.917
793.17	44.643
793.48	47.917
793.79	34.940
794.09	52.294
794.40	51.376
794.70	40.816
795.01	38.961
795.32	41.781
795.62	41.549
795.93	43.939
796.23	40.984
796.54	40.179
796.85	48.936
797.15	40.217
797.46	53.425
797.76	51.250
798.07	46.739
798.37	40.206
798.68	40.260
798.99	52.874
799.29	46.067
799.60	36.170
799.90	48.193
800.21	76.923
800.51	40.299
800.82	35.294
801.12	34.247
801.43	39.706
801.73	54.237
802.04	48.485
802.34	50.000
802.65	61.017
802.95	67.164
803.26	44.068
803.56	52.055
803.87	55.714
804.17	61.644
804.48	45.614
804.78	44.444
805.09	46.552
805.39	29.730
805.70	43.662
806.00	54.878
806.30	42.169
806.61	60.274
806.91	39.423
807.22	54.444
807.52	29.885
807.83	47.222
808.13	51.807
808.43	41.573
808.74	30.000
809.04	47.059
809.35	54.667
809.65	48.571
809.95	63.014
810.26	42.105
810.56	56.897
810.86	41.176
811.17	50.877
811.47	55.738
811.77	73.333
812.08	50.847
812.38	50.000
812.69	62.069
812.99	49.057
813.29	69.231
813.59	72.000
813.90	64.912
814.20	60.000
814.50	60.563
814.81	50.000
815.11	68.852
815.41	64.179
815.72	60.345
816.02	76.786
816.32	88.889
816.62	61.364
816.93	44.444
817.23	66.667
817.53	57.447
817.84	71.429
818.14	61.765
818.44	53.061
818.74	53.333
819.04	43.590
819.35	54.286
819.65	76.923
819.95	47.170
820.25	66.667
820.56	57.143
820.86	59.375
821.16	56.410
821.46	65.116
821.76	46.000
822.07	42.857
822.37	67.391
822.67	53.191
822.97	54.054
823.27	42.500
823.57	65.306
823.88	64.444
824.18	67.500
824.48	60.000
824.78	80.000
825.08	60.606
825.38	82.222
825.69	78.723
825.99	75.000
826.29	34.286
826.59	66.667
826.89	41.860
827.19	66.000
827.49	82.353
827.79	72.917
828.09	45.946
828.39	43.333
828.70	48.780
829.00	48.837
829.30	75.000
829.60	52.941
829.90	45.652
830.20	71.429
830.50	100.000
830.80	83.333
831.10	80.769
831.40	64.706
831.70	95.238
832.00	100.000
832.30	52.941
832.60	66.667
832.90	92.308
833.20	84.211
833.50	60.000
833.80	73.684
834.10	33.333
834.40	44.444
834.70	100.000
835.00	28.571
835.30	88.235
835.60	90.000
835.90	88.000
836.20	45.455
836.50	76.000
836.80	63.636
837.10	92.593
837.40	74.074
837.70	43.750
838.00	85.714
838.30	82.609
838.60	72.414
838.90	171.429
839.19	8.696
839.49	100.000
839.79	91.304
840.09	62.500
840.39	95.000
840.69	80.645
840.99	71.429
841.29	93.333
841.59	105.263
841.88	87.179
842.18	65.385
842.48	180.000
842.78	75.000
843.08	100.000
843.38	83.871
843.68	72.222
843.97	61.765
844.27	106.250
844.57	89.474
844.87	200.000
845.17	140.000
845.47	128.571
845.76	80.952
846.06	100.000
846.36	58.824
846.66	69.231
846.96	113.333
847.25	105.882
847.55	104.348
847.85	155.000
848.15	152.941
848.44	90.909
848.74	76.190
849.04	66.667
849.34	37.500
849.63	95.652
849.93	-750.000
850.23	120.000
850.53	119.231
850.82	45.455
851.12	95.455
851.42	127.273
851.71	176.923
852.01	75.000
852.31	84.615
852.61	100.000
852.90	183.333
853.20	83.333
853.50	66.667
853.79	71.429
854.09	63.636
854.39	58.333
854.68	80.645
854.98	92.308
855.28	111.111
855.57	92.857
855.87	104.000
856.17	72.727
856.46	111.111
856.76	55.556
857.05	47.826
857.35	33.333
857.65	46.154
857.94	90.476
858.24	96.296
858.53	117.391
858.83	123.529
859.13	111.765
859.42	82.353
859.72	164.286
860.01	80.000
860.31	188.889
860.60	190.000
860.90	133.333
861.20	66.667
861.49	100.000
861.79	90.000
862.08	76.923
862.38	62.500
862.67	117.647
862.97	143.750
863.26	200.000
863.56	200.000
863.85	154.545
864.15	61.111
864.44	200.000
864.74	121.429
865.03	56.250
865.33	60.000
865.62	38.710
865.92	122.727
866.21	113.043
866.51	157.143
866.80	220.000
867.10	108.333
867.39	133.333
867.69	-100.000
867.98	128.571
868.27	88.235
868.57	1300.000
868.86	60.000
869.16	66.667
869.45	120.833
869.75	163.636
870.04	257.143
870.33	183.333
870.63	114.286
870.92	275.000
871.22	137.500
871.51	109.091
871.80	500.000
872.10	750.000
>>>>>End Processed Spectral Data<<<<<
