SpectraSuite Data File
++++++++++++++++++++++++++++++++++++
Date: Thu May 14 14:28:44 PDT 2015
User: schluterlab
Dark Spectrum Present: Yes
Reference Spectrum Present: Yes
Number of Sampled Component Spectra: 1
Spectrometers: USB2E3373
Integration Time (usec): 3000 (USB2E3373)
Spectra Averaged: 3 (USB2E3373)
Boxcar Smoothing: 0 (USB2E3373)
Correct for Electrical Dark: No (USB2E3373)
Strobe/Lamp Enabled: No (USB2E3373)
Correct for Detector Non-linearity: No (USB2E3373)
Correct for Stray Light: No (USB2E3373)
Number of Pixels in Processed Spectrum: 2048
>>>>>Begin Processed Spectral Data<<<<<
178.53	0.000
178.91	-185.714
179.29	-500.000
179.67	-100.000
180.04	57.143
180.42	-70.000
180.80	-420.000
181.18	1000.000
181.56	2600.000
181.94	-300.000
182.31	250.000
182.69	-366.667
183.07	350.000
183.45	-325.000
183.83	200.000
184.20	800.000
184.58	-600.000
184.96	250.000
185.34	255.556
185.72	280.000
186.09	22.222
186.47	-600.000
186.85	-320.000
187.23	77.778
187.61	0.000
187.98	-340.000
188.36	-250.000
188.74	175.000
189.12	500.000
189.49	162.500
189.87	112.500
190.25	233.333
190.63	240.000
191.00	122.222
191.38	0.000
191.76	25.000
192.14	300.000
192.51	-750.000
192.89	133.333
193.27	0.000
193.65	285.714
194.02	800.000
194.40	257.143
194.78	-85.714
195.15	0.000
195.53	145.455
195.91	0.000
196.29	175.000
196.66	115.385
197.04	600.000
197.42	71.429
197.79	100.000
198.17	200.000
198.55	42.857
198.92	333.333
199.30	175.000
199.68	145.455
200.05	128.571
200.43	650.000
200.81	-142.857
201.18	0.000
201.56	11.111
201.94	0.000
202.31	-300.000
202.69	122.222
203.07	-1600.000
203.44	100.000
203.82	500.000
204.19	158.333
204.57	150.000
204.95	212.500
205.32	400.000
205.70	-275.000
206.08	183.333
206.45	100.000
206.83	-140.000
207.20	250.000
207.58	20.000
207.96	250.000
208.33	216.667
208.71	-33.333
209.08	250.000
209.46	0.000
209.84	-66.667
210.21	-550.000
210.59	-500.000
210.96	-233.333
211.34	350.000
211.71	100.000
212.09	400.000
212.46	0.000
212.84	-300.000
213.22	240.000
213.59	475.000
213.97	190.000
214.34	233.333
214.72	-16.667
215.09	200.000
215.47	0.000
215.84	-114.286
216.22	-0.000
216.59	240.000
216.97	340.000
217.34	225.000
217.72	137.500
218.09	225.000
218.47	50.000
218.84	0.000
219.22	-320.000
219.59	88.235
219.97	60.000
220.34	-300.000
220.72	66.667
221.09	138.462
221.47	466.667
221.84	190.000
222.22	100.000
222.59	0.000
222.97	162.500
223.34	20.000
223.72	400.000
224.09	550.000
224.46	100.000
224.84	160.000
225.21	85.714
225.59	150.000
225.96	125.000
226.34	42.308
226.71	-66.667
227.08	900.000
227.46	80.000
227.83	250.000
228.21	105.263
228.58	-125.000
228.95	-200.000
229.33	91.667
229.70	130.000
230.08	100.000
230.45	-20.000
230.82	333.333
231.20	57.143
231.57	83.333
231.95	136.364
232.32	109.091
232.69	55.000
233.07	225.000
233.44	64.706
233.81	90.000
234.19	144.444
234.56	81.818
234.93	82.759
235.31	57.895
235.68	72.222
236.05	40.000
236.43	80.769
236.80	68.000
237.17	66.667
237.55	36.364
237.92	40.000
238.29	35.484
238.67	13.636
239.04	38.889
239.41	33.333
239.79	39.130
240.16	24.074
240.53	21.739
240.91	7.843
241.28	22.951
241.65	28.358
242.02	28.378
242.40	23.077
242.77	33.333
243.14	26.829
243.51	10.526
243.89	11.538
244.26	19.802
244.63	24.510
245.00	23.364
245.38	12.281
245.75	5.310
246.12	18.254
246.49	13.178
246.87	17.143
247.24	9.934
247.61	15.789
247.98	14.765
248.36	10.494
248.73	7.975
249.10	10.929
249.47	16.915
249.84	14.660
250.22	4.663
250.59	11.111
250.96	12.273
251.33	5.102
251.70	16.667
252.08	12.917
252.45	14.344
252.82	5.785
253.19	2.344
253.56	7.224
253.94	8.462
254.31	7.576
254.68	10.490
255.05	11.075
255.42	7.143
255.79	6.796
256.16	7.285
256.54	8.940
256.91	9.180
257.28	9.836
257.65	5.732
258.02	7.965
258.39	9.687
258.76	10.092
259.14	8.046
259.51	7.493
259.88	8.499
260.25	5.278
260.62	6.027
260.99	8.470
261.36	8.579
261.73	6.897
262.10	6.868
262.47	7.239
262.85	11.869
263.22	6.234
263.59	4.474
263.96	5.371
264.33	5.627
264.70	7.654
265.07	8.592
265.44	10.658
265.81	4.398
266.18	8.163
266.55	7.366
266.92	4.328
267.29	7.877
267.66	5.543
268.03	6.987
268.40	7.516
268.77	5.695
269.14	4.846
269.51	6.579
269.88	8.607
270.25	6.036
270.62	8.861
270.99	9.091
271.36	9.109
271.73	8.055
272.10	8.617
272.47	6.413
272.84	7.631
273.21	6.212
273.58	5.847
273.95	5.000
274.32	5.133
274.69	5.029
275.06	7.509
275.43	4.067
275.80	8.818
276.17	3.519
276.54	5.037
276.91	5.009
277.28	5.425
277.65	5.566
278.02	5.515
278.39	4.891
278.76	4.218
279.13	5.851
279.50	7.732
279.87	5.367
280.23	2.817
280.60	6.271
280.97	6.908
281.34	4.414
281.71	6.768
282.08	5.316
282.45	5.401
282.82	4.082
283.19	4.847
283.56	6.721
283.92	7.357
284.29	7.109
284.66	6.404
285.03	5.288
285.40	7.110
285.77	5.263
286.14	7.481
286.51	4.871
286.87	6.635
287.24	5.723
287.61	4.484
287.98	3.625
288.35	5.030
288.72	5.917
289.08	6.735
289.45	6.657
289.82	5.422
290.19	6.034
290.56	7.324
290.93	5.421
291.29	6.336
291.66	5.096
292.03	5.020
292.40	7.891
292.77	5.930
293.13	7.713
293.50	6.439
293.87	5.638
294.24	6.533
294.60	8.597
294.97	5.772
295.34	7.810
295.71	6.179
296.08	6.072
296.44	5.515
296.81	5.603
297.18	6.351
297.55	5.896
297.91	5.931
298.28	5.213
298.65	5.470
299.02	5.785
299.38	6.407
299.75	6.542
300.12	5.903
300.48	6.912
300.85	6.524
301.22	6.488
301.59	3.995
301.95	6.215
302.32	7.444
302.69	5.586
303.05	6.202
303.42	6.098
303.79	6.250
304.15	6.414
304.52	6.871
304.89	6.387
305.25	7.867
305.62	7.315
305.99	7.629
306.35	6.552
306.72	7.135
307.09	6.193
307.45	5.590
307.82	6.559
308.19	6.458
308.55	8.100
308.92	7.887
309.29	8.333
309.65	6.433
310.02	6.832
310.38	7.283
310.75	7.087
311.12	8.533
311.48	5.865
311.85	6.553
312.22	7.685
312.58	7.230
312.95	7.839
313.31	8.672
313.68	8.516
314.05	8.311
314.41	8.652
314.78	7.811
315.14	7.985
315.51	9.603
315.87	6.931
316.24	8.676
316.61	9.147
316.97	8.507
317.34	8.907
317.70	8.908
318.07	9.083
318.43	9.524
318.80	10.953
319.16	8.412
319.53	7.883
319.89	7.975
320.26	11.388
320.62	8.156
320.99	9.695
321.35	9.057
321.72	10.233
322.08	9.558
322.45	10.117
322.81	10.469
323.18	9.469
323.54	10.172
323.91	10.231
324.27	9.552
324.64	10.663
325.00	9.536
325.37	11.302
325.73	11.570
326.10	11.517
326.46	11.482
326.83	12.090
327.19	11.024
327.56	12.885
327.92	10.622
328.29	11.129
328.65	11.139
329.01	11.083
329.38	10.952
329.74	13.099
330.11	12.414
330.47	11.963
330.84	11.972
331.20	13.417
331.56	13.345
331.93	12.636
332.29	13.898
332.66	12.209
333.02	12.563
333.38	13.423
333.75	12.963
334.11	13.595
334.48	12.129
334.84	15.378
335.20	13.938
335.57	13.491
335.93	13.471
336.29	12.729
336.66	12.952
337.02	14.548
337.38	13.946
337.75	13.223
338.11	14.130
338.47	13.317
338.84	14.044
339.20	13.227
339.56	13.427
339.93	14.368
340.29	14.493
340.65	13.950
341.02	15.802
341.38	14.713
341.74	12.914
342.11	14.159
342.47	13.503
342.83	15.298
343.20	14.881
343.56	14.515
343.92	14.011
344.28	15.391
344.65	13.566
345.01	13.807
345.37	14.697
345.73	13.484
346.10	14.587
346.46	13.608
346.82	14.382
347.19	14.744
347.55	15.099
347.91	14.339
348.27	14.416
348.63	15.385
349.00	13.125
349.36	15.316
349.72	15.179
350.08	14.785
350.45	14.297
350.81	14.706
351.17	14.361
351.53	15.011
351.89	14.579
352.26	14.776
352.62	14.627
352.98	14.733
353.34	13.667
353.70	14.869
354.07	14.754
354.43	13.819
354.79	14.809
355.15	14.864
355.51	14.985
355.87	14.660
356.24	15.741
356.60	15.225
356.96	15.641
357.32	14.349
357.68	14.495
358.04	14.970
358.40	14.403
358.77	14.985
359.13	13.959
359.49	14.052
359.85	15.664
360.21	15.280
360.57	15.721
360.93	16.008
361.29	16.000
361.66	15.062
362.02	16.354
362.38	14.758
362.74	15.922
363.10	16.094
363.46	15.374
363.82	16.264
364.18	15.412
364.54	15.975
364.90	17.258
365.26	14.966
365.62	16.400
365.98	16.678
366.35	15.906
366.71	15.850
367.07	15.223
367.43	16.415
367.79	17.186
368.15	16.789
368.51	17.118
368.87	15.676
369.23	16.667
369.59	16.667
369.95	16.903
370.31	17.151
370.67	16.919
371.03	16.828
371.39	17.193
371.75	16.094
372.11	17.344
372.47	16.926
372.83	17.212
373.19	17.745
373.55	17.751
373.91	16.360
374.27	16.818
374.63	17.794
374.99	17.241
375.35	17.662
375.71	17.742
376.07	18.205
376.42	17.758
376.78	17.651
377.14	17.779
377.50	18.027
377.86	18.288
378.22	18.024
378.58	18.787
378.94	18.603
379.30	18.688
379.66	18.166
380.02	19.504
380.38	18.779
380.74	18.197
381.09	18.409
381.45	19.261
381.81	19.614
382.17	19.537
382.53	19.181
382.89	19.357
383.25	19.343
383.61	18.345
383.97	20.024
384.32	20.455
384.68	18.735
385.04	20.301
385.40	20.684
385.76	20.750
386.12	19.449
386.48	20.882
386.83	21.097
387.19	20.973
387.55	20.246
387.91	19.749
388.27	21.305
388.62	20.962
388.98	19.910
389.34	21.391
389.70	20.686
390.06	20.485
390.42	20.964
390.77	21.192
391.13	21.127
391.49	21.256
391.85	19.939
392.20	22.598
392.56	21.205
392.92	22.192
393.28	21.891
393.64	21.397
393.99	21.732
394.35	21.671
394.71	21.916
395.07	21.138
395.42	20.731
395.78	22.486
396.14	22.579
396.50	21.437
396.85	21.169
397.21	20.888
397.57	21.673
397.92	22.451
398.28	21.130
398.64	20.709
399.00	20.681
399.35	20.942
399.71	21.848
400.07	20.887
400.42	21.886
400.78	20.255
401.14	22.311
401.49	22.115
401.85	21.395
402.21	21.495
402.57	21.244
402.92	21.395
403.28	20.667
403.63	20.525
403.99	20.487
404.35	21.546
404.70	21.756
405.06	21.250
405.42	21.721
405.77	21.429
406.13	21.610
406.49	20.383
406.84	21.551
407.20	21.297
407.55	21.866
407.91	20.553
408.27	20.907
408.62	21.350
408.98	21.358
409.34	21.408
409.69	21.137
410.05	20.574
410.40	22.042
410.76	20.920
411.11	21.975
411.47	21.499
411.83	21.987
412.18	21.265
412.54	22.110
412.89	22.817
413.25	20.880
413.60	21.080
413.96	21.154
414.31	21.020
414.67	21.109
415.03	21.292
415.38	21.942
415.74	20.892
416.09	22.085
416.45	21.415
416.80	20.991
417.16	20.945
417.51	21.482
417.87	21.521
418.22	21.198
418.58	21.437
418.93	22.293
419.29	21.825
419.64	21.369
420.00	21.662
420.35	21.280
420.71	21.597
421.06	20.817
421.42	22.420
421.77	21.163
422.12	21.617
422.48	21.403
422.83	21.961
423.19	21.857
423.54	22.235
423.90	21.977
424.25	22.933
424.61	22.044
424.96	22.295
425.31	22.240
425.67	21.632
426.02	22.357
426.38	22.044
426.73	21.373
427.09	22.895
427.44	22.174
427.79	22.167
428.15	21.176
428.50	21.517
428.85	22.790
429.21	23.191
429.56	22.211
429.92	21.867
430.27	22.699
430.62	22.081
430.98	22.135
431.33	22.092
431.68	21.169
432.04	22.854
432.39	22.871
432.74	22.888
433.10	23.310
433.45	22.241
433.80	22.908
434.16	22.262
434.51	21.531
434.86	23.236
435.22	22.104
435.57	23.172
435.92	22.983
436.28	23.038
436.63	23.102
436.98	23.188
437.34	22.773
437.69	22.675
438.04	22.951
438.39	23.952
438.75	23.022
439.10	23.890
439.45	22.806
439.81	23.785
440.16	22.842
440.51	23.579
440.86	23.457
441.22	23.848
441.57	23.428
441.92	23.957
442.27	23.939
442.63	23.547
442.98	24.280
443.33	23.514
443.68	24.331
444.03	23.989
444.39	24.411
444.74	23.890
445.09	23.872
445.44	23.656
445.79	24.138
446.15	23.741
446.50	23.773
446.85	23.833
447.20	23.743
447.55	24.634
447.91	24.346
448.26	23.784
448.61	24.655
448.96	24.946
449.31	24.231
449.66	24.237
450.02	24.895
450.37	24.188
450.72	23.305
451.07	24.487
451.42	24.206
451.77	23.402
452.12	24.323
452.47	23.589
452.83	24.324
453.18	24.518
453.53	24.584
453.88	24.241
454.23	25.480
454.58	24.782
454.93	23.847
455.28	24.865
455.63	24.559
455.98	24.078
456.34	24.853
456.69	24.515
457.04	24.232
457.39	25.111
457.74	24.161
458.09	25.151
458.44	25.000
458.79	24.033
459.14	24.227
459.49	25.241
459.84	24.816
460.19	24.375
460.54	25.099
460.89	25.410
461.24	24.253
461.59	24.903
461.94	23.845
462.29	24.412
462.64	24.381
462.99	24.545
463.34	24.854
463.69	25.147
464.04	25.459
464.39	25.448
464.74	24.629
465.09	23.818
465.44	24.732
465.79	26.018
466.14	24.492
466.49	25.053
466.84	25.234
467.19	25.434
467.54	23.854
467.89	25.345
468.24	24.875
468.59	25.188
468.94	24.592
469.29	25.435
469.64	25.048
469.99	25.494
470.34	25.557
470.68	26.111
471.03	26.719
471.38	25.441
471.73	25.683
472.08	26.840
472.43	25.948
472.78	26.196
473.13	26.549
473.48	26.707
473.83	27.162
474.17	25.967
474.52	26.939
474.87	26.800
475.22	26.535
475.57	25.130
475.92	25.684
476.27	26.145
476.61	26.012
476.96	25.912
477.31	26.733
477.66	27.125
478.01	26.690
478.36	25.773
478.70	26.158
479.05	27.198
479.40	25.568
479.75	26.705
480.10	26.622
480.45	26.527
480.79	26.440
481.14	26.746
481.49	26.352
481.84	26.893
482.19	26.581
482.53	26.410
482.88	26.673
483.23	26.812
483.58	26.288
483.92	25.842
484.27	26.207
484.62	26.114
484.97	26.555
485.31	25.590
485.66	25.628
486.01	24.728
486.36	24.415
486.70	24.615
487.05	25.198
487.40	25.586
487.75	26.260
488.09	26.458
488.44	26.726
488.79	26.476
489.13	26.720
489.48	26.330
489.83	26.559
490.17	25.881
490.52	26.190
490.87	26.692
491.22	26.863
491.56	26.664
491.91	26.821
492.26	27.218
492.60	26.716
492.95	26.503
493.30	27.028
493.64	26.807
493.99	26.491
494.34	26.307
494.68	26.510
495.03	26.740
495.37	26.676
495.72	27.982
496.07	26.906
496.41	27.542
496.76	26.814
497.11	27.176
497.45	26.845
497.80	27.010
498.14	27.075
498.49	26.884
498.84	26.965
499.18	27.126
499.53	27.220
499.87	27.648
500.22	26.670
500.56	27.036
500.91	27.551
501.26	28.455
501.60	26.867
501.95	28.007
502.29	27.819
502.64	27.591
502.98	27.524
503.33	27.819
503.67	26.908
504.02	28.152
504.36	28.150
504.71	28.158
505.06	27.649
505.40	28.611
505.75	29.053
506.09	28.085
506.44	28.877
506.78	28.807
507.13	28.677
507.47	28.328
507.82	28.646
508.16	27.964
508.51	28.692
508.85	29.051
509.19	29.891
509.54	29.971
509.88	29.043
510.23	29.917
510.57	29.773
510.92	29.705
511.26	29.485
511.61	29.213
511.95	29.673
512.30	30.773
512.64	29.785
512.98	29.965
513.33	30.645
513.67	30.546
514.02	30.659
514.36	31.304
514.70	31.458
515.05	31.752
515.39	31.286
515.74	32.662
516.08	30.956
516.42	32.496
516.77	31.598
517.11	31.717
517.46	32.556
517.80	33.244
518.14	33.460
518.49	33.677
518.83	32.251
519.17	32.041
519.52	33.019
519.86	32.788
520.20	33.546
520.55	32.694
520.89	33.896
521.23	33.836
521.58	33.446
521.92	33.654
522.26	33.448
522.61	34.028
522.95	33.852
523.29	34.540
523.64	33.576
523.98	34.569
524.32	35.244
524.66	34.775
525.01	34.315
525.35	34.520
525.69	35.093
526.04	34.328
526.38	35.862
526.72	35.352
527.06	35.660
527.41	35.510
527.75	35.451
528.09	35.419
528.43	35.761
528.78	35.954
529.12	35.722
529.46	35.357
529.80	35.412
530.15	35.768
530.49	35.884
530.83	36.600
531.17	36.559
531.51	36.943
531.86	37.800
532.20	37.500
532.54	37.104
532.88	37.515
533.22	35.946
533.57	36.642
533.91	37.149
534.25	36.857
534.59	36.954
534.93	36.616
535.27	38.254
535.62	36.953
535.96	36.955
536.30	37.192
536.64	39.279
536.98	38.376
537.32	37.963
537.66	38.178
538.01	37.341
538.35	37.576
538.69	37.800
539.03	37.155
539.37	37.161
539.71	38.258
540.05	37.890
540.39	37.103
540.73	37.523
541.07	37.646
541.42	37.035
541.76	36.951
542.10	38.359
542.44	38.002
542.78	38.443
543.12	38.081
543.46	37.973
543.80	36.631
544.14	37.822
544.48	38.002
544.82	38.300
545.16	37.746
545.50	38.706
545.84	37.600
546.18	39.630
546.52	39.490
546.86	38.176
547.20	38.486
547.54	38.577
547.88	38.397
548.22	38.246
548.56	37.917
548.90	37.731
549.24	37.447
549.58	39.621
549.92	38.329
550.26	39.417
550.60	38.481
550.94	38.810
551.28	39.208
551.62	40.094
551.96	39.482
552.30	39.834
552.64	39.515
552.98	38.677
553.32	40.386
553.66	39.293
554.00	39.723
554.34	39.640
554.68	39.380
555.02	40.999
555.36	38.856
555.69	39.013
556.03	39.155
556.37	39.612
556.71	38.935
557.05	40.000
557.39	39.018
557.73	38.639
558.07	39.338
558.41	40.000
558.75	39.351
559.08	40.153
559.42	39.438
559.76	39.688
560.10	38.982
560.44	39.710
560.78	40.000
561.12	38.300
561.45	39.964
561.79	40.110
562.13	39.433
562.47	37.793
562.81	39.494
563.15	38.889
563.48	39.528
563.82	38.271
564.16	38.946
564.50	39.333
564.84	39.528
565.17	39.353
565.51	38.953
565.85	38.895
566.19	38.249
566.52	39.848
566.86	39.162
567.20	37.629
567.54	37.493
567.88	38.787
568.21	37.945
568.55	37.074
568.89	37.449
569.23	37.093
569.56	36.225
569.90	36.743
570.24	35.616
570.57	35.888
570.91	35.150
571.25	35.175
571.59	35.402
571.92	35.075
572.26	35.151
572.60	34.944
572.93	34.846
573.27	35.853
573.61	34.648
573.95	34.571
574.28	34.618
574.62	34.607
574.96	34.274
575.29	34.193
575.63	34.234
575.97	34.347
576.30	34.838
576.64	34.837
576.98	34.351
577.31	34.735
577.65	34.482
577.98	34.337
578.32	33.977
578.66	34.131
578.99	34.323
579.33	34.682
579.67	34.859
580.00	34.525
580.34	34.599
580.67	34.687
581.01	34.552
581.35	34.113
581.68	33.931
582.02	33.844
582.35	34.018
582.69	34.348
583.02	33.975
583.36	35.038
583.70	34.697
584.03	34.965
584.37	35.596
584.70	34.939
585.04	34.597
585.37	34.622
585.71	34.412
586.04	34.038
586.38	34.656
586.72	34.194
587.05	35.073
587.39	35.153
587.72	34.737
588.06	34.333
588.39	35.176
588.73	35.053
589.06	35.468
589.40	35.526
589.73	35.347
590.07	36.041
590.40	36.105
590.73	36.903
591.07	36.560
591.40	35.886
591.74	36.804
592.07	36.987
592.41	36.987
592.74	36.244
593.08	35.987
593.41	35.491
593.75	34.885
594.08	35.747
594.41	35.545
594.75	35.669
595.08	36.036
595.42	36.136
595.75	36.648
596.09	36.496
596.42	35.722
596.75	36.743
597.09	37.414
597.42	37.187
597.75	36.025
598.09	36.786
598.42	36.872
598.76	36.607
599.09	35.742
599.42	35.501
599.76	35.358
600.09	35.736
600.42	35.636
600.76	35.271
601.09	35.413
601.42	35.084
601.76	35.793
602.09	36.061
602.42	36.350
602.76	36.162
603.09	37.041
603.42	36.236
603.76	36.258
604.09	36.622
604.42	36.587
604.76	35.731
605.09	35.979
605.42	36.762
605.75	35.769
606.09	36.506
606.42	36.045
606.75	35.495
607.09	35.407
607.42	35.723
607.75	37.202
608.08	36.267
608.42	35.711
608.75	36.484
609.08	37.054
609.41	37.274
609.75	35.804
610.08	37.027
610.41	35.429
610.74	36.471
611.07	37.167
611.41	36.592
611.74	38.522
612.07	37.494
612.40	37.167
612.73	37.555
613.07	37.702
613.40	37.777
613.73	36.495
614.06	37.242
614.39	36.832
614.72	36.633
615.06	37.247
615.39	36.539
615.72	37.062
616.05	36.911
616.38	37.891
616.71	37.618
617.05	36.422
617.38	37.881
617.71	37.689
618.04	38.262
618.37	38.361
618.70	38.009
619.03	38.471
619.36	38.471
619.69	39.974
620.03	38.355
620.36	38.221
620.69	38.125
621.02	39.436
621.35	41.437
621.68	40.347
622.01	39.644
622.34	38.842
622.67	39.175
623.00	37.652
623.33	39.018
623.66	38.392
623.99	37.986
624.32	40.221
624.65	37.066
624.99	39.337
625.32	39.451
625.65	39.649
625.98	39.322
626.31	39.688
626.64	40.366
626.97	39.685
627.30	40.243
627.63	39.760
627.96	40.616
628.29	40.700
628.62	40.050
628.95	40.403
629.28	39.507
629.61	41.077
629.94	40.000
630.26	39.746
630.59	40.328
630.92	40.260
631.25	41.145
631.58	42.279
631.91	41.612
632.24	41.402
632.57	42.220
632.90	42.628
633.23	42.143
633.56	43.163
633.89	42.562
634.22	43.139
634.55	42.902
634.88	43.290
635.20	43.488
635.53	44.181
635.86	42.470
636.19	43.478
636.52	41.983
636.85	41.369
637.18	40.852
637.51	42.258
637.83	44.961
638.16	43.548
638.49	43.075
638.82	42.390
639.15	42.383
639.48	44.342
639.81	43.764
640.13	43.934
640.46	42.182
640.79	41.912
641.12	44.099
641.45	41.782
641.77	44.673
642.10	42.257
642.43	45.213
642.76	43.225
643.09	44.658
643.41	43.838
643.74	43.586
644.07	45.655
644.40	45.969
644.73	46.009
645.05	46.109
645.38	45.468
645.71	44.575
646.04	46.628
646.36	45.401
646.69	44.172
647.02	46.330
647.35	46.870
647.67	46.538
648.00	46.497
648.33	46.997
648.66	45.221
648.98	43.265
649.31	44.790
649.64	43.958
649.96	42.838
650.29	43.394
650.62	44.979
650.94	44.444
651.27	42.365
651.60	43.421
651.92	44.377
652.25	45.007
652.58	42.091
652.90	43.459
653.23	44.507
653.56	44.223
653.88	43.820
654.21	41.690
654.54	42.052
654.86	45.042
655.19	39.900
655.52	36.712
655.84	29.921
656.17	36.780
656.49	52.228
656.82	58.734
657.15	45.901
657.47	34.789
657.80	26.073
658.13	20.940
658.45	27.863
658.78	34.401
659.10	35.386
659.43	36.535
659.75	38.427
660.08	39.440
660.41	42.432
660.73	42.531
661.06	45.081
661.38	45.295
661.71	45.862
662.03	45.679
662.36	44.902
662.68	45.028
663.01	45.133
663.33	48.771
663.66	47.253
663.98	46.154
664.31	45.403
664.63	46.628
664.96	47.550
665.28	43.194
665.61	47.378
665.93	46.250
666.26	43.548
666.58	44.834
666.91	47.290
667.23	47.429
667.56	46.548
667.88	46.200
668.21	45.313
668.53	42.857
668.86	45.972
669.18	47.658
669.50	47.714
669.83	45.000
670.15	43.110
670.48	48.016
670.80	45.124
671.13	44.802
671.45	45.276
671.77	45.386
672.10	43.833
672.42	43.689
672.75	42.089
673.07	41.791
673.39	42.065
673.72	43.960
674.04	45.000
674.37	45.796
674.69	44.974
675.01	46.857
675.34	44.084
675.66	47.566
675.98	44.216
676.31	44.922
676.63	46.958
676.95	43.678
677.28	43.347
677.60	41.929
677.92	47.409
678.25	44.607
678.57	44.128
678.89	41.297
679.22	41.638
679.54	44.615
679.86	42.542
680.18	44.279
680.51	42.453
680.83	43.208
681.15	42.931
681.48	43.523
681.80	45.078
682.12	43.182
682.44	42.070
682.77	44.504
683.09	42.992
683.41	44.767
683.73	43.454
684.06	43.358
684.38	42.755
684.70	45.961
685.02	42.857
685.34	40.100
685.67	39.274
685.99	40.491
686.31	38.808
686.63	40.600
686.96	41.640
687.28	43.160
687.60	42.424
687.92	39.389
688.24	41.903
688.56	40.690
688.89	45.009
689.21	42.661
689.53	42.353
689.85	42.406
690.17	41.296
690.49	44.024
690.82	43.960
691.14	42.105
691.46	43.403
691.78	43.462
692.10	41.651
692.42	42.143
692.74	41.198
693.06	40.926
693.39	42.125
693.71	40.789
694.03	42.751
694.35	41.905
694.67	45.175
694.99	42.766
695.31	42.605
695.63	46.320
695.95	40.580
696.27	43.077
696.59	42.035
696.91	41.667
697.23	44.396
697.56	40.937
697.88	40.909
698.20	44.821
698.52	44.129
698.84	44.283
699.16	44.286
699.48	44.351
699.80	41.915
700.12	42.795
700.44	44.470
700.76	43.230
701.08	44.310
701.40	47.927
701.72	44.527
702.04	48.128
702.36	40.052
702.68	41.076
703.00	44.254
703.32	44.089
703.64	44.499
703.96	46.062
704.28	45.209
704.60	46.076
704.91	43.878
705.23	45.205
705.55	44.568
705.87	46.061
706.19	52.454
706.51	43.976
706.83	43.228
707.15	42.593
707.47	41.822
707.79	41.921
708.11	40.466
708.43	39.785
708.74	37.946
709.06	40.835
709.38	46.948
709.70	47.146
710.02	42.894
710.34	42.287
710.66	44.413
710.98	44.536
711.29	43.407
711.61	47.740
711.93	47.009
712.25	44.054
712.57	47.788
712.89	46.176
713.20	41.124
713.52	43.931
713.84	43.454
714.16	46.316
714.48	43.557
714.80	45.455
715.11	41.470
715.43	41.910
715.75	42.368
716.07	43.094
716.39	41.530
716.70	42.470
717.02	45.246
717.34	42.509
717.66	44.295
717.97	45.548
718.29	45.704
718.61	47.039
718.93	43.366
719.24	40.683
719.56	42.945
719.88	43.544
720.20	44.516
720.51	42.236
720.83	42.500
721.15	44.079
721.46	44.863
721.78	44.000
722.10	41.424
722.42	42.617
722.73	41.613
723.05	49.474
723.37	39.931
723.68	49.821
724.00	44.765
724.32	44.014
724.63	46.154
724.95	44.326
725.27	40.070
725.58	44.170
725.90	43.103
726.22	40.439
726.53	42.857
726.85	41.509
727.16	42.598
727.48	41.284
727.80	44.371
728.11	43.463
728.43	45.118
728.74	44.816
729.06	45.364
729.38	41.883
729.69	39.933
730.01	41.369
730.32	35.758
730.64	40.566
730.96	41.304
731.27	40.223
731.59	43.132
731.90	39.740
732.22	36.719
732.53	39.227
732.85	41.714
733.16	43.695
733.48	42.683
733.80	41.504
734.11	39.031
734.43	37.838
734.74	41.519
735.06	37.186
735.37	39.730
735.69	39.730
736.00	39.831
736.32	37.466
736.63	38.889
736.95	41.667
737.26	43.333
737.58	40.606
737.89	39.706
738.21	38.226
738.52	40.000
738.83	43.003
739.15	40.071
739.46	40.816
739.78	42.331
740.09	37.822
740.41	41.399
740.72	42.333
741.04	40.453
741.35	44.912
741.66	44.706
741.98	45.902
742.29	47.280
742.61	44.298
742.92	39.615
743.23	45.126
743.55	49.225
743.86	46.400
744.18	43.388
744.49	45.148
744.80	43.621
745.12	47.679
745.43	45.935
745.74	46.121
746.06	41.102
746.37	45.148
746.68	52.033
747.00	42.500
747.31	48.927
747.62	47.308
747.94	42.105
748.25	43.775
748.56	42.449
748.88	45.299
749.19	43.966
749.50	38.961
749.82	42.169
750.13	44.840
750.44	40.333
750.75	41.231
751.07	40.923
751.38	39.748
751.69	42.492
752.01	39.806
752.32	40.196
752.63	40.816
752.94	43.599
753.26	42.379
753.57	37.407
753.88	41.948
754.19	42.122
754.51	42.444
754.82	40.514
755.13	46.557
755.44	41.980
755.75	42.763
756.07	40.299
756.38	40.881
756.69	41.566
757.00	36.288
757.31	34.973
757.63	34.527
757.94	33.099
758.25	32.506
758.56	37.255
758.87	36.591
759.18	36.267
759.50	39.943
759.81	38.375
760.12	38.275
760.43	38.281
760.74	37.685
761.05	36.750
761.36	35.422
761.67	37.310
761.99	36.757
762.30	41.159
762.61	32.673
762.92	41.418
763.23	37.079
763.54	37.770
763.85	37.457
764.16	43.771
764.47	43.310
764.78	36.102
765.10	36.950
765.41	38.205
765.72	35.714
766.03	38.418
766.34	34.796
766.65	37.282
766.96	41.434
767.27	44.700
767.58	42.786
767.89	50.000
768.20	43.192
768.51	41.667
768.82	42.972
769.13	43.561
769.44	39.231
769.75	40.794
770.06	43.077
770.37	41.732
770.68	37.021
770.99	35.628
771.30	43.333
771.61	38.403
771.92	36.667
772.23	42.510
772.54	37.500
772.85	43.779
773.16	46.667
773.47	42.328
773.78	34.054
774.09	41.477
774.39	41.500
774.70	48.087
775.01	43.293
775.32	36.471
775.63	38.650
775.94	36.943
776.25	47.097
776.56	47.436
776.87	44.218
777.18	46.897
777.48	54.545
777.79	43.243
778.10	40.441
778.41	38.889
778.72	41.379
779.03	35.185
779.34	44.848
779.65	36.788
779.95	46.111
780.26	39.205
780.57	49.032
780.88	52.899
781.19	46.452
781.50	44.706
781.80	42.473
782.11	43.386
782.42	34.848
782.73	40.120
783.04	43.017
783.34	34.545
783.65	37.908
783.96	45.342
784.27	42.262
784.57	45.033
784.88	47.143
785.19	37.008
785.50	44.882
785.81	39.850
786.11	40.769
786.42	40.288
786.73	42.446
787.04	46.617
787.34	46.721
787.65	41.600
787.96	49.254
788.26	46.154
788.57	48.951
788.88	44.079
789.19	49.020
789.49	39.726
789.80	39.716
790.11	43.307
790.41	51.562
790.72	44.068
791.03	47.573
791.33	37.391
791.64	53.509
791.95	39.286
792.25	58.095
792.56	47.321
792.87	43.750
793.17	47.321
793.48	41.667
793.79	49.398
794.09	46.789
794.40	44.954
794.70	39.456
795.01	41.558
795.32	36.986
795.62	40.141
795.93	42.424
796.23	44.262
796.54	50.000
796.85	43.617
797.15	48.913
797.46	53.425
797.76	47.500
798.07	54.348
798.37	36.082
798.68	48.052
798.99	54.023
799.29	49.438
799.60	46.809
799.90	61.446
800.21	60.000
800.51	52.239
800.82	39.706
801.12	46.575
801.43	36.765
801.73	38.983
802.04	43.939
802.34	43.333
802.65	64.407
802.95	53.731
803.26	50.847
803.56	47.945
803.87	60.000
804.17	43.836
804.48	40.351
804.78	51.389
805.09	46.552
805.39	64.865
805.70	38.028
806.00	58.537
806.30	48.193
806.61	52.055
806.91	45.192
807.22	46.667
807.52	40.230
807.83	63.889
808.13	57.831
808.43	48.315
808.74	48.750
809.04	29.412
809.35	42.667
809.65	42.857
809.95	52.055
810.26	56.140
810.56	55.172
810.86	54.412
811.17	36.842
811.47	44.262
811.77	44.444
812.08	72.881
812.38	58.333
812.69	51.724
812.99	62.264
813.29	35.897
813.59	78.000
813.90	38.596
814.20	63.636
814.50	50.704
814.81	52.564
815.11	65.574
815.41	62.687
815.72	70.690
816.02	78.571
816.32	106.667
816.62	77.273
816.93	42.222
817.23	64.815
817.53	78.723
817.84	52.381
818.14	88.235
818.44	77.551
818.74	40.000
819.04	38.462
819.35	45.714
819.65	53.846
819.95	47.170
820.25	53.333
820.56	78.571
820.86	81.250
821.16	41.026
821.46	51.163
821.76	42.000
822.07	76.786
822.37	21.739
822.67	55.319
822.97	48.649
823.27	55.000
823.57	61.224
823.88	75.556
824.18	62.500
824.48	50.000
824.78	64.000
825.08	72.727
825.38	82.222
825.69	80.851
825.99	69.444
826.29	20.000
826.59	41.026
826.89	60.465
827.19	56.000
827.49	91.176
827.79	64.583
828.09	67.568
828.39	80.000
828.70	63.415
829.00	41.860
829.30	85.714
829.60	70.588
829.90	54.348
830.20	91.429
830.50	79.310
830.80	100.000
831.10	57.692
831.40	73.529
831.70	104.762
832.00	112.903
832.30	52.941
832.60	83.333
832.90	161.538
833.20	126.316
833.50	60.000
833.80	78.947
834.10	66.667
834.40	80.556
834.70	96.875
835.00	54.286
835.30	76.471
835.60	63.333
835.90	112.000
836.20	59.091
836.50	116.000
836.80	45.455
837.10	66.667
837.40	88.889
837.70	62.500
838.00	64.286
838.30	39.130
838.60	68.966
838.90	135.714
839.19	26.087
839.49	41.667
839.79	56.522
840.09	62.500
840.39	110.000
840.69	61.290
840.99	78.571
841.29	86.667
841.59	94.737
841.88	76.923
842.18	53.846
842.48	40.000
842.78	80.000
843.08	60.000
843.38	70.968
843.68	83.333
843.97	32.353
844.27	150.000
844.57	84.211
844.87	150.000
845.17	73.333
845.47	123.810
845.76	47.619
846.06	100.000
846.36	88.235
846.66	100.000
846.96	86.667
847.25	70.588
847.55	95.652
847.85	75.000
848.15	123.529
848.44	81.818
848.74	80.952
849.04	75.000
849.34	81.250
849.63	82.609
849.93	-700.000
850.23	133.333
850.53	84.615
850.82	145.455
851.12	109.091
851.42	127.273
851.71	215.385
852.01	15.000
852.31	30.769
852.61	121.053
852.90	116.667
853.20	66.667
853.50	122.222
853.79	52.381
854.09	63.636
854.39	116.667
854.68	80.645
854.98	57.692
855.28	100.000
855.57	60.714
855.87	80.000
856.17	104.545
856.46	88.889
856.76	88.889
857.05	82.609
857.35	79.167
857.65	146.154
857.94	114.286
858.24	88.889
858.53	95.652
858.83	105.882
859.13	82.353
859.42	117.647
859.72	92.857
860.01	100.000
860.31	44.444
860.60	170.000
860.90	86.667
861.20	122.222
861.49	92.308
861.79	70.000
862.08	92.308
862.38	78.125
862.67	117.647
862.97	118.750
863.26	66.667
863.56	90.000
863.85	181.818
864.15	100.000
864.44	233.333
864.74	135.714
865.03	125.000
865.33	70.000
865.62	58.065
865.92	54.545
866.21	95.652
866.51	214.286
866.80	320.000
867.10	75.000
867.39	0.000
867.69	100.000
867.98	328.571
868.27	123.529
868.57	1500.000
868.86	50.000
869.16	90.476
869.45	70.833
869.75	145.455
870.04	200.000
870.33	116.667
870.63	57.143
870.92	400.000
871.22	162.500
871.51	54.545
871.80	233.333
872.10	700.000
>>>>>End Processed Spectral Data<<<<<
