SpectraSuite Data File
++++++++++++++++++++++++++++++++++++
Date: Thu May 14 14:50:06 PDT 2015
User: schluterlab
Dark Spectrum Present: Yes
Reference Spectrum Present: Yes
Number of Sampled Component Spectra: 1
Spectrometers: USB2E3373
Integration Time (usec): 3000 (USB2E3373)
Spectra Averaged: 3 (USB2E3373)
Boxcar Smoothing: 0 (USB2E3373)
Correct for Electrical Dark: No (USB2E3373)
Strobe/Lamp Enabled: No (USB2E3373)
Correct for Detector Non-linearity: No (USB2E3373)
Correct for Stray Light: No (USB2E3373)
Number of Pixels in Processed Spectrum: 2048
>>>>>Begin Processed Spectral Data<<<<<
178.53	0.000
178.91	100.000
179.29	-1700.000
179.67	-1200.000
180.04	214.286
180.42	120.000
180.80	260.000
181.18	-1000.000
181.56	200.000
181.94	150.000
182.31	50.000
182.69	300.000
183.07	-500.000
183.45	325.000
183.83	-166.667
184.20	-33.333
184.58	900.000
184.96	-300.000
185.34	-66.667
185.72	-240.000
186.09	133.333
186.47	500.000
186.85	360.000
187.23	-133.333
187.61	-1400.000
187.98	80.000
188.36	75.000
188.74	-50.000
189.12	0.000
189.49	0.000
189.87	-25.000
190.25	33.333
190.63	-100.000
191.00	-66.667
191.38	0.000
191.76	-150.000
192.14	0.000
192.51	300.000
192.89	50.000
193.27	0.000
193.65	14.286
194.02	-700.000
194.40	28.571
194.78	242.857
195.15	0.000
195.53	45.455
195.91	0.000
196.29	-50.000
196.66	-7.692
197.04	-1100.000
197.42	-228.571
197.79	-400.000
198.17	-87.500
198.55	-100.000
198.92	0.000
199.30	-75.000
199.68	0.000
200.05	-14.286
200.43	-400.000
200.81	200.000
201.18	0.000
201.56	155.556
201.94	0.000
202.31	333.333
202.69	-122.222
203.07	-500.000
203.44	11.111
203.82	-425.000
204.19	-8.333
204.57	-116.667
204.95	-212.500
205.32	-900.000
205.70	25.000
206.08	16.667
206.45	-16.667
206.83	320.000
207.20	-100.000
207.58	-240.000
207.96	-66.667
208.33	66.667
208.71	125.000
209.08	33.333
209.46	0.000
209.84	200.000
210.21	200.000
210.59	50.000
210.96	500.000
211.34	-25.000
211.71	12.500
212.09	-900.000
212.46	0.000
212.84	1050.000
213.22	-340.000
213.59	-100.000
213.97	-40.000
214.34	-100.000
214.72	183.333
215.09	75.000
215.47	0.000
215.84	28.571
216.22	550.000
216.59	-80.000
216.97	-100.000
217.34	-250.000
217.72	-100.000
218.09	-150.000
218.47	-100.000
218.84	0.000
219.22	180.000
219.59	11.765
219.97	45.000
220.34	700.000
220.72	-77.778
221.09	15.385
221.47	-166.667
221.84	-90.000
222.22	-57.143
222.59	0.000
222.97	-25.000
223.34	-40.000
223.72	-300.000
224.09	-100.000
224.46	-100.000
224.84	160.000
225.21	-114.286
225.59	-200.000
225.96	-100.000
226.34	46.154
226.71	83.333
227.08	200.000
227.46	-20.000
227.83	-125.000
228.21	26.316
228.58	62.500
228.95	-300.000
229.33	50.000
229.70	-10.000
230.08	52.632
230.45	110.000
230.82	0.000
231.20	21.429
231.57	-16.667
231.95	-54.545
232.32	-90.909
232.69	-15.000
233.07	-75.000
233.44	-17.647
233.81	-110.000
234.19	50.000
234.56	-13.636
234.93	37.931
235.31	26.316
235.68	38.889
236.05	-15.000
236.43	76.923
236.80	32.000
237.17	37.037
237.55	27.273
237.92	20.000
238.29	32.258
238.67	27.273
239.04	11.111
239.41	35.714
239.79	34.783
240.16	25.926
240.53	17.391
240.91	9.804
241.28	31.148
241.65	44.776
242.02	32.432
242.40	29.231
242.77	24.000
243.14	13.415
243.51	23.684
243.89	35.897
244.26	32.673
244.63	31.373
245.00	34.579
245.38	28.947
245.75	12.389
246.12	38.889
246.49	31.008
246.87	38.571
247.24	37.748
247.61	34.868
247.98	28.859
248.36	33.951
248.73	24.540
249.10	31.148
249.47	34.328
249.84	37.173
250.22	36.269
250.59	33.333
250.96	33.182
251.33	39.286
251.70	32.051
252.08	33.333
252.45	35.246
252.82	33.058
253.19	32.422
253.56	36.502
253.94	31.538
254.31	33.712
254.68	37.413
255.05	30.945
255.42	31.293
255.79	29.773
256.16	29.801
256.54	33.113
256.91	38.033
257.28	27.869
257.65	30.573
258.02	33.038
258.39	31.054
258.76	36.086
259.14	39.368
259.51	30.548
259.88	33.711
260.25	35.000
260.62	36.164
260.99	34.153
261.36	34.584
261.73	32.361
262.10	37.088
262.47	36.997
262.85	36.616
263.22	33.766
263.59	31.053
263.96	34.783
264.33	34.527
264.70	34.321
265.07	35.800
265.44	31.746
265.81	32.870
266.18	34.014
266.55	37.277
266.92	33.941
267.29	35.886
267.66	33.259
268.03	36.245
268.40	31.315
268.77	33.030
269.14	31.278
269.51	34.430
269.88	33.402
270.25	32.394
270.62	32.911
270.99	33.737
271.36	35.248
271.73	32.809
272.10	35.070
272.47	35.070
272.84	34.337
273.21	31.663
273.58	34.677
273.95	30.769
274.32	32.510
274.69	33.849
275.06	33.516
275.43	31.423
275.80	31.746
276.17	32.037
276.54	32.090
276.91	31.843
277.28	30.741
277.65	31.239
278.02	34.375
278.39	34.601
278.76	32.337
279.13	33.511
279.50	32.990
279.87	33.095
280.23	31.514
280.60	33.390
280.97	32.401
281.34	32.258
281.71	33.333
282.08	33.056
282.45	32.570
282.82	32.025
283.19	31.179
283.56	31.639
283.92	31.832
284.29	31.912
284.66	30.706
285.03	30.128
285.40	31.376
285.77	33.282
286.14	30.534
286.51	32.420
286.87	30.490
287.24	32.078
287.61	29.596
287.98	29.456
288.35	27.811
288.72	28.698
289.08	30.747
289.45	29.734
289.82	28.765
290.19	28.592
290.56	30.000
290.93	29.672
291.29	27.824
291.66	28.512
292.03	27.001
292.40	28.707
292.77	27.628
293.13	27.064
293.50	25.230
293.87	27.517
294.24	28.000
294.60	26.422
294.97	25.101
295.34	28.297
295.71	26.734
296.08	26.486
296.44	26.103
296.81	25.213
297.18	25.031
297.55	24.882
297.91	25.386
298.28	24.526
298.65	25.446
299.02	25.030
299.38	25.286
299.75	24.416
300.12	23.958
300.48	25.000
300.85	23.172
301.22	24.497
301.59	22.831
301.95	23.277
302.32	24.222
302.69	24.644
303.05	22.960
303.42	23.614
303.79	23.750
304.15	24.606
304.52	24.101
304.89	24.503
305.25	23.085
305.62	23.720
305.99	23.299
306.35	23.992
306.72	22.958
307.09	23.452
307.45	23.188
307.82	23.814
308.19	23.209
308.55	23.626
308.92	23.661
309.29	23.467
309.65	23.392
310.02	23.861
310.38	24.606
310.75	24.563
311.12	24.545
311.48	24.047
311.85	23.742
312.22	23.245
312.58	22.629
312.95	22.753
313.31	24.029
313.68	26.374
314.05	25.023
314.41	25.046
314.78	24.614
315.14	25.136
315.51	25.023
315.87	25.833
316.24	25.936
316.61	25.666
316.97	25.701
317.34	24.956
317.70	26.725
318.07	25.926
318.43	25.595
318.80	26.756
319.16	25.408
319.53	25.107
319.89	26.468
320.26	26.246
320.62	26.152
320.99	26.316
321.35	26.895
321.72	27.721
322.08	27.502
322.45	27.371
322.81	28.520
323.18	29.027
323.54	28.621
323.91	30.872
324.27	29.002
324.64	29.807
325.00	28.275
325.37	29.075
325.73	30.992
326.10	29.765
326.46	31.189
326.83	31.385
327.19	30.866
327.56	31.383
327.92	30.212
328.29	30.806
328.65	31.407
329.01	30.626
329.38	32.687
329.74	33.134
330.11	32.791
330.47	33.109
330.84	32.730
331.20	33.417
331.56	31.889
331.93	33.640
332.29	33.814
332.66	34.053
333.02	32.998
333.38	33.557
333.75	33.418
334.11	34.445
334.48	33.581
334.84	33.985
335.20	34.089
335.57	33.811
335.93	34.050
336.29	34.110
336.66	33.810
337.02	33.361
337.38	33.929
337.75	33.140
338.11	34.735
338.47	33.830
338.84	33.418
339.20	34.372
339.56	33.526
339.93	34.072
340.29	32.850
340.65	34.144
341.02	34.397
341.38	34.438
341.74	33.656
342.11	34.352
342.47	32.645
342.83	34.783
343.20	34.342
343.56	33.440
343.92	34.988
344.28	34.531
344.65	34.496
345.01	34.243
345.37	34.992
345.73	32.424
346.10	33.931
346.46	34.810
346.82	33.708
347.19	33.995
347.55	34.294
347.91	33.358
348.27	33.839
348.63	34.273
349.00	34.228
349.36	34.275
349.72	33.631
350.08	34.027
350.45	33.232
350.81	34.012
351.17	33.910
351.53	34.723
351.89	34.624
352.26	34.030
352.62	34.478
352.98	34.733
353.34	33.607
353.70	35.362
354.07	35.246
354.43	34.244
354.79	34.181
355.15	34.143
355.51	35.599
355.87	34.256
356.24	35.741
356.60	35.107
356.96	34.173
357.32	35.836
357.68	34.993
358.04	34.431
358.40	35.000
358.77	34.795
359.13	34.195
359.49	34.870
359.85	34.735
360.21	35.581
360.57	35.391
360.93	35.261
361.29	36.281
361.66	34.468
362.02	35.560
362.38	36.332
362.74	35.615
363.10	36.039
363.46	35.665
363.82	35.156
364.18	36.875
364.54	36.515
364.90	35.853
365.26	36.345
365.62	36.333
365.98	36.011
366.35	35.705
366.71	36.395
367.07	36.468
367.43	36.310
367.79	36.828
368.15	37.926
368.51	36.130
368.87	36.447
369.23	37.467
369.59	36.817
369.95	36.646
370.31	37.947
370.67	37.827
371.03	37.673
371.39	36.535
371.75	38.514
372.11	38.415
372.47	37.712
372.83	37.500
373.19	38.626
373.55	37.873
373.91	37.491
374.27	37.775
374.63	38.836
374.99	37.931
375.35	38.896
375.71	38.774
376.07	38.541
376.42	39.295
376.78	39.901
377.14	39.239
377.50	40.164
377.86	39.778
378.22	39.581
378.58	40.547
378.94	40.200
379.30	40.363
379.66	39.976
380.02	40.046
380.38	41.129
380.74	41.183
381.09	41.928
381.45	41.364
381.81	42.272
382.17	41.449
382.53	42.807
382.89	41.366
383.25	43.552
383.61	42.477
383.97	42.403
384.32	43.541
384.68	42.749
385.04	44.245
385.40	43.665
385.76	43.728
386.12	43.567
386.48	43.412
386.83	43.862
387.19	43.975
387.55	43.192
387.91	43.493
388.27	43.476
388.62	44.903
388.98	43.316
389.34	45.787
389.70	46.485
390.06	44.583
390.42	45.783
390.77	45.695
391.13	46.772
391.49	46.075
391.85	46.485
392.20	46.263
392.56	46.663
392.92	46.401
393.28	47.374
393.64	46.369
393.99	47.182
394.35	46.495
394.71	47.425
395.07	46.527
395.42	45.974
395.78	48.385
396.14	47.534
396.50	47.387
396.85	46.452
397.21	46.272
397.57	48.528
397.92	47.537
398.28	46.877
398.64	46.453
399.00	47.696
399.35	47.539
399.71	48.859
400.07	48.737
400.42	48.254
400.78	48.206
401.14	48.435
401.49	47.811
401.85	48.256
402.21	49.884
402.57	49.061
402.92	48.759
403.28	48.302
403.63	48.270
403.99	48.397
404.35	47.641
404.70	48.782
405.06	47.880
405.42	49.239
405.77	50.545
406.13	48.568
406.49	49.381
406.84	48.864
407.20	48.407
407.55	49.243
407.91	49.906
408.27	49.234
408.62	49.622
408.98	49.797
409.34	49.384
409.69	49.691
410.05	50.528
410.40	50.116
410.76	50.869
411.11	50.555
411.47	51.536
411.83	49.853
412.18	51.386
412.54	50.504
412.89	50.698
413.25	50.113
413.60	50.201
413.96	49.417
414.31	49.632
414.67	49.493
415.03	50.400
415.38	51.261
415.74	50.214
416.09	51.141
416.45	50.094
416.80	50.979
417.16	52.299
417.51	51.557
417.87	51.809
418.22	53.353
418.58	51.053
418.93	52.328
419.29	52.219
419.64	51.921
420.00	52.641
420.35	53.004
420.71	52.843
421.06	53.594
421.42	53.383
421.77	52.558
422.12	52.907
422.48	53.559
422.83	54.107
423.19	54.430
423.54	54.701
423.90	54.666
424.25	55.627
424.61	54.305
424.96	54.805
425.31	56.316
425.67	54.214
426.02	56.115
426.38	55.454
426.73	54.576
427.09	57.612
427.44	54.397
427.79	56.385
428.15	55.822
428.50	56.236
428.85	55.683
429.21	57.819
429.56	56.910
429.92	56.757
430.27	56.482
430.62	58.036
430.98	58.042
431.33	57.429
431.68	57.136
432.04	59.878
432.39	58.222
432.74	58.961
433.10	60.032
433.45	59.030
433.80	58.047
434.16	58.781
434.51	60.740
434.86	62.324
435.22	61.371
435.57	61.321
435.92	60.712
436.28	60.978
436.63	62.425
436.98	60.172
437.34	62.458
437.69	62.135
438.04	61.925
438.39	62.206
438.75	62.203
439.10	62.104
439.45	61.822
439.81	62.373
440.16	60.965
440.51	61.817
440.86	61.645
441.22	61.576
441.57	62.998
441.92	63.822
442.27	63.636
442.63	64.034
442.98	63.340
443.33	63.388
443.68	63.677
444.03	64.911
444.39	65.372
444.74	64.931
445.09	62.646
445.44	65.016
445.79	65.134
446.15	65.313
446.50	63.721
446.85	65.175
447.20	65.087
447.55	65.638
447.91	65.183
448.26	65.381
448.61	64.984
448.96	68.133
449.31	65.695
449.66	66.176
450.02	65.454
450.37	65.424
450.72	66.577
451.07	67.483
451.42	65.280
451.77	66.648
452.12	66.930
452.47	66.964
452.83	67.568
453.18	66.258
453.53	65.939
453.88	65.930
454.23	67.797
454.58	67.673
454.93	67.476
455.28	68.513
455.63	67.311
455.98	67.207
456.34	67.373
456.69	68.430
457.04	69.976
457.39	67.849
457.74	68.568
458.09	68.314
458.44	67.672
458.79	66.323
459.14	68.537
459.49	69.383
459.84	68.730
460.19	67.518
460.54	70.528
460.89	69.455
461.24	67.701
461.59	69.895
461.94	67.541
462.29	68.421
462.64	68.678
462.99	68.864
463.34	69.760
463.69	67.644
464.04	69.817
464.39	67.769
464.74	67.674
465.09	69.781
465.44	69.421
465.79	68.747
466.14	68.213
466.49	68.842
466.84	71.240
467.19	69.075
467.54	68.390
467.89	69.195
468.24	69.861
468.59	69.079
468.94	70.105
469.29	70.366
469.64	69.421
469.99	71.064
470.34	70.111
470.68	72.522
471.03	69.679
471.38	70.111
471.73	71.912
472.08	71.066
472.43	70.319
472.78	71.411
473.13	71.365
473.48	70.755
473.83	71.851
474.17	70.868
474.52	71.137
474.87	69.934
475.22	70.535
475.57	69.886
475.92	70.781
476.27	70.660
476.61	70.561
476.96	71.011
477.31	71.238
477.66	71.091
478.01	70.208
478.36	71.785
478.70	70.690
479.05	73.722
479.40	71.866
479.75	70.701
480.10	71.767
480.45	71.513
480.79	71.882
481.14	71.232
481.49	70.377
481.84	71.192
482.19	70.925
482.53	72.234
482.88	72.131
483.23	72.210
483.58	71.004
483.92	70.656
484.27	70.872
484.62	70.751
484.97	70.373
485.31	69.659
485.66	65.676
486.01	65.633
486.36	66.830
486.70	70.328
487.05	72.128
487.40	71.442
487.75	69.695
488.09	69.963
488.44	69.945
488.79	69.477
489.13	69.696
489.48	70.175
489.83	70.141
490.17	70.514
490.52	69.499
490.87	70.305
491.22	71.924
491.56	71.544
491.91	71.130
492.26	71.268
492.60	70.442
492.95	71.391
493.30	71.806
493.64	71.353
493.99	71.053
494.34	71.254
494.68	71.906
495.03	71.454
495.37	71.460
495.72	71.927
496.07	71.297
496.41	71.729
496.76	71.601
497.11	72.314
497.45	72.292
497.80	71.124
498.14	71.701
498.49	72.151
498.84	71.846
499.18	72.200
499.53	72.242
499.87	71.560
500.22	71.505
500.56	71.975
500.91	72.494
501.26	72.227
501.60	71.763
501.95	71.255
502.29	72.312
502.64	72.147
502.98	69.974
503.33	71.274
503.67	71.435
504.02	71.935
504.36	71.761
504.71	72.761
505.06	70.714
505.40	71.755
505.75	71.311
506.09	72.422
506.44	72.238
506.78	71.514
507.13	72.983
507.47	72.335
507.82	71.686
508.16	72.562
508.51	71.683
508.85	71.564
509.19	73.662
509.54	73.679
509.88	71.685
510.23	74.308
510.57	73.175
510.92	73.827
511.26	72.198
511.61	71.849
511.95	73.499
512.30	72.969
512.64	72.664
512.98	73.837
513.33	72.782
513.67	73.687
514.02	73.735
514.36	73.504
514.70	72.656
515.05	73.827
515.39	73.438
515.74	74.284
516.08	73.006
516.42	75.196
516.77	74.869
517.11	73.388
517.46	75.557
517.80	75.147
518.14	75.571
518.49	73.915
518.83	72.645
519.17	73.560
519.52	72.589
519.86	74.921
520.20	72.897
520.55	72.727
520.89	74.831
521.23	75.209
521.58	74.802
521.92	74.901
522.26	74.170
522.61	75.463
522.95	74.567
523.29	74.080
523.64	74.103
523.98	74.900
524.32	76.160
524.66	74.957
525.01	73.216
525.35	73.521
525.69	73.550
526.04	72.618
526.38	75.805
526.72	73.702
527.06	74.897
527.41	73.936
527.75	75.891
528.09	74.321
528.43	75.429
528.78	74.162
529.12	73.853
529.46	73.918
529.80	73.455
530.15	73.217
530.49	74.318
530.83	73.259
531.17	73.536
531.51	73.406
531.86	73.678
532.20	74.634
532.54	73.968
532.88	74.545
533.22	73.129
533.57	72.360
533.91	71.605
534.25	74.505
534.59	74.253
534.93	73.797
535.27	72.620
535.62	73.337
535.96	72.516
536.30	73.325
536.64	73.453
536.98	72.632
537.32	73.889
537.66	72.676
538.01	71.964
538.35	72.777
538.69	73.798
539.03	74.188
539.37	71.555
539.71	72.973
540.05	73.082
540.39	73.289
540.73	70.249
541.07	72.839
541.42	70.644
541.76	70.996
542.10	72.316
542.44	71.803
542.78	73.479
543.12	70.679
543.46	71.429
543.80	70.983
544.14	70.437
544.48	71.277
544.82	72.472
545.16	72.153
545.50	72.798
545.84	71.647
546.18	71.605
546.52	71.975
546.86	72.704
547.20	71.947
547.54	69.663
547.88	71.730
548.22	71.228
548.56	71.270
548.90	71.761
549.24	71.185
549.58	71.167
549.92	71.237
550.26	72.557
550.60	71.666
550.94	72.898
551.28	71.485
551.62	73.181
551.96	69.968
552.30	70.937
552.64	71.935
552.98	71.366
553.32	72.154
553.66	71.254
554.00	72.005
554.34	71.879
554.68	71.272
555.02	72.011
555.36	71.926
555.69	71.108
556.03	71.816
556.37	71.777
556.71	71.528
557.05	70.671
557.39	72.860
557.73	72.127
558.07	71.589
558.41	72.691
558.75	72.887
559.08	73.486
559.42	71.399
559.76	70.692
560.10	72.137
560.44	72.230
560.78	71.750
561.12	70.382
561.45	71.776
561.79	71.612
562.13	73.013
562.47	71.147
562.81	71.013
563.15	72.790
563.48	72.281
563.82	71.282
564.16	70.200
564.50	69.190
564.84	69.912
565.17	70.588
565.51	69.908
565.85	70.368
566.19	68.836
566.52	70.743
566.86	69.440
567.20	69.766
567.54	70.738
567.88	69.317
568.21	69.466
568.55	70.216
568.89	69.360
569.23	66.878
569.56	68.816
569.90	67.284
570.24	67.454
570.57	66.581
570.91	66.626
571.25	66.069
571.59	65.767
571.92	65.139
572.26	64.770
572.60	65.329
572.93	65.655
573.27	65.187
573.61	64.770
573.95	64.409
574.28	63.910
574.62	64.484
574.96	63.123
575.29	63.142
575.63	64.010
575.97	64.263
576.30	63.089
576.64	64.137
576.98	63.736
577.31	64.279
577.65	63.950
577.98	62.462
578.32	62.217
578.66	63.098
578.99	63.445
579.33	64.073
579.67	63.645
580.00	62.891
580.34	63.154
580.67	62.996
581.01	63.501
581.35	62.498
581.68	62.715
582.02	62.834
582.35	64.288
582.69	64.027
583.02	64.007
583.36	64.120
583.70	64.326
584.03	64.195
584.37	64.280
584.70	62.958
585.04	63.009
585.37	63.478
585.71	63.323
586.04	63.474
586.38	64.369
586.72	64.076
587.05	65.004
587.39	65.445
587.72	65.048
588.06	64.894
588.39	64.849
588.73	65.000
589.06	65.350
589.40	66.472
589.73	65.263
590.07	65.385
590.40	65.551
590.73	66.242
591.07	67.014
591.40	65.785
591.74	66.335
592.07	66.788
592.41	65.221
592.74	65.531
593.08	64.873
593.41	65.238
593.75	65.460
594.08	66.404
594.41	66.955
594.75	64.729
595.08	65.680
595.42	66.656
595.75	66.161
596.09	66.181
596.42	66.392
596.75	66.654
597.09	67.152
597.42	65.634
597.75	65.700
598.09	66.349
598.42	66.667
598.76	65.648
599.09	65.575
599.42	64.566
599.76	64.642
600.09	64.231
600.42	65.866
600.76	64.993
601.09	65.682
601.42	65.328
601.76	66.138
602.09	65.690
602.42	65.976
602.76	66.568
603.09	65.969
603.42	65.896
603.76	65.469
604.09	66.927
604.42	66.239
604.76	65.982
605.09	65.576
605.42	65.989
605.75	65.462
606.09	65.622
606.42	64.721
606.75	64.580
607.09	64.977
607.42	64.740
607.75	66.706
608.08	65.312
608.42	65.820
608.75	66.750
609.08	65.323
609.41	66.652
609.75	66.071
610.08	67.546
610.41	66.822
610.74	66.387
611.07	66.341
611.41	66.547
611.74	67.667
612.07	67.602
612.40	67.681
612.73	67.726
613.07	66.993
613.40	67.565
613.73	66.538
614.06	67.026
614.39	65.889
614.72	66.376
615.06	65.881
615.39	66.457
615.72	66.777
616.05	67.071
616.38	67.255
616.71	67.241
617.05	68.211
617.38	67.041
617.71	67.549
618.04	67.566
618.37	67.869
618.70	67.590
619.03	69.116
619.36	68.681
619.69	68.354
620.03	69.931
620.36	66.933
620.69	68.168
621.02	70.341
621.35	71.988
621.68	69.414
622.01	70.534
622.34	68.271
622.67	70.103
623.00	67.544
623.33	70.737
623.66	69.585
623.99	69.585
624.32	70.695
624.65	68.018
624.99	69.116
625.32	70.477
625.65	69.858
625.98	69.559
626.31	70.872
626.64	69.011
626.97	69.842
627.30	70.084
627.63	70.368
627.96	69.970
628.29	70.973
628.62	71.704
628.95	71.954
629.28	71.878
629.61	71.549
629.94	69.623
630.26	70.678
630.59	71.675
630.92	70.649
631.25	72.272
631.58	74.011
631.91	72.727
632.24	73.199
632.57	72.770
632.90	73.621
633.23	73.265
633.56	73.061
633.89	73.347
634.22	74.740
634.55	74.530
634.88	75.649
635.20	74.489
635.53	75.706
635.86	73.673
636.19	74.231
636.52	73.312
636.85	73.647
637.18	73.389
637.51	73.978
637.83	74.086
638.16	77.189
638.49	73.005
638.82	74.070
639.15	74.800
639.48	75.289
639.81	73.557
640.13	74.912
640.46	73.455
640.79	74.265
641.12	75.404
641.45	74.153
641.77	79.076
642.10	74.803
642.43	77.394
642.76	76.558
643.09	74.658
643.41	76.331
643.74	74.897
644.07	76.552
644.40	74.823
644.73	76.488
645.05	77.386
645.38	76.403
645.71	76.540
646.04	77.618
646.36	73.285
646.69	75.613
647.02	79.511
647.35	76.641
647.67	80.193
648.00	80.892
648.33	78.378
648.66	75.178
648.98	76.054
649.31	75.913
649.64	74.900
649.96	72.944
650.29	72.323
650.62	73.550
650.94	77.177
651.27	76.048
651.60	75.731
651.92	74.316
652.25	72.648
652.58	74.966
652.90	73.401
653.23	74.648
653.56	74.893
653.88	74.017
654.21	73.099
654.54	75.578
654.86	73.229
655.19	70.765
655.52	68.955
655.84	62.438
656.17	72.406
656.49	98.947
656.82	100.008
657.15	97.029
657.47	67.263
657.80	50.000
658.13	39.064
658.45	51.281
658.78	61.477
659.10	59.953
659.43	59.695
659.75	59.708
660.08	58.431
660.41	60.959
660.73	64.766
661.06	71.366
661.38	73.525
661.71	75.862
662.03	75.132
662.36	76.386
662.68	78.424
663.01	76.460
663.33	77.316
663.66	77.656
663.98	80.577
664.31	81.051
664.63	75.915
664.96	76.225
665.28	75.318
665.61	75.524
665.93	75.536
666.26	75.627
666.58	77.860
666.91	76.822
667.23	75.048
667.56	80.276
667.88	78.800
668.21	75.391
668.53	72.008
668.86	78.389
669.18	75.764
669.50	77.734
669.83	75.600
670.15	76.181
670.48	79.563
670.80	76.864
671.13	76.560
671.45	79.331
671.77	77.966
672.10	71.333
672.42	75.081
672.75	72.657
673.07	68.657
673.39	71.803
673.72	76.007
674.04	75.517
674.37	75.671
674.69	72.134
675.01	76.762
675.34	76.336
675.66	74.157
675.98	75.000
676.31	78.320
676.63	76.236
676.95	76.820
677.28	76.008
677.60	73.819
677.92	77.351
678.25	75.320
678.57	75.801
678.89	75.768
679.22	72.822
679.54	72.991
679.86	71.356
680.18	72.139
680.51	72.484
680.83	71.686
681.15	75.345
681.48	75.130
681.80	73.921
682.12	72.902
682.44	70.785
682.77	73.759
683.09	76.515
683.41	72.093
683.73	73.055
684.06	69.373
684.38	71.020
684.70	75.763
685.02	75.731
685.34	73.045
685.67	70.662
685.99	69.785
686.31	67.006
686.63	72.196
686.96	69.874
687.28	70.521
687.60	69.865
687.92	69.936
688.24	69.282
688.56	66.552
688.89	74.047
689.21	74.168
689.53	72.745
689.85	73.176
690.17	67.963
690.49	74.104
690.82	72.673
691.14	71.862
691.46	73.040
691.78	74.401
692.10	73.578
692.42	71.429
692.74	70.962
693.06	67.593
693.39	69.450
693.71	72.744
694.03	73.606
694.35	70.476
694.67	72.690
694.99	74.894
695.31	73.510
695.63	73.160
695.95	73.085
696.27	73.407
696.59	73.894
696.91	71.847
697.23	74.286
697.56	71.690
697.88	70.076
698.20	69.868
698.52	73.295
698.84	74.220
699.16	71.429
699.48	74.686
699.80	73.191
700.12	73.144
700.44	71.429
700.76	76.010
701.08	71.671
701.40	76.943
701.72	71.144
702.04	79.144
702.36	72.513
702.68	69.927
703.00	70.905
703.32	74.631
703.64	72.372
703.96	69.928
704.28	70.270
704.60	76.203
704.91	74.235
705.23	76.164
705.55	76.602
705.87	78.182
706.19	82.209
706.51	71.687
706.83	76.945
707.15	74.074
707.47	70.093
707.79	68.341
708.11	66.525
708.43	69.677
708.74	68.080
709.06	70.070
709.38	70.188
709.70	74.938
710.02	72.351
710.34	72.340
710.66	70.391
710.98	76.230
711.29	74.451
711.61	73.729
711.93	76.638
712.25	72.162
712.57	80.531
712.89	73.529
713.20	75.444
713.52	73.410
713.84	74.373
714.16	71.579
714.48	71.134
714.80	74.026
715.11	71.916
715.43	71.883
715.75	72.368
716.07	70.994
716.39	74.590
716.70	70.181
717.02	74.098
717.34	72.125
717.66	72.483
717.97	70.205
718.29	75.601
718.61	72.368
718.93	71.521
719.24	74.224
719.56	69.018
719.88	70.571
720.20	75.484
720.51	70.807
720.83	74.375
721.15	68.421
721.46	71.233
721.78	71.000
722.10	71.197
722.42	72.148
722.73	69.677
723.05	74.035
723.37	74.306
723.68	72.401
724.00	75.090
724.32	69.014
724.63	69.231
724.95	70.922
725.27	67.247
725.58	70.671
725.90	74.483
726.22	65.831
726.53	73.701
726.85	69.497
727.16	73.112
727.48	73.089
727.80	69.868
728.11	70.671
728.43	69.697
728.74	68.896
729.06	67.219
729.38	70.130
729.69	75.168
730.01	67.560
730.32	64.242
730.64	71.384
730.96	71.118
731.27	67.598
731.59	66.758
731.90	66.234
732.22	66.927
732.53	62.707
732.85	68.857
733.16	69.208
733.48	66.463
733.80	60.446
734.11	65.527
734.43	64.595
734.74	66.329
735.06	66.834
735.37	67.297
735.69	64.595
736.00	66.949
736.32	64.960
736.63	64.444
736.95	65.230
737.26	68.788
737.58	65.152
737.89	67.353
738.21	62.691
738.52	66.885
738.83	68.259
739.15	67.021
739.46	67.007
739.78	66.258
740.09	65.616
740.41	69.096
740.72	70.333
741.04	69.903
741.35	70.526
741.66	67.059
741.98	75.000
742.29	72.385
742.61	82.456
742.92	70.000
743.23	62.816
743.55	71.705
743.86	66.400
744.18	71.488
744.49	71.308
744.80	70.782
745.12	72.152
745.43	73.577
745.74	70.690
746.06	73.305
746.37	71.730
746.68	76.423
747.00	66.250
747.31	72.532
747.62	72.692
747.94	70.445
748.25	72.289
748.56	71.020
748.88	69.231
749.19	77.155
749.50	74.459
749.82	72.289
750.13	69.395
750.44	64.667
750.75	65.846
751.07	66.769
751.38	68.139
751.69	65.815
752.01	63.754
752.32	67.974
752.63	73.810
752.94	63.668
753.26	71.004
753.57	66.667
753.88	64.419
754.19	62.701
754.51	69.453
754.82	69.453
755.13	67.541
755.44	67.918
755.75	66.776
756.07	66.866
756.38	64.780
756.69	70.482
757.00	61.496
757.31	60.929
757.63	62.148
757.94	63.850
758.25	63.883
758.56	61.002
758.87	60.227
759.18	62.933
759.50	65.722
759.81	66.667
760.12	64.420
760.43	65.625
760.74	63.300
761.05	61.750
761.36	62.169
761.67	62.690
761.99	60.000
762.30	62.500
762.61	63.036
762.92	66.418
763.23	67.416
763.54	68.345
763.85	65.292
764.16	66.330
764.47	65.493
764.78	64.217
765.10	64.809
765.41	58.462
765.72	57.937
766.03	64.689
766.34	61.442
766.65	57.491
766.96	69.323
767.27	72.811
767.58	64.179
767.89	68.750
768.20	62.911
768.51	68.056
768.82	65.863
769.13	63.636
769.44	61.538
769.75	66.787
770.06	61.923
770.37	66.142
770.68	60.426
770.99	66.397
771.30	71.111
771.61	69.202
771.92	60.741
772.23	65.587
772.54	59.722
772.85	60.369
773.16	70.476
773.47	68.783
773.78	66.486
774.09	73.295
774.39	68.000
774.70	65.574
775.01	60.366
775.32	68.235
775.63	68.098
775.94	62.420
776.25	69.032
776.56	71.795
776.87	70.068
777.18	64.138
777.48	71.329
777.79	65.541
778.10	70.588
778.41	69.444
778.72	61.379
779.03	67.901
779.34	60.606
779.65	60.622
779.95	63.333
780.26	59.091
780.57	61.935
780.88	65.217
781.19	72.258
781.50	65.294
781.80	66.129
782.11	63.492
782.42	54.545
782.73	65.269
783.04	63.687
783.34	55.152
783.65	70.588
783.96	60.248
784.27	56.548
784.57	65.563
784.88	62.143
785.19	62.992
785.50	63.780
785.81	65.414
786.11	65.385
786.42	71.223
786.73	59.712
787.04	61.654
787.34	65.574
787.65	60.800
787.96	69.403
788.26	65.734
788.57	69.231
788.88	53.947
789.19	60.784
789.49	49.315
789.80	59.574
790.11	56.693
790.41	67.188
790.72	56.780
791.03	56.311
791.33	62.609
791.64	64.912
791.95	68.750
792.25	63.810
792.56	58.036
792.87	69.792
793.17	58.036
793.48	55.208
793.79	65.060
794.09	59.633
794.40	66.972
794.70	53.061
795.01	55.195
795.32	57.534
795.62	54.225
795.93	55.303
796.23	59.836
796.54	55.357
796.85	59.574
797.15	55.435
797.46	58.904
797.76	63.750
798.07	65.217
798.37	53.608
798.68	59.740
798.99	55.172
799.29	61.798
799.60	69.149
799.90	60.241
800.21	58.462
800.51	67.164
800.82	44.118
801.12	52.055
801.43	61.765
801.73	72.881
802.04	66.667
802.34	56.667
802.65	57.627
802.95	62.687
803.26	67.797
803.56	60.274
803.87	57.143
804.17	60.274
804.48	47.368
804.78	41.667
805.09	60.345
805.39	64.865
805.70	42.254
806.00	50.000
806.30	50.602
806.61	56.164
806.91	59.615
807.22	63.333
807.52	52.874
807.83	75.000
808.13	66.265
808.43	57.303
808.74	42.500
809.04	58.824
809.35	52.000
809.65	62.857
809.95	45.205
810.26	43.860
810.56	58.621
810.86	73.529
811.17	57.895
811.47	42.623
811.77	55.556
812.08	45.763
812.38	41.667
812.69	51.724
812.99	56.604
813.29	17.949
813.59	64.000
813.90	56.140
814.20	50.909
814.50	50.704
814.81	60.256
815.11	68.852
815.41	47.761
815.72	51.724
816.02	57.143
816.32	57.778
816.62	77.273
816.93	64.444
817.23	48.148
817.53	55.319
817.84	78.571
818.14	47.059
818.44	48.980
818.74	55.556
819.04	51.282
819.35	74.286
819.65	50.000
819.95	45.283
820.25	44.444
820.56	45.238
820.86	75.000
821.16	64.103
821.46	53.488
821.76	32.000
822.07	50.000
822.37	47.826
822.67	38.298
822.97	54.054
823.27	42.500
823.57	59.184
823.88	77.778
824.18	40.000
824.48	56.667
824.78	44.000
825.08	63.636
825.38	60.000
825.69	40.426
825.99	30.556
826.29	34.286
826.59	38.462
826.89	34.884
827.19	50.000
827.49	73.529
827.79	47.917
828.09	27.027
828.39	63.333
828.70	26.829
829.00	39.535
829.30	57.143
829.60	58.824
829.90	54.348
830.20	40.000
830.50	37.931
830.80	61.111
831.10	69.231
831.40	35.294
831.70	61.905
832.00	54.839
832.30	23.529
832.60	20.833
832.90	61.538
833.20	5.263
833.50	45.000
833.80	94.737
834.10	4.762
834.40	55.556
834.70	59.375
835.00	17.143
835.30	58.824
835.60	73.333
835.90	80.000
836.20	22.727
836.50	56.000
836.80	15.152
837.10	3.704
837.40	51.852
837.70	18.750
838.00	46.429
838.30	73.913
838.60	51.724
838.90	64.286
839.19	-17.391
839.49	91.667
839.79	65.217
840.09	18.750
840.39	25.000
840.69	67.742
840.99	25.000
841.29	33.333
841.59	47.368
841.88	61.538
842.18	15.385
842.48	-10.000
842.78	50.000
843.08	33.333
843.38	41.935
843.68	11.111
843.97	38.235
844.27	-6.250
844.57	26.316
844.87	-40.000
845.17	46.667
845.47	119.048
845.76	-9.524
846.06	66.667
846.36	47.059
846.66	23.077
846.96	-73.333
847.25	11.765
847.55	26.087
847.85	60.000
848.15	64.706
848.44	36.364
848.74	38.095
849.04	20.833
849.34	12.500
849.63	8.696
849.93	-0.000
850.23	73.333
850.53	65.385
850.82	27.273
851.12	63.636
851.42	45.455
851.71	53.846
852.01	-10.000
852.31	-23.077
852.61	-15.789
852.90	8.333
853.20	16.667
853.50	-33.333
853.79	-14.286
854.09	22.727
854.39	50.000
854.68	35.484
854.98	26.923
855.28	72.222
855.57	14.286
855.87	48.000
856.17	13.636
856.46	18.519
856.76	77.778
857.05	0.000
857.35	45.833
857.65	15.385
857.94	76.190
858.24	40.741
858.53	60.870
858.83	52.941
859.13	23.529
859.42	52.941
859.72	78.571
860.01	35.000
860.31	-44.444
860.60	-30.000
860.90	33.333
861.20	-22.222
861.49	7.692
861.79	26.667
862.08	0.000
862.38	18.750
862.67	-5.882
862.97	43.750
863.26	66.667
863.56	10.000
863.85	27.273
864.15	16.667
864.44	-133.333
864.74	71.429
865.03	0.000
865.33	10.000
865.62	0.000
865.92	31.818
866.21	43.478
866.51	85.714
866.80	-20.000
867.10	-16.667
867.39	-58.333
867.69	800.000
867.98	114.286
868.27	52.941
868.57	-1500.000
868.86	-20.000
869.16	14.286
869.45	45.833
869.75	90.909
870.04	71.429
870.33	25.000
870.63	-214.286
870.92	-50.000
871.22	-100.000
871.51	18.182
871.80	-233.333
872.10	-100.000
>>>>>End Processed Spectral Data<<<<<
