SpectraSuite Data File
++++++++++++++++++++++++++++++++++++
Date: Thu May 14 14:50:34 PDT 2015
User: schluterlab
Dark Spectrum Present: Yes
Reference Spectrum Present: Yes
Number of Sampled Component Spectra: 1
Spectrometers: USB2E3373
Integration Time (usec): 3000 (USB2E3373)
Spectra Averaged: 3 (USB2E3373)
Boxcar Smoothing: 0 (USB2E3373)
Correct for Electrical Dark: No (USB2E3373)
Strobe/Lamp Enabled: No (USB2E3373)
Correct for Detector Non-linearity: No (USB2E3373)
Correct for Stray Light: No (USB2E3373)
Number of Pixels in Processed Spectrum: 2048
>>>>>Begin Processed Spectral Data<<<<<
178.53	0.000
178.91	157.143
179.29	-1000.000
179.67	-1100.000
180.04	200.000
180.42	90.000
180.80	240.000
181.18	-1500.000
181.56	300.000
181.94	175.000
182.31	-125.000
182.69	266.667
183.07	-150.000
183.45	200.000
183.83	33.333
184.20	-300.000
184.58	600.000
184.96	-225.000
185.34	-66.667
185.72	-20.000
186.09	200.000
186.47	450.000
186.85	300.000
187.23	-111.111
187.61	-1500.000
187.98	60.000
188.36	150.000
188.74	-300.000
189.12	-233.333
189.49	12.500
189.87	-50.000
190.25	-33.333
190.63	-100.000
191.00	-55.556
191.38	0.000
191.76	-475.000
192.14	-66.667
192.51	450.000
192.89	50.000
193.27	0.000
193.65	14.286
194.02	-1100.000
194.40	-42.857
194.78	185.714
195.15	0.000
195.53	-109.091
195.91	0.000
196.29	-50.000
196.66	-30.769
197.04	-1200.000
197.42	-100.000
197.79	-350.000
198.17	-87.500
198.55	-200.000
198.92	-44.444
199.30	0.000
199.68	27.273
200.05	28.571
200.43	-650.000
200.81	285.714
201.18	0.000
201.56	244.444
201.94	0.000
202.31	266.667
202.69	-11.111
203.07	200.000
203.44	-33.333
203.82	-275.000
204.19	-66.667
204.57	-350.000
204.95	-125.000
205.32	100.000
205.70	100.000
206.08	-50.000
206.45	-133.333
206.83	380.000
207.20	-50.000
207.58	-320.000
207.96	-216.667
208.33	-83.333
208.71	116.667
209.08	16.667
209.46	0.000
209.84	216.667
210.21	200.000
210.59	400.000
210.96	200.000
211.34	-150.000
211.71	-37.500
212.09	-400.000
212.46	0.000
212.84	600.000
213.22	-320.000
213.59	-200.000
213.97	0.000
214.34	-400.000
214.72	150.000
215.09	-250.000
215.47	0.000
215.84	85.714
216.22	700.000
216.59	-40.000
216.97	-20.000
217.34	-125.000
217.72	-25.000
218.09	-300.000
218.47	-275.000
218.84	0.000
219.22	180.000
219.59	-47.059
219.97	-20.000
220.34	750.000
220.72	-100.000
221.09	23.077
221.47	-100.000
221.84	-40.000
222.22	85.714
222.59	0.000
222.97	37.500
223.34	-300.000
223.72	-800.000
224.09	50.000
224.46	-150.000
224.84	-200.000
225.21	0.000
225.59	-150.000
225.96	-225.000
226.34	-15.385
226.71	316.667
227.08	-300.000
227.46	-20.000
227.83	-175.000
228.21	-5.263
228.58	37.500
228.95	350.000
229.33	16.667
229.70	-100.000
230.08	78.947
230.45	90.000
230.82	33.333
231.20	64.286
231.57	41.667
231.95	-36.364
232.32	0.000
232.69	10.000
233.07	-175.000
233.44	5.882
233.81	-40.000
234.19	-5.556
234.56	4.545
234.93	31.034
235.31	15.789
235.68	33.333
236.05	-5.000
236.43	26.923
236.80	32.000
237.17	29.630
237.55	12.121
237.92	10.000
238.29	6.452
238.67	9.091
239.04	27.778
239.41	35.714
239.79	32.609
240.16	11.111
240.53	26.087
240.91	13.725
241.28	0.000
241.65	32.836
242.02	27.027
242.40	20.000
242.77	16.000
243.14	28.049
243.51	18.421
243.89	24.359
244.26	28.713
244.63	28.431
245.00	29.907
245.38	24.561
245.75	16.814
246.12	26.190
246.49	19.380
246.87	27.143
247.24	25.828
247.61	26.974
247.98	23.490
248.36	30.247
248.73	22.699
249.10	27.869
249.47	30.846
249.84	34.031
250.22	22.280
250.59	24.444
250.96	30.455
251.33	25.510
251.70	31.197
252.08	29.583
252.45	29.918
252.82	30.579
253.19	26.562
253.56	32.700
253.94	30.769
254.31	30.682
254.68	34.965
255.05	30.619
255.42	29.932
255.79	27.184
256.16	28.477
256.54	27.152
256.91	34.098
257.28	30.492
257.65	29.299
258.02	25.664
258.39	29.345
258.76	35.474
259.14	34.195
259.51	28.242
259.88	31.445
260.25	30.000
260.62	30.411
260.99	32.787
261.36	32.440
261.73	29.708
262.10	32.692
262.47	32.708
262.85	35.606
263.22	29.351
263.59	28.684
263.96	32.225
264.33	29.412
264.70	33.086
265.07	33.652
265.44	31.973
265.81	28.935
266.18	32.426
266.55	33.259
266.92	29.385
267.29	33.917
267.66	33.925
268.03	30.568
268.40	29.645
268.77	30.068
269.14	30.617
269.51	29.825
269.88	30.943
270.25	31.791
270.62	32.700
270.99	34.545
271.36	31.683
271.73	28.880
272.10	32.064
272.47	31.663
272.84	31.727
273.21	31.663
273.58	31.653
273.95	29.038
274.32	32.129
274.69	30.561
275.06	32.234
275.43	28.466
275.80	29.101
276.17	30.370
276.54	29.664
276.91	31.127
277.28	30.741
277.65	30.880
278.02	28.493
278.39	30.435
278.76	31.283
279.13	30.319
279.50	32.818
279.87	28.980
280.23	28.345
280.60	28.814
280.97	29.112
281.34	28.014
281.71	30.964
282.08	30.233
282.45	30.442
282.82	29.042
283.19	28.918
283.56	30.492
283.92	29.580
284.29	29.226
284.66	29.392
285.03	27.244
285.40	27.821
285.77	26.780
286.14	27.634
286.51	29.680
286.87	30.016
287.24	28.464
287.61	27.354
287.98	28.097
288.35	27.071
288.72	27.071
289.08	29.429
289.45	27.663
289.82	28.163
290.19	26.868
290.56	29.437
290.93	28.388
291.29	26.722
291.66	26.309
292.03	25.645
292.40	26.395
292.77	26.819
293.13	26.658
293.50	24.442
293.87	24.027
294.24	27.867
294.60	24.905
294.97	23.356
295.34	24.968
295.71	24.842
296.08	22.868
296.44	24.142
296.81	25.091
297.18	24.658
297.55	25.354
297.91	24.318
298.28	22.986
298.65	23.781
299.02	24.675
299.38	24.828
299.75	23.014
300.12	21.644
300.48	24.654
300.85	22.497
301.22	22.371
301.59	23.630
301.95	22.712
302.32	23.000
302.69	23.111
303.05	23.504
303.42	21.729
303.79	22.604
304.15	23.239
304.52	22.622
304.89	24.293
305.25	21.843
305.62	21.317
305.99	22.784
306.35	22.681
306.72	23.992
307.09	22.437
307.45	23.292
307.82	22.906
308.19	22.704
308.55	23.915
308.92	23.077
309.29	21.360
309.65	22.807
310.02	21.980
310.38	22.441
310.75	23.981
311.12	24.353
311.48	23.265
311.85	23.077
312.22	22.486
312.58	24.413
312.95	23.614
313.31	23.758
313.68	23.993
314.05	24.390
314.41	25.046
314.78	24.705
315.14	25.590
315.51	24.838
315.87	25.113
316.24	25.479
316.61	26.998
316.97	25.249
317.34	25.573
317.70	27.162
318.07	27.425
318.43	28.231
318.80	27.676
319.16	27.039
319.53	25.450
319.89	27.169
320.26	29.181
320.62	27.571
320.99	28.255
321.35	29.482
321.72	29.767
322.08	29.396
322.45	30.172
322.81	29.242
323.18	28.850
323.54	29.828
323.91	30.071
324.27	29.690
324.64	30.059
325.00	30.265
325.37	31.777
325.73	30.826
326.10	32.441
326.46	33.062
326.83	32.106
327.19	31.732
327.56	32.016
327.92	31.943
328.29	32.419
328.65	31.910
329.01	32.318
329.38	33.446
329.74	34.075
330.11	34.846
330.47	33.783
330.84	33.850
331.20	34.083
331.56	34.229
331.93	35.063
332.29	34.237
332.66	35.880
333.02	35.176
333.38	34.144
333.75	35.690
334.11	35.863
334.48	35.561
334.84	35.684
335.20	35.516
335.57	36.509
335.93	35.785
336.29	34.359
336.66	35.744
337.02	35.702
337.38	34.354
337.75	35.537
338.11	34.903
338.47	34.574
338.84	36.548
339.20	35.552
339.56	35.750
339.93	36.864
340.29	35.668
340.65	34.874
341.02	35.674
341.38	36.540
341.74	35.109
342.11	35.961
342.47	34.392
342.83	36.634
343.20	36.795
343.56	35.285
343.92	35.869
344.28	35.938
344.65	36.124
345.01	35.569
345.37	36.159
345.73	35.853
346.10	36.739
346.46	35.127
346.82	35.730
347.19	36.364
347.55	35.508
347.91	34.918
348.27	36.646
348.63	35.720
349.00	35.198
349.36	35.167
349.72	35.863
350.08	36.553
350.45	36.806
350.81	36.275
351.17	36.090
351.53	36.619
351.89	37.282
352.26	35.746
352.62	35.373
352.98	35.725
353.34	34.802
353.70	37.288
354.07	35.544
354.43	36.522
354.79	34.779
355.15	36.056
355.51	36.696
355.87	37.322
356.24	35.589
356.60	34.738
356.96	37.287
357.32	36.134
357.68	35.798
358.04	36.677
358.40	35.746
358.77	36.550
359.13	35.229
359.49	35.465
359.85	36.258
360.21	36.657
360.57	35.607
360.93	36.107
361.29	37.825
361.66	37.509
362.02	37.509
362.38	37.386
362.74	36.243
363.10	36.107
363.46	37.535
363.82	37.358
364.18	37.861
364.54	38.243
364.90	37.592
365.26	37.034
365.62	36.600
365.98	38.325
366.35	38.121
366.71	38.435
367.07	38.498
367.43	37.032
367.79	38.819
368.15	37.726
368.51	37.957
368.87	37.427
369.23	37.333
369.59	38.593
369.95	38.337
370.31	39.163
370.67	37.895
371.03	37.812
371.39	38.617
371.75	38.514
372.11	39.024
372.47	37.982
372.83	39.267
373.19	38.426
373.55	38.889
373.91	36.742
374.27	39.327
374.63	39.716
374.99	39.125
375.35	40.260
375.71	38.452
376.07	38.606
376.42	38.917
376.78	40.087
377.14	39.676
377.50	41.303
377.86	40.086
378.22	39.461
378.58	40.250
378.94	40.258
379.30	40.363
379.66	40.741
380.02	41.316
380.38	41.647
380.74	41.014
381.09	41.115
381.45	41.648
381.81	42.096
382.17	42.340
382.53	41.462
382.89	40.914
383.25	41.442
383.61	41.204
383.97	41.402
384.32	43.002
384.68	41.125
385.04	42.799
385.40	43.665
385.76	42.614
386.12	42.430
386.48	41.941
386.83	42.670
387.19	42.584
387.55	42.371
387.91	43.436
388.27	43.591
388.62	41.065
388.98	41.455
389.34	42.310
389.70	42.882
390.06	42.629
390.42	43.012
390.77	44.190
391.13	41.725
391.49	42.029
391.85	42.667
392.20	43.060
392.56	43.178
392.92	41.821
393.28	43.339
393.64	42.514
393.99	43.173
394.35	42.582
394.71	42.635
395.07	42.036
395.42	41.176
395.78	43.327
396.14	42.602
396.50	41.627
396.85	41.503
397.21	41.657
397.57	41.284
397.92	42.096
398.28	40.576
398.64	41.419
399.00	40.157
399.35	41.885
399.71	40.978
400.07	40.090
400.42	41.444
400.78	41.146
401.14	41.320
401.49	41.160
401.85	41.453
402.21	41.657
402.57	41.843
402.92	40.485
403.28	39.637
403.63	39.797
403.99	40.143
404.35	39.397
404.70	39.773
405.06	39.511
405.42	40.808
405.77	40.294
406.13	39.330
406.49	39.302
406.84	39.612
407.20	39.352
407.55	39.431
407.91	38.592
408.27	38.045
408.62	39.092
408.98	37.841
409.34	38.299
409.69	39.431
410.05	38.277
410.40	39.849
410.76	38.699
411.11	38.632
411.47	37.961
411.83	38.683
412.18	38.916
412.54	37.819
412.89	38.650
413.25	38.431
413.60	39.001
413.96	38.403
414.31	37.847
414.67	38.939
415.03	38.646
415.38	39.533
415.74	37.996
416.09	39.482
416.45	38.197
416.80	38.433
417.16	39.080
417.51	38.605
417.87	38.504
418.22	40.240
418.58	39.033
418.93	39.814
419.29	39.642
419.64	40.396
420.00	39.050
420.35	39.472
420.71	39.288
421.06	40.023
421.42	40.768
421.77	40.765
422.12	39.799
422.48	40.502
422.83	42.059
423.19	41.273
423.54	42.644
423.90	42.021
424.25	42.453
424.61	41.848
424.96	42.669
425.31	44.161
425.67	43.264
426.02	43.331
426.38	44.719
426.73	43.415
427.09	44.983
427.44	44.347
427.79	45.716
428.15	43.379
428.50	46.180
428.85	45.465
429.21	46.170
429.56	47.335
429.92	46.241
430.27	46.940
430.62	47.435
430.98	47.368
431.33	47.410
431.68	47.797
432.04	49.010
432.39	49.384
432.74	49.258
433.10	49.919
433.45	47.715
433.80	49.678
434.16	50.310
434.51	50.874
434.86	51.031
435.22	51.222
435.57	51.533
435.92	51.697
436.28	51.877
436.63	52.922
436.98	50.725
437.34	52.142
437.69	52.724
438.04	53.094
438.39	53.130
438.75	54.234
439.10	55.180
439.45	53.717
439.81	53.559
440.16	54.263
440.51	55.072
440.86	54.252
441.22	53.644
441.57	54.350
441.92	54.025
442.27	56.162
442.63	56.085
442.98	56.137
443.33	56.339
443.68	56.938
444.03	57.667
444.39	56.588
444.74	57.682
445.09	56.665
445.44	57.850
445.79	58.333
446.15	58.016
446.50	58.605
446.85	57.393
447.20	58.172
447.55	57.584
447.91	58.377
448.26	58.774
448.61	59.139
448.96	59.067
449.31	59.173
449.66	58.932
450.02	58.914
450.37	59.830
450.72	58.719
451.07	60.535
451.42	59.850
451.77	61.034
452.12	60.722
452.47	60.606
452.83	62.275
453.18	61.996
453.53	60.770
453.88	61.292
454.23	61.299
454.58	62.159
454.93	61.165
455.28	62.252
455.63	62.194
455.98	61.061
456.34	62.662
456.69	60.788
457.04	62.352
457.39	62.860
457.74	62.136
458.09	62.987
458.44	62.446
458.79	61.630
459.14	62.297
459.49	64.177
459.84	62.120
460.19	62.743
460.54	63.884
460.89	63.790
461.24	64.310
461.59	63.863
461.94	62.693
462.29	64.446
462.64	63.549
462.99	62.837
463.34	65.477
463.69	62.778
464.04	64.202
464.39	63.789
464.74	62.885
465.09	63.725
465.44	63.680
465.79	63.723
466.14	63.366
466.49	64.053
466.84	64.793
467.19	65.202
467.54	63.572
467.89	63.736
468.24	63.934
468.59	64.389
468.94	63.520
469.29	64.187
469.64	65.416
469.99	64.117
470.34	64.418
470.68	65.072
471.03	65.815
471.38	64.225
471.73	65.345
472.08	67.513
472.43	66.105
472.78	65.491
473.13	65.866
473.48	65.801
473.83	66.106
474.17	65.240
474.52	65.424
474.87	64.120
475.22	65.803
475.57	65.992
475.92	64.858
476.27	66.507
476.61	65.576
476.96	64.703
477.31	64.208
477.66	66.946
478.01	64.057
478.36	64.806
478.70	65.123
479.05	66.718
479.40	65.301
479.75	66.282
480.10	65.467
480.45	65.770
480.79	67.166
481.14	65.579
481.49	66.970
481.84	66.101
482.19	66.624
482.53	67.293
482.88	66.947
483.23	66.652
483.58	65.502
483.92	65.337
484.27	65.580
484.62	65.223
484.97	66.096
485.31	64.907
485.66	62.085
486.01	62.327
486.36	64.304
486.70	66.956
487.05	68.205
487.40	67.216
487.75	66.387
488.09	66.188
488.44	64.797
488.79	65.902
489.13	66.112
489.48	65.087
489.83	65.634
490.17	65.533
490.52	65.681
490.87	65.905
491.22	66.421
491.56	65.828
491.91	66.420
492.26	66.205
492.60	66.157
492.95	66.740
493.30	67.503
493.64	67.806
493.99	66.360
494.34	65.897
494.68	66.210
495.03	67.093
495.37	67.909
495.72	66.531
496.07	66.696
496.41	65.852
496.76	66.889
497.11	66.582
497.45	66.983
497.80	66.015
498.14	67.347
498.49	67.050
498.84	67.505
499.18	66.082
499.53	67.309
499.87	66.945
500.22	65.984
500.56	67.476
500.91	67.277
501.26	68.000
501.60	66.328
501.95	66.131
502.29	67.486
502.64	67.906
502.98	66.221
503.33	65.918
503.67	66.594
504.02	66.813
504.36	67.784
504.71	68.397
505.06	66.485
505.40	67.687
505.75	67.760
506.09	66.436
506.44	69.081
506.78	68.165
507.13	67.450
507.47	68.688
507.82	66.477
508.16	67.161
508.51	67.370
508.85	67.832
509.19	67.267
509.54	67.771
509.88	67.411
510.23	67.751
510.57	69.357
510.92	69.182
511.26	67.051
511.61	66.586
511.95	67.740
512.30	68.587
512.64	66.517
512.98	68.184
513.33	68.599
513.67	67.415
514.02	68.217
514.36	68.031
514.70	68.125
515.05	68.405
515.39	67.402
515.74	69.088
516.08	69.361
516.42	69.283
516.77	68.244
517.11	67.664
517.46	68.823
517.80	68.787
518.14	69.859
518.49	67.570
518.83	66.099
519.17	67.528
519.52	67.820
519.86	69.377
520.20	68.051
520.55	68.127
520.89	67.905
521.23	68.230
521.58	70.452
521.92	68.669
522.26	67.411
522.61	69.965
522.95	68.512
523.29	68.793
523.64	68.049
523.98	68.625
524.32	69.628
524.66	68.526
525.01	66.988
525.35	68.064
525.69	66.125
526.04	67.049
526.38	68.391
526.72	67.301
527.06	68.563
527.41	68.630
527.75	66.686
528.09	67.828
528.43	66.607
528.78	68.266
529.12	66.456
529.46	66.217
529.80	66.705
530.15	67.014
530.49	67.497
530.83	67.769
531.17	66.607
531.51	66.065
531.86	67.188
532.20	67.378
532.54	65.051
532.88	66.727
533.22	65.586
533.57	66.705
533.91	65.600
534.25	65.969
534.59	67.241
534.93	65.648
535.27	66.254
535.62	66.970
535.96	66.473
536.30	64.982
536.64	66.547
536.98	66.175
537.32	65.370
537.66	66.625
538.01	63.746
538.35	65.104
538.69	66.106
539.03	65.604
539.37	65.018
539.71	65.826
540.05	65.707
540.39	64.853
540.73	64.784
541.07	65.420
541.42	64.737
541.76	64.591
542.10	64.837
542.44	65.043
542.78	63.990
543.12	64.482
543.46	64.408
543.80	64.508
544.14	64.931
544.48	65.898
544.82	65.769
545.16	65.116
545.50	65.249
545.84	64.666
546.18	65.988
546.52	65.796
546.86	65.094
547.20	66.158
547.54	64.794
547.88	64.135
548.22	65.497
548.56	65.652
548.90	66.209
549.24	66.505
549.58	65.994
549.92	64.860
550.26	65.696
550.60	65.284
550.94	65.653
551.28	66.073
551.62	67.183
551.96	64.790
552.30	66.157
552.64	65.464
552.98	66.126
553.32	67.395
553.66	67.010
554.00	67.465
554.34	67.825
554.68	65.591
555.02	66.557
555.36	66.995
555.69	66.624
556.03	67.024
556.37	66.083
556.71	67.597
557.05	67.540
557.39	68.215
557.73	66.975
558.07	69.139
558.41	66.711
558.75	69.033
559.08	67.919
559.42	66.941
559.76	67.639
560.10	68.922
560.44	68.338
560.78	67.813
561.12	67.303
561.45	66.788
561.79	66.667
562.13	68.638
562.47	66.954
562.81	68.418
563.15	68.182
563.48	67.247
563.82	68.380
564.16	67.474
564.50	67.640
564.84	66.136
565.17	66.765
565.51	65.938
565.85	67.815
566.19	66.475
566.52	67.466
566.86	67.119
567.20	65.688
567.54	66.277
567.88	68.094
568.21	66.749
568.55	65.803
568.89	66.500
569.23	66.033
569.56	65.533
569.90	64.897
570.24	64.992
570.57	64.496
570.91	64.819
571.25	63.957
571.59	63.401
571.92	63.966
572.26	63.843
572.60	63.418
572.93	62.872
573.27	63.276
573.61	63.473
573.95	63.316
574.28	62.532
574.62	62.324
574.96	61.425
575.29	61.577
575.63	63.086
575.97	62.419
576.30	61.337
576.64	62.491
576.98	62.483
577.31	62.265
577.65	62.670
577.98	62.312
578.32	61.500
578.66	62.024
578.99	62.748
579.33	62.984
579.67	62.489
580.00	62.329
580.34	62.064
580.67	62.268
581.01	62.441
581.35	61.913
581.68	62.413
582.02	62.394
582.35	63.992
582.69	63.616
583.02	63.857
583.36	64.017
583.70	64.485
584.03	63.763
584.37	64.577
584.70	64.279
585.04	64.032
585.37	64.118
585.71	63.883
586.04	64.883
586.38	65.274
586.72	65.054
587.05	66.641
587.39	66.268
587.72	66.292
588.06	66.393
588.39	66.468
588.73	66.085
589.06	66.450
589.40	67.609
589.73	66.645
590.07	67.042
590.40	67.850
590.73	67.656
591.07	69.509
591.40	67.924
591.74	68.402
592.07	69.022
592.41	67.981
592.74	67.767
593.08	67.675
593.41	68.621
593.75	69.080
594.08	68.191
594.41	69.167
594.75	68.017
595.08	69.314
595.42	69.513
595.75	68.486
596.09	69.705
596.42	68.936
596.75	68.699
597.09	70.424
597.42	69.249
597.75	67.621
598.09	69.960
598.42	70.205
598.76	68.857
599.09	68.708
599.42	67.818
599.76	68.603
600.09	69.937
600.42	68.969
600.76	69.650
601.09	69.067
601.42	68.658
601.76	68.828
602.09	70.050
602.42	68.957
602.76	68.893
603.09	70.264
603.42	70.448
603.76	70.366
604.09	70.298
604.42	69.505
604.76	69.939
605.09	71.041
605.42	69.617
605.75	69.885
606.09	70.399
606.42	69.427
606.75	69.190
607.09	68.280
607.42	68.709
607.75	69.715
608.08	69.534
608.42	69.407
608.75	70.357
609.08	69.737
609.41	70.357
609.75	70.536
610.08	70.405
610.41	69.711
610.74	70.042
611.07	70.782
611.41	71.390
611.74	71.824
612.07	71.435
612.40	71.911
612.73	71.198
613.07	69.878
613.40	70.452
613.73	70.294
614.06	71.492
614.39	71.234
614.72	70.936
615.06	69.827
615.39	70.952
615.72	71.659
616.05	70.714
616.38	71.746
616.71	70.376
617.05	69.808
617.38	70.894
617.71	72.138
618.04	70.049
618.37	71.639
618.70	71.154
619.03	71.446
619.36	71.640
619.69	72.646
620.03	72.505
620.36	72.945
620.69	72.486
621.02	73.228
621.35	75.036
621.68	74.187
622.01	72.171
622.34	73.780
622.67	72.509
623.00	70.985
623.33	72.395
623.66	73.281
623.99	71.955
624.32	73.229
624.65	72.973
624.99	74.512
625.32	73.873
625.65	74.039
625.98	72.949
626.31	73.565
626.64	73.700
626.97	73.518
627.30	74.487
627.63	73.743
627.96	73.574
628.29	74.475
628.62	73.384
628.95	76.424
629.28	74.681
629.61	76.094
629.94	74.142
630.26	75.763
630.59	75.389
630.92	73.160
631.25	76.118
631.58	77.213
631.91	76.664
632.24	78.194
632.57	74.004
632.90	76.730
633.23	78.163
633.56	75.408
633.89	76.343
634.22	77.651
634.55	76.827
634.88	77.597
635.20	74.919
635.53	78.531
635.86	76.706
636.19	76.140
636.52	76.160
636.85	75.281
637.18	75.052
637.51	77.204
637.83	78.295
638.16	77.995
638.49	77.465
638.82	77.452
639.15	75.945
639.48	78.406
639.81	76.097
640.13	78.092
640.46	74.667
640.79	75.735
641.12	76.522
641.45	77.792
641.77	79.204
642.10	77.690
642.43	78.059
642.76	75.610
643.09	79.315
643.41	77.311
643.74	78.069
644.07	81.517
644.40	79.066
644.73	78.955
645.05	79.883
645.38	75.971
645.71	77.273
646.04	79.340
646.36	77.518
646.69	81.135
647.02	79.969
647.35	77.405
647.67	79.388
648.00	81.529
648.33	79.279
648.66	80.314
648.98	78.231
649.31	78.755
649.64	78.088
649.96	76.790
650.29	75.939
650.62	76.238
650.94	80.631
651.27	77.246
651.60	75.585
651.92	78.875
652.25	78.003
652.58	77.854
652.90	78.779
653.23	78.592
653.56	78.887
653.88	79.354
654.21	75.211
654.54	77.457
654.86	76.912
655.19	74.655
655.52	74.222
655.84	70.687
656.17	81.356
656.49	100.042
656.82	100.008
657.15	100.000
657.47	99.678
657.80	56.726
658.13	43.372
658.45	57.320
658.78	69.799
659.10	67.471
659.43	67.235
659.75	66.234
660.08	65.602
660.41	63.937
660.73	69.669
661.06	75.330
661.38	73.365
661.71	79.138
662.03	78.131
662.36	78.175
662.68	82.552
663.01	78.761
663.33	82.231
663.66	81.319
663.98	80.000
664.31	83.865
664.63	78.227
664.96	80.218
665.28	80.399
665.61	80.245
665.93	79.107
666.26	78.315
666.58	80.627
666.91	79.252
667.23	77.905
667.56	79.290
667.88	84.400
668.21	78.125
668.53	77.413
668.86	80.157
669.18	82.485
669.50	80.119
669.83	77.200
670.15	82.283
670.48	82.341
670.80	77.629
671.13	77.505
671.45	81.496
671.77	81.733
672.10	76.167
672.42	78.479
672.75	77.112
673.07	77.015
673.39	75.193
673.72	79.698
674.04	77.931
674.37	76.029
674.69	77.954
675.01	78.286
675.34	77.863
675.66	79.775
675.98	77.985
676.31	80.469
676.63	78.327
676.95	79.885
677.28	81.855
677.60	76.969
677.92	79.271
678.25	77.331
678.57	77.046
678.89	75.256
679.22	74.390
679.54	76.923
679.86	78.475
680.18	78.441
680.51	74.214
680.83	77.578
681.15	80.172
681.48	81.693
681.80	79.102
682.12	76.049
682.44	73.623
682.77	76.064
683.09	78.409
683.41	76.550
683.73	79.127
684.06	77.860
684.38	76.208
684.70	78.276
685.02	80.379
685.34	76.872
685.67	76.656
685.99	75.613
686.31	72.965
686.63	77.883
686.96	74.448
687.28	77.199
687.60	77.104
687.92	74.116
688.24	75.626
688.56	74.828
688.89	76.588
689.21	80.235
689.53	75.686
689.85	80.276
690.17	75.370
690.49	78.287
690.82	77.030
691.14	75.709
691.46	76.482
691.78	77.164
692.10	79.083
692.42	72.857
692.74	74.955
693.06	71.296
693.39	75.712
693.71	75.188
694.03	77.323
694.35	77.143
694.67	77.823
694.99	75.957
695.31	78.808
695.63	79.221
695.95	74.120
696.27	78.462
696.59	75.885
696.91	81.081
697.23	82.637
697.56	75.967
697.88	74.811
698.20	75.706
698.52	76.705
698.84	80.249
699.16	77.143
699.48	72.594
699.80	73.191
700.12	72.052
700.44	75.115
700.76	76.247
701.08	77.482
701.40	80.311
701.72	79.353
702.04	81.551
702.36	76.963
702.68	76.773
703.00	77.995
703.32	78.079
703.64	77.751
703.96	76.850
704.28	74.201
704.60	80.000
704.91	74.490
705.23	80.822
705.55	80.501
705.87	81.212
706.19	81.595
706.51	74.699
706.83	78.386
707.15	79.365
707.47	75.000
707.79	73.362
708.11	74.576
708.43	73.548
708.74	72.991
709.06	77.030
709.38	80.047
709.70	80.645
710.02	72.610
710.34	78.989
710.66	79.050
710.98	73.770
711.29	77.747
711.61	78.531
711.93	76.923
712.25	75.676
712.57	81.416
712.89	80.294
713.20	71.893
713.52	76.301
713.84	75.487
714.16	77.368
714.48	70.619
714.80	76.364
715.11	77.953
715.43	75.862
715.75	75.526
716.07	78.177
716.39	78.415
716.70	80.120
717.02	82.623
717.34	79.791
717.66	76.846
717.97	75.685
718.29	72.165
718.61	73.684
718.93	76.052
719.24	75.466
719.56	71.779
719.88	75.676
720.20	78.710
720.51	72.671
720.83	75.625
721.15	72.368
721.46	77.055
721.78	78.667
722.10	73.463
722.42	77.852
722.73	73.548
723.05	80.351
723.37	77.083
723.68	74.910
724.00	81.949
724.32	74.648
724.63	71.678
724.95	78.723
725.27	72.822
725.58	79.152
725.90	81.034
726.22	74.295
726.53	80.195
726.85	77.987
727.16	76.737
727.48	71.560
727.80	77.152
728.11	80.565
728.43	74.074
728.74	73.244
729.06	77.483
729.38	79.870
729.69	72.819
730.01	67.560
730.32	70.606
730.64	75.786
730.96	74.845
731.27	75.419
731.59	74.176
731.90	75.325
732.22	69.010
732.53	70.994
732.85	68.857
733.16	75.367
733.48	77.744
733.80	69.638
734.11	73.219
734.43	73.243
734.74	72.405
735.06	68.593
735.37	79.459
735.69	72.703
736.00	74.576
736.32	68.194
736.63	71.667
736.95	68.391
737.26	75.758
737.58	73.333
737.89	70.882
738.21	71.254
738.52	76.393
738.83	74.061
739.15	76.596
739.46	76.190
739.78	76.074
740.09	70.487
740.41	74.636
740.72	74.667
741.04	74.110
741.35	69.474
741.66	77.647
741.98	76.230
742.29	72.385
742.61	82.018
742.92	73.846
743.23	74.007
743.55	75.969
743.86	72.000
744.18	72.314
744.49	76.793
744.80	76.543
745.12	81.857
745.43	76.016
745.74	84.914
746.06	76.695
746.37	77.215
746.68	83.740
747.00	76.667
747.31	83.262
747.62	76.154
747.94	74.899
748.25	78.313
748.56	71.429
748.88	73.077
749.19	81.466
749.50	76.190
749.82	76.707
750.13	75.089
750.44	79.333
750.75	72.615
751.07	71.077
751.38	73.502
751.69	69.649
752.01	73.786
752.32	74.510
752.63	78.912
752.94	74.740
753.26	74.721
753.57	71.111
753.88	74.532
754.19	72.990
754.51	71.061
754.82	72.669
755.13	74.098
755.44	73.379
755.75	75.658
756.07	71.940
756.38	72.956
756.69	72.892
757.00	67.313
757.31	70.765
757.63	68.542
757.94	67.840
758.25	71.783
758.56	69.281
758.87	61.818
759.18	69.600
759.50	71.955
759.81	75.070
760.12	71.159
760.43	70.313
760.74	70.197
761.05	73.750
761.36	68.675
761.67	65.990
761.99	71.351
762.30	71.341
762.61	73.597
762.92	68.284
763.23	78.277
763.54	74.101
763.85	73.540
764.16	75.758
764.47	76.761
764.78	70.288
765.10	69.795
765.41	73.846
765.72	64.815
766.03	70.056
766.34	68.339
766.65	71.429
766.96	68.924
767.27	80.645
767.58	75.124
767.89	74.519
768.20	72.770
768.51	68.981
768.82	68.675
769.13	69.318
769.44	70.000
769.75	74.368
770.06	72.308
770.37	70.472
770.68	67.660
770.99	70.850
771.30	78.148
771.61	73.764
771.92	68.889
772.23	69.231
772.54	68.981
772.85	70.046
773.16	71.429
773.47	74.074
773.78	64.865
774.09	82.955
774.39	70.500
774.70	70.492
775.01	67.073
775.32	64.706
775.63	79.141
775.94	68.153
776.25	79.355
776.56	76.923
776.87	76.190
777.18	71.724
777.48	68.531
777.79	70.946
778.10	65.441
778.41	65.972
778.72	67.586
779.03	69.136
779.34	71.515
779.65	65.803
779.95	79.444
780.26	64.205
780.57	70.968
780.88	77.536
781.19	80.645
781.50	77.059
781.80	74.731
782.11	69.841
782.42	61.111
782.73	68.862
783.04	59.777
783.34	64.848
783.65	64.706
783.96	65.839
784.27	64.881
784.57	74.834
784.88	70.000
785.19	64.567
785.50	66.929
785.81	65.414
786.11	82.308
786.42	67.626
786.73	66.906
787.04	67.669
787.34	64.754
787.65	76.000
787.96	61.940
788.26	73.427
788.57	71.329
788.88	65.789
789.19	67.974
789.49	64.384
789.80	68.794
790.11	65.354
790.41	64.844
790.72	57.627
791.03	69.903
791.33	71.304
791.64	62.281
791.95	68.750
792.25	66.667
792.56	62.500
792.87	61.458
793.17	54.464
793.48	59.375
793.79	57.831
794.09	59.633
794.40	78.899
794.70	68.027
795.01	64.935
795.32	63.699
795.62	73.239
795.93	71.970
796.23	63.115
796.54	64.286
796.85	67.021
797.15	66.304
797.46	69.863
797.76	65.000
798.07	59.783
798.37	51.546
798.68	70.130
798.99	52.874
799.29	60.674
799.60	73.404
799.90	57.831
800.21	69.231
800.51	76.119
800.82	63.235
801.12	63.014
801.43	70.588
801.73	72.881
802.04	83.333
802.34	65.000
802.65	84.746
802.95	56.716
803.26	64.407
803.56	61.644
803.87	68.571
804.17	65.753
804.48	75.439
804.78	56.944
805.09	68.966
805.39	55.405
805.70	43.662
806.00	60.976
806.30	54.217
806.61	84.932
806.91	66.346
807.22	61.111
807.52	41.379
807.83	79.167
808.13	57.831
808.43	51.685
808.74	52.500
809.04	73.529
809.35	56.000
809.65	71.429
809.95	64.384
810.26	33.333
810.56	75.862
810.86	55.882
811.17	66.667
811.47	42.623
811.77	64.444
812.08	50.847
812.38	55.000
812.69	60.345
812.99	39.623
813.29	74.359
813.59	60.000
813.90	61.404
814.20	65.455
814.50	60.563
814.81	58.974
815.11	55.738
815.41	59.701
815.72	72.414
816.02	64.286
816.32	60.000
816.62	72.727
816.93	60.000
817.23	74.074
817.53	61.702
817.84	83.333
818.14	91.176
818.44	57.143
818.74	71.111
819.04	41.026
819.35	62.857
819.65	23.077
819.95	35.849
820.25	40.000
820.56	50.000
820.86	65.625
821.16	64.103
821.46	51.163
821.76	30.000
822.07	51.786
822.37	34.783
822.67	57.447
822.97	29.730
823.27	50.000
823.57	57.143
823.88	62.222
824.18	57.500
824.48	66.667
824.78	64.000
825.08	60.606
825.38	55.556
825.69	55.319
825.99	77.778
826.29	51.429
826.59	46.154
826.89	51.163
827.19	52.000
827.49	73.529
827.79	47.917
828.09	27.027
828.39	60.000
828.70	70.732
829.00	69.767
829.30	53.571
829.60	58.824
829.90	56.522
830.20	57.143
830.50	24.138
830.80	88.889
831.10	80.769
831.40	41.176
831.70	90.476
832.00	70.968
832.30	5.882
832.60	58.333
832.90	15.385
833.20	63.158
833.50	60.000
833.80	47.368
834.10	14.286
834.40	55.556
834.70	75.000
835.00	34.286
835.30	38.235
835.60	40.000
835.90	24.000
836.20	50.000
836.50	64.000
836.80	33.333
837.10	62.963
837.40	40.741
837.70	0.000
838.00	0.000
838.30	17.391
838.60	75.862
838.90	107.143
839.19	8.696
839.49	25.000
839.79	21.739
840.09	0.000
840.39	20.000
840.69	38.710
840.99	25.000
841.29	60.000
841.59	36.842
841.88	48.718
842.18	38.462
842.48	100.000
842.78	0.000
843.08	33.333
843.38	12.903
843.68	11.111
843.97	50.000
844.27	37.500
844.57	26.316
844.87	70.000
845.17	-73.333
845.47	61.905
845.76	47.619
846.06	100.000
846.36	35.294
846.66	23.077
846.96	20.000
847.25	23.529
847.55	34.783
847.85	15.000
848.15	100.000
848.44	18.182
848.74	19.048
849.04	-37.500
849.34	31.250
849.63	26.087
849.93	400.000
850.23	53.333
850.53	23.077
850.82	-9.091
851.12	50.000
851.42	18.182
851.71	76.923
852.01	70.000
852.31	84.615
852.61	31.579
852.90	-33.333
853.20	83.333
853.50	-33.333
853.79	23.810
854.09	27.273
854.39	-16.667
854.68	70.968
854.98	26.923
855.28	22.222
855.57	14.286
855.87	36.000
856.17	27.273
856.46	51.852
856.76	100.000
857.05	17.391
857.35	50.000
857.65	15.385
857.94	76.190
858.24	59.259
858.53	52.174
858.83	-11.765
859.13	41.176
859.42	29.412
859.72	42.857
860.01	-5.000
860.31	55.556
860.60	0.000
860.90	-13.333
861.20	38.889
861.49	0.000
861.79	26.667
862.08	-46.154
862.38	28.125
862.67	47.059
862.97	-6.250
863.26	-77.778
863.56	-10.000
863.85	-18.182
864.15	33.333
864.44	133.333
864.74	-7.143
865.03	31.250
865.33	-70.000
865.62	-6.452
865.92	68.182
866.21	47.826
866.51	0.000
866.80	-200.000
867.10	-83.333
867.39	-50.000
867.69	1000.000
867.98	57.143
868.27	52.941
868.57	-1600.000
868.86	0.000
869.16	14.286
869.45	16.667
869.75	9.091
870.04	14.286
870.33	66.667
870.63	-42.857
870.92	0.000
871.22	-200.000
871.51	0.000
871.80	-633.333
872.10	-350.000
>>>>>End Processed Spectral Data<<<<<
