SpectraSuite Data File
++++++++++++++++++++++++++++++++++++
Date: Thu May 14 14:57:43 PDT 2015
User: schluterlab
Dark Spectrum Present: Yes
Reference Spectrum Present: Yes
Number of Sampled Component Spectra: 1
Spectrometers: USB2E3373
Integration Time (usec): 3000 (USB2E3373)
Spectra Averaged: 3 (USB2E3373)
Boxcar Smoothing: 0 (USB2E3373)
Correct for Electrical Dark: No (USB2E3373)
Strobe/Lamp Enabled: No (USB2E3373)
Correct for Detector Non-linearity: No (USB2E3373)
Correct for Stray Light: No (USB2E3373)
Number of Pixels in Processed Spectrum: 2048
>>>>>Begin Processed Spectral Data<<<<<
178.53	0.000
178.91	371.429
179.29	-2300.000
179.67	-2600.000
180.04	285.714
180.42	200.000
180.80	660.000
181.18	-2300.000
181.56	-1600.000
181.94	400.000
182.31	-225.000
182.69	1133.333
183.07	-1300.000
183.45	475.000
183.83	-166.667
184.20	-566.667
184.58	1500.000
184.96	-725.000
185.34	-188.889
185.72	-260.000
186.09	366.667
186.47	1150.000
186.85	620.000
187.23	-300.000
187.61	-2400.000
187.98	500.000
188.36	675.000
188.74	-425.000
189.12	-633.333
189.49	-68.750
189.87	-175.000
190.25	-111.111
190.63	-420.000
191.00	-277.778
191.38	0.000
191.76	-625.000
192.14	-283.333
192.51	1100.000
192.89	-200.000
193.27	0.000
193.65	-228.571
194.02	-2900.000
194.40	-285.714
194.78	257.143
195.15	0.000
195.53	-81.818
195.91	0.000
196.29	-525.000
196.66	-130.769
197.04	-1500.000
197.42	-285.714
197.79	-750.000
198.17	-287.500
198.55	-285.714
198.92	-155.556
199.30	-350.000
199.68	-163.636
200.05	-121.429
200.43	-1200.000
200.81	328.571
201.18	0.000
201.56	188.889
201.94	0.000
202.31	933.333
202.69	-233.333
203.07	2400.000
203.44	-122.222
203.82	-750.000
204.19	-166.667
204.57	-300.000
204.95	-312.500
205.32	-2000.000
205.70	525.000
206.08	-300.000
206.45	-183.333
206.83	680.000
207.20	-366.667
207.58	-320.000
207.96	-450.000
208.33	-216.667
208.71	141.667
209.08	-116.667
209.46	0.000
209.84	400.000
210.21	1000.000
210.59	1050.000
210.96	833.333
211.34	-400.000
211.71	-237.500
212.09	-1700.000
212.46	0.000
212.84	1500.000
213.22	-500.000
213.59	-425.000
213.97	-120.000
214.34	-300.000
214.72	333.333
215.09	-575.000
215.47	0.000
215.84	185.714
216.22	1100.000
216.59	-260.000
216.97	-280.000
217.34	-400.000
217.72	-200.000
218.09	-575.000
218.47	-625.000
218.84	0.000
219.22	220.000
219.59	-58.824
219.97	-55.000
220.34	1100.000
220.72	-188.889
221.09	-53.846
221.47	-533.333
221.84	-100.000
222.22	-442.857
222.59	0.000
222.97	-362.500
223.34	-620.000
223.72	-2300.000
224.09	-475.000
224.46	-475.000
224.84	-260.000
225.21	-242.857
225.59	-725.000
225.96	-625.000
226.34	-96.154
226.71	333.333
227.08	-1000.000
227.46	-146.667
227.83	-475.000
228.21	-115.789
228.58	275.000
228.95	1300.000
229.33	-150.000
229.70	-220.000
230.08	-31.579
230.45	300.000
230.82	-700.000
231.20	-142.857
231.57	-191.667
231.95	-200.000
232.32	-136.364
232.69	-75.000
233.07	-425.000
233.44	-82.353
233.81	-140.000
234.19	-55.556
234.56	-36.364
234.93	-34.483
235.31	-94.737
235.68	-66.667
236.05	-165.000
236.43	-15.385
236.80	0.000
237.17	-33.333
237.55	-51.515
237.92	-310.000
238.29	-67.742
238.67	-29.545
239.04	-36.111
239.41	-40.476
239.79	-47.826
240.16	-31.481
240.53	-21.739
240.91	-29.412
241.28	-24.590
241.65	-19.403
242.02	-16.216
242.40	-23.077
242.77	-32.000
243.14	-32.927
243.51	-32.895
243.89	-21.795
244.26	-5.941
244.63	-15.686
245.00	-17.757
245.38	-15.789
245.75	-23.009
246.12	-15.079
246.49	-13.953
246.87	-11.429
247.24	-5.298
247.61	-2.632
247.98	-8.054
248.36	-3.086
248.73	-12.270
249.10	-9.836
249.47	0.000
249.84	-2.094
250.22	-3.627
250.59	-8.333
250.96	-3.182
251.33	-9.694
251.70	-2.564
252.08	-3.333
252.45	0.000
252.82	-5.785
253.19	-7.422
253.56	-2.662
253.94	-5.000
254.31	-2.652
254.68	-1.049
255.05	2.932
255.42	-1.361
255.79	-5.502
256.16	-1.325
256.54	-4.305
256.91	-1.639
257.28	-1.639
257.65	-0.318
258.02	-4.425
258.39	0.000
258.76	3.058
259.14	2.586
259.51	0.865
259.88	-0.567
260.25	-0.556
260.62	0.822
260.99	-0.273
261.36	1.609
261.73	-3.979
262.10	-4.396
262.47	-2.413
262.85	3.535
263.22	-2.338
263.59	-1.842
263.96	-0.256
264.33	-1.535
264.70	-1.235
265.07	1.193
265.44	3.628
265.81	-0.231
266.18	2.721
266.55	0.670
266.92	-3.417
267.29	1.094
267.66	0.665
268.03	0.873
268.40	0.418
268.77	-0.911
269.14	-1.982
269.51	0.658
269.88	2.664
270.25	2.213
270.62	-0.211
270.99	1.616
271.36	0.990
271.73	2.358
272.10	2.004
272.47	1.202
272.84	1.004
273.21	1.403
273.58	4.032
273.95	0.962
274.32	-0.380
274.69	-0.774
275.06	2.564
275.43	-1.109
275.80	2.293
276.17	-1.296
276.54	0.746
276.91	0.358
277.28	2.170
277.65	1.975
278.02	1.471
278.39	0.181
278.76	0.879
279.13	1.418
279.50	1.718
279.87	2.147
280.23	-0.704
280.60	1.695
280.97	0.658
281.34	1.019
281.71	3.723
282.08	1.827
282.45	-0.164
282.82	1.256
283.19	-0.808
283.56	0.328
283.92	2.853
284.29	2.212
284.66	2.627
285.03	-0.801
285.40	2.318
285.77	0.619
286.14	1.527
286.51	0.609
286.87	1.264
287.24	2.711
287.61	1.794
287.98	1.511
288.35	1.479
288.72	2.663
289.08	2.782
289.45	2.071
289.82	1.355
290.19	2.586
290.56	1.972
290.93	2.140
291.29	2.617
291.66	1.377
292.03	1.221
292.40	3.810
292.77	1.617
293.13	2.571
293.50	1.051
293.87	2.685
294.24	3.200
294.60	4.804
294.97	1.477
295.34	3.201
295.71	3.279
296.08	2.067
296.44	2.083
296.81	3.167
297.18	2.366
297.55	2.712
297.91	2.254
298.28	2.251
298.65	2.854
299.02	1.653
299.38	3.432
299.75	3.271
300.12	1.736
300.48	4.032
300.85	3.037
301.22	3.691
301.59	3.196
301.95	3.842
302.32	3.444
302.69	2.410
303.05	4.570
303.42	4.324
303.79	3.750
304.15	3.155
304.52	4.334
304.89	4.503
305.25	4.658
305.62	4.493
305.99	5.052
306.35	3.528
306.72	5.274
307.09	4.569
307.45	4.762
307.82	4.036
308.19	5.348
308.55	6.268
308.92	5.648
309.29	6.418
309.65	5.556
310.02	5.050
310.38	6.299
310.75	5.922
311.12	6.040
311.48	5.670
311.85	6.838
312.22	6.546
312.58	7.700
312.95	6.597
313.31	7.227
313.68	7.692
314.05	8.762
314.41	9.927
314.78	9.446
315.14	8.984
315.51	9.326
315.87	10.801
316.24	10.685
316.61	10.480
316.97	11.041
317.34	10.670
317.70	10.742
318.07	12.169
318.43	11.650
318.80	12.625
319.16	12.017
319.53	12.168
319.89	13.146
320.26	14.769
320.62	13.741
320.99	14.497
321.35	14.325
321.72	15.628
322.08	15.690
322.45	16.170
322.81	17.509
323.18	16.106
323.54	17.759
323.91	18.238
324.27	17.986
324.64	19.815
325.00	20.232
325.37	20.885
325.73	20.496
326.10	20.519
326.46	22.638
326.83	24.259
327.19	23.937
327.56	23.636
327.92	25.413
328.29	25.161
328.65	24.288
329.01	25.973
329.38	27.633
329.74	26.541
330.11	28.938
330.47	27.885
330.84	26.787
331.20	28.417
331.56	28.163
331.93	28.117
332.29	29.407
332.66	30.150
333.02	29.983
333.38	30.285
333.75	29.630
334.11	30.359
334.48	29.043
334.84	30.416
335.20	29.807
335.57	31.703
335.93	32.066
336.29	29.368
336.66	30.698
337.02	30.853
337.38	32.313
337.75	30.413
338.11	31.455
338.47	31.183
338.84	30.626
339.20	30.750
339.56	29.572
339.93	30.296
340.29	30.918
340.65	31.144
341.02	30.886
341.38	32.013
341.74	30.912
342.11	32.261
342.47	30.580
342.83	31.804
343.20	33.442
343.56	30.473
343.92	31.705
344.28	30.625
344.65	31.860
345.01	30.889
345.37	30.793
345.73	30.008
346.10	31.513
346.46	30.775
346.82	31.461
347.19	32.162
347.55	31.639
347.91	30.609
348.27	31.259
348.63	30.465
349.00	31.394
349.36	30.483
349.72	30.655
350.08	31.426
350.45	30.722
350.81	31.297
351.17	32.180
351.53	31.615
351.89	32.498
352.26	31.940
352.62	31.343
352.98	31.832
353.34	31.143
353.70	30.663
354.07	31.818
354.43	31.967
354.79	31.488
355.15	32.230
355.51	33.041
355.87	32.386
356.24	32.167
356.60	30.894
356.96	33.062
357.32	31.078
357.68	31.332
358.04	30.614
358.40	32.015
358.77	32.018
359.13	31.093
359.49	31.227
359.85	32.777
360.21	31.923
360.57	31.515
360.93	31.946
361.29	32.702
361.66	32.513
362.02	33.055
362.38	32.959
362.74	32.053
363.10	33.150
363.46	33.241
363.82	32.741
364.18	33.849
364.54	33.541
364.90	33.645
365.26	32.966
365.62	33.000
365.98	33.424
366.35	33.490
366.71	34.150
367.07	34.168
367.43	33.749
367.79	33.046
368.15	34.515
368.51	34.574
368.87	33.116
369.23	33.200
369.59	34.085
369.95	33.469
370.31	34.976
370.67	33.563
371.03	34.211
371.39	34.184
371.75	33.631
372.11	34.146
372.47	34.394
372.83	34.293
373.19	33.289
373.55	33.875
373.91	34.560
374.27	33.700
374.63	35.521
374.99	34.416
375.35	34.870
375.71	33.806
376.07	34.861
376.42	34.509
376.78	34.121
377.14	35.745
377.50	34.788
377.86	36.084
378.22	34.790
378.58	35.315
378.94	35.798
379.30	35.735
379.66	36.038
380.02	35.257
380.38	36.348
380.74	34.986
381.09	34.611
381.45	35.000
381.81	36.827
382.17	36.698
382.53	35.497
382.89	35.553
383.25	35.698
383.61	36.111
383.97	35.925
384.32	36.603
384.68	35.789
385.04	37.305
385.40	35.533
385.76	37.046
386.12	35.428
386.48	36.294
386.83	36.651
387.19	36.327
387.55	35.211
387.91	36.130
388.27	37.356
388.62	37.056
388.98	37.394
389.34	37.242
389.70	37.130
390.06	36.886
390.42	36.205
390.77	36.604
391.13	35.622
391.49	36.353
391.85	36.848
392.20	36.240
392.56	35.972
392.92	36.641
393.28	37.148
393.64	36.592
393.99	36.839
394.35	37.558
394.71	36.587
395.07	36.766
395.42	36.379
395.78	37.538
396.14	36.245
396.50	35.451
396.85	36.255
397.21	35.917
397.57	36.160
397.92	36.942
398.28	36.013
398.64	36.098
399.00	36.230
399.35	36.702
399.71	35.707
400.07	36.047
400.42	36.962
400.78	36.111
401.14	36.084
401.49	35.816
401.85	36.686
402.21	36.443
402.57	36.972
402.92	35.638
403.28	36.124
403.63	36.038
403.99	36.045
404.35	34.451
404.70	34.674
405.06	34.565
405.42	34.953
405.77	35.714
406.13	35.062
406.49	35.417
406.84	35.402
407.20	35.551
407.55	35.009
407.91	35.324
408.27	35.041
408.62	35.660
408.98	34.823
409.34	34.545
409.69	34.611
410.05	34.232
410.40	35.557
410.76	33.875
411.11	34.600
411.47	35.074
411.83	35.979
412.18	34.578
412.54	35.685
412.89	35.448
413.25	35.045
413.60	35.325
413.96	35.431
414.31	34.278
414.67	35.361
415.03	35.446
415.38	35.498
415.74	34.453
416.09	36.582
416.45	34.878
416.80	34.761
417.16	35.185
417.51	36.177
417.87	36.419
418.22	35.808
418.58	35.130
418.93	35.448
419.29	36.128
419.64	36.194
420.00	36.499
420.35	36.384
420.71	35.956
421.06	36.228
421.42	36.812
421.77	35.649
422.12	37.896
422.48	38.556
422.83	39.047
423.19	37.401
423.54	38.993
423.90	38.763
424.25	38.827
424.61	38.576
424.96	38.331
425.31	39.172
425.67	38.379
426.02	38.960
426.38	39.839
426.73	39.453
427.09	39.850
427.44	39.050
427.79	40.354
428.15	39.384
428.50	39.551
428.85	40.528
429.21	40.798
429.56	39.980
429.92	40.786
430.27	39.807
430.62	40.156
430.98	41.466
431.33	41.105
431.68	40.852
432.04	41.899
432.39	41.564
432.74	41.781
433.10	42.023
433.45	41.472
433.80	41.899
434.16	43.595
434.51	43.782
434.86	43.648
435.22	44.368
435.57	43.868
435.92	43.517
436.28	43.288
436.63	42.709
436.98	42.995
437.34	43.348
437.69	44.194
438.04	43.416
438.39	43.768
438.75	43.940
439.10	44.186
439.45	43.823
439.81	44.068
440.16	44.611
440.51	44.036
440.86	42.968
441.22	44.212
441.57	44.602
441.92	45.441
442.27	46.061
442.63	44.461
442.98	46.798
443.33	45.660
443.68	46.036
444.03	46.660
444.39	46.186
444.74	46.299
445.09	45.869
445.44	46.997
445.79	45.833
446.15	45.632
446.50	46.615
446.85	46.206
447.20	46.760
447.55	46.444
447.91	46.492
448.26	45.719
448.61	48.087
448.96	47.157
449.31	46.288
449.66	46.024
450.02	47.363
450.37	47.043
450.72	46.771
451.07	48.007
451.42	46.909
451.77	47.360
452.12	47.065
452.47	47.415
452.83	49.043
453.18	46.760
453.53	47.444
453.88	47.156
454.23	47.797
454.58	47.649
454.93	47.391
455.28	47.140
455.63	47.868
455.98	48.659
456.34	47.585
456.69	48.677
457.04	48.463
457.39	48.171
457.74	48.434
458.09	47.666
458.44	48.599
458.79	48.736
459.14	47.457
459.49	49.519
459.84	48.321
460.19	47.696
460.54	49.744
460.89	49.762
461.24	48.851
461.59	48.478
461.94	48.089
462.29	48.376
462.64	48.521
462.99	48.839
463.34	49.448
463.69	47.479
464.04	48.805
464.39	49.496
464.74	48.005
465.09	48.731
465.44	48.659
465.79	47.753
466.14	47.942
466.49	48.526
466.84	48.650
467.19	49.364
467.54	47.944
467.89	48.448
468.24	49.141
468.59	48.581
468.94	47.960
469.29	48.590
469.64	48.506
469.99	49.267
470.34	48.700
470.68	49.897
471.03	49.640
471.38	48.855
471.73	50.000
472.08	49.810
472.43	49.308
472.78	49.496
473.13	50.063
473.48	50.937
473.83	50.029
474.17	48.769
474.52	50.271
474.87	49.059
475.22	49.465
475.57	49.533
475.92	48.482
476.27	49.148
476.61	49.481
476.96	49.009
477.31	50.198
477.66	50.735
478.01	49.720
478.36	49.950
478.70	49.507
479.05	50.562
479.40	50.987
479.75	49.424
480.10	49.029
480.45	50.182
480.79	49.751
481.14	48.805
481.49	50.068
481.84	49.608
482.19	49.548
482.53	50.590
482.88	50.775
483.23	50.289
483.58	49.651
483.92	49.734
484.27	49.534
484.62	48.804
484.97	49.689
485.31	49.384
485.66	45.585
486.01	45.392
486.36	47.161
486.70	49.711
487.05	52.100
487.40	50.638
487.75	49.949
488.09	50.014
488.44	48.582
488.79	48.971
489.13	48.479
489.48	48.777
489.83	49.658
490.17	47.833
490.52	48.358
490.87	49.196
491.22	49.480
491.56	49.275
491.91	49.106
492.26	49.892
492.60	49.366
492.95	49.890
493.30	50.336
493.64	49.321
493.99	49.298
494.34	49.695
494.68	49.936
495.03	50.308
495.37	50.111
495.72	50.068
496.07	49.299
496.41	48.777
496.76	48.957
497.11	50.318
497.45	49.676
497.80	49.445
498.14	49.705
498.49	50.184
498.84	50.091
499.18	50.022
499.53	49.327
499.87	49.758
500.22	48.887
500.56	50.292
500.91	50.343
501.26	50.273
501.60	50.287
501.95	49.110
502.29	50.943
502.64	50.372
502.98	48.274
503.33	50.281
503.67	48.365
504.02	49.124
504.36	50.536
504.71	49.931
505.06	50.159
505.40	49.543
505.75	49.545
506.09	50.460
506.44	50.929
506.78	50.688
507.13	49.793
507.47	50.450
507.82	50.616
508.16	50.096
508.51	49.508
508.85	50.449
509.19	49.550
509.54	50.624
509.88	50.219
510.23	50.559
510.57	49.058
510.92	50.895
511.26	48.725
511.61	49.493
511.95	50.317
512.30	50.369
512.64	50.725
512.98	49.275
513.33	50.655
513.67	49.771
514.02	50.690
514.36	50.639
514.70	50.469
515.05	50.261
515.39	50.761
515.74	51.326
516.08	51.347
516.42	51.439
516.77	50.263
517.11	49.046
517.46	50.265
517.80	50.294
518.14	51.034
518.49	50.705
518.83	49.973
519.17	48.788
519.52	49.948
519.86	50.106
520.20	49.627
520.55	51.205
520.89	50.000
521.23	48.911
521.58	51.412
521.92	51.105
522.26	50.458
522.61	50.810
522.95	51.269
523.29	51.034
523.64	49.159
523.98	50.713
524.32	51.862
524.66	51.110
525.01	50.000
525.35	50.201
525.69	49.594
526.04	49.598
526.38	51.322
526.72	49.827
527.06	52.199
527.41	50.262
527.75	51.603
528.09	49.587
528.43	51.036
528.78	50.405
529.12	49.599
529.46	49.016
529.80	50.686
530.15	49.971
530.49	49.585
530.83	49.705
531.17	50.119
531.51	50.542
531.86	51.022
532.20	49.939
532.54	49.252
532.88	49.879
533.22	49.087
533.57	50.087
533.91	48.373
534.25	49.124
534.59	49.655
534.93	49.179
535.27	49.014
535.62	50.881
535.96	50.726
536.30	48.766
536.64	50.390
536.98	50.554
537.32	50.802
537.66	50.593
538.01	49.124
538.35	48.782
538.69	49.038
539.03	49.908
539.37	48.822
539.71	49.309
540.05	50.420
540.39	48.411
540.73	49.848
541.07	49.540
541.42	47.372
541.76	47.687
542.10	48.794
542.44	47.442
542.78	49.088
543.12	49.583
543.46	48.535
543.80	49.700
544.14	47.756
544.48	48.582
544.82	49.312
545.16	49.076
545.50	49.011
545.84	47.642
546.18	49.568
546.52	48.662
546.86	47.925
547.20	48.537
547.54	48.252
547.88	47.981
548.22	48.655
548.56	49.035
548.90	49.373
549.24	48.815
549.58	49.905
549.92	49.681
550.26	50.097
550.60	49.011
550.94	48.771
551.28	48.251
551.62	49.933
551.96	47.961
552.30	49.076
552.64	47.915
552.98	49.283
553.32	49.453
553.66	48.682
554.00	49.369
554.34	49.871
554.68	47.644
555.02	48.817
555.36	50.559
555.69	48.110
556.03	49.748
556.37	49.249
556.71	49.271
557.05	49.010
557.39	49.237
557.73	48.283
558.07	48.344
558.41	50.100
558.75	48.546
559.08	50.800
559.42	49.040
559.76	49.864
560.10	48.091
560.44	48.681
560.78	48.875
561.12	48.584
561.45	48.601
561.79	48.535
562.13	50.031
562.47	47.164
562.81	49.367
563.15	49.242
563.48	50.031
563.82	48.428
564.16	47.910
564.50	49.166
564.84	46.549
565.17	47.882
565.51	47.583
565.85	48.753
566.19	47.869
566.52	48.274
566.86	48.727
567.20	46.928
567.54	47.531
567.88	48.267
568.21	47.826
568.55	47.914
568.89	47.254
569.23	46.430
569.56	46.815
569.90	46.686
570.24	45.801
570.57	45.414
570.91	45.530
571.25	44.894
571.59	44.754
571.92	45.283
572.26	45.130
572.60	44.444
572.93	44.531
573.27	45.013
573.61	43.727
573.95	43.894
574.28	43.611
574.62	44.270
574.96	43.163
575.29	43.534
575.63	43.844
575.97	44.311
576.30	43.079
576.64	43.689
576.98	43.394
577.31	43.977
577.65	43.706
577.98	43.185
578.32	42.967
578.66	44.026
578.99	42.883
579.33	44.375
579.67	43.880
580.00	43.223
580.34	43.237
580.67	43.138
581.01	42.904
581.35	42.704
581.68	42.325
582.02	42.997
582.35	43.719
582.69	43.876
583.02	43.973
583.36	43.705
583.70	44.535
584.03	43.725
584.37	43.125
584.70	43.056
585.04	42.269
585.37	43.350
585.71	43.409
586.04	43.307
586.38	44.127
586.72	43.269
587.05	43.515
587.39	43.655
587.72	44.522
588.06	44.149
588.39	44.088
588.73	43.598
589.06	44.780
589.40	44.683
589.73	44.794
590.07	44.894
590.40	44.997
590.73	45.069
591.07	45.867
591.40	45.179
591.74	44.634
592.07	44.742
592.41	44.558
592.74	44.480
593.08	44.522
593.41	44.269
593.75	43.621
594.08	44.411
594.41	44.840
594.75	44.836
595.08	44.145
595.42	44.740
595.75	44.301
596.09	45.137
596.42	44.751
596.75	43.651
597.09	45.131
597.42	43.782
597.75	43.983
598.09	43.810
598.42	45.356
598.76	44.058
599.09	43.645
599.42	42.508
599.76	43.810
600.09	43.810
600.42	44.545
600.76	43.032
601.09	43.412
601.42	43.151
601.76	44.276
602.09	43.495
602.42	43.511
602.76	43.284
603.09	43.282
603.42	44.364
603.76	43.058
604.09	44.429
604.42	43.853
604.76	43.531
605.09	44.635
605.42	44.856
605.75	42.962
606.09	43.337
606.42	42.612
606.75	43.366
607.09	41.897
607.42	43.969
607.75	43.611
608.08	43.370
608.42	43.611
608.75	43.325
609.08	42.742
609.41	43.979
609.75	43.750
610.08	44.283
610.41	43.033
610.74	42.941
611.07	43.917
611.41	44.126
611.74	45.173
612.07	43.712
612.40	43.489
612.73	43.521
613.07	44.156
613.40	44.947
613.73	43.669
614.06	43.719
614.39	42.857
614.72	44.105
615.06	43.167
615.39	43.064
615.72	44.171
616.05	43.856
616.38	44.450
616.71	44.462
617.05	43.078
617.38	43.392
617.71	43.952
618.04	43.443
618.37	43.825
618.70	44.005
619.03	44.265
619.36	44.513
619.69	43.882
620.03	44.633
620.36	44.356
620.69	43.738
621.02	44.685
621.35	46.662
621.68	46.638
622.01	44.769
622.34	45.049
622.67	45.223
623.00	43.860
623.33	46.052
623.66	45.006
623.99	43.976
624.32	44.834
624.65	43.308
624.99	44.473
625.32	45.722
625.65	44.909
625.98	43.932
626.31	44.791
626.64	44.542
626.97	44.411
627.30	44.039
627.63	44.486
627.96	46.021
628.29	45.447
628.62	45.676
628.95	46.626
629.28	45.200
629.61	46.717
629.94	45.439
630.26	46.356
630.59	43.610
630.92	44.848
631.25	46.064
631.58	47.928
631.91	45.829
632.24	46.110
632.57	44.782
632.90	45.336
633.23	46.531
633.56	46.429
633.89	46.281
634.22	46.258
634.55	46.138
634.88	47.186
635.20	46.609
635.53	47.571
635.86	45.395
636.19	47.402
636.52	45.359
636.85	44.944
637.18	44.491
637.51	46.559
637.83	45.736
638.16	46.083
638.49	45.188
638.82	45.434
639.15	45.361
639.48	47.229
639.81	45.035
640.13	47.350
640.46	45.697
640.79	44.363
641.12	47.329
641.45	43.162
641.77	47.882
642.10	46.982
642.43	48.670
642.76	47.154
643.09	46.986
643.41	46.919
643.74	45.793
644.07	47.724
644.40	46.818
644.73	46.880
645.05	46.109
645.38	47.194
645.71	46.774
646.04	46.341
646.36	47.737
646.69	48.466
647.02	48.624
647.35	45.649
647.67	47.343
648.00	48.248
648.33	46.547
648.66	46.220
648.98	45.034
649.31	45.061
649.64	46.481
649.96	44.297
650.29	44.367
650.62	45.403
650.94	47.147
651.27	43.862
651.60	44.444
651.92	45.745
652.25	46.744
652.58	43.466
652.90	44.041
653.23	45.070
653.56	43.081
653.88	46.067
654.21	43.944
654.54	45.665
654.86	45.751
655.19	43.036
655.52	43.336
655.84	38.712
656.17	44.329
656.49	61.684
656.82	67.405
657.15	53.234
657.47	40.904
657.80	30.500
658.13	23.950
658.45	31.298
658.78	37.449
659.10	36.909
659.43	35.548
659.75	34.779
660.08	33.333
660.41	36.394
660.73	38.883
661.06	39.207
661.38	41.786
661.71	42.069
662.03	43.739
662.36	42.218
662.68	44.090
663.01	45.841
663.33	46.314
663.66	45.421
663.98	44.808
664.31	46.154
664.63	43.738
664.96	43.739
665.28	42.650
665.61	44.755
665.93	44.286
666.26	46.057
666.58	44.280
666.91	45.234
667.23	43.810
667.56	44.181
667.88	45.600
668.21	44.727
668.53	40.347
668.86	44.204
669.18	44.399
669.50	43.936
669.83	44.000
670.15	43.898
670.48	44.643
670.80	41.874
671.13	42.722
671.45	44.291
671.77	45.009
672.10	39.667
672.42	41.100
672.75	41.167
673.07	41.343
673.39	42.835
673.72	44.128
674.04	45.345
674.37	41.682
674.69	40.741
675.01	48.000
675.34	40.458
675.66	40.449
675.98	43.284
676.31	42.773
676.63	44.106
676.95	41.571
677.28	43.548
677.60	42.520
677.92	42.802
678.25	40.402
678.57	40.747
678.89	43.686
679.22	39.721
679.54	40.684
679.86	40.169
680.18	37.313
680.51	39.308
680.83	41.080
681.15	41.552
681.48	40.587
681.80	41.451
682.12	39.685
682.44	38.564
682.77	41.667
683.09	41.856
683.41	40.504
683.73	40.417
684.06	39.852
684.38	39.535
684.70	44.345
685.02	41.308
685.34	40.266
685.67	37.855
685.99	39.877
686.31	38.081
686.63	39.021
686.96	38.328
687.28	38.599
687.60	38.384
687.92	36.495
688.24	39.733
688.56	38.448
688.89	41.198
689.21	38.943
689.53	38.824
689.85	38.856
690.17	38.333
690.49	39.243
690.82	41.188
691.14	39.676
691.46	38.815
691.78	38.858
692.10	38.165
692.42	37.321
692.74	38.113
693.06	38.519
693.39	38.140
693.71	37.030
694.03	38.848
694.35	37.143
694.67	39.220
694.99	40.213
695.31	38.411
695.63	42.208
695.95	38.302
696.27	40.000
696.59	39.381
696.91	36.261
697.23	40.440
697.56	37.067
697.88	35.985
698.20	35.217
698.52	38.826
698.84	39.085
699.16	37.959
699.48	38.075
699.80	37.447
700.12	35.371
700.44	39.401
700.76	35.392
701.08	39.952
701.40	40.415
701.72	40.547
702.04	37.968
702.36	36.126
702.68	35.208
703.00	39.609
703.32	38.424
703.64	38.631
703.96	39.379
704.28	31.695
704.60	37.722
704.91	35.459
705.23	38.356
705.55	37.047
705.87	38.485
706.19	37.730
706.51	37.349
706.83	36.023
707.15	32.804
707.47	35.514
707.79	34.061
708.11	34.322
708.43	33.978
708.74	35.714
709.06	35.499
709.38	38.028
709.70	40.199
710.02	33.850
710.34	38.032
710.66	31.844
710.98	37.705
711.29	34.341
711.61	34.181
711.93	37.322
712.25	35.676
712.57	40.708
712.89	40.588
713.20	33.136
713.52	36.705
713.84	35.097
714.16	35.789
714.48	31.959
714.80	35.844
715.11	32.546
715.43	31.830
715.75	36.842
716.07	37.017
716.39	33.333
716.70	31.928
717.02	40.656
717.34	31.359
717.66	31.544
717.97	32.534
718.29	36.770
718.61	32.566
718.93	31.715
719.24	31.988
719.56	31.595
719.88	27.928
720.20	32.903
720.51	30.435
720.83	31.563
721.15	33.882
721.46	30.479
721.78	35.333
722.10	33.657
722.42	31.544
722.73	32.581
723.05	32.632
723.37	35.069
723.68	33.333
724.00	34.296
724.32	26.408
724.63	32.168
724.95	35.106
725.27	32.056
725.58	25.795
725.90	30.690
726.22	30.408
726.53	32.792
726.85	33.333
727.16	30.211
727.48	32.722
727.80	33.444
728.11	33.569
728.43	30.976
728.74	28.763
729.06	29.139
729.38	33.442
729.69	29.195
730.01	30.952
730.32	30.303
730.64	35.220
730.96	27.019
731.27	31.564
731.59	30.769
731.90	30.649
732.22	27.865
732.53	29.282
732.85	28.571
733.16	33.724
733.48	25.305
733.80	29.805
734.11	29.630
734.43	30.541
734.74	31.899
735.06	28.141
735.37	31.351
735.69	27.838
736.00	30.226
736.32	27.493
736.63	29.444
736.95	27.586
737.26	28.485
737.58	29.091
737.89	31.471
738.21	30.275
738.52	25.574
738.83	28.328
739.15	29.787
739.46	27.891
739.78	29.448
740.09	25.215
740.41	32.070
740.72	29.000
741.04	28.803
741.35	29.825
741.66	27.843
741.98	30.328
742.29	28.870
742.61	29.825
742.92	23.077
743.23	25.993
743.55	29.070
743.86	27.600
744.18	21.901
744.49	27.848
744.80	30.041
745.12	29.958
745.43	28.049
745.74	28.017
746.06	32.203
746.37	30.802
746.68	29.675
747.00	30.000
747.31	31.760
747.62	30.385
747.94	30.769
748.25	26.104
748.56	30.612
748.88	26.923
749.19	32.759
749.50	25.108
749.82	27.711
750.13	30.961
750.44	24.000
750.75	28.308
751.07	23.385
751.38	27.760
751.69	26.518
752.01	29.126
752.32	29.412
752.63	30.272
752.94	23.529
753.26	25.279
753.57	27.407
753.88	25.843
754.19	26.045
754.51	24.759
754.82	24.759
755.13	26.230
755.44	27.304
755.75	29.934
756.07	27.463
756.38	27.673
756.69	31.024
757.00	24.100
757.31	29.235
757.63	26.087
757.94	24.883
758.25	27.314
758.56	26.362
758.87	25.682
759.18	23.733
759.50	24.363
759.81	23.249
760.12	24.528
760.43	27.604
760.74	24.384
761.05	24.250
761.36	20.482
761.67	24.873
761.99	19.189
762.30	24.390
762.61	20.792
762.92	23.507
763.23	26.966
763.54	21.223
763.85	25.773
764.16	25.253
764.47	26.056
764.78	25.879
765.10	26.393
765.41	25.641
765.72	21.958
766.03	23.446
766.34	21.317
766.65	21.254
766.96	23.904
767.27	26.267
767.58	22.388
767.89	26.923
768.20	28.169
768.51	16.667
768.82	18.072
769.13	22.348
769.44	19.231
769.75	28.881
770.06	25.385
770.37	23.622
770.68	21.277
770.99	19.838
771.30	25.556
771.61	21.293
771.92	23.333
772.23	23.482
772.54	14.815
772.85	25.806
773.16	26.667
773.47	19.577
773.78	17.297
774.09	22.159
774.39	18.000
774.70	26.230
775.01	12.805
775.32	17.647
775.63	22.086
775.94	13.376
776.25	18.065
776.56	24.359
776.87	19.048
777.18	18.621
777.48	19.580
777.79	20.270
778.10	22.794
778.41	20.139
778.72	19.310
779.03	22.222
779.34	21.212
779.65	14.508
779.95	17.222
780.26	15.909
780.57	18.065
780.88	23.188
781.19	23.871
781.50	23.529
781.80	19.892
782.11	28.571
782.42	12.121
782.73	16.168
783.04	17.877
783.34	12.121
783.65	15.686
783.96	14.907
784.27	19.643
784.57	13.907
784.88	15.000
785.19	18.898
785.50	14.961
785.81	20.301
786.11	19.231
786.42	11.511
786.73	13.669
787.04	15.789
787.34	16.393
787.65	17.600
787.96	23.881
788.26	16.084
788.57	20.979
788.88	12.500
789.19	17.647
789.49	13.014
789.80	9.220
790.11	11.811
790.41	8.594
790.72	6.780
791.03	-0.971
791.33	20.870
791.64	22.807
791.95	12.500
792.25	13.333
792.56	0.000
792.87	0.000
793.17	4.464
793.48	8.333
793.79	1.205
794.09	10.092
794.40	5.505
794.70	10.204
795.01	12.987
795.32	15.068
795.62	11.268
795.93	9.848
796.23	10.656
796.54	16.071
796.85	6.383
797.15	7.609
797.46	1.370
797.76	0.000
798.07	17.391
798.37	-2.062
798.68	-11.688
798.99	5.747
799.29	4.494
799.60	8.511
799.90	7.229
800.21	-6.154
800.51	-4.478
800.82	7.353
801.12	-5.479
801.43	-14.706
801.73	-10.169
802.04	4.545
802.34	-21.667
802.65	-10.169
802.95	-2.985
803.26	-3.390
803.56	-2.740
803.87	0.000
804.17	1.370
804.48	-12.281
804.78	1.389
805.09	-18.966
805.39	4.054
805.70	-2.817
806.00	14.634
806.30	-4.819
806.61	-4.110
806.91	16.346
807.22	3.333
807.52	-3.448
807.83	-2.778
808.13	10.843
808.43	8.989
808.74	7.500
809.04	-17.647
809.35	-4.000
809.65	-2.857
809.95	0.000
810.26	-14.035
810.56	-10.345
810.86	4.412
811.17	-7.018
811.47	-26.230
811.77	-31.111
812.08	-1.695
812.38	-5.000
812.69	-6.897
812.99	-30.189
813.29	-33.333
813.59	-2.000
813.90	-12.281
814.20	5.455
814.50	-4.225
814.81	6.410
815.11	6.557
815.41	-14.925
815.72	13.793
816.02	-3.571
816.32	11.111
816.62	-9.091
816.93	-4.444
817.23	-12.963
817.53	-4.255
817.84	28.571
818.14	-5.882
818.44	-4.082
818.74	-4.444
819.04	-28.205
819.35	-34.286
819.65	-65.385
819.95	-20.755
820.25	-17.778
820.56	-23.810
820.86	0.000
821.16	-38.462
821.46	-32.558
821.76	-46.000
822.07	1.786
822.37	-47.826
822.67	-25.532
822.97	-32.432
823.27	-2.500
823.57	8.163
823.88	-11.111
824.18	-5.000
824.48	-26.667
824.78	-68.000
825.08	-33.333
825.38	-15.556
825.69	-21.277
825.99	-33.333
826.29	-54.286
826.59	-33.333
826.89	-37.209
827.19	-8.000
827.49	-64.706
827.79	-16.667
828.09	-35.135
828.39	-36.667
828.70	-26.829
829.00	-16.279
829.30	-60.714
829.60	-11.765
829.90	-36.957
830.20	-20.000
830.50	-82.759
830.80	-72.222
831.10	-53.846
831.40	-35.294
831.70	-109.524
832.00	-45.161
832.30	-170.588
832.60	-12.500
832.90	-107.692
833.20	-73.684
833.50	-40.000
833.80	-47.368
834.10	-114.286
834.40	-13.889
834.70	-15.625
835.00	-51.429
835.30	-47.059
835.60	-50.000
835.90	-72.000
836.20	-118.182
836.50	-16.000
836.80	-69.697
837.10	-62.963
837.40	-48.148
837.70	-168.750
838.00	-53.571
838.30	-52.174
838.60	-44.828
838.90	-142.857
839.19	-108.696
839.49	-216.667
839.79	-39.130
840.09	-175.000
840.39	-75.000
840.69	-32.258
840.99	-103.571
841.29	-126.667
841.59	-78.947
841.88	-15.385
842.18	-73.077
842.48	-230.000
842.78	-85.000
843.08	-36.667
843.38	-48.387
843.68	-138.889
843.97	-29.412
844.27	-31.250
844.57	-131.579
844.87	-290.000
845.17	-133.333
845.47	-57.143
845.76	-95.238
846.06	-111.111
846.36	-100.000
846.66	-26.923
846.96	-153.333
847.25	-135.294
847.55	-39.130
847.85	-90.000
848.15	-105.882
848.44	-209.091
848.74	-57.143
849.04	-87.500
849.34	-125.000
849.63	-47.826
849.93	800.000
850.23	-126.667
850.53	7.692
850.82	-181.818
851.12	-54.545
851.42	-209.091
851.71	-15.385
852.01	-100.000
852.31	-92.308
852.61	-78.947
852.90	-91.667
853.20	-61.111
853.50	-377.778
853.79	-76.190
854.09	-86.364
854.39	-216.667
854.68	-45.161
854.98	-53.846
855.28	-88.889
855.57	-64.286
855.87	-48.000
856.17	-40.909
856.46	-66.667
856.76	-116.667
857.05	-113.043
857.35	-79.167
857.65	-153.846
857.94	-76.190
858.24	-40.741
858.53	-39.130
858.83	-47.059
859.13	-58.824
859.42	-111.765
859.72	-64.286
860.01	-60.000
860.31	-200.000
860.60	-80.000
860.90	-73.333
861.20	-83.333
861.49	-69.231
861.79	-56.667
862.08	-84.615
862.38	-12.500
862.67	-94.118
862.97	-112.500
863.26	-288.889
863.56	-200.000
863.85	-200.000
864.15	-22.222
864.44	-400.000
864.74	-142.857
865.03	-162.500
865.33	-300.000
865.62	-58.065
865.92	-72.727
866.21	-47.826
866.51	-114.286
866.80	-480.000
867.10	-125.000
867.39	-175.000
867.69	2500.000
867.98	-200.000
868.27	-94.118
868.57	-2900.000
868.86	-290.000
869.16	-85.714
869.45	-41.667
869.75	-90.909
870.04	-357.143
870.33	-108.333
870.63	-342.857
870.92	-450.000
871.22	-325.000
871.51	-181.818
871.80	-1200.000
872.10	-850.000
>>>>>End Processed Spectral Data<<<<<
