SpectraSuite Data File
++++++++++++++++++++++++++++++++++++
Date: Thu May 14 15:02:50 PDT 2015
User: schluterlab
Dark Spectrum Present: Yes
Reference Spectrum Present: Yes
Number of Sampled Component Spectra: 1
Spectrometers: USB2E3373
Integration Time (usec): 3000 (USB2E3373)
Spectra Averaged: 3 (USB2E3373)
Boxcar Smoothing: 0 (USB2E3373)
Correct for Electrical Dark: No (USB2E3373)
Strobe/Lamp Enabled: No (USB2E3373)
Correct for Detector Non-linearity: No (USB2E3373)
Correct for Stray Light: No (USB2E3373)
Number of Pixels in Processed Spectrum: 2048
>>>>>Begin Processed Spectral Data<<<<<
178.53	0.000
178.91	257.143
179.29	-3100.000
179.67	-2500.000
180.04	264.286
180.42	280.000
180.80	540.000
181.18	-2400.000
181.56	-1800.000
181.94	775.000
182.31	-450.000
182.69	766.667
183.07	-1300.000
183.45	575.000
183.83	-350.000
184.20	-833.333
184.58	2700.000
184.96	-525.000
185.34	-200.000
185.72	-300.000
186.09	300.000
186.47	1700.000
186.85	640.000
187.23	-344.444
187.61	-2500.000
187.98	480.000
188.36	800.000
188.74	-525.000
189.12	-600.000
189.49	-93.750
189.87	-362.500
190.25	-188.889
190.63	-500.000
191.00	-322.222
191.38	0.000
191.76	-775.000
192.14	-483.333
192.51	1550.000
192.89	-216.667
193.27	0.000
193.65	-257.143
194.02	-2900.000
194.40	-442.857
194.78	442.857
195.15	0.000
195.53	-245.455
195.91	0.000
196.29	-325.000
196.66	-200.000
197.04	-1800.000
197.42	-257.143
197.79	-1250.000
198.17	-350.000
198.55	-400.000
198.92	-188.889
199.30	-287.500
199.68	-190.909
200.05	-142.857
200.43	-1300.000
200.81	385.714
201.18	0.000
201.56	333.333
201.94	0.000
202.31	1066.667
202.69	-300.000
203.07	2200.000
203.44	-166.667
203.82	-675.000
204.19	-116.667
204.57	-533.333
204.95	-262.500
205.32	-2700.000
205.70	625.000
206.08	-416.667
206.45	-366.667
206.83	500.000
207.20	-416.667
207.58	-600.000
207.96	-383.333
208.33	-200.000
208.71	216.667
209.08	-350.000
209.46	0.000
209.84	600.000
210.21	1600.000
210.59	1100.000
210.96	1033.333
211.34	-500.000
211.71	-300.000
212.09	-2200.000
212.46	0.000
212.84	1500.000
213.22	-600.000
213.59	-575.000
213.97	-230.000
214.34	-666.667
214.72	533.333
215.09	-850.000
215.47	0.000
215.84	414.286
216.22	1700.000
216.59	-520.000
216.97	-540.000
217.34	-700.000
217.72	-175.000
218.09	-675.000
218.47	-600.000
218.84	0.000
219.22	440.000
219.59	-123.529
219.97	-90.000
220.34	1800.000
220.72	-300.000
221.09	-115.385
221.47	-1000.000
221.84	-230.000
222.22	-428.571
222.59	0.000
222.97	-275.000
223.34	-400.000
223.72	-2800.000
224.09	-550.000
224.46	-625.000
224.84	-540.000
225.21	-457.143
225.59	-650.000
225.96	-750.000
226.34	-65.385
226.71	466.667
227.08	-1000.000
227.46	-73.333
227.83	-600.000
228.21	-89.474
228.58	312.500
228.95	1150.000
229.33	-108.333
229.70	-240.000
230.08	-68.421
230.45	350.000
230.82	-900.000
231.20	-92.857
231.57	-125.000
231.95	-154.545
232.32	-118.182
232.69	-70.000
233.07	-450.000
233.44	-152.941
233.81	-190.000
234.19	5.556
234.56	-59.091
234.93	-65.517
235.31	-147.368
235.68	-122.222
236.05	-130.000
236.43	-53.846
236.80	4.000
237.17	-51.852
237.55	-36.364
237.92	-280.000
238.29	-35.484
238.67	-50.000
239.04	-47.222
239.41	-38.095
239.79	-26.087
240.16	-31.481
240.53	-39.130
240.91	-31.373
241.28	-21.311
241.65	-19.403
242.02	-12.162
242.40	-33.846
242.77	-8.000
243.14	-23.171
243.51	-26.316
243.89	-20.513
244.26	-11.881
244.63	-2.941
245.00	-7.477
245.38	-12.281
245.75	-16.814
246.12	-7.937
246.49	-8.527
246.87	3.571
247.24	0.662
247.61	-0.658
247.98	-0.671
248.36	-1.852
248.73	4.294
249.10	-0.546
249.47	3.483
249.84	4.188
250.22	-2.591
250.59	-1.667
250.96	4.545
251.33	1.020
251.70	2.564
252.08	4.167
252.45	3.279
252.82	1.240
253.19	2.344
253.56	1.521
253.94	4.615
254.31	1.894
254.68	8.392
255.05	7.818
255.42	4.422
255.79	3.883
256.16	2.980
256.54	-0.662
256.91	4.590
257.28	3.934
257.65	5.096
258.02	4.425
258.39	6.268
258.76	7.645
259.14	7.184
259.51	3.746
259.88	2.266
260.25	5.000
260.62	4.658
260.99	8.743
261.36	7.239
261.73	7.958
262.10	4.670
262.47	5.362
262.85	10.101
263.22	4.156
263.59	1.842
263.96	7.673
264.33	4.859
264.70	8.395
265.07	10.024
265.44	9.751
265.81	5.093
266.18	7.029
266.55	6.250
266.92	5.239
267.29	8.753
267.66	5.765
268.03	6.114
268.40	6.889
268.77	3.645
269.14	4.185
269.51	6.360
269.88	7.172
270.25	7.847
270.62	6.751
270.99	8.081
271.36	8.119
271.73	8.251
272.10	7.615
272.47	7.014
272.84	7.831
273.21	7.615
273.58	6.048
273.95	5.962
274.32	6.274
274.69	5.222
275.06	6.777
275.43	5.176
275.80	8.466
276.17	5.000
276.54	6.530
276.91	6.082
277.28	5.425
277.65	7.899
278.02	6.434
278.39	4.891
278.76	7.030
279.13	4.965
279.50	8.247
279.87	8.587
280.23	3.345
280.60	7.966
280.97	8.882
281.34	7.131
281.71	9.306
282.08	6.977
282.45	7.365
282.82	6.436
283.19	5.816
283.56	7.541
283.92	9.309
284.29	10.585
284.66	7.718
285.03	5.288
285.40	7.419
285.77	6.502
286.14	7.939
286.51	6.240
286.87	9.163
287.24	8.735
287.61	8.670
287.98	7.553
288.35	9.615
288.72	7.249
289.08	9.517
289.45	8.728
289.82	8.886
290.19	7.040
290.56	9.437
290.93	8.274
291.29	8.540
291.66	8.678
292.03	7.463
292.40	9.524
292.77	7.817
293.13	10.149
293.50	7.490
293.87	8.859
294.24	9.600
294.60	10.999
294.97	7.114
295.34	11.652
295.71	8.197
296.08	9.819
296.44	10.417
296.81	9.622
297.18	9.838
297.55	7.901
297.91	8.541
298.28	8.412
298.65	9.037
299.02	9.681
299.38	9.611
299.75	10.397
300.12	9.028
300.48	9.793
300.85	10.236
301.22	10.626
301.59	8.447
301.95	8.927
302.32	10.000
302.69	10.077
303.05	11.425
303.42	11.308
303.79	10.833
304.15	9.464
304.52	9.408
304.89	9.319
305.25	10.455
305.62	10.240
305.99	12.062
306.35	10.181
306.72	10.031
307.09	10.254
307.45	10.455
307.82	10.797
308.19	9.889
308.55	11.283
308.92	9.932
309.29	10.057
309.65	10.624
310.02	10.495
310.38	10.925
310.75	11.068
311.12	10.738
311.48	11.241
311.85	11.586
312.22	11.670
312.58	9.953
312.95	10.899
313.31	11.563
313.68	10.714
314.05	12.918
314.41	12.386
314.78	10.990
315.14	11.343
315.51	11.542
315.87	10.621
316.24	12.603
316.61	12.966
316.97	10.679
317.34	11.905
317.70	12.576
318.07	11.993
318.43	11.905
318.80	12.709
319.16	11.674
319.53	10.368
319.89	12.533
320.26	11.833
320.62	11.082
320.99	11.357
321.35	10.351
321.72	12.186
322.08	11.452
322.45	11.563
322.81	12.004
323.18	11.947
323.54	12.500
323.91	13.879
324.27	13.683
324.64	12.510
325.00	12.769
325.37	12.367
325.73	13.058
326.10	13.463
326.46	13.355
326.83	13.691
327.19	14.016
327.56	14.466
327.92	14.319
328.29	14.839
328.65	12.898
329.01	14.213
329.38	15.586
329.74	14.726
330.11	13.870
330.47	14.069
330.84	13.953
331.20	15.000
331.56	14.905
331.93	14.644
332.29	15.169
332.66	15.698
333.02	14.657
333.38	15.352
333.75	15.741
334.11	14.762
334.48	15.512
334.84	16.737
335.20	14.442
335.57	15.852
335.93	15.868
336.29	14.476
336.66	14.634
337.02	16.973
337.38	15.476
337.75	15.455
338.11	16.653
338.47	16.129
338.84	16.244
339.20	15.080
339.56	15.074
339.93	15.107
340.29	16.989
340.65	14.599
341.02	16.680
341.38	16.492
341.74	15.981
342.11	15.366
342.47	15.568
342.83	15.217
343.20	15.863
343.56	15.156
343.92	15.372
344.28	14.922
344.65	16.279
345.01	15.757
345.37	15.863
345.73	15.511
346.10	15.601
346.46	15.032
346.82	16.330
347.19	17.112
347.55	17.451
347.91	15.973
348.27	15.706
348.63	16.222
349.00	15.362
349.36	16.877
349.72	16.815
350.08	17.013
350.45	15.665
350.81	15.309
351.17	15.263
351.53	16.452
351.89	16.629
352.26	15.746
352.62	16.418
352.98	15.496
353.34	15.385
353.70	16.256
354.07	15.797
354.43	15.869
354.79	15.034
355.15	15.526
355.51	16.009
355.87	15.931
356.24	16.654
356.60	15.521
356.96	16.457
357.32	15.911
357.68	15.666
358.04	15.719
358.40	15.075
358.77	15.643
359.13	15.510
359.49	15.316
359.85	16.316
360.21	15.782
360.57	15.219
360.93	15.303
361.29	16.491
361.66	15.496
362.02	17.606
362.38	15.601
362.74	16.131
363.10	16.644
363.46	15.789
363.82	16.122
364.18	16.186
364.54	17.082
364.90	16.656
365.26	16.414
365.62	17.000
365.98	17.359
366.35	16.577
366.71	17.891
367.07	15.968
367.43	16.349
367.79	16.722
368.15	17.124
368.51	16.576
368.87	16.917
369.23	16.400
369.59	16.530
369.95	17.309
370.31	17.758
370.67	16.781
371.03	18.144
371.39	17.058
371.75	16.781
372.11	17.209
372.47	18.009
372.83	17.277
373.19	17.612
373.55	17.683
373.91	16.905
374.27	18.047
374.63	17.118
374.99	17.639
375.35	17.792
375.71	18.194
376.07	18.334
376.42	18.010
376.78	18.707
377.14	17.904
377.50	18.343
377.86	18.534
378.22	18.503
378.58	18.193
378.94	18.545
379.30	19.156
379.66	18.989
380.02	18.177
380.38	19.528
380.74	19.211
381.09	18.525
381.45	18.977
381.81	19.965
382.17	19.952
382.53	19.006
382.89	18.679
383.25	18.816
383.61	18.866
383.97	19.140
384.32	20.036
384.68	19.722
385.04	20.706
385.40	20.801
385.76	20.926
386.12	19.808
386.48	20.765
386.83	21.097
387.19	19.930
387.55	20.775
387.91	19.635
388.27	21.016
388.62	20.619
388.98	19.233
389.34	20.919
389.70	21.441
390.06	20.367
390.42	20.904
390.77	21.312
391.13	20.892
391.49	21.618
391.85	20.121
392.20	21.767
392.56	21.559
392.92	20.992
393.28	21.614
393.64	20.894
393.99	22.138
394.35	21.963
394.71	22.395
395.07	20.898
395.42	22.387
395.78	21.572
396.14	22.044
396.50	21.734
396.85	21.288
397.21	21.420
397.57	21.908
397.92	22.050
398.28	21.782
398.64	21.682
399.00	22.251
399.35	21.780
399.71	22.337
400.07	22.235
400.42	22.119
400.78	21.123
401.14	22.709
401.49	23.195
401.85	22.616
402.21	22.538
402.57	22.887
402.92	22.340
403.28	21.721
403.63	22.076
403.99	22.268
404.35	21.262
404.70	21.643
405.06	21.739
405.42	22.541
405.77	21.429
406.13	22.312
406.49	22.579
406.84	22.161
407.20	22.191
407.55	21.199
407.91	21.873
408.27	22.438
408.62	22.804
408.98	21.938
409.34	21.760
409.69	22.744
410.05	23.564
410.40	22.100
410.76	22.490
411.11	22.794
411.47	22.359
411.83	22.575
412.18	22.771
412.54	23.059
412.89	21.944
413.25	22.856
413.60	22.975
413.96	23.135
414.31	22.720
414.67	22.719
415.03	22.954
415.38	22.005
415.74	22.358
416.09	22.332
416.45	22.855
416.80	21.971
417.16	22.605
417.51	22.229
417.87	22.808
418.22	23.473
418.58	22.986
418.93	23.690
419.29	22.441
419.64	22.389
420.00	22.433
420.35	21.842
420.71	22.516
421.06	21.794
421.42	22.592
421.77	21.863
422.12	21.987
422.48	22.529
422.83	23.932
423.19	22.175
423.54	23.562
423.90	22.419
424.25	22.667
424.61	22.445
424.96	22.735
425.31	23.355
425.67	22.276
426.02	22.413
426.38	22.503
426.73	23.158
427.09	23.933
427.44	22.338
427.79	23.438
428.15	21.575
428.50	22.416
428.85	22.790
429.21	23.138
429.56	22.063
429.92	22.555
430.27	22.988
430.62	23.156
430.98	22.430
431.33	22.678
431.68	22.845
432.04	23.362
432.39	23.085
432.74	22.831
433.10	22.445
433.45	23.188
433.80	23.444
434.16	22.572
434.51	23.073
434.86	23.616
435.22	23.751
435.57	23.408
435.92	22.705
436.28	23.151
436.63	24.031
436.98	23.242
437.34	23.393
437.69	22.840
438.04	22.898
438.39	23.205
438.75	22.468
439.10	23.573
439.45	22.638
439.81	22.712
440.16	22.627
440.51	23.300
440.86	22.735
441.22	23.526
441.57	23.323
441.92	22.648
442.27	23.030
442.63	23.547
442.98	23.906
443.33	23.093
443.68	24.529
444.03	23.895
444.39	23.856
444.74	23.686
445.09	23.416
445.44	23.340
445.79	23.372
446.15	23.690
446.50	23.618
446.85	23.735
447.20	24.275
447.55	23.640
447.91	23.403
448.26	23.150
448.61	24.601
448.96	24.571
449.31	23.065
449.66	23.693
450.02	23.101
450.37	24.507
450.72	23.950
451.07	24.829
451.42	23.339
451.77	23.180
452.12	26.072
452.47	23.589
452.83	23.761
453.18	24.518
453.53	23.550
453.88	23.578
454.23	24.124
454.58	24.144
454.93	23.786
455.28	23.961
455.63	23.195
455.98	24.358
456.34	24.794
456.69	23.574
457.04	25.000
457.39	24.446
457.74	25.112
458.09	24.217
458.44	24.623
458.79	23.259
459.14	24.174
459.49	24.278
459.84	24.449
460.19	23.931
460.54	24.532
460.89	24.457
461.24	24.598
461.59	25.401
461.94	23.845
462.29	24.580
462.64	24.080
462.99	24.043
463.34	25.114
463.69	23.916
464.04	24.402
464.39	23.991
464.74	24.515
465.09	24.913
465.44	24.732
465.79	24.802
466.14	23.919
466.49	24.105
466.84	24.408
467.19	24.335
467.54	23.032
467.89	24.195
468.24	24.543
468.59	23.567
468.94	24.009
469.29	24.715
469.64	24.158
469.99	25.048
470.34	24.629
470.68	24.402
471.03	24.361
471.38	25.114
471.73	25.748
472.08	24.619
472.43	24.804
472.78	25.630
473.13	24.652
473.48	25.801
473.83	25.015
474.17	24.912
474.52	24.714
474.87	24.252
475.22	25.296
475.57	25.493
475.92	25.236
476.27	24.441
476.61	24.559
476.96	24.140
477.31	24.802
477.66	25.184
478.01	24.911
478.36	24.925
478.70	24.286
479.05	26.176
479.40	25.123
479.75	25.648
480.10	24.680
480.45	25.296
480.79	25.170
481.14	24.678
481.49	25.625
481.84	24.587
482.19	26.237
482.53	25.317
482.88	25.742
483.23	25.122
483.58	24.760
483.92	24.778
484.27	25.106
484.62	24.422
484.97	25.078
485.31	24.710
485.66	23.440
486.01	23.361
486.36	23.986
486.70	25.209
487.05	26.367
487.40	25.726
487.75	25.802
488.09	25.077
488.44	24.661
488.79	24.587
489.13	25.127
489.48	24.155
489.83	24.105
490.17	24.909
490.52	24.959
490.87	25.169
491.22	25.260
491.56	25.043
491.91	25.730
492.26	25.790
492.60	25.142
492.95	25.274
493.30	24.653
493.64	25.449
493.99	25.965
494.34	24.521
494.68	25.482
495.03	24.978
495.37	25.832
495.72	25.624
496.07	25.635
496.41	25.354
496.76	25.646
497.11	25.732
497.45	25.680
497.80	25.455
498.14	25.306
498.49	25.414
498.84	25.503
499.18	24.381
499.53	25.516
499.87	25.802
500.22	24.978
500.56	25.236
500.91	25.217
501.26	26.636
501.60	25.365
501.95	25.011
502.29	25.494
502.64	26.192
502.98	24.720
503.33	24.622
503.67	26.079
504.02	25.263
504.36	26.676
504.71	25.999
505.06	25.648
505.40	25.594
505.75	25.455
506.09	26.750
506.44	25.905
506.78	26.009
507.13	25.957
507.47	26.338
507.82	25.852
508.16	25.287
508.51	24.426
508.85	25.035
509.19	26.243
509.54	27.185
509.88	26.032
510.23	26.615
510.57	26.535
510.92	25.689
511.26	25.108
511.61	25.736
511.95	25.915
512.30	27.080
512.64	26.037
512.98	25.863
513.33	26.411
513.67	26.721
514.02	26.929
514.36	26.343
514.70	27.083
515.05	27.059
515.39	26.247
515.74	27.147
516.08	26.255
516.42	26.583
516.77	26.604
517.11	26.096
517.46	26.034
517.80	27.632
518.14	27.530
518.49	27.115
518.83	26.557
519.17	26.279
519.52	26.730
519.86	27.508
520.20	27.370
520.55	26.616
520.89	27.590
521.23	27.694
521.58	27.740
521.92	26.006
522.26	26.861
522.61	26.852
522.95	27.797
523.29	27.586
523.64	27.354
523.98	28.009
524.32	27.908
524.66	28.002
525.01	26.048
525.35	27.743
525.69	26.972
526.04	26.808
526.38	26.667
526.72	27.278
527.06	27.566
527.41	27.522
527.75	27.435
528.09	28.040
528.43	27.235
528.78	26.416
529.12	26.261
529.46	27.206
529.80	27.860
530.15	27.536
530.49	27.165
530.83	27.627
531.17	27.300
531.51	27.076
531.86	27.224
532.20	27.500
532.54	26.391
532.88	26.606
533.22	27.401
533.57	26.659
533.91	28.002
534.25	26.795
534.59	27.241
534.93	27.278
535.27	27.099
535.62	26.720
535.96	27.193
536.30	27.203
536.64	27.327
536.98	26.937
537.32	27.778
537.66	28.010
538.01	27.009
538.35	26.370
538.69	27.103
539.03	27.284
539.37	27.326
539.71	27.568
540.05	27.638
540.39	26.528
540.73	26.715
541.07	27.713
541.42	26.226
541.76	26.512
542.10	27.805
542.44	26.431
542.78	27.129
543.12	26.639
543.46	26.801
543.80	26.019
544.14	25.913
544.48	26.300
544.82	27.887
545.16	27.609
545.50	27.142
545.84	26.271
546.18	27.469
546.52	27.452
546.86	26.981
547.20	26.908
547.54	26.030
547.88	26.944
548.22	26.199
548.56	26.682
548.90	26.866
549.24	27.599
549.58	26.625
549.92	27.041
550.26	26.537
550.60	26.356
550.94	27.296
551.28	25.875
551.62	27.695
551.96	26.019
552.30	27.533
552.64	26.322
552.98	27.074
553.32	27.717
553.66	27.010
554.00	27.617
554.34	27.091
554.68	26.081
555.02	26.084
555.36	26.890
555.69	25.753
556.03	26.545
556.37	27.409
556.71	26.696
557.05	25.879
557.39	26.609
557.73	26.420
558.07	26.887
558.41	27.243
558.75	26.775
559.08	26.444
559.42	24.897
559.76	27.205
560.10	25.988
560.44	25.923
560.78	26.187
561.12	26.478
561.45	26.582
561.79	26.862
562.13	27.049
562.47	26.264
562.81	26.076
563.15	25.947
563.48	26.787
563.82	26.784
564.16	25.379
564.50	26.281
564.84	25.605
565.17	26.882
565.51	25.777
565.85	25.891
566.19	26.613
566.52	26.097
566.86	26.146
567.20	25.884
567.54	26.394
567.88	25.943
568.21	25.939
568.55	26.139
568.89	25.783
569.23	25.222
569.56	25.127
569.90	25.731
570.24	24.789
570.57	25.305
570.91	24.311
571.25	24.646
571.59	24.576
571.92	24.387
572.26	24.299
572.60	24.625
572.93	24.492
573.27	23.771
573.61	24.060
573.95	24.423
574.28	24.410
574.62	23.988
574.96	23.555
575.29	24.256
575.63	23.793
575.97	24.263
576.30	23.908
576.64	23.717
576.98	23.781
577.31	23.894
577.65	23.917
577.98	23.532
578.32	23.203
578.66	23.709
578.99	24.043
579.33	24.033
579.67	24.003
580.00	23.848
580.34	23.953
580.67	23.831
581.01	23.323
581.35	23.826
581.68	23.585
582.02	23.502
582.35	24.235
582.69	24.068
583.02	24.126
583.36	24.050
583.70	24.017
584.03	23.926
584.37	23.797
584.70	23.374
585.04	23.088
585.37	23.442
585.71	23.495
586.04	23.492
586.38	23.932
586.72	23.465
587.05	23.612
587.39	23.635
587.72	23.708
588.06	23.815
588.39	24.197
588.73	24.101
589.06	23.448
589.40	24.554
589.73	23.843
590.07	23.873
590.40	24.273
590.73	24.214
591.07	24.237
591.40	23.445
591.74	24.285
592.07	24.767
592.41	24.369
592.74	23.003
593.08	23.567
593.41	23.972
593.75	24.138
594.08	23.993
594.41	24.327
594.75	23.779
595.08	24.293
595.42	24.253
595.75	24.056
596.09	24.466
596.42	24.006
596.75	23.890
597.09	24.646
597.42	23.997
597.75	22.971
598.09	24.206
598.42	24.206
598.76	23.959
599.09	23.389
599.42	23.701
599.76	23.836
600.09	23.924
600.42	23.724
600.76	23.877
601.09	23.664
601.42	23.275
601.76	23.966
602.09	23.338
602.42	23.628
602.76	23.100
603.09	24.266
603.42	23.663
603.76	23.044
604.09	24.379
604.42	24.110
604.76	23.935
605.09	23.574
605.42	24.163
605.75	23.385
606.09	24.113
606.42	22.802
606.75	23.088
607.09	23.464
607.42	23.545
607.75	24.033
608.08	23.047
608.42	23.418
608.75	23.259
609.08	22.835
609.41	23.688
609.75	23.393
610.08	24.758
610.41	24.299
610.74	22.983
611.07	24.423
611.41	23.901
611.74	23.741
612.07	23.656
612.40	23.717
612.73	24.059
613.07	23.521
613.40	23.773
613.73	23.495
614.06	24.043
614.39	24.295
614.72	23.387
615.06	23.965
615.39	23.296
615.72	24.408
616.05	23.895
616.38	23.915
616.71	24.347
617.05	23.589
617.38	24.505
617.71	23.974
618.04	24.285
618.37	24.208
618.70	25.170
619.03	23.178
619.36	24.599
619.69	25.176
620.03	24.482
620.36	25.521
620.69	23.874
621.02	24.869
621.35	25.689
621.68	25.741
622.01	25.409
622.34	24.407
622.67	24.330
623.00	22.335
623.33	24.419
623.66	24.319
623.99	24.029
624.32	25.601
624.65	24.260
624.99	24.122
625.32	25.669
625.65	24.208
625.98	24.407
626.31	24.309
626.64	24.835
626.97	25.131
627.30	24.374
627.63	24.906
627.96	25.901
628.29	24.669
628.62	24.517
628.95	25.504
629.28	24.554
629.61	25.337
629.94	24.854
630.26	24.915
630.59	26.339
630.92	24.416
631.25	25.492
631.58	25.612
631.91	25.961
632.24	25.456
632.57	25.617
632.90	25.978
633.23	26.735
633.56	25.816
633.89	25.517
634.22	25.988
634.55	26.096
634.88	25.325
635.20	26.050
635.53	26.215
635.86	25.027
636.19	26.723
636.52	25.211
636.85	25.536
637.18	25.156
637.51	26.559
637.83	25.914
638.16	25.691
638.49	25.117
638.82	25.366
639.15	24.170
639.48	27.252
639.81	25.520
640.13	26.620
640.46	25.333
640.79	24.387
641.12	27.329
641.45	25.471
641.77	28.626
642.10	25.984
642.43	28.457
642.76	25.474
643.09	27.534
643.41	25.070
643.74	24.966
644.07	27.724
644.40	26.167
644.73	23.803
645.05	27.460
645.38	25.899
645.71	27.566
646.04	25.251
646.36	25.109
646.69	26.074
647.02	26.606
647.35	26.718
647.67	27.697
648.00	26.115
648.33	25.676
648.66	28.103
648.98	25.034
649.31	27.064
649.64	26.428
649.96	25.464
650.29	23.366
650.62	27.581
650.94	26.877
651.27	23.353
651.60	25.000
651.92	25.988
652.25	26.483
652.58	26.135
652.90	23.401
653.23	25.493
653.56	25.107
653.88	24.719
654.21	24.930
654.54	25.434
654.86	25.071
655.19	24.592
655.52	24.900
655.84	23.464
656.17	26.839
656.49	37.170
656.82	40.672
657.15	31.523
657.47	24.027
657.80	17.634
658.13	13.646
658.45	17.585
658.78	21.117
659.10	20.258
659.43	20.048
659.75	19.173
660.08	18.768
660.41	19.934
660.73	21.893
661.06	22.173
661.38	23.764
661.71	25.000
662.03	24.339
662.36	25.581
662.68	27.017
663.01	24.071
663.33	27.977
663.66	27.473
663.98	25.962
664.31	25.891
664.63	24.085
664.96	26.679
665.28	23.956
665.61	28.497
665.93	25.536
666.26	25.090
666.58	24.170
666.91	26.729
667.23	24.571
667.56	26.430
667.88	26.000
668.21	24.805
668.53	24.517
668.86	26.916
669.18	24.847
669.50	24.851
669.83	24.000
670.15	25.000
670.48	26.389
670.80	23.901
671.13	22.495
671.45	23.622
671.77	26.554
672.10	23.667
672.42	26.214
672.75	23.195
673.07	23.881
673.39	24.191
673.72	24.161
674.04	28.966
674.37	27.013
674.69	27.160
675.01	23.619
675.34	25.000
675.66	25.468
675.98	25.933
676.31	24.414
676.63	27.376
676.95	28.736
677.28	21.976
677.60	23.228
677.92	27.447
678.25	25.777
678.57	25.623
678.89	23.549
679.22	24.913
679.54	25.470
679.86	21.695
680.18	22.554
680.51	25.157
680.83	23.895
681.15	25.172
681.48	24.698
681.80	24.007
682.12	24.476
682.44	23.205
682.77	25.177
683.09	25.758
683.41	26.744
683.73	25.617
684.06	23.801
684.38	24.329
684.70	25.314
685.02	22.892
685.34	22.130
685.67	23.659
685.99	23.926
686.31	23.256
686.63	23.381
686.96	24.606
687.28	24.430
687.60	22.222
687.92	22.347
688.24	23.706
688.56	21.552
688.89	25.045
689.21	24.853
689.53	24.706
689.85	22.880
690.17	22.037
690.49	24.701
690.82	22.970
691.14	23.077
691.46	24.474
691.78	25.414
692.10	21.835
692.42	22.321
692.74	24.682
693.06	22.222
693.39	22.201
693.71	23.496
694.03	24.721
694.35	22.667
694.67	20.945
694.99	21.489
695.31	25.166
695.63	24.459
695.95	22.774
696.27	24.396
696.59	25.000
696.91	23.423
697.23	24.176
697.56	21.792
697.88	21.780
698.20	22.599
698.52	23.864
698.84	21.414
699.16	24.898
699.48	23.431
699.80	22.340
700.12	22.926
700.44	20.737
700.76	23.753
701.08	25.666
701.40	22.280
701.72	25.124
702.04	21.123
702.36	25.916
702.68	23.716
703.00	24.694
703.32	22.167
703.64	27.628
703.96	24.105
704.28	21.376
704.60	24.557
704.91	23.469
705.23	21.644
705.55	23.120
705.87	21.818
706.19	23.620
706.51	18.976
706.83	21.326
707.15	23.545
707.47	26.168
707.79	20.306
708.11	18.220
708.43	20.430
708.74	20.536
709.06	23.202
709.38	21.127
709.70	23.821
710.02	23.256
710.34	26.862
710.66	19.832
710.98	22.678
711.29	21.154
711.61	19.774
711.93	20.798
712.25	24.865
712.57	24.189
712.89	28.529
713.20	23.669
713.52	23.699
713.84	20.056
714.16	24.474
714.48	20.619
714.80	24.935
715.11	19.160
715.43	23.607
715.75	23.947
716.07	21.271
716.39	21.038
716.70	21.687
717.02	24.262
717.34	22.997
717.66	19.463
717.97	20.548
718.29	22.337
718.61	21.382
718.93	21.036
719.24	21.118
719.56	22.699
719.88	19.820
720.20	20.000
720.51	22.360
720.83	21.250
721.15	19.079
721.46	16.096
721.78	19.000
722.10	17.152
722.42	19.128
722.73	18.710
723.05	17.895
723.37	17.708
723.68	21.147
724.00	19.495
724.32	21.127
724.63	21.678
724.95	23.050
725.27	18.467
725.58	20.141
725.90	21.724
726.22	17.555
726.53	21.429
726.85	23.270
727.16	19.637
727.48	19.572
727.80	22.848
728.11	17.668
728.43	20.875
728.74	22.074
729.06	20.199
729.38	13.636
729.69	19.128
730.01	20.238
730.32	14.545
730.64	20.126
730.96	20.186
731.27	22.905
731.59	17.857
731.90	18.961
732.22	18.490
732.53	18.785
732.85	18.857
733.16	21.114
733.48	18.902
733.80	18.942
734.11	16.809
734.43	20.270
734.74	21.772
735.06	16.080
735.37	21.081
735.69	16.757
736.00	21.186
736.32	18.329
736.63	18.333
736.95	17.529
737.26	19.697
737.58	20.303
737.89	20.000
738.21	16.208
738.52	20.000
738.83	21.160
739.15	20.567
739.46	20.068
739.78	23.006
740.09	15.759
740.41	18.950
740.72	22.333
741.04	19.741
741.35	15.789
741.66	19.216
741.98	15.984
742.29	14.644
742.61	21.053
742.92	18.846
743.23	23.827
743.55	17.442
743.86	16.400
744.18	16.529
744.49	17.722
744.80	20.576
745.12	19.831
745.43	17.886
745.74	18.103
746.06	12.712
746.37	19.831
746.68	21.138
747.00	18.750
747.31	23.176
747.62	20.385
747.94	17.814
748.25	14.458
748.56	21.224
748.88	15.812
749.19	20.259
749.50	15.152
749.82	21.285
750.13	18.861
750.44	16.667
750.75	19.385
751.07	20.308
751.38	18.297
751.69	19.808
752.01	16.181
752.32	17.647
752.63	19.048
752.94	15.571
753.26	19.331
753.57	18.889
753.88	17.228
754.19	21.543
754.51	17.685
754.82	21.865
755.13	19.344
755.44	20.137
755.75	20.395
756.07	23.284
756.38	16.038
756.69	22.892
757.00	17.452
757.31	17.213
757.63	19.949
757.94	19.249
758.25	18.736
758.56	16.776
758.87	17.955
759.18	16.000
759.50	17.847
759.81	17.367
760.12	20.485
760.43	21.094
760.74	18.473
761.05	19.000
761.36	17.108
761.67	18.782
761.99	15.946
762.30	17.683
762.61	16.172
762.92	18.657
763.23	19.476
763.54	20.504
763.85	17.526
764.16	21.212
764.47	20.070
764.78	19.808
765.10	15.543
765.41	18.718
765.72	15.608
766.03	17.514
766.34	17.868
766.65	16.376
766.96	14.741
767.27	17.512
767.58	15.423
767.89	18.750
768.20	15.023
768.51	18.056
768.82	20.884
769.13	18.561
769.44	15.385
769.75	16.968
770.06	16.923
770.37	18.110
770.68	13.191
770.99	11.336
771.30	20.741
771.61	18.251
771.92	14.444
772.23	19.028
772.54	7.870
772.85	22.581
773.16	22.857
773.47	17.989
773.78	12.973
774.09	17.045
774.39	19.500
774.70	26.230
775.01	10.976
775.32	9.412
775.63	10.429
775.94	7.643
776.25	19.355
776.56	20.513
776.87	17.687
777.18	13.793
777.48	15.385
777.79	6.081
778.10	5.147
778.41	18.750
778.72	12.414
779.03	14.815
779.34	12.727
779.65	10.363
779.95	14.444
780.26	14.773
780.57	12.903
780.88	19.565
781.19	12.903
781.50	14.118
781.80	14.516
782.11	13.228
782.42	16.162
782.73	11.976
783.04	10.056
783.34	9.091
783.65	9.804
783.96	8.696
784.27	5.952
784.57	11.258
784.88	13.571
785.19	9.449
785.50	14.173
785.81	7.519
786.11	7.692
786.42	2.878
786.73	7.914
787.04	12.030
787.34	9.016
787.65	8.000
787.96	11.940
788.26	18.881
788.57	14.685
788.88	6.579
789.19	9.804
789.49	11.644
789.80	12.057
790.11	11.024
790.41	8.594
790.72	7.627
791.03	0.000
791.33	8.696
791.64	10.526
791.95	0.000
792.25	3.810
792.56	3.571
792.87	5.208
793.17	1.786
793.48	-3.125
793.79	-8.434
794.09	10.092
794.40	4.587
794.70	10.884
795.01	0.649
795.32	9.589
795.62	16.197
795.93	12.121
796.23	13.115
796.54	2.679
796.85	10.638
797.15	4.348
797.46	-2.740
797.76	-7.500
798.07	5.435
798.37	-7.216
798.68	-10.390
798.99	3.448
799.29	0.000
799.60	6.383
799.90	-16.867
800.21	-12.308
800.51	-11.940
800.82	-20.588
801.12	-5.479
801.43	-32.353
801.73	-27.119
802.04	-21.212
802.34	-26.667
802.65	-13.559
802.95	2.985
803.26	-1.695
803.56	0.000
803.87	-11.429
804.17	1.370
804.48	-26.316
804.78	-5.556
805.09	-8.621
805.39	1.351
805.70	-25.352
806.00	0.000
806.30	-1.205
806.61	-8.219
806.91	3.846
807.22	3.333
807.52	2.299
807.83	11.111
808.13	0.000
808.43	-1.124
808.74	-1.250
809.04	-17.647
809.35	-5.333
809.65	-8.571
809.95	-4.110
810.26	-28.070
810.56	0.000
810.86	-1.471
811.17	-22.807
811.47	-24.590
811.77	-44.444
812.08	-6.780
812.38	-16.667
812.69	-1.724
812.99	-9.434
813.29	-56.410
813.59	-22.000
813.90	-14.035
814.20	-16.364
814.50	-2.817
814.81	-5.128
815.11	-1.639
815.41	-13.433
815.72	-15.517
816.02	-3.571
816.32	11.111
816.62	-4.545
816.93	-26.667
817.23	-18.519
817.53	-31.915
817.84	-21.429
818.14	-35.294
818.44	-22.449
818.74	-31.111
819.04	-71.795
819.35	-71.429
819.65	-96.154
819.95	-15.094
820.25	-15.556
820.56	-42.857
820.86	-50.000
821.16	-43.590
821.46	-44.186
821.76	-46.000
822.07	-14.286
822.37	-17.391
822.67	-27.660
822.97	-64.865
823.27	-32.500
823.57	-18.367
823.88	-8.889
824.18	-17.500
824.48	-40.000
824.78	-60.000
825.08	-39.394
825.38	-17.778
825.69	-19.149
825.99	-19.444
826.29	-57.143
826.59	-51.282
826.89	-27.907
827.19	-22.000
827.49	-23.529
827.79	-10.417
828.09	-62.162
828.39	-56.667
828.70	-36.585
829.00	-46.512
829.30	-75.000
829.60	-55.882
829.90	-26.087
830.20	-45.714
830.50	-58.621
830.80	-72.222
831.10	-73.077
831.40	-61.765
831.70	-100.000
832.00	-25.806
832.30	-182.353
832.60	-83.333
832.90	-215.385
833.20	-84.211
833.50	-95.000
833.80	-131.579
834.10	-133.333
834.40	-47.222
834.70	0.000
835.00	-60.000
835.30	-32.353
835.60	-70.000
835.90	-88.000
836.20	-90.909
836.50	-40.000
836.80	-72.727
837.10	-55.556
837.40	-70.370
837.70	-125.000
838.00	-85.714
838.30	-108.696
838.60	-24.138
838.90	-157.143
839.19	-139.130
839.49	-291.667
839.79	-91.304
840.09	-118.750
840.39	-100.000
840.69	-38.710
840.99	-82.143
841.29	-126.667
841.59	-121.053
841.88	-2.564
842.18	-76.923
842.48	-250.000
842.78	-90.000
843.08	-30.000
843.38	-61.290
843.68	-161.111
843.97	-47.059
844.27	-106.250
844.57	-121.053
844.87	-290.000
845.17	-120.000
845.47	-42.857
845.76	-85.714
846.06	-266.667
846.36	-135.294
846.66	-73.077
846.96	-140.000
847.25	-158.824
847.55	-73.913
847.85	-80.000
848.15	-64.706
848.44	-145.455
848.74	-119.048
849.04	-112.500
849.34	-143.750
849.63	-39.130
849.93	1050.000
850.23	-93.333
850.53	-34.615
850.82	-245.455
851.12	-59.091
851.42	-172.727
851.71	-123.077
852.01	-120.000
852.31	-176.923
852.61	-105.263
852.90	-158.333
853.20	-105.556
853.50	-244.444
853.79	-109.524
854.09	-100.000
854.39	-166.667
854.68	-35.484
854.98	-61.538
855.28	-94.444
855.57	-71.429
855.87	-80.000
856.17	-81.818
856.46	-33.333
856.76	-116.667
857.05	-108.696
857.35	-104.167
857.65	-169.231
857.94	-85.714
858.24	-85.185
858.53	-56.522
858.83	-82.353
859.13	-105.882
859.42	-105.882
859.72	-121.429
860.01	-140.000
860.31	-311.111
860.60	-170.000
860.90	-133.333
861.20	-111.111
861.49	-169.231
861.79	-66.667
862.08	-130.769
862.38	-37.500
862.67	-129.412
862.97	-143.750
863.26	-288.889
863.56	-230.000
863.85	-200.000
864.15	-122.222
864.44	-766.667
864.74	-92.857
865.03	-106.250
865.33	-400.000
865.62	-74.194
865.92	-54.545
866.21	-95.652
866.51	-107.143
866.80	-460.000
867.10	-208.333
867.39	-158.333
867.69	2400.000
867.98	-242.857
868.27	-88.235
868.57	-3700.000
868.86	-280.000
869.16	-109.524
869.45	-62.500
869.75	-209.091
870.04	-342.857
870.33	-125.000
870.63	-414.286
870.92	-450.000
871.22	-425.000
871.51	-254.545
871.80	-900.000
872.10	-1450.000
>>>>>End Processed Spectral Data<<<<<
