SpectraSuite Data File
++++++++++++++++++++++++++++++++++++
Date: Thu May 14 14:54:36 PDT 2015
User: schluterlab
Dark Spectrum Present: Yes
Reference Spectrum Present: Yes
Number of Sampled Component Spectra: 1
Spectrometers: USB2E3373
Integration Time (usec): 3000 (USB2E3373)
Spectra Averaged: 3 (USB2E3373)
Boxcar Smoothing: 0 (USB2E3373)
Correct for Electrical Dark: No (USB2E3373)
Strobe/Lamp Enabled: No (USB2E3373)
Correct for Detector Non-linearity: No (USB2E3373)
Correct for Stray Light: No (USB2E3373)
Number of Pixels in Processed Spectrum: 2048
>>>>>Begin Processed Spectral Data<<<<<
178.53	0.000
178.91	271.429
179.29	-1800.000
179.67	-1800.000
180.04	235.714
180.42	150.000
180.80	460.000
181.18	-1600.000
181.56	-700.000
181.94	425.000
182.31	-325.000
182.69	533.333
183.07	-600.000
183.45	550.000
183.83	-316.667
184.20	-266.667
184.58	100.000
184.96	-550.000
185.34	-200.000
185.72	-220.000
186.09	211.111
186.47	800.000
186.85	600.000
187.23	-255.556
187.61	-1800.000
187.98	440.000
188.36	400.000
188.74	-225.000
189.12	-333.333
189.49	-43.750
189.87	-187.500
190.25	-111.111
190.63	-280.000
191.00	-166.667
191.38	0.000
191.76	-525.000
192.14	-300.000
192.51	1050.000
192.89	-166.667
193.27	0.000
193.65	-142.857
194.02	-3000.000
194.40	-171.429
194.78	342.857
195.15	0.000
195.53	-63.636
195.91	0.000
196.29	-225.000
196.66	-107.692
197.04	-1800.000
197.42	-328.571
197.79	-600.000
198.17	-200.000
198.55	-157.143
198.92	-166.667
199.30	-250.000
199.68	-109.091
200.05	-142.857
200.43	-750.000
200.81	271.429
201.18	0.000
201.56	233.333
201.94	0.000
202.31	600.000
202.69	-200.000
203.07	700.000
203.44	-111.111
203.82	-150.000
204.19	-91.667
204.57	-200.000
204.95	-225.000
205.32	-1700.000
205.70	225.000
206.08	-166.667
206.45	-283.333
206.83	560.000
207.20	-100.000
207.58	-340.000
207.96	-283.333
208.33	-50.000
208.71	225.000
209.08	-183.333
209.46	0.000
209.84	366.667
210.21	700.000
210.59	250.000
210.96	766.667
211.34	-275.000
211.71	-212.500
212.09	-1800.000
212.46	0.000
212.84	1200.000
213.22	-300.000
213.59	-325.000
213.97	-120.000
214.34	-266.667
214.72	350.000
215.09	-325.000
215.47	0.000
215.84	114.286
216.22	750.000
216.59	-300.000
216.97	-80.000
217.34	-250.000
217.72	-225.000
218.09	-600.000
218.47	-450.000
218.84	0.000
219.22	240.000
219.59	5.882
219.97	-60.000
220.34	650.000
220.72	-11.111
221.09	-15.385
221.47	-366.667
221.84	-100.000
222.22	-228.571
222.59	0.000
222.97	-100.000
223.34	-280.000
223.72	-2000.000
224.09	-175.000
224.46	-250.000
224.84	-280.000
225.21	-185.714
225.59	-475.000
225.96	-500.000
226.34	-30.769
226.71	416.667
227.08	-650.000
227.46	-86.667
227.83	-400.000
228.21	-47.368
228.58	300.000
228.95	900.000
229.33	-50.000
229.70	-120.000
230.08	10.526
230.45	130.000
230.82	-533.333
231.20	-71.429
231.57	-50.000
231.95	-100.000
232.32	-81.818
232.69	-15.000
233.07	-250.000
233.44	-35.294
233.81	-70.000
234.19	-5.556
234.56	-4.545
234.93	10.345
235.31	0.000
235.68	-61.111
236.05	-75.000
236.43	-3.846
236.80	24.000
237.17	25.926
237.55	-9.091
237.92	-20.000
238.29	-12.903
238.67	2.273
239.04	2.778
239.41	2.381
239.79	-4.348
240.16	-1.852
240.53	-2.174
240.91	-5.882
241.28	9.836
241.65	-2.985
242.02	16.216
242.40	7.692
242.77	1.333
243.14	19.512
243.51	3.947
243.89	14.103
244.26	20.792
244.63	19.608
245.00	16.822
245.38	17.544
245.75	9.735
246.12	10.317
246.49	13.953
246.87	22.857
247.24	16.556
247.61	19.079
247.98	21.477
248.36	21.605
248.73	17.178
249.10	17.486
249.47	22.886
249.84	27.225
250.22	16.580
250.59	21.667
250.96	20.455
251.33	20.408
251.70	21.368
252.08	21.250
252.45	21.311
252.82	21.901
253.19	14.062
253.56	23.954
253.94	19.231
254.31	21.591
254.68	28.322
255.05	23.127
255.42	24.150
255.79	20.388
256.16	23.510
256.54	22.848
256.91	24.590
257.28	20.328
257.65	22.293
258.02	20.944
258.39	22.792
258.76	23.242
259.14	26.437
259.51	20.749
259.88	22.096
260.25	22.778
260.62	22.740
260.99	26.230
261.36	25.201
261.73	20.690
262.10	22.802
262.47	26.273
262.85	27.525
263.22	22.338
263.59	20.000
263.96	23.529
264.33	22.506
264.70	25.926
265.07	25.298
265.44	27.211
265.81	20.602
266.18	23.583
266.55	24.107
266.92	23.462
267.29	27.352
267.66	24.169
268.03	24.236
268.40	26.305
268.77	24.146
269.14	22.247
269.51	24.561
269.88	24.180
270.25	21.730
270.62	26.371
270.99	27.071
271.36	25.941
271.73	22.200
272.10	23.447
272.47	24.649
272.84	22.490
273.21	23.647
273.58	24.798
273.95	21.538
274.32	23.764
274.69	23.791
275.06	24.908
275.43	21.442
275.80	25.044
276.17	19.815
276.54	24.440
276.91	22.540
277.28	24.955
277.65	26.212
278.02	21.875
278.39	23.551
278.76	23.902
279.13	22.872
279.50	24.914
279.87	23.614
280.23	19.014
280.60	23.898
280.97	22.533
281.34	23.939
281.71	24.027
282.08	21.761
282.45	21.440
282.82	21.193
283.19	21.002
283.56	23.115
283.92	22.973
284.29	22.433
284.66	24.302
285.03	22.596
285.40	23.648
285.77	22.601
286.14	22.290
286.51	22.679
286.87	22.117
287.24	24.096
287.61	22.123
287.98	21.903
288.35	23.225
288.72	21.893
289.08	24.305
289.45	20.710
289.82	20.482
290.19	20.977
290.56	22.535
290.93	19.401
291.29	20.937
291.66	21.074
292.03	20.353
292.40	21.361
292.77	20.889
293.13	20.162
293.50	19.317
293.87	19.866
294.24	21.867
294.60	19.975
294.97	17.450
295.34	19.078
295.71	19.798
296.08	18.992
296.44	18.260
296.81	19.123
297.18	19.054
297.55	18.042
297.91	18.505
298.28	17.180
298.65	17.598
299.02	16.765
299.38	19.451
299.75	16.822
300.12	18.056
300.48	18.088
300.85	18.898
301.22	18.680
301.59	16.438
301.95	17.740
302.32	18.778
302.69	17.634
303.05	17.737
303.42	18.293
303.79	18.229
304.15	18.927
304.52	18.393
304.89	19.162
305.25	16.667
305.62	18.913
305.99	17.835
306.35	17.339
306.72	17.270
307.09	17.056
307.45	17.805
307.82	17.457
308.19	17.659
308.55	18.997
308.92	17.819
309.29	17.625
309.65	17.544
310.02	18.317
310.38	17.717
310.75	19.320
311.12	18.217
311.48	17.302
311.85	18.139
312.22	19.070
312.58	18.122
312.95	18.642
313.31	17.886
313.68	18.681
314.05	19.061
314.41	19.672
314.78	19.619
315.14	19.691
315.51	19.298
315.87	19.172
316.24	20.183
316.61	20.249
316.97	19.095
317.34	18.783
317.70	21.223
318.07	21.605
318.43	19.898
318.80	21.488
319.16	19.742
319.53	19.709
319.89	19.807
320.26	21.708
320.62	21.454
320.99	21.514
321.35	21.627
321.72	23.349
322.08	21.461
322.45	21.229
322.81	22.653
323.18	22.920
323.54	23.190
323.91	22.064
324.27	22.633
324.64	21.662
325.00	22.471
325.37	23.096
325.73	23.140
326.10	23.114
326.46	23.697
326.83	23.779
327.19	23.701
327.56	24.585
327.92	23.525
328.29	23.710
328.65	23.618
329.01	23.012
329.38	24.010
329.74	24.315
330.11	25.086
330.47	23.252
330.84	22.911
331.20	24.250
331.56	24.697
331.93	25.021
332.29	25.085
332.66	25.498
333.02	23.786
333.38	24.329
333.75	25.337
334.11	24.437
334.48	24.835
334.84	24.554
335.20	24.769
335.57	25.295
335.93	24.959
336.29	24.459
336.66	24.727
337.02	25.418
337.38	26.871
337.75	24.545
338.11	24.895
338.47	24.814
338.84	25.296
339.20	24.179
339.56	25.371
339.93	24.384
340.29	25.362
340.65	26.034
341.02	25.778
341.38	26.354
341.74	25.827
342.11	25.422
342.47	25.020
342.83	25.604
343.20	26.574
343.56	25.822
343.92	26.341
344.28	26.406
344.65	26.667
345.01	26.599
345.37	26.516
345.73	25.019
346.10	25.429
346.46	26.345
346.82	26.592
347.19	25.592
347.55	26.252
347.91	26.300
348.27	27.086
348.63	26.504
349.00	26.622
349.36	26.022
349.72	26.637
350.08	26.895
350.45	26.616
350.81	25.264
351.17	27.293
351.53	27.142
351.89	27.942
352.26	26.418
352.62	26.119
352.98	26.870
353.34	26.512
353.70	27.658
354.07	28.167
354.43	26.955
354.79	26.552
355.15	26.858
355.51	27.485
355.87	28.048
356.24	27.376
356.60	26.386
356.96	27.798
357.32	27.881
357.68	27.086
358.04	27.320
358.40	26.642
358.77	28.070
359.13	28.065
359.49	27.435
359.85	28.354
360.21	28.407
360.57	27.925
360.93	28.561
361.29	28.702
361.66	27.516
362.02	29.297
362.38	28.039
362.74	28.003
363.10	28.886
363.46	29.155
363.82	28.480
364.18	29.346
364.54	28.631
364.90	29.431
365.26	29.517
365.62	29.267
365.98	29.408
366.35	29.128
366.71	29.456
367.07	29.296
367.43	29.087
367.79	30.060
368.15	30.368
368.51	29.905
368.87	31.025
369.23	30.200
369.59	30.533
369.95	30.696
370.31	29.440
370.67	30.261
371.03	30.817
371.39	29.819
371.75	30.605
372.11	31.030
372.47	29.926
372.83	30.628
373.19	30.687
373.55	31.707
373.91	30.743
374.27	31.501
374.63	32.476
374.99	31.300
375.35	32.338
375.71	32.000
376.07	31.569
376.42	31.486
376.78	32.318
377.14	32.190
377.50	33.080
377.86	32.759
378.22	32.515
378.58	33.829
378.94	32.688
379.30	33.099
379.66	34.215
380.02	33.122
380.38	34.101
380.74	33.803
381.09	34.262
381.45	34.261
381.81	36.358
382.17	34.382
382.53	34.094
382.89	34.481
383.25	35.287
383.61	34.375
383.97	34.335
384.32	36.244
384.68	35.615
385.04	36.148
385.40	36.653
385.76	37.515
386.12	35.607
386.48	36.235
386.83	37.604
387.19	36.327
387.55	37.383
387.91	37.272
388.27	36.547
388.62	36.884
388.98	37.169
389.34	38.008
389.70	39.047
390.06	38.129
390.42	38.072
390.77	38.952
391.13	38.263
391.49	37.681
391.85	38.242
392.20	38.375
392.56	38.216
392.92	38.659
393.28	38.972
393.64	38.101
393.99	38.698
394.35	39.603
394.71	40.659
395.07	39.341
395.42	38.949
395.78	38.818
396.14	40.048
396.50	39.311
396.85	39.654
397.21	40.296
397.57	40.047
397.92	40.378
398.28	40.359
398.64	39.245
399.00	39.424
399.35	40.314
399.71	40.815
400.07	39.865
400.42	41.036
400.78	40.567
401.14	40.808
401.49	40.364
401.85	41.337
402.21	41.773
402.57	41.960
402.92	41.194
403.28	41.686
403.63	41.050
403.99	41.093
404.35	40.364
404.70	41.190
405.06	40.652
405.42	41.686
405.77	41.985
406.13	42.626
406.49	41.892
406.84	42.548
407.20	42.202
407.55	41.611
407.91	41.546
408.27	40.931
408.62	42.932
408.98	41.497
409.34	41.584
409.69	42.274
410.05	42.907
410.40	42.807
410.76	42.569
411.11	43.951
411.47	43.428
411.83	43.445
412.18	44.639
412.54	43.450
412.89	44.354
413.25	43.567
413.60	43.940
413.96	43.998
414.31	42.153
414.67	43.411
415.03	43.631
415.38	45.019
415.74	43.494
416.09	44.355
416.45	44.020
416.80	43.452
417.16	46.807
417.51	45.143
417.87	44.206
418.22	45.210
418.58	45.229
418.93	45.518
419.29	46.054
419.64	45.138
420.00	45.223
420.35	45.368
420.71	45.376
421.06	45.198
421.42	46.732
421.77	45.719
422.12	45.930
422.48	46.697
422.83	47.481
423.19	46.684
423.54	48.673
423.90	47.101
424.25	47.680
424.61	47.761
424.96	47.392
425.31	47.930
425.67	48.417
426.02	49.253
426.38	49.656
426.73	48.661
427.09	48.731
427.44	48.771
427.79	49.585
428.15	49.486
428.50	49.944
428.85	49.656
429.21	51.064
429.56	50.197
429.92	49.386
430.27	50.169
430.62	50.904
430.98	51.451
431.33	49.951
431.68	50.000
432.04	51.854
432.39	51.044
432.74	51.427
433.10	52.082
433.45	51.616
433.80	52.039
434.16	52.221
434.51	53.443
434.86	55.212
435.22	53.294
435.57	53.833
435.92	53.088
436.28	53.356
436.63	54.615
436.98	53.731
437.34	55.017
437.69	54.320
438.04	54.892
438.39	54.624
438.75	55.451
439.10	55.127
439.45	53.941
439.81	55.028
440.16	55.550
440.51	55.351
440.86	53.919
441.22	54.555
441.57	56.027
441.92	54.462
442.27	56.970
442.63	55.539
442.98	56.510
443.33	56.865
443.68	56.987
444.03	57.949
444.39	56.634
444.74	57.325
445.09	56.310
445.44	58.114
445.79	57.807
446.15	57.657
446.50	57.519
446.85	56.761
447.20	57.544
447.55	57.741
447.91	58.168
448.26	58.827
448.61	58.130
448.96	58.423
449.31	57.158
449.66	57.952
450.02	58.808
450.37	58.657
450.72	59.257
451.07	59.055
451.42	58.925
451.77	59.422
452.12	59.368
452.47	59.061
452.83	60.811
453.18	59.895
453.53	59.736
453.88	59.028
454.23	58.870
454.58	60.360
454.93	59.830
455.28	60.927
455.63	59.522
455.98	59.888
456.34	60.777
456.69	61.023
457.04	61.525
457.39	61.253
457.74	61.409
458.09	61.010
458.44	60.937
458.79	61.733
459.14	60.514
459.49	62.535
459.84	62.172
460.19	59.745
460.54	62.237
460.89	60.985
461.24	61.264
461.59	61.760
461.94	60.411
462.29	61.870
462.64	61.919
462.99	62.963
463.34	63.206
463.69	61.372
464.04	61.701
464.39	62.332
464.74	61.916
465.09	63.091
465.44	62.876
465.79	62.295
466.14	62.480
466.49	62.053
466.84	63.636
467.19	62.775
467.54	61.927
467.89	62.069
468.24	62.881
468.59	62.652
468.94	63.228
469.29	62.927
469.64	64.018
469.99	65.073
470.34	64.109
470.68	64.662
471.03	64.702
471.38	65.860
471.73	64.044
472.08	64.340
472.43	65.021
472.78	67.128
473.13	64.981
473.48	64.955
473.83	64.597
474.17	64.420
474.52	66.506
474.87	65.282
475.22	64.958
475.57	63.240
475.92	64.360
476.27	64.324
476.61	64.486
476.96	66.111
477.31	64.703
477.66	66.946
478.01	64.159
478.36	65.454
478.70	65.517
479.05	67.178
479.40	66.239
479.75	65.994
480.10	66.272
480.45	65.542
480.79	65.669
481.14	64.844
481.49	66.379
481.84	65.883
482.19	66.022
482.53	65.763
482.88	67.390
483.23	66.874
483.58	67.205
483.92	65.160
484.27	65.665
484.62	65.017
484.97	65.241
485.31	64.590
485.66	60.086
486.01	60.886
486.36	63.049
486.70	65.928
487.05	67.948
487.40	66.845
487.75	65.674
488.09	65.765
488.44	63.440
488.79	64.553
489.13	64.120
489.48	65.592
489.83	65.553
490.17	66.140
490.52	65.148
490.87	66.794
491.22	68.154
491.56	68.003
491.91	67.205
492.26	66.551
492.60	67.381
492.95	66.915
493.30	67.414
493.64	68.638
493.99	67.105
494.34	67.422
494.68	67.066
495.03	67.489
495.37	68.664
495.72	68.526
496.07	68.230
496.41	67.739
496.76	67.098
497.11	68.875
497.45	68.753
497.80	68.992
498.14	67.166
498.49	68.612
498.84	68.419
499.18	68.151
499.53	68.117
499.87	68.615
500.22	67.142
500.56	66.757
500.91	69.016
501.26	68.818
501.60	67.565
501.95	68.129
502.29	68.890
502.64	68.868
502.98	67.731
503.33	68.596
503.67	68.775
504.02	68.126
504.36	69.973
504.71	69.913
505.06	68.849
505.40	68.921
505.75	67.441
506.09	68.923
506.44	70.195
506.78	69.908
507.13	68.649
507.47	68.925
507.82	69.934
508.16	69.216
508.51	69.151
508.85	70.808
509.19	70.867
509.54	71.662
509.88	71.297
510.23	71.491
510.57	71.870
510.92	70.682
511.26	71.188
511.61	69.580
511.95	69.790
512.30	71.787
512.64	70.365
512.98	70.385
513.33	71.169
513.67	71.851
514.02	71.845
514.36	72.276
514.70	72.396
515.05	72.836
515.39	73.123
515.74	72.269
516.08	71.368
516.42	73.155
516.77	72.766
517.11	71.068
517.46	73.595
517.80	74.666
518.14	73.721
518.49	74.295
518.83	71.527
519.17	73.398
519.52	71.960
519.86	72.492
520.20	74.601
520.55	73.549
520.89	74.493
521.23	73.925
521.58	74.972
521.92	74.221
522.26	73.024
522.61	75.637
522.95	73.933
523.29	75.000
523.64	72.646
523.98	74.102
524.32	74.900
524.66	74.161
525.01	72.650
525.35	73.693
525.69	74.710
526.04	73.192
526.38	74.540
526.72	75.317
527.06	75.543
527.41	75.044
527.75	75.119
528.09	75.030
528.43	73.771
528.78	72.890
529.12	74.312
529.46	72.625
529.80	74.771
530.15	74.899
530.49	74.437
530.83	73.790
531.17	75.149
531.51	75.271
531.86	75.060
532.20	73.659
532.54	74.028
532.88	75.515
533.22	73.954
533.57	74.726
533.91	74.018
534.25	74.053
534.59	75.057
534.93	72.892
535.27	74.085
535.62	74.929
535.96	74.433
536.30	74.089
536.64	74.535
536.98	75.400
537.32	74.938
537.66	76.045
538.01	74.018
538.35	75.213
538.69	74.159
539.03	75.230
539.37	73.793
539.71	74.474
540.05	73.022
540.39	74.328
540.73	72.374
541.07	73.942
541.42	73.361
541.76	71.945
542.10	73.160
542.44	72.777
542.78	73.783
543.12	72.408
543.46	72.466
543.80	71.403
544.14	72.531
544.48	73.168
544.82	74.147
545.16	73.584
545.50	72.499
545.84	72.627
546.18	75.000
546.52	72.611
546.86	74.025
547.20	74.109
547.54	72.909
547.88	72.333
548.22	72.690
548.56	72.264
548.90	74.149
549.24	73.982
549.58	74.069
549.92	73.916
550.26	74.045
550.60	73.963
550.94	74.450
551.28	73.333
551.62	74.798
551.96	73.074
552.30	75.590
552.64	73.615
552.98	72.988
553.32	75.498
553.66	76.077
554.00	74.842
554.34	74.453
554.68	73.079
555.02	74.573
555.36	75.345
555.69	73.479
556.03	74.716
556.37	74.593
556.71	74.128
557.05	74.441
557.39	74.320
557.73	73.910
558.07	74.702
558.41	75.947
558.75	75.186
559.08	75.783
559.42	73.251
559.76	73.745
560.10	74.280
560.44	74.670
560.78	74.312
561.12	73.399
561.45	75.791
561.79	72.283
562.13	72.643
562.47	71.763
562.81	73.734
563.15	74.621
563.48	72.592
563.82	73.096
564.16	73.592
564.50	73.540
564.84	73.156
565.17	72.706
565.51	71.749
565.85	74.050
566.19	71.083
566.52	73.961
566.86	72.666
567.20	71.615
567.54	72.278
567.88	72.477
568.21	71.443
568.55	71.942
568.89	71.493
569.23	71.018
569.56	71.122
569.90	69.173
570.24	69.174
570.57	67.928
570.91	68.616
571.25	67.342
571.59	67.492
571.92	67.138
572.26	67.020
572.60	67.404
572.93	66.657
573.27	67.407
573.61	66.623
573.95	66.181
574.28	64.961
574.62	65.666
574.96	65.307
575.29	64.750
575.63	65.142
575.97	65.054
576.30	64.594
576.64	65.832
576.98	65.786
577.31	65.615
577.65	65.724
577.98	65.267
578.32	65.067
578.66	65.190
578.99	65.554
579.33	65.763
579.67	64.710
580.00	64.958
580.34	64.376
580.67	64.519
581.01	65.015
581.35	64.037
581.68	64.667
582.02	64.544
582.35	65.521
582.69	65.686
583.02	65.446
583.36	65.373
583.70	65.440
584.03	65.131
584.37	65.465
584.70	65.232
585.04	64.590
585.37	64.781
585.71	65.372
586.04	66.094
586.38	66.133
586.72	66.157
587.05	67.025
587.39	66.442
587.72	66.435
588.06	66.127
588.39	66.393
588.73	65.608
589.06	66.704
589.40	66.687
589.73	66.581
590.07	67.739
590.40	67.546
590.73	67.727
591.07	67.386
591.40	67.457
591.74	67.925
592.07	68.453
592.41	67.626
592.74	67.803
593.08	67.325
593.41	67.979
593.75	66.523
594.08	68.616
594.41	67.019
594.75	66.888
595.08	67.799
595.42	67.630
595.75	67.646
596.09	67.130
596.42	67.431
596.75	67.773
597.09	68.606
597.42	68.613
597.75	67.895
598.09	67.222
598.42	67.471
598.76	67.405
599.09	67.284
599.42	66.879
599.76	67.514
600.09	67.768
600.42	66.900
600.76	66.480
601.09	67.176
601.42	66.323
601.76	66.724
602.09	66.726
602.42	65.831
602.76	67.380
603.09	67.511
603.42	67.666
603.76	66.490
604.09	68.133
604.42	67.376
604.76	67.466
605.09	68.887
605.42	68.022
605.75	67.077
606.09	67.488
606.42	67.238
606.75	67.616
607.09	66.897
607.42	67.322
607.75	67.917
608.08	67.995
608.42	67.715
608.75	67.662
609.08	67.445
609.41	68.990
609.75	68.438
610.08	69.525
610.41	68.054
610.74	67.185
611.07	69.139
611.41	69.103
611.74	70.023
612.07	69.004
612.40	69.297
612.73	69.976
613.07	69.878
613.40	68.672
613.73	68.994
614.06	69.823
614.39	68.902
614.72	69.820
615.06	67.757
615.39	68.197
615.72	68.910
616.05	69.597
616.38	68.315
616.71	68.130
617.05	67.945
617.38	69.181
617.71	69.870
618.04	69.779
618.37	71.257
618.70	69.400
619.03	70.311
619.36	70.530
619.69	71.108
620.03	70.935
620.36	70.859
620.69	70.635
621.02	72.507
621.35	73.948
621.68	72.523
622.01	72.883
622.34	72.036
622.67	72.784
623.00	71.457
623.33	72.727
623.66	72.374
623.99	70.573
624.32	72.515
624.65	69.884
624.99	71.717
625.32	73.351
625.65	71.679
625.98	71.119
626.31	71.651
626.64	73.626
626.97	72.843
627.30	73.045
627.63	72.843
627.96	74.925
628.29	73.852
628.62	74.727
628.95	75.460
629.28	75.701
629.61	76.852
629.94	74.895
630.26	74.492
630.59	73.748
630.92	74.978
631.25	74.955
631.58	77.872
631.91	76.851
632.24	76.177
632.57	76.281
632.90	77.533
633.23	78.367
633.56	76.633
633.89	74.587
634.22	78.794
634.55	79.019
634.88	79.113
635.20	76.749
635.53	79.209
635.86	77.790
636.19	77.625
636.52	78.376
636.85	75.792
637.18	75.468
637.51	77.097
637.83	78.738
638.16	80.415
638.49	78.873
638.82	77.565
639.15	77.320
639.48	78.637
639.81	74.942
640.13	76.796
640.46	75.515
640.79	76.838
641.12	77.019
641.45	77.415
641.77	81.258
642.10	77.953
642.43	82.314
642.76	78.320
643.09	78.219
643.41	78.571
643.74	77.241
644.07	80.000
644.40	79.208
644.73	81.713
645.05	81.791
645.38	82.734
645.71	79.912
646.04	78.192
646.36	78.832
646.69	82.669
647.02	80.887
647.35	81.985
647.67	85.668
648.00	86.465
648.33	81.532
648.66	80.884
648.98	78.639
649.31	77.808
649.64	77.291
649.96	77.321
650.29	75.661
650.62	75.672
650.94	77.628
651.27	78.144
651.60	77.485
651.92	79.331
652.25	76.266
652.58	73.590
652.90	78.198
653.23	78.451
653.56	77.175
653.88	77.107
654.21	76.761
654.54	77.312
654.86	76.629
655.19	74.404
655.52	73.105
655.84	67.828
656.17	76.334
656.49	100.042
656.82	100.008
657.15	98.854
657.47	66.797
657.80	48.897
658.13	37.876
658.45	49.727
658.78	59.992
659.10	57.541
659.43	56.194
659.75	56.668
660.08	54.510
660.41	59.553
660.73	64.880
661.06	73.128
661.38	75.758
661.71	76.897
662.03	76.896
662.36	79.785
662.68	80.863
663.01	78.053
663.33	82.231
663.66	81.502
663.98	80.000
664.31	78.049
664.63	80.539
664.96	77.495
665.28	77.314
665.61	79.021
665.93	80.357
666.26	81.720
666.58	77.491
666.91	79.252
667.23	79.048
667.56	80.671
667.88	82.800
668.21	80.273
668.53	80.695
668.86	81.336
669.18	84.521
669.50	81.113
669.83	81.800
670.15	80.315
670.48	81.548
670.80	75.143
671.13	77.316
671.45	79.921
671.77	78.154
672.10	75.167
672.42	74.919
672.75	74.808
673.07	74.328
673.39	76.271
673.72	78.020
674.04	76.552
674.37	78.175
674.69	76.720
675.01	79.619
675.34	77.290
675.66	75.843
675.98	77.425
676.31	77.539
676.63	79.278
676.95	80.268
677.28	78.831
677.60	75.000
677.92	77.543
678.25	76.965
678.57	79.181
678.89	75.597
679.22	73.345
679.54	74.188
679.86	72.881
680.18	75.788
680.51	71.855
680.83	75.777
681.15	74.655
681.48	77.547
681.80	73.230
682.12	76.049
682.44	74.290
682.77	73.227
683.09	78.220
683.41	76.357
683.73	77.230
684.06	74.170
684.38	73.882
684.70	76.122
685.02	75.904
685.34	72.879
685.67	72.713
685.99	70.399
686.31	69.913
686.63	71.722
686.96	71.451
687.28	71.173
687.60	73.737
687.92	69.775
688.24	72.788
688.56	67.931
688.89	74.773
689.21	77.299
689.53	74.902
689.85	74.359
690.17	72.037
690.49	75.100
690.82	75.248
691.14	76.316
691.46	78.011
691.78	77.716
692.10	74.312
692.42	73.571
692.74	72.051
693.06	73.333
693.39	75.142
693.71	71.805
694.03	72.862
694.35	72.571
694.67	73.922
694.99	76.383
695.31	74.614
695.63	74.675
695.95	70.807
696.27	74.725
696.59	73.894
696.91	72.297
697.23	77.363
697.56	72.098
697.88	69.697
698.20	70.621
698.52	74.432
698.84	77.339
699.16	73.061
699.48	74.059
699.80	72.553
700.12	71.834
700.44	75.115
700.76	73.159
701.08	75.061
701.40	79.534
701.72	73.383
702.04	74.332
702.36	73.298
702.68	74.083
703.00	75.550
703.32	78.325
703.64	75.550
703.96	73.270
704.28	71.253
704.60	76.962
704.91	72.194
705.23	75.342
705.55	75.487
705.87	76.061
706.19	79.755
706.51	77.108
706.83	77.810
707.15	71.164
707.47	72.664
707.79	69.651
708.11	68.432
708.43	72.903
708.74	66.741
709.06	72.158
709.38	72.535
709.70	71.216
710.02	71.059
710.34	73.936
710.66	74.022
710.98	74.863
711.29	71.154
711.61	74.294
711.93	76.923
712.25	70.270
712.57	77.286
712.89	75.294
713.20	70.414
713.52	77.457
713.84	71.031
714.16	70.000
714.48	71.134
714.80	70.649
715.11	70.341
715.43	69.761
715.75	70.000
716.07	72.099
716.39	70.219
716.70	70.783
717.02	77.049
717.34	77.352
717.66	72.148
717.97	76.027
718.29	74.914
718.61	67.763
718.93	74.434
719.24	73.292
719.56	69.018
719.88	68.168
720.20	70.968
720.51	70.497
720.83	68.125
721.15	72.039
721.46	73.288
721.78	73.333
722.10	70.227
722.42	65.101
722.73	66.452
723.05	72.982
723.37	70.833
723.68	72.760
724.00	77.256
724.32	65.845
724.63	74.476
724.95	67.730
725.27	72.474
725.58	72.792
725.90	71.034
726.22	67.398
726.53	76.299
726.85	70.440
727.16	63.444
727.48	67.278
727.80	69.536
728.11	69.258
728.43	69.697
728.74	68.562
729.06	71.523
729.38	69.156
729.69	69.463
730.01	63.988
730.32	64.545
730.64	69.811
730.96	69.255
731.27	68.994
731.59	65.659
731.90	60.779
732.22	62.240
732.53	63.536
732.85	66.571
733.16	68.328
733.48	67.683
733.80	63.788
734.11	67.521
734.43	66.757
734.74	67.848
735.06	61.558
735.37	67.568
735.69	64.595
736.00	64.407
736.32	66.577
736.63	67.778
736.95	64.080
737.26	66.061
737.58	66.667
737.89	64.118
738.21	63.303
738.52	65.574
738.83	68.601
739.15	69.504
739.46	68.707
739.78	68.712
740.09	61.891
740.41	68.513
740.72	71.000
741.04	66.667
741.35	66.667
741.66	67.843
741.98	70.492
742.29	67.364
742.61	72.807
742.92	65.385
743.23	68.953
743.55	66.279
743.86	68.400
744.18	65.289
744.49	62.869
744.80	72.016
745.12	67.511
745.43	72.358
745.74	68.534
746.06	60.593
746.37	71.308
746.68	71.545
747.00	69.167
747.31	72.532
747.62	65.000
747.94	72.874
748.25	69.478
748.56	68.980
748.88	61.538
749.19	72.845
749.50	64.935
749.82	68.273
750.13	71.530
750.44	66.667
750.75	65.846
751.07	62.154
751.38	62.776
751.69	65.176
752.01	64.401
752.32	65.359
752.63	65.306
752.94	64.014
753.26	66.543
753.57	62.593
753.88	70.412
754.19	64.952
754.51	63.344
754.82	63.666
755.13	61.639
755.44	66.212
755.75	64.474
756.07	60.597
756.38	64.465
756.69	66.566
757.00	56.510
757.31	63.661
757.63	58.312
757.94	59.859
758.25	59.594
758.56	57.081
758.87	59.091
759.18	60.000
759.50	59.207
759.81	65.546
760.12	62.803
760.43	64.583
760.74	64.039
761.05	58.250
761.36	58.795
761.67	61.421
761.99	59.459
762.30	63.110
762.61	58.746
762.92	63.060
763.23	63.670
763.54	64.029
763.85	62.543
764.16	59.259
764.47	61.972
764.78	65.176
765.10	60.117
765.41	60.256
765.72	58.201
766.03	57.062
766.34	59.561
766.65	56.446
766.96	60.159
767.27	61.751
767.58	60.199
767.89	67.308
768.20	60.563
768.51	63.889
768.82	62.249
769.13	56.818
769.44	58.462
769.75	56.679
770.06	64.231
770.37	61.024
770.68	62.979
770.99	56.275
771.30	68.519
771.61	59.316
771.92	57.407
772.23	64.777
772.54	54.167
772.85	66.359
773.16	64.286
773.47	61.376
773.78	59.459
774.09	69.318
774.39	61.500
774.70	60.656
775.01	61.585
775.32	51.176
775.63	61.350
775.94	56.051
776.25	68.387
776.56	66.026
776.87	61.905
777.18	57.931
777.48	58.741
777.79	63.514
778.10	53.676
778.41	58.333
778.72	60.000
779.03	64.815
779.34	63.636
779.65	62.176
779.95	60.000
780.26	60.795
780.57	52.258
780.88	63.043
781.19	59.355
781.50	62.353
781.80	61.290
782.11	60.317
782.42	53.030
782.73	59.281
783.04	54.190
783.34	57.576
783.65	49.020
783.96	45.963
784.27	63.690
784.57	52.318
784.88	52.143
785.19	55.118
785.50	61.417
785.81	56.391
786.11	50.769
786.42	53.237
786.73	47.482
787.04	57.895
787.34	59.836
787.65	54.400
787.96	50.746
788.26	63.636
788.57	59.441
788.88	55.263
789.19	58.170
789.49	57.534
789.80	56.738
790.11	58.268
790.41	46.094
790.72	55.932
791.03	48.544
791.33	52.174
791.64	53.509
791.95	43.750
792.25	45.714
792.56	46.429
792.87	39.583
793.17	57.143
793.48	43.750
793.79	42.169
794.09	49.541
794.40	54.128
794.70	48.299
795.01	51.948
795.32	52.740
795.62	53.521
795.93	46.212
796.23	54.918
796.54	46.429
796.85	53.191
797.15	46.739
797.46	58.904
797.76	57.500
798.07	54.348
798.37	42.268
798.68	49.351
798.99	49.425
799.29	52.809
799.60	45.745
799.90	45.783
800.21	67.692
800.51	53.731
800.82	48.529
801.12	27.397
801.43	48.529
801.73	67.797
802.04	56.061
802.34	43.333
802.65	52.542
802.95	49.254
803.26	52.542
803.56	32.877
803.87	44.286
804.17	69.863
804.48	31.579
804.78	47.222
805.09	29.310
805.39	47.297
805.70	21.127
806.00	41.463
806.30	40.964
806.61	49.315
806.91	41.346
807.22	44.444
807.52	36.782
807.83	62.500
808.13	43.373
808.43	39.326
808.74	35.000
809.04	30.882
809.35	32.000
809.65	44.286
809.95	34.247
810.26	24.561
810.56	43.103
810.86	57.353
811.17	42.105
811.47	27.869
811.77	35.556
812.08	30.508
812.38	25.000
812.69	41.379
812.99	16.981
813.29	20.513
813.59	38.000
813.90	45.614
814.20	58.182
814.50	33.803
814.81	41.026
815.11	42.623
815.41	29.851
815.72	29.310
816.02	39.286
816.32	48.889
816.62	47.727
816.93	35.556
817.23	29.630
817.53	31.915
817.84	69.048
818.14	79.412
818.44	22.449
818.74	24.444
819.04	15.385
819.35	20.000
819.65	3.846
819.95	39.623
820.25	15.556
820.56	35.714
820.86	9.375
821.16	43.590
821.46	25.581
821.76	28.000
822.07	25.000
822.37	21.739
822.67	12.766
822.97	0.000
823.27	37.500
823.57	26.531
823.88	13.333
824.18	25.000
824.48	26.667
824.78	44.000
825.08	36.364
825.38	48.889
825.69	36.170
825.99	33.333
826.29	20.000
826.59	20.513
826.89	6.977
827.19	20.000
827.49	64.706
827.79	50.000
828.09	8.108
828.39	23.333
828.70	24.390
829.00	18.605
829.30	39.286
829.60	47.059
829.90	36.957
830.20	-2.857
830.50	-24.138
830.80	0.000
831.10	-3.846
831.40	20.588
831.70	23.810
832.00	35.484
832.30	-29.412
832.60	4.167
832.90	-15.385
833.20	42.105
833.50	-15.000
833.80	5.263
834.10	-28.571
834.40	52.778
834.70	43.750
835.00	17.143
835.30	32.353
835.60	33.333
835.90	-4.000
836.20	-31.818
836.50	68.000
836.80	-15.152
837.10	-18.519
837.40	7.407
837.70	-25.000
838.00	3.571
838.30	-4.348
838.60	34.483
838.90	-64.286
839.19	-86.957
839.49	-108.333
839.79	52.174
840.09	-6.250
840.39	20.000
840.69	9.677
840.99	-25.000
841.29	-20.000
841.59	15.789
841.88	-5.128
842.18	-11.538
842.48	-70.000
842.78	-25.000
843.08	-6.667
843.38	38.710
843.68	-111.111
843.97	11.765
844.27	-18.750
844.57	21.053
844.87	-50.000
845.17	-60.000
845.47	-4.762
845.76	-38.095
846.06	11.111
846.36	-76.471
846.66	-26.923
846.96	-46.667
847.25	-52.941
847.55	8.696
847.85	-25.000
848.15	17.647
848.44	-54.545
848.74	-57.143
849.04	-45.833
849.34	-25.000
849.63	-4.348
849.93	700.000
850.23	-33.333
850.53	-15.385
850.82	-172.727
851.12	0.000
851.42	0.000
851.71	0.000
852.01	-50.000
852.31	-7.692
852.61	-36.842
852.90	-33.333
853.20	0.000
853.50	-100.000
853.79	-57.143
854.09	-13.636
854.39	-150.000
854.68	-29.032
854.98	-88.462
855.28	-11.111
855.57	39.286
855.87	20.000
856.17	-18.182
856.46	-3.704
856.76	-66.667
857.05	-56.522
857.35	-29.167
857.65	-100.000
857.94	-38.095
858.24	18.519
858.53	0.000
858.83	-29.412
859.13	-29.412
859.42	-35.294
859.72	-57.143
860.01	-35.000
860.31	-133.333
860.60	-130.000
860.90	-93.333
861.20	-77.778
861.49	-76.923
861.79	6.667
862.08	-84.615
862.38	28.125
862.67	52.941
862.97	-6.250
863.26	-111.111
863.56	-10.000
863.85	-90.909
864.15	-50.000
864.44	-500.000
864.74	-7.143
865.03	-18.750
865.33	-140.000
865.62	-22.581
865.92	13.636
866.21	-13.043
866.51	-50.000
866.80	-280.000
867.10	-41.667
867.39	-116.667
867.69	1700.000
867.98	-128.571
868.27	-47.059
868.57	-1700.000
868.86	-90.000
869.16	0.000
869.45	29.167
869.75	-63.636
870.04	-142.857
870.33	-33.333
870.63	-271.429
870.92	-300.000
871.22	-225.000
871.51	-118.182
871.80	-666.667
872.10	-250.000
>>>>>End Processed Spectral Data<<<<<
