SpectraSuite Data File
++++++++++++++++++++++++++++++++++++
Date: Thu May 14 15:16:25 PDT 2015
User: schluterlab
Dark Spectrum Present: Yes
Reference Spectrum Present: Yes
Number of Sampled Component Spectra: 1
Spectrometers: USB2E3373
Integration Time (usec): 3000 (USB2E3373)
Spectra Averaged: 3 (USB2E3373)
Boxcar Smoothing: 0 (USB2E3373)
Correct for Electrical Dark: No (USB2E3373)
Strobe/Lamp Enabled: No (USB2E3373)
Correct for Detector Non-linearity: No (USB2E3373)
Correct for Stray Light: No (USB2E3373)
Number of Pixels in Processed Spectrum: 2048
>>>>>Begin Processed Spectral Data<<<<<
178.53	0.000
178.91	542.857
179.29	-4900.000
179.67	-4600.000
180.04	385.714
180.42	400.000
180.80	900.000
181.18	-4000.000
181.56	-3300.000
181.94	900.000
182.31	-1100.000
182.69	1166.667
183.07	-1500.000
183.45	925.000
183.83	-750.000
184.20	-1100.000
184.58	3800.000
184.96	-975.000
185.34	-422.222
185.72	-500.000
186.09	555.556
186.47	2250.000
186.85	1020.000
187.23	-477.778
187.61	-4700.000
187.98	880.000
188.36	1275.000
188.74	-1025.000
189.12	-1333.333
189.49	-193.750
189.87	-562.500
190.25	-388.889
190.63	-800.000
191.00	-433.333
191.38	0.000
191.76	-1025.000
192.14	-616.667
192.51	1800.000
192.89	-550.000
193.27	0.000
193.65	-557.143
194.02	-4700.000
194.40	-657.143
194.78	671.429
195.15	0.000
195.53	-263.636
195.91	0.000
196.29	-900.000
196.66	-284.615
197.04	-4000.000
197.42	-700.000
197.79	-2050.000
198.17	-562.500
198.55	-528.571
198.92	-300.000
199.30	-512.500
199.68	-300.000
200.05	-250.000
200.43	-2150.000
200.81	585.714
201.18	0.000
201.56	522.222
201.94	0.000
202.31	1600.000
202.69	-444.444
203.07	3800.000
203.44	-344.444
203.82	-1000.000
204.19	-316.667
204.57	-683.333
204.95	-512.500
205.32	-3700.000
205.70	925.000
206.08	-550.000
206.45	-700.000
206.83	960.000
207.20	-700.000
207.58	-900.000
207.96	-716.667
208.33	-566.667
208.71	333.333
209.08	-550.000
209.46	0.000
209.84	816.667
210.21	1600.000
210.59	2000.000
210.96	1200.000
211.34	-1025.000
211.71	-550.000
212.09	-3800.000
212.46	0.000
212.84	2400.000
213.22	-820.000
213.59	-1075.000
213.97	-290.000
214.34	-1466.667
214.72	900.000
215.09	-900.000
215.47	0.000
215.84	571.429
216.22	2300.000
216.59	-740.000
216.97	-780.000
217.34	-975.000
217.72	-475.000
218.09	-1100.000
218.47	-1250.000
218.84	0.000
219.22	720.000
219.59	-182.353
219.97	-160.000
220.34	2200.000
220.72	-422.222
221.09	-184.615
221.47	-1333.333
221.84	-380.000
222.22	-585.714
222.59	0.000
222.97	-525.000
223.34	-840.000
223.72	-4100.000
224.09	-950.000
224.46	-1050.000
224.84	-560.000
225.21	-642.857
225.59	-1125.000
225.96	-1100.000
226.34	-134.615
226.71	666.667
227.08	-2050.000
227.46	-266.667
227.83	-1050.000
228.21	-157.895
228.58	550.000
228.95	2300.000
229.33	-316.667
229.70	-350.000
230.08	-110.526
230.45	460.000
230.82	-1233.333
231.20	-228.571
231.57	-200.000
231.95	-263.636
232.32	-354.545
232.69	-160.000
233.07	-875.000
233.44	-200.000
233.81	-440.000
234.19	-155.556
234.56	-186.364
234.93	-100.000
235.31	-173.684
235.68	-188.889
236.05	-220.000
236.43	-73.077
236.80	-92.000
237.17	-144.444
237.55	-100.000
237.92	-380.000
238.29	-122.581
238.67	-65.909
239.04	-69.444
239.41	-76.190
239.79	-71.739
240.16	-55.556
240.53	-41.304
240.91	-66.667
241.28	-40.984
241.65	-28.358
242.02	-18.919
242.40	-38.462
242.77	-26.667
243.14	-25.610
243.51	-50.000
243.89	-33.333
244.26	-10.891
244.63	-7.843
245.00	-6.542
245.38	-9.649
245.75	-23.009
246.12	-7.143
246.49	-12.403
246.87	-5.714
247.24	-5.298
247.61	-2.632
247.98	-2.013
248.36	-4.321
248.73	-7.975
249.10	-4.918
249.47	5.473
249.84	5.759
250.22	0.000
250.59	-2.778
250.96	4.091
251.33	-4.082
251.70	6.410
252.08	5.000
252.45	6.148
252.82	11.157
253.19	6.250
253.56	9.886
253.94	9.615
254.31	4.545
254.68	11.538
255.05	7.818
255.42	7.483
255.79	6.796
256.16	9.934
256.54	6.954
256.91	9.508
257.28	6.557
257.65	6.688
258.02	11.799
258.39	11.111
258.76	8.257
259.14	13.793
259.51	8.646
259.88	10.482
260.25	13.611
260.62	14.247
260.99	14.208
261.36	12.601
261.73	9.549
262.10	9.890
262.47	12.601
262.85	13.384
263.22	10.130
263.59	8.158
263.96	11.765
264.33	14.066
264.70	13.086
265.07	14.320
265.44	16.780
265.81	12.269
266.18	15.646
266.55	13.393
266.92	12.984
267.29	17.287
267.66	14.412
268.03	13.537
268.40	11.482
268.77	12.984
269.14	14.537
269.51	11.184
269.88	15.574
270.25	14.286
270.62	14.135
270.99	15.354
271.36	16.436
271.73	13.360
272.10	16.232
272.47	16.032
272.84	14.257
273.21	14.429
273.58	15.726
273.95	14.038
274.32	12.548
274.69	13.733
275.06	16.300
275.43	15.157
275.80	13.404
276.17	12.963
276.54	14.739
276.91	14.132
277.28	15.009
277.65	13.465
278.02	13.787
278.39	14.130
278.76	13.884
279.13	15.071
279.50	16.151
279.87	16.637
280.23	12.500
280.60	14.576
280.97	15.789
281.34	12.054
281.71	14.890
282.08	14.618
282.45	12.602
282.82	14.443
283.19	14.216
283.56	13.443
283.92	15.616
284.29	15.482
284.66	15.271
285.03	14.103
285.40	12.983
285.77	12.693
286.14	14.351
286.51	14.155
286.87	11.690
287.24	15.512
287.61	13.901
287.98	13.142
288.35	14.201
288.72	14.349
289.08	15.227
289.45	13.018
289.82	14.157
290.19	14.511
290.56	12.817
290.93	13.695
291.29	15.289
291.66	11.983
292.03	12.754
292.40	15.374
292.77	12.399
293.13	11.908
293.50	11.038
293.87	12.483
294.24	14.533
294.60	13.148
294.97	10.470
295.34	12.804
295.71	11.854
296.08	12.661
296.44	13.113
296.81	12.424
297.18	11.457
297.55	11.675
297.91	11.862
298.28	11.611
298.65	12.366
299.02	11.688
299.38	11.556
299.75	10.981
300.12	8.681
300.48	10.369
300.85	12.823
301.22	10.850
301.59	10.959
301.95	10.395
302.32	12.444
302.69	11.610
303.05	11.643
303.42	10.310
303.79	11.250
304.15	11.462
304.52	10.148
304.89	10.262
305.25	10.455
305.62	11.808
305.99	11.546
306.35	11.391
306.72	10.651
307.09	10.457
307.45	11.387
307.82	10.394
308.19	10.091
308.55	12.247
308.92	10.224
309.29	11.207
309.65	11.501
310.02	10.792
310.38	11.122
310.75	10.097
311.12	11.985
311.48	11.046
311.85	11.871
312.22	11.101
312.58	11.174
312.95	10.612
313.31	11.292
313.68	11.264
314.05	13.460
314.41	12.568
314.78	11.444
315.14	12.160
315.51	13.019
315.87	12.151
316.24	12.785
316.61	11.545
316.97	12.308
317.34	12.787
317.70	13.537
318.07	12.875
318.43	13.605
318.80	15.050
319.16	14.077
319.53	12.939
319.89	13.409
320.26	15.302
320.62	13.209
320.99	13.943
321.35	13.771
321.72	14.605
322.08	14.067
322.45	15.537
322.81	14.350
323.18	15.664
323.54	14.655
323.91	15.925
324.27	15.146
324.64	16.289
325.00	15.423
325.37	17.363
325.73	16.116
326.10	17.032
326.46	17.101
326.83	18.815
327.19	16.378
327.56	18.024
327.92	16.994
328.29	18.306
328.65	18.090
329.01	19.374
329.38	19.124
329.74	19.349
330.11	19.949
330.47	19.208
330.84	19.724
331.20	19.417
331.56	18.458
331.93	19.665
332.29	19.576
332.66	19.684
333.02	19.849
333.38	19.044
333.75	20.202
334.11	20.017
334.48	19.472
334.84	19.711
335.20	21.075
335.57	20.320
335.93	20.744
336.29	19.135
336.66	20.269
337.02	20.569
337.38	20.918
337.75	20.661
338.11	20.606
338.47	20.844
338.84	20.135
339.20	19.714
339.56	20.181
339.93	20.690
340.29	19.324
340.65	21.492
341.02	21.309
341.38	22.555
341.74	20.662
342.11	21.239
342.47	19.778
342.83	20.853
343.20	20.278
343.56	20.529
343.92	21.377
344.28	20.781
344.65	21.008
345.01	21.451
345.37	20.840
345.73	20.577
346.10	20.983
346.46	20.728
346.82	21.723
347.19	21.085
347.55	21.396
347.91	20.877
348.27	21.472
348.63	20.640
349.00	20.731
349.36	20.967
349.72	20.908
350.08	20.951
350.45	21.749
350.81	20.664
351.17	20.526
351.53	21.986
351.89	21.488
352.26	21.343
352.62	21.866
352.98	22.137
353.34	21.285
353.70	20.339
354.07	20.566
354.43	22.248
354.79	21.167
355.15	21.045
355.51	22.953
355.87	22.962
356.24	22.053
356.60	20.473
356.96	21.423
357.32	21.115
357.68	21.157
358.04	20.659
358.40	21.716
358.77	21.418
359.13	21.123
359.49	20.446
359.85	22.915
360.21	23.314
360.57	21.608
360.93	22.003
361.29	22.316
361.66	21.506
362.02	22.965
362.38	22.347
362.74	22.277
363.10	22.627
363.46	22.368
363.82	22.088
364.18	23.223
364.54	23.237
364.90	22.742
365.26	22.207
365.62	23.800
365.98	23.077
366.35	23.221
366.71	22.993
367.07	23.410
367.43	23.506
367.79	23.225
368.15	23.679
368.51	23.139
368.87	23.187
369.23	23.333
369.59	23.087
369.95	23.665
370.31	24.443
370.67	24.553
371.03	24.861
371.39	24.513
371.75	24.622
372.11	24.458
372.47	24.983
372.83	25.524
373.19	24.683
373.55	24.661
373.91	24.744
374.27	25.291
374.63	26.184
374.99	25.066
375.35	26.104
375.71	25.226
376.07	24.919
376.42	25.567
376.78	26.227
377.14	25.328
377.50	26.439
377.86	26.416
378.22	27.186
378.58	26.694
378.94	27.347
379.30	26.011
379.66	27.396
380.02	28.390
380.38	28.802
380.74	28.676
381.09	27.642
381.45	28.920
381.81	29.157
382.17	29.751
382.53	29.591
382.89	29.740
383.25	29.074
383.61	29.572
383.97	30.094
384.32	30.861
384.68	29.408
385.04	30.711
385.40	31.349
385.76	30.715
386.12	30.820
386.48	31.706
386.83	31.406
387.19	30.997
387.55	31.162
387.91	31.507
388.27	31.928
388.62	32.016
388.98	32.375
389.34	34.296
389.70	32.830
390.06	31.794
390.42	32.771
390.77	33.895
391.13	32.981
391.49	33.696
391.85	33.394
392.20	33.630
392.56	34.259
392.92	34.842
393.28	35.158
393.64	34.749
393.99	35.793
394.35	35.981
394.71	35.988
395.07	36.228
395.42	34.495
395.78	35.649
396.14	36.482
396.50	35.392
396.85	34.586
397.21	36.272
397.57	36.455
397.92	36.942
398.28	36.393
398.64	35.469
399.00	35.916
399.35	37.435
399.71	36.576
400.07	37.395
400.42	37.194
400.78	37.211
401.14	37.735
401.49	37.578
401.85	38.023
402.21	39.340
402.57	38.146
402.92	37.411
403.28	38.115
403.63	38.067
403.99	38.064
404.35	37.919
404.70	38.414
405.06	38.859
405.42	39.052
405.77	38.822
406.13	38.466
406.49	38.682
406.84	40.332
407.20	39.519
407.55	40.157
407.91	39.283
408.27	39.753
408.62	40.663
408.98	40.279
409.34	40.645
409.69	40.915
410.05	40.211
410.40	40.661
410.76	40.101
411.11	40.795
411.47	41.032
411.83	41.681
412.18	41.024
412.54	40.308
412.89	40.978
413.25	42.607
413.60	42.102
413.96	41.200
414.31	41.473
414.67	41.026
415.03	41.169
415.38	42.119
415.74	40.440
416.09	42.134
416.45	40.013
416.80	41.860
417.16	42.656
417.51	42.466
417.87	42.367
418.22	43.713
418.58	42.689
418.93	43.015
419.29	42.972
419.64	43.457
420.00	41.899
420.35	43.403
420.71	42.791
421.06	41.921
421.42	44.495
421.77	43.242
422.12	43.605
422.48	44.547
422.83	44.852
423.19	44.881
423.54	45.741
423.90	44.506
424.25	44.693
424.61	44.546
424.96	44.811
425.31	44.904
425.67	44.498
426.02	45.822
426.38	45.580
426.73	44.810
427.09	45.098
427.44	45.003
427.79	45.937
428.15	45.434
428.50	45.449
428.85	45.350
429.21	47.128
429.56	45.805
429.92	46.143
430.27	47.422
430.62	46.947
430.98	46.827
431.33	47.214
431.68	46.791
432.04	47.791
432.39	47.616
432.74	46.461
433.10	47.701
433.45	46.990
433.80	46.674
434.16	47.366
434.51	48.510
434.86	49.349
435.22	50.053
435.57	49.705
435.92	47.802
436.28	46.985
436.63	50.027
436.98	48.094
437.34	48.422
437.69	49.862
438.04	49.498
438.39	48.478
438.75	48.589
439.10	49.471
439.45	49.078
439.81	49.661
440.16	50.349
440.51	50.000
440.86	49.138
441.22	50.000
441.57	50.472
441.92	48.739
442.27	51.061
442.63	50.869
442.98	51.067
443.33	50.658
443.68	51.734
444.03	51.929
444.39	52.150
444.74	52.067
445.09	50.988
445.44	51.159
445.79	52.586
446.15	51.850
446.50	51.576
446.85	52.432
447.20	51.741
447.55	52.615
447.91	52.565
448.26	51.480
448.61	51.913
448.96	52.951
449.31	51.007
449.66	52.342
450.02	52.426
450.37	53.756
450.72	52.960
451.07	53.872
451.42	53.033
451.77	51.807
452.12	53.386
452.47	52.585
452.83	54.505
453.18	53.123
453.53	54.049
453.88	53.065
454.23	54.237
454.58	54.730
454.93	53.701
455.28	53.462
455.63	53.781
455.98	53.911
456.34	54.711
456.69	54.321
457.04	55.437
457.39	54.656
457.74	54.251
458.09	54.860
458.44	55.172
458.79	54.874
459.14	54.483
459.49	56.027
459.84	54.669
460.19	54.026
460.54	56.388
460.89	56.273
461.24	54.770
461.59	55.894
461.94	54.763
462.29	56.495
462.64	55.462
462.99	55.304
463.34	57.106
463.69	54.982
464.04	55.642
464.39	56.110
464.74	54.960
465.09	56.574
465.44	55.365
465.79	55.685
466.14	55.498
466.49	55.842
466.84	57.080
467.19	56.012
467.54	55.170
467.89	56.322
468.24	55.956
468.59	57.093
468.94	55.944
469.29	55.789
469.64	57.851
469.99	56.597
470.34	57.302
470.68	57.416
471.03	57.564
471.38	56.965
471.73	58.127
472.08	57.614
472.43	57.134
472.78	57.872
473.13	58.913
473.48	57.825
473.83	57.806
474.17	57.737
474.52	58.629
474.87	57.364
475.22	58.141
475.57	56.750
475.92	57.939
476.27	59.372
476.61	57.684
476.96	58.133
477.31	58.515
477.66	59.129
478.01	58.719
478.36	58.375
478.70	58.424
479.05	60.020
479.40	59.181
479.75	57.973
480.10	58.835
480.45	58.250
480.79	57.823
481.14	58.686
481.49	59.927
481.84	58.660
482.19	59.828
482.53	60.122
482.88	59.194
483.23	60.160
483.58	58.865
483.92	58.422
484.27	58.764
484.62	58.292
484.97	58.398
485.31	56.987
485.66	53.146
486.01	53.167
486.36	56.360
486.70	59.762
487.05	63.193
487.40	60.854
487.75	59.084
488.09	58.383
488.44	57.614
488.79	57.538
489.13	56.300
489.48	57.398
489.83	57.425
490.17	58.728
490.52	58.580
490.87	59.010
491.22	59.012
491.56	59.642
491.91	61.055
492.26	59.412
492.60	60.210
492.95	59.544
493.30	60.870
493.64	60.622
493.99	59.342
494.34	59.713
494.68	60.899
495.03	59.692
495.37	60.985
495.72	60.726
496.07	60.517
496.41	60.103
496.76	61.676
497.11	61.231
497.45	61.761
497.80	61.084
498.14	61.633
498.49	61.121
498.84	60.283
499.18	60.594
499.53	61.525
499.87	60.835
500.22	60.062
500.56	60.819
500.91	61.693
501.26	62.364
501.60	61.688
501.95	60.877
502.29	61.738
502.64	62.527
502.98	60.699
503.33	60.821
503.67	60.794
504.02	61.471
504.36	62.645
504.71	63.344
505.06	62.028
505.40	63.208
505.75	62.022
506.09	61.188
506.44	62.488
506.78	63.028
507.13	62.886
507.47	64.045
507.82	61.364
508.16	63.671
508.51	62.869
508.85	64.573
509.19	63.145
509.54	63.737
509.88	64.060
510.23	64.060
510.57	64.234
510.92	63.038
511.26	62.771
511.61	62.337
511.95	63.153
512.30	63.122
512.64	63.518
512.98	63.332
513.33	64.163
513.67	65.324
514.02	65.457
514.36	64.706
514.70	66.146
515.05	66.215
515.39	66.247
515.74	65.005
516.08	65.557
516.42	65.986
516.77	67.245
517.11	64.982
517.46	66.066
517.80	66.221
518.14	67.247
518.49	66.323
518.83	64.981
519.17	64.405
519.52	64.465
519.86	66.579
520.20	65.229
520.55	65.717
520.89	67.286
521.23	65.885
521.58	66.667
521.92	68.159
522.26	65.521
522.61	69.155
522.95	66.897
523.29	67.759
523.64	66.312
523.98	67.655
524.32	68.539
524.66	67.217
525.01	66.138
525.35	67.490
525.69	67.575
526.04	66.992
526.38	66.839
526.72	68.685
527.06	69.091
527.41	66.764
527.75	70.784
528.09	67.473
528.43	66.548
528.78	66.879
529.12	66.686
529.46	67.735
529.80	68.421
530.15	68.348
530.49	68.268
530.83	68.595
531.17	68.877
531.51	68.412
531.86	68.450
532.20	69.146
532.54	67.385
532.88	68.788
533.22	66.529
533.57	66.763
533.91	67.059
534.25	67.439
534.59	66.379
534.93	69.100
535.27	67.155
535.62	67.595
535.96	68.332
536.30	67.803
536.64	67.628
536.98	68.819
537.32	68.889
537.66	69.370
538.01	66.163
538.35	68.392
538.69	66.827
539.03	68.486
539.37	68.257
539.71	67.568
540.05	67.806
540.39	67.543
540.73	66.788
541.07	68.608
541.42	66.509
541.76	67.260
542.10	68.396
542.44	69.367
542.78	67.762
543.12	67.580
543.46	66.850
543.80	66.307
544.14	66.846
544.48	66.371
544.82	67.744
545.16	67.859
545.50	67.286
545.84	66.626
546.18	69.136
546.52	67.643
546.86	67.547
547.20	67.557
547.54	67.041
547.88	67.089
548.22	65.848
548.56	67.115
548.90	69.731
549.24	67.052
549.58	67.192
549.92	68.814
550.26	67.896
550.60	67.390
550.94	68.564
551.28	66.601
551.62	68.733
551.96	65.566
552.30	67.431
552.64	66.521
552.98	68.309
553.32	69.003
553.66	68.553
554.00	69.231
554.34	67.761
554.68	67.334
555.02	67.806
555.36	68.179
555.69	66.688
556.03	66.835
556.37	68.711
556.71	68.548
557.05	67.987
557.39	68.613
557.73	67.173
558.07	68.742
558.41	69.900
558.75	68.019
559.08	68.824
559.42	67.764
559.76	68.521
560.10	67.984
560.44	68.470
560.78	68.812
561.12	67.611
561.45	67.397
561.79	66.239
562.13	67.776
562.47	67.324
562.81	67.722
563.15	67.487
563.48	67.682
563.82	68.017
564.16	67.111
564.50	66.925
564.84	66.431
565.17	68.000
565.51	65.880
565.85	67.933
566.19	66.993
566.52	66.647
566.86	66.497
567.20	64.818
567.54	66.543
567.88	66.259
568.21	65.958
568.55	66.331
568.89	66.500
569.23	64.090
569.56	64.283
569.90	64.683
570.24	64.216
570.57	64.272
570.91	63.625
571.25	62.511
571.59	63.151
571.92	63.113
572.26	62.652
572.60	62.981
572.93	62.622
573.27	62.602
573.61	62.308
573.95	61.835
574.28	61.901
574.62	61.733
574.96	60.918
575.29	61.710
575.63	61.700
575.97	62.108
576.30	60.622
576.64	60.916
576.98	61.162
577.31	61.104
577.65	61.659
577.98	61.126
578.32	60.838
578.66	61.157
578.99	61.540
579.33	61.494
579.67	61.129
580.00	61.182
580.34	60.144
580.67	60.349
581.01	60.688
581.35	60.140
581.68	59.698
582.02	61.042
582.35	61.657
582.69	61.392
583.02	61.615
583.36	62.066
583.70	61.600
584.03	60.811
584.37	60.232
584.70	59.584
585.04	59.754
585.37	59.965
585.71	60.496
586.04	60.612
586.38	61.444
586.72	61.143
587.05	61.269
587.39	61.930
587.72	61.938
588.06	61.243
588.39	61.065
588.73	61.032
589.06	61.597
589.40	62.415
589.73	62.339
590.07	61.472
590.40	62.001
590.73	62.177
591.07	62.323
591.40	61.392
591.74	63.196
592.07	61.876
592.41	61.356
592.74	60.774
593.08	62.070
593.41	62.788
593.75	61.552
594.08	63.072
594.41	62.179
594.75	62.737
595.08	62.685
595.42	61.656
595.75	61.414
596.09	62.962
596.42	63.096
596.75	61.791
597.09	62.263
597.42	62.098
597.75	62.172
598.09	61.944
598.42	63.289
598.76	61.597
599.09	61.944
599.42	60.342
599.76	61.704
600.09	62.362
600.42	61.261
600.76	61.922
601.09	61.898
601.42	61.758
601.76	61.828
602.09	61.330
602.42	61.250
602.76	61.734
603.09	61.931
603.42	61.814
603.76	62.685
604.09	62.598
604.42	62.055
604.76	62.253
605.09	62.744
605.42	61.324
605.75	62.308
606.09	61.515
606.42	61.036
606.75	61.094
607.09	62.481
607.42	61.195
607.75	62.564
608.08	62.155
608.42	61.507
608.75	62.479
609.08	62.479
609.41	62.638
609.75	62.232
610.08	63.237
610.41	61.088
610.74	61.429
611.07	62.211
611.41	62.960
611.74	63.926
612.07	63.394
612.40	63.451
612.73	63.667
613.07	63.178
613.40	63.523
613.73	62.831
614.06	63.248
614.39	62.828
614.72	62.834
615.06	62.849
615.39	62.397
615.72	63.412
616.05	62.943
616.38	64.178
616.71	64.734
617.05	63.099
617.38	63.082
617.71	62.635
618.04	64.490
618.37	63.770
618.70	65.441
619.03	65.114
619.36	64.118
619.69	65.022
620.03	65.599
620.36	64.356
620.69	65.145
621.02	67.126
621.35	66.618
621.68	66.377
622.01	66.690
622.34	66.109
622.67	66.323
623.00	66.194
623.33	65.096
623.66	66.472
623.99	65.174
624.32	64.652
624.65	64.479
624.99	65.085
625.32	65.251
625.65	65.475
625.98	64.610
626.31	66.336
626.64	65.861
626.97	66.542
627.30	65.831
627.63	64.966
627.96	66.967
628.29	64.669
628.62	66.499
628.95	68.361
629.28	67.290
629.61	68.350
629.94	67.029
630.26	67.119
630.59	67.012
630.92	67.879
631.25	68.068
631.58	68.267
631.91	71.321
632.24	68.876
632.57	67.552
632.90	69.709
633.23	71.020
633.56	67.959
633.89	68.802
634.22	68.399
634.55	70.146
634.88	69.372
635.20	70.291
635.53	70.734
635.86	70.748
636.19	68.929
636.52	67.405
636.85	66.292
637.18	66.632
637.51	68.065
637.83	68.439
638.16	69.931
638.49	68.662
638.82	68.658
639.15	68.270
639.48	70.092
639.81	66.628
640.13	70.082
640.46	68.000
640.79	70.466
641.12	69.317
641.45	70.013
641.77	71.759
642.10	70.079
642.43	71.410
642.76	69.512
643.09	71.233
643.41	71.148
643.74	71.448
644.07	73.103
644.40	69.731
644.73	70.537
645.05	71.659
645.38	71.079
645.71	70.968
646.04	70.014
646.36	70.219
646.69	72.393
647.02	70.948
647.35	72.214
647.67	73.108
648.00	75.318
648.33	71.471
648.66	69.330
648.98	69.116
649.31	68.471
649.64	68.260
649.96	69.363
650.29	70.097
650.62	69.731
650.94	69.970
651.27	67.964
651.60	66.667
651.92	70.973
652.25	67.294
652.58	68.501
652.90	68.750
653.23	70.423
653.56	68.188
653.88	67.837
654.21	67.606
654.54	68.786
654.86	68.414
655.19	65.245
655.52	69.912
655.84	65.150
656.17	71.075
656.49	96.070
656.82	99.635
657.15	84.315
657.47	61.666
657.80	45.293
658.13	35.162
658.45	45.011
658.78	52.999
659.10	50.796
659.43	47.756
659.75	47.548
660.08	46.891
660.41	49.793
660.73	53.592
661.06	61.233
661.38	66.667
661.71	70.690
662.03	66.490
662.36	67.263
662.68	73.171
663.01	70.973
663.33	73.157
663.66	70.330
663.98	71.346
664.31	73.921
664.63	70.713
664.96	68.603
665.28	66.969
665.61	69.755
665.93	65.893
666.26	68.996
666.58	66.605
666.91	68.972
667.23	68.762
667.56	71.795
667.88	70.400
668.21	68.750
668.53	66.216
668.86	68.369
669.18	71.283
669.50	65.606
669.83	70.000
670.15	69.291
670.48	71.032
670.80	66.157
671.13	66.919
671.45	69.488
671.77	74.200
672.10	63.667
672.42	65.858
672.75	63.594
673.07	65.672
673.39	63.482
673.72	71.309
674.04	67.586
674.37	70.841
674.69	66.667
675.01	68.571
675.34	64.695
675.66	64.794
675.98	67.910
676.31	69.922
676.63	70.722
676.95	70.498
677.28	68.145
677.60	64.961
677.92	67.179
678.25	67.642
678.57	69.039
678.89	64.505
679.22	64.983
679.54	65.812
679.86	64.068
680.18	64.179
680.51	63.365
680.83	67.594
681.15	66.379
681.48	65.803
681.80	67.876
682.12	63.986
682.44	62.938
682.77	60.638
683.09	65.341
683.41	67.636
683.73	64.516
684.06	64.945
684.38	64.401
684.70	68.582
685.02	65.060
685.34	64.559
685.67	64.511
685.99	62.423
686.31	60.465
686.63	63.981
686.96	63.091
687.28	63.518
687.60	64.815
687.92	62.058
688.24	64.274
688.56	60.345
688.89	64.247
689.21	64.579
689.53	62.549
689.85	61.736
690.17	61.296
690.49	64.741
690.82	63.168
691.14	62.955
691.46	63.480
691.78	64.457
692.10	62.569
692.42	60.179
692.74	61.706
693.06	63.519
693.39	64.137
693.71	63.534
694.03	60.967
694.35	61.905
694.67	62.218
694.99	61.489
695.31	63.797
695.63	65.368
695.95	62.733
696.27	65.495
696.59	63.053
696.91	61.712
697.23	63.956
697.56	62.525
697.88	60.795
698.20	62.335
698.52	64.205
698.84	65.281
699.16	60.408
699.48	62.971
699.80	62.553
700.12	61.572
700.44	61.060
700.76	62.708
701.08	62.228
701.40	64.508
701.72	59.950
702.04	68.984
702.36	61.518
702.68	61.614
703.00	60.880
703.32	62.562
703.64	62.103
703.96	64.200
704.28	61.179
704.60	64.557
704.91	58.163
705.23	63.288
705.55	59.610
705.87	63.333
706.19	70.245
706.51	61.747
706.83	67.147
707.15	60.053
707.47	58.645
707.79	58.079
708.11	57.415
708.43	56.344
708.74	54.018
709.06	59.629
709.38	57.981
709.70	60.298
710.02	55.556
710.34	56.915
710.66	59.218
710.98	57.650
711.29	58.791
711.61	63.559
711.93	62.108
712.25	54.865
712.57	63.422
712.89	59.118
713.20	59.467
713.52	59.827
713.84	62.396
714.16	63.947
714.48	58.505
714.80	60.779
715.11	58.268
715.43	55.968
715.75	60.263
716.07	54.696
716.39	57.923
716.70	56.627
717.02	64.918
717.34	57.491
717.66	56.376
717.97	56.164
718.29	57.732
718.61	61.513
718.93	57.605
719.24	59.938
719.56	56.748
719.88	57.658
720.20	59.677
720.51	57.143
720.83	56.250
721.15	52.303
721.46	53.767
721.78	62.333
722.10	58.576
722.42	58.389
722.73	53.548
723.05	59.298
723.37	54.514
723.68	53.047
724.00	53.430
724.32	50.352
724.63	55.944
724.95	58.511
725.27	53.310
725.58	54.417
725.90	55.517
726.22	53.605
726.53	57.792
726.85	55.975
727.16	52.870
727.48	54.128
727.80	54.967
728.11	53.357
728.43	54.209
728.74	55.184
729.06	52.980
729.38	54.221
729.69	55.705
730.01	50.893
730.32	50.606
730.64	56.918
730.96	55.280
731.27	54.469
731.59	53.022
731.90	51.429
732.22	52.344
732.53	46.409
732.85	54.286
733.16	53.666
733.48	50.610
733.80	51.811
734.11	49.573
734.43	52.162
734.74	57.468
735.06	53.015
735.37	54.054
735.69	55.135
736.00	49.153
736.32	49.057
736.63	50.000
736.95	52.299
737.26	56.667
737.58	52.727
737.89	50.588
738.21	51.682
738.52	51.148
738.83	48.805
739.15	53.901
739.46	53.401
739.78	53.988
740.09	49.570
740.41	50.146
740.72	50.333
741.04	49.191
741.35	49.825
741.66	50.980
741.98	52.869
742.29	54.393
742.61	51.316
742.92	52.692
743.23	52.347
743.55	53.101
743.86	55.200
744.18	46.694
744.49	49.367
744.80	51.029
745.12	56.540
745.43	53.659
745.74	50.862
746.06	55.932
746.37	51.899
746.68	56.911
747.00	51.667
747.31	53.648
747.62	52.308
747.94	53.846
748.25	48.193
748.56	44.082
748.88	50.000
749.19	52.586
749.50	56.710
749.82	52.209
750.13	53.025
750.44	50.000
750.75	51.385
751.07	49.231
751.38	49.211
751.69	51.118
752.01	50.485
752.32	51.307
752.63	50.680
752.94	50.865
753.26	51.673
753.57	45.556
753.88	50.936
754.19	44.695
754.51	50.482
754.82	49.839
755.13	47.541
755.44	52.901
755.75	50.987
756.07	54.328
756.38	51.258
756.69	51.807
757.00	44.321
757.31	49.727
757.63	47.059
757.94	48.122
758.25	46.953
758.56	45.969
758.87	47.727
759.18	46.933
759.50	49.575
759.81	47.339
760.12	49.596
760.43	51.562
760.74	49.754
761.05	48.750
761.36	45.060
761.67	47.970
761.99	47.297
762.30	41.463
762.61	45.545
762.92	50.373
763.23	52.060
763.54	47.122
763.85	46.048
764.16	43.098
764.47	51.056
764.78	46.326
765.10	50.440
765.41	46.923
765.72	45.238
766.03	43.503
766.34	38.871
766.65	40.070
766.96	46.215
767.27	48.848
767.58	40.796
767.89	45.673
768.20	52.113
768.51	43.519
768.82	42.972
769.13	49.621
769.44	41.154
769.75	43.682
770.06	38.846
770.37	46.457
770.68	43.404
770.99	41.700
771.30	46.296
771.61	42.966
771.92	43.333
772.23	44.130
772.54	35.185
772.85	42.396
773.16	44.286
773.47	39.153
773.78	44.324
774.09	42.614
774.39	42.500
774.70	47.541
775.01	35.976
775.32	37.647
775.63	37.423
775.94	35.669
776.25	40.645
776.56	35.897
776.87	40.816
777.18	38.621
777.48	34.266
777.79	25.000
778.10	32.353
778.41	34.028
778.72	43.448
779.03	37.037
779.34	37.576
779.65	35.751
779.95	43.333
780.26	32.955
780.57	29.677
780.88	44.203
781.19	45.806
781.50	42.941
781.80	30.645
782.11	43.386
782.42	32.323
782.73	35.329
783.04	35.754
783.34	33.939
783.65	28.105
783.96	36.646
784.27	32.738
784.57	28.477
784.88	30.000
785.19	22.835
785.50	32.283
785.81	33.835
786.11	34.615
786.42	32.374
786.73	20.144
787.04	33.835
787.34	34.426
787.65	33.600
787.96	35.821
788.26	34.266
788.57	39.161
788.88	28.947
789.19	29.412
789.49	23.288
789.80	26.950
790.11	29.921
790.41	22.656
790.72	26.271
791.03	12.621
791.33	28.696
791.64	27.193
791.95	16.071
792.25	20.952
792.56	16.071
792.87	3.125
793.17	19.643
793.48	14.583
793.79	2.410
794.09	17.431
794.40	27.523
794.70	22.449
795.01	24.675
795.32	24.658
795.62	19.718
795.93	31.061
796.23	23.770
796.54	7.143
796.85	6.383
797.15	13.043
797.46	2.740
797.76	17.500
798.07	18.478
798.37	18.557
798.68	3.896
798.99	8.046
799.29	11.236
799.60	18.085
799.90	2.410
800.21	-4.615
800.51	-7.463
800.82	4.412
801.12	-1.370
801.43	-4.412
801.73	-16.949
802.04	10.606
802.34	-8.333
802.65	11.864
802.95	-5.970
803.26	-8.475
803.56	5.479
803.87	-2.857
804.17	15.068
804.48	-1.754
804.78	0.000
805.09	-5.172
805.39	8.108
805.70	-9.859
806.00	-4.878
806.30	-10.843
806.61	6.849
806.91	12.500
807.22	8.889
807.52	0.000
807.83	16.667
808.13	6.024
808.43	19.101
808.74	15.000
809.04	-8.824
809.35	-4.000
809.65	4.286
809.95	2.740
810.26	-17.544
810.56	-1.724
810.86	14.706
811.17	-1.754
811.47	-18.033
811.77	-48.889
812.08	-5.085
812.38	-16.667
812.69	-20.690
812.99	-18.868
813.29	-46.154
813.59	-26.000
813.90	-12.281
814.20	-5.455
814.50	-2.817
814.81	6.410
815.11	-9.836
815.41	-14.925
815.72	5.172
816.02	-5.357
816.32	-6.667
816.62	-20.455
816.93	-42.222
817.23	-16.667
817.53	-29.787
817.84	-7.143
818.14	-32.353
818.44	-28.571
818.74	-20.000
819.04	-33.333
819.35	-100.000
819.65	-65.385
819.95	-39.623
820.25	-31.111
820.56	-38.095
820.86	-68.750
821.16	-30.769
821.46	-46.512
821.76	-46.000
822.07	-21.429
822.37	-50.000
822.67	-42.553
822.97	-86.486
823.27	-42.500
823.57	-34.694
823.88	-11.111
824.18	-35.000
824.48	-40.000
824.78	-72.000
825.08	-78.788
825.38	-33.333
825.69	-17.021
825.99	-50.000
826.29	-82.857
826.59	-41.026
826.89	-41.860
827.19	-14.000
827.49	-44.118
827.79	-47.917
828.09	-78.378
828.39	-90.000
828.70	-34.146
829.00	-27.907
829.30	-71.429
829.60	-67.647
829.90	-21.739
830.20	-54.286
830.50	-68.966
830.80	-77.778
831.10	-61.538
831.40	-50.000
831.70	-85.714
832.00	-54.839
832.30	-223.529
832.60	-87.500
832.90	-230.769
833.20	-136.842
833.50	-155.000
833.80	-142.105
834.10	-223.810
834.40	-58.333
834.70	-31.250
835.00	-77.143
835.30	-52.941
835.60	-70.000
835.90	-64.000
836.20	-172.727
836.50	-76.000
836.80	-75.758
837.10	-111.111
837.40	-59.259
837.70	-187.500
838.00	-60.714
838.30	-156.522
838.60	-72.414
838.90	-235.714
839.19	-178.261
839.49	-275.000
839.79	-126.087
840.09	-200.000
840.39	-145.000
840.69	-103.226
840.99	-78.571
841.29	-173.333
841.59	-184.211
841.88	-38.462
842.18	-138.462
842.48	-250.000
842.78	-150.000
843.08	-76.667
843.38	-83.871
843.68	-155.556
843.97	-50.000
844.27	-187.500
844.57	-189.474
844.87	-430.000
845.17	-186.667
845.47	-138.095
845.76	-166.667
846.06	-411.111
846.36	-182.353
846.66	-80.769
846.96	-200.000
847.25	-211.765
847.55	-130.435
847.85	-150.000
848.15	-164.706
848.44	-318.182
848.74	-147.619
849.04	-100.000
849.34	-175.000
849.63	-108.696
849.93	2050.000
850.23	-206.667
850.53	-100.000
850.82	-236.364
851.12	-122.727
851.42	-363.636
851.71	-230.769
852.01	-195.000
852.31	-200.000
852.61	-147.368
852.90	-308.333
853.20	-144.444
853.50	-422.222
853.79	-166.667
854.09	-90.909
854.39	-333.333
854.68	-58.065
854.98	-96.154
855.28	-150.000
855.57	-103.571
855.87	-108.000
856.17	-122.727
856.46	-92.593
856.76	-133.333
857.05	-173.913
857.35	-150.000
857.65	-169.231
857.94	-133.333
858.24	-103.704
858.53	-78.261
858.83	-164.706
859.13	-200.000
859.42	-205.882
859.72	-200.000
860.01	-150.000
860.31	-400.000
860.60	-310.000
860.90	-186.667
861.20	-194.444
861.49	-300.000
861.79	-100.000
862.08	-307.692
862.38	-90.625
862.67	-182.353
862.97	-193.750
863.26	-400.000
863.56	-270.000
863.85	-236.364
864.15	-161.111
864.44	-1333.333
864.74	-235.714
865.03	-237.500
865.33	-350.000
865.62	-106.452
865.92	-163.636
866.21	-143.478
866.51	-214.286
866.80	-640.000
867.10	-283.333
867.39	-350.000
867.69	3200.000
867.98	-400.000
868.27	-117.647
868.57	-4100.000
868.86	-370.000
869.16	-176.190
869.45	-125.000
869.75	-245.455
870.04	-371.429
870.33	-283.333
870.63	-571.429
870.92	-775.000
871.22	-500.000
871.51	-390.909
871.80	-1800.000
872.10	-2350.000
>>>>>End Processed Spectral Data<<<<<
