SpectraSuite Data File
++++++++++++++++++++++++++++++++++++
Date: Thu May 14 14:42:35 PDT 2015
User: schluterlab
Dark Spectrum Present: Yes
Reference Spectrum Present: Yes
Number of Sampled Component Spectra: 1
Spectrometers: USB2E3373
Integration Time (usec): 3000 (USB2E3373)
Spectra Averaged: 3 (USB2E3373)
Boxcar Smoothing: 0 (USB2E3373)
Correct for Electrical Dark: No (USB2E3373)
Strobe/Lamp Enabled: No (USB2E3373)
Correct for Detector Non-linearity: No (USB2E3373)
Correct for Stray Light: No (USB2E3373)
Number of Pixels in Processed Spectrum: 2048
>>>>>Begin Processed Spectral Data<<<<<
178.53	0.000
178.91	157.143
179.29	-500.000
179.67	-300.000
180.04	92.857
180.42	-70.000
180.80	-80.000
181.18	400.000
181.56	1200.000
181.94	125.000
182.31	125.000
182.69	-133.333
183.07	650.000
183.45	125.000
183.83	16.667
184.20	-233.333
184.58	100.000
184.96	200.000
185.34	88.889
185.72	140.000
186.09	11.111
186.47	-50.000
186.85	-0.000
187.23	-11.111
187.61	-900.000
187.98	40.000
188.36	-75.000
188.74	75.000
189.12	0.000
189.49	68.750
189.87	-37.500
190.25	177.778
190.63	240.000
191.00	133.333
191.38	0.000
191.76	50.000
192.14	83.333
192.51	-400.000
192.89	133.333
193.27	0.000
193.65	114.286
194.02	-500.000
194.40	100.000
194.78	-57.143
195.15	0.000
195.53	45.455
195.91	0.000
196.29	50.000
196.66	61.538
197.04	100.000
197.42	57.143
197.79	200.000
198.17	37.500
198.55	142.857
198.92	11.111
199.30	-75.000
199.68	81.818
200.05	100.000
200.43	350.000
200.81	-0.000
201.18	0.000
201.56	-33.333
201.94	0.000
202.31	66.667
202.69	33.333
203.07	-1100.000
203.44	166.667
203.82	-75.000
204.19	0.000
204.57	166.667
204.95	0.000
205.32	300.000
205.70	-0.000
206.08	133.333
206.45	50.000
206.83	-60.000
207.20	100.000
207.58	-180.000
207.96	-16.667
208.33	166.667
208.71	8.333
209.08	100.000
209.46	0.000
209.84	100.000
210.21	-400.000
210.59	-750.000
210.96	-66.667
211.34	50.000
211.71	137.500
212.09	-400.000
212.46	0.000
212.84	50.000
213.22	20.000
213.59	50.000
213.97	90.000
214.34	233.333
214.72	16.667
215.09	50.000
215.47	0.000
215.84	-100.000
216.22	450.000
216.59	120.000
216.97	180.000
217.34	200.000
217.72	75.000
218.09	125.000
218.47	-50.000
218.84	0.000
219.22	-140.000
219.59	17.647
219.97	50.000
220.34	-100.000
220.72	11.111
221.09	69.231
221.47	200.000
221.84	70.000
222.22	100.000
222.59	0.000
222.97	-25.000
223.34	80.000
223.72	100.000
224.09	-25.000
224.46	150.000
224.84	120.000
225.21	-57.143
225.59	150.000
225.96	-175.000
226.34	42.308
226.71	183.333
227.08	-100.000
227.46	86.667
227.83	125.000
228.21	68.421
228.58	-0.000
228.95	300.000
229.33	133.333
229.70	160.000
230.08	84.211
230.45	-30.000
230.82	266.667
231.20	21.429
231.57	125.000
231.95	81.818
232.32	63.636
232.69	60.000
233.07	-75.000
233.44	35.294
233.81	10.000
234.19	5.556
234.56	72.727
234.93	58.621
235.31	36.842
235.68	50.000
236.05	-20.000
236.43	69.231
236.80	84.000
237.17	29.630
237.55	36.364
237.92	-20.000
238.29	35.484
238.67	36.364
239.04	22.222
239.41	30.952
239.79	13.043
240.16	35.185
240.53	32.609
240.91	33.333
241.28	29.508
241.65	47.761
242.02	24.324
242.40	23.077
242.77	20.000
243.14	10.976
243.51	6.579
243.89	23.077
244.26	22.772
244.63	33.333
245.00	32.710
245.38	21.053
245.75	10.619
246.12	22.222
246.49	10.853
246.87	27.143
247.24	25.828
247.61	18.421
247.98	21.477
248.36	15.432
248.73	15.951
249.10	20.765
249.47	31.841
249.84	26.178
250.22	20.207
250.59	22.778
250.96	22.727
251.33	15.306
251.70	22.222
252.08	21.667
252.45	20.082
252.82	19.835
253.19	18.359
253.56	23.574
253.94	17.692
254.31	21.591
254.68	23.427
255.05	22.150
255.42	18.367
255.79	19.741
256.16	19.205
256.54	21.523
256.91	22.951
257.28	21.639
257.65	20.064
258.02	17.994
258.39	20.228
258.76	23.853
259.14	21.552
259.51	23.055
259.88	19.263
260.25	18.333
260.62	23.562
260.99	20.219
261.36	20.643
261.73	20.690
262.10	21.978
262.47	19.303
262.85	21.212
263.22	18.182
263.59	19.474
263.96	18.670
264.33	18.926
264.70	21.481
265.07	20.764
265.44	23.583
265.81	21.991
266.18	21.315
266.55	22.098
266.92	19.590
267.29	23.632
267.66	17.295
268.03	22.489
268.40	21.086
268.77	17.995
269.14	20.485
269.51	21.053
269.88	20.492
270.25	18.310
270.62	22.996
270.99	21.010
271.36	22.178
271.73	19.253
272.10	19.840
272.47	20.441
272.84	19.277
273.21	20.842
273.58	21.976
273.95	20.385
274.32	18.441
274.69	18.956
275.06	19.597
275.43	19.593
275.80	21.340
276.17	18.333
276.54	18.284
276.91	19.857
277.28	19.530
277.65	22.083
278.02	21.691
278.39	19.565
278.76	18.102
279.13	20.035
279.50	20.619
279.87	20.215
280.23	17.077
280.60	20.678
280.97	18.750
281.34	22.071
281.71	22.504
282.08	18.771
282.45	20.131
282.82	19.623
283.19	17.609
283.56	18.033
283.92	21.321
284.29	19.115
284.66	21.182
285.03	18.750
285.40	18.083
285.77	18.266
286.14	18.931
286.51	19.635
286.87	20.379
287.24	19.880
287.61	19.283
287.98	17.976
288.35	18.047
288.72	18.343
289.08	20.791
289.45	16.420
289.82	17.771
290.19	17.529
290.56	19.296
290.93	17.974
291.29	17.355
291.66	18.182
292.03	16.689
292.40	18.095
292.77	17.790
293.13	16.915
293.50	16.951
293.87	17.584
294.24	18.400
294.60	17.573
294.97	15.705
295.34	16.901
295.71	16.141
296.08	16.150
296.44	16.299
296.81	14.982
297.18	16.314
297.55	16.745
297.91	16.133
298.28	16.232
298.65	15.815
299.02	14.876
299.38	16.247
299.75	14.953
300.12	15.509
300.48	15.668
300.85	16.198
301.22	15.548
301.59	15.411
301.95	15.254
302.32	15.444
302.69	16.101
303.05	14.799
303.42	14.191
303.79	15.104
304.15	15.563
304.52	14.799
304.89	14.974
305.25	14.700
305.62	15.465
305.99	15.773
306.35	15.121
306.72	16.649
307.09	14.416
307.45	15.631
307.82	16.448
308.19	16.347
308.55	16.490
308.92	16.456
309.29	16.571
309.65	14.620
310.02	15.743
310.38	14.764
310.75	17.573
311.12	16.683
311.48	17.498
311.85	16.999
312.22	16.414
312.58	17.465
312.95	17.017
313.31	16.350
313.68	18.132
314.05	17.886
314.41	18.579
314.78	17.711
315.14	17.877
315.51	17.729
315.87	19.082
316.24	19.178
316.61	19.183
316.97	19.457
317.34	18.342
317.70	20.087
318.07	18.959
318.43	20.238
318.80	21.070
319.16	21.030
319.53	19.966
319.89	20.421
320.26	22.776
320.62	20.124
320.99	21.145
321.35	22.828
321.72	22.419
322.08	21.100
322.45	20.867
322.81	22.112
323.18	20.796
323.54	21.293
323.91	22.598
324.27	21.429
324.64	21.830
325.00	22.222
325.37	22.195
325.73	23.306
326.10	23.763
326.46	23.616
326.83	24.179
327.19	23.622
327.56	24.111
327.92	23.210
328.29	23.710
328.65	22.781
329.01	23.012
329.38	23.926
329.74	23.373
330.11	23.716
330.47	23.757
330.84	24.548
331.20	24.167
331.56	24.523
331.93	24.519
332.29	23.729
332.66	25.581
333.02	24.037
333.38	24.245
333.75	23.485
334.11	23.853
334.48	24.010
334.84	23.959
335.20	24.433
335.57	23.019
335.93	23.967
336.29	24.043
336.66	23.213
337.02	23.579
337.38	23.895
337.75	23.636
338.11	23.549
338.47	23.573
338.84	23.689
339.20	23.252
339.56	23.147
339.93	23.810
340.29	22.866
340.65	23.439
341.02	23.943
341.38	23.848
341.74	23.487
342.11	24.377
342.47	22.002
342.83	23.349
343.20	23.876
343.56	23.817
343.92	23.779
344.28	23.359
344.65	23.643
345.01	23.557
345.37	22.706
345.73	22.292
346.10	23.479
346.46	23.339
346.82	24.494
347.19	23.682
347.55	23.824
347.91	24.071
348.27	22.610
348.63	23.458
349.00	22.148
349.36	23.271
349.72	22.917
350.08	23.848
350.45	21.901
350.81	23.605
351.17	22.481
351.53	22.745
351.89	22.855
352.26	22.313
352.62	22.463
352.98	23.130
353.34	21.434
353.70	22.881
354.07	22.727
354.43	21.868
354.79	22.513
355.15	22.443
355.51	23.904
355.87	22.438
356.24	22.662
356.60	22.099
356.96	22.906
357.32	21.115
357.68	22.474
358.04	21.632
358.40	22.313
358.77	22.734
359.13	22.526
359.49	21.041
359.85	22.480
360.21	22.382
360.57	20.962
360.93	22.708
361.29	22.596
361.66	20.710
362.02	23.243
362.38	22.488
362.74	22.416
363.10	23.177
363.46	22.784
363.82	21.449
364.18	22.660
364.54	22.476
364.90	21.940
365.26	22.138
365.62	21.800
365.98	23.145
366.35	22.886
366.71	22.653
367.07	22.869
367.43	21.865
367.79	22.230
368.15	22.809
368.51	22.936
368.87	22.338
369.23	22.933
369.59	22.131
369.95	21.839
370.31	22.687
370.67	22.421
371.03	22.438
371.39	21.827
371.75	22.421
372.11	22.358
372.47	20.650
372.83	21.990
373.19	21.815
373.55	21.612
373.91	20.995
374.27	22.057
374.63	21.516
374.99	21.552
375.35	22.792
375.71	22.323
376.07	22.595
376.42	22.733
376.78	22.126
377.14	21.772
377.50	22.834
377.86	23.030
378.22	23.174
378.58	23.187
378.94	22.300
379.30	21.968
379.66	22.457
380.02	22.677
380.38	23.675
380.74	22.254
381.09	22.532
381.45	21.420
381.81	23.361
382.17	22.328
382.53	22.105
382.89	22.065
383.25	22.978
383.61	22.454
383.97	22.968
384.32	22.907
384.68	22.564
385.04	22.903
385.40	23.512
385.76	22.392
386.12	22.023
386.48	22.588
386.83	23.778
387.19	22.769
387.55	22.711
387.91	22.546
388.27	23.326
388.62	22.623
388.98	21.940
389.34	23.925
389.70	21.964
390.06	22.617
390.42	23.795
390.77	23.359
391.13	22.770
391.49	23.188
391.85	23.091
392.20	23.428
392.56	23.686
392.92	23.010
393.28	22.886
393.64	22.346
393.99	23.765
394.35	23.189
394.71	23.533
395.07	22.814
395.42	22.730
395.78	24.071
396.14	23.589
396.50	22.328
396.85	22.719
397.21	23.491
397.57	23.439
397.92	23.654
398.28	22.162
398.64	22.368
399.00	22.094
399.35	22.723
399.71	22.228
400.07	22.179
400.42	22.701
400.78	22.975
401.14	22.197
401.49	23.252
401.85	22.849
402.21	23.523
402.57	23.592
402.92	23.404
403.28	21.838
403.63	22.613
403.99	22.150
404.35	22.513
404.70	22.266
405.06	23.533
405.42	23.244
405.77	21.919
406.13	22.744
406.49	22.917
406.84	23.380
407.20	22.415
407.55	21.866
407.91	22.313
408.27	21.908
408.62	22.978
408.98	22.925
409.34	21.760
409.69	22.311
410.05	22.743
410.40	22.506
410.76	22.042
411.11	22.794
411.47	23.403
411.83	23.280
412.18	22.651
412.54	22.170
412.89	22.934
413.25	22.573
413.60	22.286
413.96	23.019
414.31	21.813
414.67	22.838
415.03	22.092
415.38	23.014
415.74	22.053
416.09	22.887
416.45	22.354
416.80	22.032
417.16	23.627
417.51	23.350
417.87	22.808
418.22	22.994
418.58	22.181
418.93	22.875
419.29	22.195
419.64	22.629
420.00	23.323
420.35	22.347
420.71	23.090
421.06	22.829
421.42	23.165
421.77	22.348
422.12	22.622
422.48	23.246
422.83	23.111
423.19	22.228
423.54	22.732
423.90	22.695
424.25	22.933
424.61	22.216
424.96	22.900
425.31	23.779
425.67	22.544
426.02	23.575
426.38	23.020
426.73	22.600
427.09	24.337
427.44	23.211
427.79	23.107
428.15	22.888
428.50	22.584
428.85	22.216
429.21	23.617
429.56	22.655
429.92	23.243
430.27	23.759
430.62	23.351
430.98	22.823
431.33	23.509
431.68	23.276
432.04	23.819
432.39	23.246
432.74	23.630
433.10	22.336
433.45	23.300
433.80	23.659
434.16	24.122
434.51	24.306
434.86	24.159
435.22	24.017
435.57	24.116
435.92	24.263
436.28	24.289
436.63	24.249
436.98	23.564
437.34	23.844
437.69	23.555
438.04	23.480
438.39	24.756
438.75	23.409
439.10	24.577
439.45	24.092
439.81	24.237
440.16	23.914
440.51	23.467
440.86	24.514
441.22	23.794
441.57	24.214
441.92	23.909
442.27	23.939
442.63	24.093
442.98	25.080
443.33	23.987
443.68	24.678
444.03	25.682
444.39	24.133
444.74	24.655
445.09	24.176
445.44	24.341
445.79	25.096
446.15	24.049
446.50	23.979
446.85	24.757
447.20	24.662
447.55	25.209
447.91	23.979
448.26	25.053
448.61	24.761
448.96	25.590
449.31	23.648
449.66	24.673
450.02	25.000
450.37	25.466
450.72	24.381
451.07	24.943
451.42	25.246
451.77	24.402
452.12	24.774
452.47	24.718
452.83	25.563
453.18	25.102
453.53	24.411
453.88	25.124
454.23	25.424
454.58	25.189
454.93	24.879
455.28	24.624
455.63	25.412
455.98	25.196
456.34	23.852
456.69	24.574
457.04	25.296
457.39	24.778
457.74	26.174
458.09	25.206
458.44	25.269
458.79	24.549
459.14	25.118
459.49	25.580
459.84	25.551
460.19	24.931
460.54	24.815
460.89	24.722
461.24	24.885
461.59	25.401
461.94	24.758
462.29	25.588
462.64	24.442
462.99	25.235
463.34	25.568
463.69	25.381
464.04	25.959
464.39	25.000
464.74	24.857
465.09	25.606
465.44	25.536
465.79	25.965
466.14	25.117
466.49	24.842
466.84	26.171
467.19	24.855
467.54	25.147
467.89	25.057
468.24	25.928
468.59	24.725
468.94	24.476
469.29	25.855
469.64	25.620
469.99	26.322
470.34	25.557
470.68	27.136
471.03	26.785
471.38	25.899
471.73	25.748
472.08	26.586
472.43	26.370
472.78	26.008
473.13	25.474
473.48	25.801
473.83	25.479
474.17	26.671
474.52	25.857
474.87	26.578
475.22	26.761
475.57	26.376
475.92	25.734
476.27	25.879
476.61	25.389
476.96	25.912
477.31	26.337
477.66	26.705
478.01	26.182
478.36	25.474
478.70	26.404
479.05	26.329
479.40	26.061
479.75	27.185
480.10	25.722
480.45	26.800
480.79	26.122
481.14	26.241
481.49	26.079
481.84	26.458
482.19	27.011
482.53	26.891
482.88	26.495
483.23	27.034
483.58	26.376
483.92	25.931
484.27	26.334
484.62	26.031
484.97	26.205
485.31	25.695
485.66	25.196
486.01	25.189
486.36	25.685
486.70	26.445
487.05	26.248
487.40	25.702
487.75	25.547
488.09	25.106
488.44	24.846
488.79	25.497
489.13	24.837
489.48	25.631
489.83	26.157
490.17	25.921
490.52	26.108
490.87	26.396
491.22	25.607
491.56	26.706
491.91	26.690
492.26	26.395
492.60	26.935
492.95	26.634
493.30	25.997
493.64	26.588
493.99	26.491
494.34	26.699
494.68	26.296
495.03	27.577
495.37	26.276
495.72	26.621
496.07	26.468
496.41	26.898
496.76	27.398
497.11	26.752
497.45	26.500
497.80	27.410
498.14	26.939
498.49	26.517
498.84	26.828
499.18	26.946
499.53	27.713
499.87	27.385
500.22	26.269
500.56	26.901
500.91	26.682
501.26	27.682
501.60	26.911
501.95	27.920
502.29	27.073
502.64	26.672
502.98	27.567
503.33	26.739
503.67	26.995
504.02	27.145
504.36	27.748
504.71	27.193
505.06	27.331
505.40	27.331
505.75	27.186
506.09	27.532
506.44	27.623
506.78	27.798
507.13	27.801
507.47	26.859
507.82	28.078
508.16	28.107
508.51	26.910
508.85	28.389
509.19	27.901
509.54	27.522
509.88	28.072
510.23	28.218
510.57	29.048
510.92	28.060
511.26	27.417
511.61	27.185
511.95	27.721
512.30	28.311
512.64	27.136
512.98	28.414
513.33	27.671
513.67	28.455
514.02	28.155
514.36	28.133
514.70	27.760
515.05	28.519
515.39	28.661
515.74	29.162
516.08	29.107
516.42	29.775
516.77	28.970
517.11	28.675
517.46	29.003
517.80	29.182
518.14	28.836
518.49	28.796
518.83	28.313
519.17	28.756
519.52	28.669
519.86	28.564
520.20	28.701
520.55	28.423
520.89	28.829
521.23	29.760
521.58	29.605
521.92	28.895
522.26	27.549
522.61	29.803
522.95	28.835
523.29	28.678
523.64	28.980
523.98	29.606
524.32	29.169
524.66	29.425
525.01	29.898
525.35	28.432
525.69	29.060
526.04	28.071
526.38	29.598
526.72	29.412
527.06	30.088
527.41	29.621
527.75	29.513
528.09	29.162
528.43	29.722
528.78	29.191
529.12	28.899
529.46	29.848
529.80	30.034
530.15	29.797
530.49	29.597
530.83	29.103
531.17	29.630
531.51	30.024
531.86	29.868
532.20	29.573
532.54	29.563
532.88	30.000
533.22	30.053
533.57	29.140
533.91	28.956
534.25	29.960
534.59	28.908
534.93	29.089
535.27	29.070
535.62	30.074
535.96	29.924
536.30	28.907
536.64	30.090
536.98	29.643
537.32	29.444
537.66	29.133
538.01	29.789
538.35	29.598
538.69	29.507
539.03	29.920
539.37	29.329
539.71	29.610
540.05	29.436
540.39	29.156
540.73	29.387
541.07	29.982
541.42	29.297
541.76	29.300
542.10	29.674
542.44	28.806
542.78	29.319
543.12	29.261
543.46	29.487
543.80	28.597
544.14	29.144
544.48	29.433
544.82	29.862
545.16	29.756
545.50	29.898
545.84	28.598
546.18	29.012
546.52	30.000
546.86	29.623
547.20	29.580
547.54	28.714
547.88	28.210
548.22	29.006
548.56	28.847
548.90	29.731
549.24	29.970
549.58	29.653
549.92	28.954
550.26	29.709
550.60	29.228
550.94	29.301
551.28	29.901
551.62	30.054
551.96	29.644
552.30	30.465
552.64	30.803
552.98	29.819
553.32	30.161
553.66	30.225
554.00	31.021
554.34	30.180
554.68	30.471
555.02	30.158
555.36	29.849
555.69	28.764
556.03	29.887
556.37	29.599
556.71	29.423
557.05	29.712
557.39	29.330
557.73	29.524
558.07	29.272
558.41	30.033
558.75	30.899
559.08	29.715
559.42	30.110
559.76	29.715
560.10	29.605
560.44	29.749
560.78	29.625
561.12	30.049
561.45	30.596
561.79	30.098
562.13	29.883
562.47	29.470
562.81	30.443
563.15	30.745
563.48	30.578
563.82	29.807
564.16	29.194
564.50	29.559
564.84	29.558
565.17	29.765
565.51	28.654
565.85	29.929
566.19	29.032
566.52	28.730
566.86	29.825
567.20	28.929
567.54	28.518
567.88	30.224
568.21	28.755
568.55	28.729
568.89	28.824
569.23	29.109
569.56	28.449
569.90	28.154
570.24	28.971
570.57	28.384
570.91	27.710
571.25	27.625
571.59	28.055
571.92	26.919
572.26	27.131
572.60	27.464
572.93	27.025
573.27	27.339
573.61	26.919
573.95	27.288
574.28	27.283
574.62	27.126
574.96	27.239
575.29	26.922
575.63	26.588
575.97	26.946
576.30	26.598
576.64	26.963
576.98	26.378
577.31	27.223
577.65	27.115
577.98	26.901
578.32	26.788
578.66	26.291
578.99	26.787
579.33	26.434
579.67	26.700
580.00	26.972
580.34	26.527
580.67	26.456
581.01	26.525
581.35	26.885
581.68	27.187
582.02	27.003
582.35	26.784
582.69	27.557
583.02	26.911
583.36	27.110
583.70	26.630
584.03	26.086
584.37	26.709
584.70	26.308
585.04	26.064
585.37	26.933
585.71	27.077
586.04	27.059
586.38	27.252
586.72	26.448
587.05	26.375
587.39	26.876
587.72	27.057
588.06	27.152
588.39	27.110
588.73	26.772
589.06	26.975
589.40	27.412
589.73	27.153
590.07	27.321
590.40	27.383
590.73	27.466
591.07	28.518
591.40	27.333
591.74	28.060
592.07	28.542
592.41	27.603
592.74	27.618
593.08	27.898
593.41	28.288
593.75	27.787
594.08	27.779
594.41	27.500
594.75	27.400
595.08	27.288
595.42	27.338
595.75	27.510
596.09	27.143
596.42	27.410
596.75	27.788
597.09	27.960
597.42	28.010
597.75	27.675
598.09	28.294
598.42	28.347
598.76	27.856
599.09	27.519
599.42	27.958
599.76	27.798
600.09	27.961
600.42	28.061
600.76	27.477
601.09	27.713
601.42	27.944
601.76	27.483
602.09	27.269
602.42	27.263
602.76	27.380
603.09	27.753
603.42	27.782
603.76	28.118
604.09	28.211
604.42	27.927
604.76	27.283
605.09	28.520
605.42	27.831
605.75	27.000
606.09	28.182
606.42	27.216
606.75	27.174
607.09	26.959
607.42	27.823
607.75	28.370
608.08	27.901
608.42	27.771
608.75	28.109
609.08	27.674
609.41	28.540
609.75	28.080
610.08	28.760
610.41	28.037
610.74	27.437
611.07	27.975
611.41	28.655
611.74	28.545
612.07	28.237
612.40	27.709
612.73	28.020
613.07	29.193
613.40	28.730
613.73	28.166
614.06	27.920
614.39	27.794
614.72	28.287
615.06	27.671
615.39	27.985
615.72	28.720
616.05	28.509
616.38	29.465
616.71	28.631
617.05	28.168
617.38	28.785
617.71	28.780
618.04	28.548
618.37	29.617
618.70	29.412
619.03	28.674
619.36	28.607
619.69	29.468
620.03	28.186
620.36	28.528
620.69	29.118
621.02	29.396
621.35	30.334
621.68	30.152
622.01	29.964
622.34	28.522
622.67	29.759
623.00	28.947
623.33	31.188
623.66	30.220
623.99	29.691
624.32	31.189
624.65	29.730
624.99	29.129
625.32	29.915
625.65	29.467
625.98	28.881
626.31	30.050
626.64	30.183
626.97	30.008
627.30	30.752
627.63	30.083
627.96	31.907
628.29	31.128
628.62	30.898
628.95	31.639
629.28	29.312
629.61	31.734
629.94	30.293
630.26	29.831
630.59	31.347
630.92	29.697
631.25	31.932
631.58	31.733
631.91	30.459
632.24	30.355
632.57	30.645
632.90	30.893
633.23	31.837
633.56	30.510
633.89	31.405
634.22	31.497
634.55	31.106
634.88	31.710
635.20	31.001
635.53	34.463
635.86	32.286
636.19	32.874
636.52	33.122
636.85	31.154
637.18	32.432
637.51	30.968
637.83	32.004
638.16	33.180
638.49	31.808
638.82	31.454
639.15	31.271
639.48	33.141
639.81	33.718
640.13	31.920
640.46	31.636
640.79	31.985
641.12	33.416
641.45	30.866
641.77	34.660
642.10	32.808
642.43	33.378
642.76	30.623
643.09	31.918
643.41	32.353
643.74	32.552
644.07	33.517
644.40	32.956
644.73	33.091
645.05	35.095
645.38	34.245
645.71	32.845
646.04	34.146
646.36	32.993
646.69	32.669
647.02	35.780
647.35	32.977
647.67	34.300
648.00	34.076
648.33	32.132
648.66	31.098
648.98	31.429
649.31	32.476
649.64	34.263
649.96	33.024
650.29	30.876
650.62	31.542
650.94	33.033
651.27	32.635
651.60	31.433
651.92	32.371
652.25	31.838
652.58	32.325
652.90	31.686
653.23	32.817
653.56	33.096
653.88	35.393
654.21	31.549
654.54	32.081
654.86	34.278
655.19	30.364
655.52	29.130
655.84	27.161
656.17	33.608
656.49	46.567
656.82	50.182
657.15	38.033
657.47	27.606
657.80	19.678
658.13	15.240
658.45	19.452
658.78	23.344
659.10	22.342
659.43	22.651
659.75	22.537
660.08	23.137
660.41	23.408
660.73	27.252
661.06	30.984
661.38	31.260
661.71	30.862
662.03	33.157
662.36	31.306
662.68	33.583
663.01	34.690
663.33	34.594
663.66	34.799
663.98	34.423
664.31	34.522
664.63	32.177
664.96	35.572
665.28	33.031
665.61	36.888
665.93	31.429
666.26	34.767
666.58	31.550
666.91	35.140
667.23	35.619
667.56	33.333
667.88	35.600
668.21	33.203
668.53	32.046
668.86	33.399
669.18	33.401
669.50	36.183
669.83	33.800
670.15	33.071
670.48	32.143
670.80	32.696
671.13	32.892
671.45	34.449
671.77	35.217
672.10	32.833
672.42	33.010
672.75	32.104
673.07	32.985
673.39	32.203
673.72	31.711
674.04	35.000
674.37	33.631
674.69	34.921
675.01	32.381
675.34	33.015
675.66	31.835
675.98	33.209
676.31	34.180
676.63	35.171
676.95	34.100
677.28	34.274
677.60	31.102
677.92	33.397
678.25	35.101
678.57	34.698
678.89	34.130
679.22	30.662
679.54	33.846
679.86	30.678
680.18	31.675
680.51	33.019
680.83	32.570
681.15	32.069
681.48	33.851
681.80	33.506
682.12	30.769
682.44	31.052
682.77	33.865
683.09	33.523
683.41	34.690
683.73	33.966
684.06	30.996
684.38	32.021
684.70	32.675
685.02	33.219
685.34	31.780
685.67	30.599
685.99	30.675
686.31	31.686
686.63	31.122
686.96	32.019
687.28	29.967
687.60	32.155
687.92	30.707
688.24	33.055
688.56	32.069
688.89	31.397
689.21	33.659
689.53	30.980
689.85	30.178
690.17	32.407
690.49	30.080
690.82	33.465
691.14	30.972
691.46	30.784
691.78	34.622
692.10	31.743
692.42	32.321
692.74	28.857
693.06	27.407
693.39	33.207
693.71	31.391
694.03	31.041
694.35	29.905
694.67	31.211
694.99	34.468
695.31	32.230
695.63	31.818
695.95	31.884
696.27	33.187
696.59	35.619
696.91	31.982
697.23	34.286
697.56	31.568
697.88	31.061
698.20	32.768
698.52	35.795
698.84	35.135
699.16	33.061
699.48	32.845
699.80	31.702
700.12	30.349
700.44	31.106
700.76	35.392
701.08	33.414
701.40	33.679
701.72	35.075
702.04	37.166
702.36	33.508
702.68	33.985
703.00	34.963
703.32	35.468
703.64	33.007
703.96	35.800
704.28	36.118
704.60	35.190
704.91	32.653
705.23	32.055
705.55	35.376
705.87	35.152
706.19	36.810
706.51	31.928
706.83	34.006
707.15	32.540
707.47	32.477
707.79	31.659
708.11	30.297
708.43	31.398
708.74	28.795
709.06	31.555
709.38	35.211
709.70	28.784
710.02	32.558
710.34	28.989
710.66	29.609
710.98	32.787
711.29	32.418
711.61	35.028
711.93	35.897
712.25	32.703
712.57	37.168
712.89	37.647
713.20	29.882
713.52	35.549
713.84	30.084
714.16	33.158
714.48	31.443
714.80	34.026
715.11	31.234
715.43	34.483
715.75	32.632
716.07	31.768
716.39	32.787
716.70	33.133
717.02	40.000
717.34	34.843
717.66	33.893
717.97	31.507
718.29	38.144
718.61	35.526
718.93	35.922
719.24	36.025
719.56	33.436
719.88	31.231
720.20	33.871
720.51	31.677
720.83	31.250
721.15	29.934
721.46	33.562
721.78	34.000
722.10	30.421
722.42	32.215
722.73	33.548
723.05	38.246
723.37	29.167
723.68	31.541
724.00	35.740
724.32	28.873
724.63	33.566
724.95	39.716
725.27	32.056
725.58	37.456
725.90	35.862
726.22	33.542
726.53	38.636
726.85	37.107
727.16	29.607
727.48	31.804
727.80	35.430
728.11	33.216
728.43	33.670
728.74	34.114
729.06	29.139
729.38	36.364
729.69	33.893
730.01	31.548
730.32	32.424
730.64	32.075
730.96	30.745
731.27	33.240
731.59	30.495
731.90	28.052
732.22	28.385
732.53	31.768
732.85	32.000
733.16	30.499
733.48	28.354
733.80	28.412
734.11	33.903
734.43	29.730
734.74	37.468
735.06	29.899
735.37	32.703
735.69	30.000
736.00	30.226
736.32	31.806
736.63	31.111
736.95	30.172
737.26	30.000
737.58	29.394
737.89	32.941
738.21	28.746
738.52	29.836
738.83	33.447
739.15	33.688
739.46	31.973
739.78	34.969
740.09	31.519
740.41	32.945
740.72	31.333
741.04	33.657
741.35	34.035
741.66	34.118
741.98	34.016
742.29	33.054
742.61	38.158
742.92	33.846
743.23	33.213
743.55	34.496
743.86	32.800
744.18	30.992
744.49	29.958
744.80	35.391
745.12	34.177
745.43	34.146
745.74	31.466
746.06	32.203
746.37	39.662
746.68	34.146
747.00	35.417
747.31	36.910
747.62	36.923
747.94	34.413
748.25	32.129
748.56	31.429
748.88	35.897
749.19	44.397
749.50	33.766
749.82	38.153
750.13	34.875
750.44	34.667
750.75	31.077
751.07	33.538
751.38	36.593
751.69	34.505
752.01	30.421
752.32	29.085
752.63	31.633
752.94	30.450
753.26	30.483
753.57	31.852
753.88	31.835
754.19	32.154
754.51	34.405
754.82	30.225
755.13	34.098
755.44	35.495
755.75	32.237
756.07	31.045
756.38	31.761
756.69	33.434
757.00	29.640
757.31	33.880
757.63	30.435
757.94	30.516
758.25	31.603
758.56	29.194
758.87	30.682
759.18	30.933
759.50	31.728
759.81	30.532
760.12	29.380
760.43	32.812
760.74	33.251
761.05	31.500
761.36	26.747
761.67	30.457
761.99	32.162
762.30	30.793
762.61	29.043
762.92	32.090
763.23	32.584
763.54	33.453
763.85	30.928
764.16	31.313
764.47	32.042
764.78	37.061
765.10	31.085
765.41	33.590
765.72	28.836
766.03	34.746
766.34	31.975
766.65	30.314
766.96	31.474
767.27	32.719
767.58	31.343
767.89	37.981
768.20	30.516
768.51	32.870
768.82	32.129
769.13	35.985
769.44	27.308
769.75	33.574
770.06	34.615
770.37	35.039
770.68	31.064
770.99	27.126
771.30	38.889
771.61	34.601
771.92	30.370
772.23	34.413
772.54	29.630
772.85	41.014
773.16	37.143
773.47	35.979
773.78	31.351
774.09	36.364
774.39	43.500
774.70	33.880
775.01	28.659
775.32	31.765
775.63	37.423
775.94	31.847
776.25	39.355
776.56	37.179
776.87	45.578
777.18	33.793
777.48	32.168
777.79	33.784
778.10	35.294
778.41	40.972
778.72	38.621
779.03	34.568
779.34	33.939
779.65	34.197
779.95	37.222
780.26	32.955
780.57	33.548
780.88	46.377
781.19	42.581
781.50	38.824
781.80	32.796
782.11	32.804
782.42	30.808
782.73	28.144
783.04	30.168
783.34	27.273
783.65	33.333
783.96	34.161
784.27	30.952
784.57	37.086
784.88	35.000
785.19	37.795
785.50	37.008
785.81	33.083
786.11	36.154
786.42	23.022
786.73	30.216
787.04	43.609
787.34	29.508
787.65	39.200
787.96	38.806
788.26	44.755
788.57	43.357
788.88	38.158
789.19	35.948
789.49	36.986
789.80	28.369
790.11	33.858
790.41	37.500
790.72	33.051
791.03	26.214
791.33	32.174
791.64	45.614
791.95	30.357
792.25	28.571
792.56	34.821
792.87	34.375
793.17	30.357
793.48	23.958
793.79	27.711
794.09	42.202
794.40	38.532
794.70	32.653
795.01	31.169
795.32	32.877
795.62	30.282
795.93	37.879
796.23	40.984
796.54	36.607
796.85	38.298
797.15	26.087
797.46	39.726
797.76	37.500
798.07	23.913
798.37	24.742
798.68	38.961
798.99	43.678
799.29	31.461
799.60	37.234
799.90	37.349
800.21	55.385
800.51	41.791
800.82	29.412
801.12	23.288
801.43	35.294
801.73	52.542
802.04	45.455
802.34	40.000
802.65	44.068
802.95	16.418
803.26	49.153
803.56	46.575
803.87	48.571
804.17	30.137
804.48	21.053
804.78	29.167
805.09	53.448
805.39	39.189
805.70	26.761
806.00	30.488
806.30	24.096
806.61	39.726
806.91	37.500
807.22	28.889
807.52	32.184
807.83	52.778
808.13	44.578
808.43	39.326
808.74	33.750
809.04	23.529
809.35	46.667
809.65	35.714
809.95	42.466
810.26	38.596
810.56	31.034
810.86	35.294
811.17	31.579
811.47	36.066
811.77	33.333
812.08	32.203
812.38	50.000
812.69	31.034
812.99	37.736
813.29	30.769
813.59	52.000
813.90	49.123
814.20	56.364
814.50	52.113
814.81	39.744
815.11	59.016
815.41	34.328
815.72	39.655
816.02	35.714
816.32	48.889
816.62	40.909
816.93	46.667
817.23	35.185
817.53	17.021
817.84	45.238
818.14	52.941
818.44	53.061
818.74	37.778
819.04	12.821
819.35	37.143
819.65	34.615
819.95	28.302
820.25	51.111
820.56	9.524
820.86	53.125
821.16	12.821
821.46	25.581
821.76	18.000
822.07	25.000
822.37	36.957
822.67	38.298
822.97	21.622
823.27	50.000
823.57	28.571
823.88	60.000
824.18	45.000
824.48	80.000
824.78	32.000
825.08	60.606
825.38	57.778
825.69	48.936
825.99	44.444
826.29	2.857
826.59	35.897
826.89	11.628
827.19	54.000
827.49	29.412
827.79	33.333
828.09	45.946
828.39	20.000
828.70	34.146
829.00	16.279
829.30	25.000
829.60	32.353
829.90	41.304
830.20	25.714
830.50	44.828
830.80	61.111
831.10	46.154
831.40	23.529
831.70	95.238
832.00	67.742
832.30	-23.529
832.60	37.500
832.90	30.769
833.20	89.474
833.50	70.000
833.80	68.421
834.10	0.000
834.40	44.444
834.70	59.375
835.00	14.286
835.30	73.529
835.60	60.000
835.90	72.000
836.20	45.455
836.50	48.000
836.80	3.030
837.10	33.333
837.40	77.778
837.70	-12.500
838.00	57.143
838.30	34.783
838.60	34.483
838.90	28.571
839.19	-21.739
839.49	58.333
839.79	95.652
840.09	18.750
840.39	75.000
840.69	58.065
840.99	35.714
841.29	26.667
841.59	31.579
841.88	58.974
842.18	57.692
842.48	120.000
842.78	35.000
843.08	63.333
843.38	51.613
843.68	11.111
843.97	70.588
844.27	81.250
844.57	36.842
844.87	70.000
845.17	80.000
845.47	61.905
845.76	-4.762
846.06	88.889
846.36	-5.882
846.66	69.231
846.96	6.667
847.25	35.294
847.55	39.130
847.85	55.000
848.15	52.941
848.44	81.818
848.74	57.143
849.04	50.000
849.34	50.000
849.63	39.130
849.93	100.000
850.23	46.667
850.53	61.538
850.82	63.636
851.12	63.636
851.42	18.182
851.71	146.154
852.01	20.000
852.31	30.769
852.61	68.421
852.90	141.667
853.20	44.444
853.50	0.000
853.79	14.286
854.09	-27.273
854.39	16.667
854.68	64.516
854.98	34.615
855.28	72.222
855.57	10.714
855.87	76.000
856.17	4.545
856.46	59.259
856.76	22.222
857.05	4.348
857.35	20.833
857.65	53.846
857.94	52.381
858.24	37.037
858.53	91.304
858.83	47.059
859.13	94.118
859.42	47.059
859.72	35.714
860.01	35.000
860.31	0.000
860.60	40.000
860.90	60.000
861.20	50.000
861.49	84.615
861.79	36.667
862.08	46.154
862.38	59.375
862.67	76.471
862.97	31.250
863.26	44.444
863.56	130.000
863.85	9.091
864.15	66.667
864.44	400.000
864.74	71.429
865.03	56.250
865.33	-30.000
865.62	9.677
865.92	90.909
866.21	73.913
866.51	64.286
866.80	-80.000
867.10	100.000
867.39	41.667
867.69	500.000
867.98	157.143
868.27	58.824
868.57	-600.000
868.86	-10.000
869.16	61.905
869.45	58.333
869.75	127.273
870.04	42.857
870.33	75.000
870.63	28.571
870.92	150.000
871.22	-87.500
871.51	45.455
871.80	-133.333
872.10	250.000
>>>>>End Processed Spectral Data<<<<<
