SpectraSuite Data File
++++++++++++++++++++++++++++++++++++
Date: Thu May 14 14:59:48 PDT 2015
User: schluterlab
Dark Spectrum Present: Yes
Reference Spectrum Present: Yes
Number of Sampled Component Spectra: 1
Spectrometers: USB2E3373
Integration Time (usec): 3000 (USB2E3373)
Spectra Averaged: 3 (USB2E3373)
Boxcar Smoothing: 0 (USB2E3373)
Correct for Electrical Dark: No (USB2E3373)
Strobe/Lamp Enabled: No (USB2E3373)
Correct for Detector Non-linearity: No (USB2E3373)
Correct for Stray Light: No (USB2E3373)
Number of Pixels in Processed Spectrum: 2048
>>>>>Begin Processed Spectral Data<<<<<
178.53	0.000
178.91	414.286
179.29	-3400.000
179.67	-2400.000
180.04	228.571
180.42	220.000
180.80	460.000
181.18	-2900.000
181.56	-1700.000
181.94	625.000
182.31	-575.000
182.69	866.667
183.07	-1200.000
183.45	400.000
183.83	-416.667
184.20	-966.667
184.58	1900.000
184.96	-650.000
185.34	-244.444
185.72	-220.000
186.09	322.222
186.47	1350.000
186.85	640.000
187.23	-277.778
187.61	-3300.000
187.98	560.000
188.36	850.000
188.74	-450.000
189.12	-566.667
189.49	-56.250
189.87	-275.000
190.25	-200.000
190.63	-480.000
191.00	-355.556
191.38	0.000
191.76	-475.000
192.14	-550.000
192.51	650.000
192.89	-266.667
193.27	0.000
193.65	-228.571
194.02	-2800.000
194.40	-357.143
194.78	300.000
195.15	0.000
195.53	-227.273
195.91	0.000
196.29	-500.000
196.66	-192.308
197.04	-2900.000
197.42	-485.714
197.79	-800.000
198.17	-225.000
198.55	-342.857
198.92	-144.444
199.30	-275.000
199.68	-81.818
200.05	-107.143
200.43	-1100.000
200.81	442.857
201.18	0.000
201.56	355.556
201.94	0.000
202.31	633.333
202.69	-266.667
203.07	2200.000
203.44	-222.222
203.82	-475.000
204.19	-191.667
204.57	-550.000
204.95	-350.000
205.32	-1200.000
205.70	700.000
206.08	-250.000
206.45	-133.333
206.83	540.000
207.20	-400.000
207.58	-620.000
207.96	-450.000
208.33	-233.333
208.71	258.333
209.08	-216.667
209.46	0.000
209.84	383.333
210.21	550.000
210.59	1100.000
210.96	933.333
211.34	-475.000
211.71	-262.500
212.09	-2100.000
212.46	0.000
212.84	1400.000
213.22	-440.000
213.59	-550.000
213.97	-190.000
214.34	-700.000
214.72	433.333
215.09	-750.000
215.47	0.000
215.84	385.714
216.22	1100.000
216.59	-460.000
216.97	-300.000
217.34	-450.000
217.72	-162.500
218.09	-625.000
218.47	-775.000
218.84	0.000
219.22	440.000
219.59	-105.882
219.97	-90.000
220.34	1300.000
220.72	-355.556
221.09	-115.385
221.47	-800.000
221.84	-230.000
222.22	-257.143
222.59	0.000
222.97	-312.500
223.34	-560.000
223.72	-2300.000
224.09	-725.000
224.46	-425.000
224.84	-260.000
225.21	-257.143
225.59	-500.000
225.96	-675.000
226.34	-73.077
226.71	416.667
227.08	-850.000
227.46	-66.667
227.83	-350.000
228.21	-89.474
228.58	375.000
228.95	1050.000
229.33	-158.333
229.70	-190.000
230.08	-42.105
230.45	210.000
230.82	-700.000
231.20	-135.714
231.57	-175.000
231.95	-200.000
232.32	-181.818
232.69	-115.000
233.07	-825.000
233.44	-135.294
233.81	-240.000
234.19	-83.333
234.56	-86.364
234.93	-44.828
235.31	-110.526
235.68	-116.667
236.05	-115.000
236.43	-46.154
236.80	-20.000
237.17	-92.593
237.55	-54.545
237.92	-260.000
238.29	-45.161
238.67	-27.273
239.04	-50.000
239.41	-47.619
239.79	-28.261
240.16	-18.519
240.53	-45.652
240.91	-56.863
241.28	-24.590
241.65	-17.910
242.02	-16.216
242.40	-24.615
242.77	-20.000
243.14	-12.195
243.51	-36.842
243.89	-32.051
244.26	-6.931
244.63	-1.961
245.00	-5.607
245.38	-9.649
245.75	-17.699
246.12	-7.143
246.49	-6.977
246.87	-3.571
247.24	-5.298
247.61	0.000
247.98	-8.725
248.36	-10.494
248.73	-7.975
249.10	-6.557
249.47	2.985
249.84	-3.141
250.22	-6.736
250.59	-1.111
250.96	3.182
251.33	-5.612
251.70	-1.282
252.08	-0.833
252.45	1.230
252.82	0.413
253.19	-1.172
253.56	0.000
253.94	-3.077
254.31	0.000
254.68	5.245
255.05	3.257
255.42	-1.701
255.79	-1.618
256.16	0.000
256.54	0.000
256.91	2.951
257.28	6.230
257.65	-1.592
258.02	1.475
258.39	1.994
258.76	4.281
259.14	4.598
259.51	1.729
259.88	2.266
260.25	1.944
260.62	3.836
260.99	6.011
261.36	4.558
261.73	3.979
262.10	1.923
262.47	2.949
262.85	4.798
263.22	1.558
263.59	1.316
263.96	4.604
264.33	-0.512
264.70	2.963
265.07	3.103
265.44	6.576
265.81	3.241
266.18	5.896
266.55	4.241
266.92	4.328
267.29	5.252
267.66	5.543
268.03	5.459
268.40	5.846
268.77	1.367
269.14	2.643
269.51	4.386
269.88	6.148
270.25	4.024
270.62	6.962
270.99	7.677
271.36	3.762
271.73	3.733
272.10	6.814
272.47	2.806
272.84	5.221
273.21	4.609
273.58	5.847
273.95	3.846
274.32	4.183
274.69	2.901
275.06	5.128
275.43	4.251
275.80	5.644
276.17	2.778
276.54	6.343
276.91	5.903
277.28	4.159
277.65	3.950
278.02	5.882
278.39	4.167
278.76	4.745
279.13	3.191
279.50	4.639
279.87	6.261
280.23	4.401
280.60	4.915
280.97	4.605
281.34	5.263
281.71	6.937
282.08	3.987
282.45	3.601
282.82	3.454
283.19	5.008
283.56	5.738
283.92	7.357
284.29	6.793
284.66	4.433
285.03	1.442
285.40	6.646
285.77	3.406
286.14	7.786
286.51	4.414
286.87	5.371
287.24	5.422
287.61	4.634
287.98	4.230
288.35	5.325
288.72	4.438
289.08	6.296
289.45	4.142
289.82	3.614
290.19	5.891
290.56	5.211
290.93	5.991
291.29	4.821
291.66	3.444
292.03	4.342
292.40	6.531
292.77	5.256
293.13	4.465
293.50	3.811
293.87	4.698
294.24	5.333
294.60	5.057
294.97	3.356
295.34	5.634
295.71	4.414
296.08	4.134
296.44	5.637
296.81	4.385
297.18	4.483
297.55	3.656
297.91	4.626
298.28	4.858
298.65	4.162
299.02	3.660
299.38	5.492
299.75	6.075
300.12	2.894
300.48	4.608
300.85	3.600
301.22	5.034
301.59	3.881
301.95	4.181
302.32	6.111
302.69	4.053
303.05	4.135
303.42	4.545
303.79	3.958
304.15	3.785
304.52	3.805
304.89	5.026
305.25	4.555
305.62	4.807
305.99	4.124
306.35	4.435
306.72	5.688
307.09	3.452
307.45	4.141
307.82	4.844
308.19	3.935
308.55	5.786
308.92	4.382
309.29	5.747
309.65	4.191
310.02	3.960
310.38	4.724
310.75	4.563
311.12	6.328
311.48	3.715
311.85	4.274
312.22	3.985
312.58	4.413
312.95	5.067
313.31	5.059
313.68	5.861
314.05	6.143
314.41	6.284
314.78	5.995
315.14	6.715
315.51	6.648
315.87	5.941
316.24	5.297
316.61	6.750
316.97	6.335
317.34	5.026
317.70	6.638
318.07	6.349
318.43	7.228
318.80	8.110
319.16	8.412
319.53	6.855
319.89	6.135
320.26	8.986
320.62	8.245
320.99	8.680
321.35	8.780
321.72	8.651
322.08	9.017
322.45	9.033
322.81	9.838
323.18	9.823
323.54	10.000
323.91	9.253
324.27	10.327
324.64	11.755
325.00	11.443
325.37	11.876
325.73	12.149
326.10	12.652
326.46	11.971
326.83	13.531
327.19	12.441
327.56	13.281
327.92	13.297
328.29	12.984
328.65	13.233
329.01	14.890
329.38	14.827
329.74	14.897
330.11	15.839
330.47	14.912
330.84	15.245
331.20	15.917
331.56	15.251
331.93	15.816
332.29	15.763
332.66	16.196
333.02	15.997
333.38	16.695
333.75	16.077
334.11	17.264
334.48	17.244
334.84	18.607
335.20	17.464
335.57	17.538
335.93	18.099
336.29	16.639
336.66	17.914
337.02	17.308
337.38	17.857
337.75	18.099
338.11	16.989
338.47	18.197
338.84	16.667
339.20	17.018
339.56	17.628
339.93	17.077
340.29	17.955
340.65	17.680
341.02	19.473
341.38	18.189
341.74	18.160
342.11	18.021
342.47	17.951
342.83	18.921
343.20	17.907
343.56	18.364
343.92	19.616
344.28	17.187
344.65	19.535
345.01	18.565
345.37	19.207
345.73	17.693
346.10	19.579
346.46	18.750
346.82	20.075
347.19	19.022
347.55	18.285
347.91	19.094
348.27	18.361
348.63	19.573
349.00	18.717
349.36	18.959
349.72	18.155
350.08	19.242
350.45	19.087
350.81	19.155
351.17	19.624
351.53	20.015
351.89	20.046
352.26	19.254
352.62	20.000
352.98	18.931
353.34	18.969
353.70	19.800
354.07	19.449
354.43	19.210
354.79	19.970
355.15	20.235
355.51	20.175
355.87	19.372
356.24	19.772
356.60	19.734
356.96	20.979
357.32	20.595
357.68	20.059
358.04	20.584
358.40	19.851
358.77	20.395
359.13	20.606
359.49	19.777
359.85	20.740
360.21	21.234
360.57	20.029
360.93	20.240
361.29	20.421
361.66	20.999
362.02	21.503
362.38	21.504
362.74	21.578
363.10	21.871
363.46	21.122
363.82	21.804
364.18	21.182
364.54	20.747
364.90	22.341
365.26	21.862
365.62	21.933
365.98	20.899
366.35	22.483
366.71	22.585
367.07	23.139
367.43	22.062
367.79	21.898
368.15	22.207
368.51	22.801
368.87	23.253
369.23	23.667
369.59	22.814
369.95	21.704
370.31	24.105
370.67	22.971
371.03	22.992
371.39	22.565
371.75	23.246
372.11	23.442
372.47	24.848
372.83	23.887
373.19	23.816
373.55	23.103
373.91	23.790
374.27	24.515
374.63	25.372
374.99	24.536
375.35	24.545
375.71	24.645
376.07	25.307
376.42	25.693
376.78	26.227
377.14	25.951
377.50	26.376
377.86	25.800
378.22	26.108
378.58	26.932
378.94	26.819
379.30	26.772
379.66	27.043
380.02	27.813
380.38	28.168
380.74	27.718
381.09	28.804
381.45	28.182
381.81	29.040
382.17	29.157
382.53	28.713
382.89	29.458
383.25	29.660
383.61	29.398
383.97	29.918
384.32	31.100
384.68	30.684
385.04	31.116
385.40	31.644
385.76	32.122
386.12	31.358
386.48	31.529
386.83	31.406
387.19	31.228
387.55	31.514
387.91	32.420
388.27	32.910
388.62	32.245
388.98	32.318
389.34	34.119
389.70	33.934
390.06	34.103
390.42	33.976
390.77	34.136
391.13	33.744
391.49	34.058
391.85	34.485
392.20	34.875
392.56	33.609
392.92	35.333
393.28	35.655
393.64	35.084
393.99	37.130
394.35	37.091
394.71	37.186
395.07	35.509
395.42	35.979
395.78	36.746
396.14	36.482
396.50	36.580
396.85	35.540
397.21	35.858
397.57	36.514
397.92	36.942
398.28	36.502
398.64	35.584
399.00	37.068
399.35	36.649
399.71	36.087
400.07	37.507
400.42	37.951
400.78	38.657
401.14	37.507
401.49	37.408
401.85	37.442
402.21	37.775
402.57	38.439
402.92	38.121
403.28	37.061
403.63	38.604
403.99	36.401
404.35	38.431
404.70	36.714
405.06	37.609
405.42	37.412
405.77	37.786
406.13	37.925
406.49	39.189
406.84	37.618
407.20	38.066
407.55	36.826
407.91	39.032
408.27	37.868
408.62	38.220
408.98	38.189
409.34	37.009
409.69	38.319
410.05	38.863
410.40	38.225
410.76	38.138
411.11	38.340
411.47	39.619
411.83	39.389
412.18	39.458
412.54	37.759
412.89	39.290
413.25	39.616
413.60	39.460
413.96	37.995
414.31	38.130
414.67	38.342
415.03	37.477
415.38	39.029
415.74	37.996
416.09	37.754
416.45	36.944
416.80	38.005
417.16	38.761
417.51	37.920
417.87	38.381
418.22	38.802
418.58	37.856
418.93	37.660
419.29	38.533
419.64	38.836
420.00	38.813
420.35	37.675
420.71	37.967
421.06	39.850
421.42	38.532
421.77	37.372
422.12	38.002
422.48	38.761
422.83	39.814
423.19	40.000
423.54	40.155
423.90	38.653
424.25	38.720
424.61	38.002
424.96	38.715
425.31	39.809
425.67	38.379
426.02	39.624
426.38	38.691
426.73	39.397
427.09	40.081
427.44	39.487
427.79	39.303
428.15	38.813
428.50	38.371
428.85	38.519
429.21	39.628
429.56	39.980
429.92	39.165
430.27	39.518
430.62	39.961
430.98	39.302
431.33	39.443
431.68	38.793
432.04	39.868
432.39	39.796
432.74	39.212
433.10	39.805
433.45	38.796
433.80	39.485
434.16	39.050
434.51	39.723
434.86	40.717
435.22	40.170
435.57	40.212
435.92	39.399
436.28	39.420
436.63	40.961
436.98	39.828
437.34	40.981
437.69	39.956
438.04	38.921
438.39	40.092
438.75	39.679
439.10	41.015
439.45	40.525
439.81	39.379
440.16	39.303
440.51	40.245
440.86	40.189
441.22	38.960
441.57	39.727
441.92	39.719
442.27	40.758
442.63	39.642
442.98	40.608
443.33	40.558
443.68	39.445
444.03	40.405
444.39	40.222
444.74	40.735
445.09	40.294
445.44	41.043
445.79	40.852
446.15	40.185
446.50	40.775
446.85	41.051
447.20	40.135
447.55	40.900
447.91	40.262
448.26	40.486
448.61	40.383
448.96	42.275
449.31	39.873
449.66	39.924
450.02	40.401
450.37	40.863
450.72	40.581
451.07	40.376
451.42	41.363
451.77	40.634
452.12	41.648
452.47	40.642
452.83	41.160
453.18	41.214
453.53	40.724
453.88	40.364
454.23	40.621
454.58	40.221
454.93	39.806
455.28	41.481
455.63	40.193
455.98	40.223
456.34	39.517
456.69	40.976
457.04	41.608
457.39	40.798
457.74	41.667
458.09	40.692
458.44	40.517
458.79	40.588
459.14	40.220
459.49	41.483
459.84	40.399
460.19	39.700
460.54	41.170
460.89	41.609
461.24	41.322
461.59	41.339
461.94	39.703
462.29	41.545
462.64	40.435
462.99	40.615
463.34	41.207
463.69	39.390
464.04	40.523
464.39	40.303
464.74	39.453
465.09	39.043
465.44	40.236
465.79	40.825
466.14	40.698
466.49	40.632
466.84	42.590
467.19	40.347
467.54	39.542
467.89	39.253
468.24	40.997
468.59	39.780
468.94	40.443
469.29	39.952
469.64	40.559
469.99	39.516
470.34	41.337
470.68	41.285
471.03	40.341
471.38	40.746
471.73	40.767
472.08	39.023
472.43	38.892
472.78	40.050
473.13	40.139
473.48	41.329
473.83	40.395
474.17	39.332
474.52	40.469
474.87	39.867
475.22	40.732
475.57	39.200
475.92	41.165
476.27	40.362
476.61	39.979
476.96	40.980
477.31	41.040
477.66	40.399
478.01	39.654
478.36	39.681
478.70	41.182
479.05	40.951
479.40	41.510
479.75	40.586
480.10	41.023
480.45	40.839
480.79	40.181
481.14	40.303
481.49	41.254
481.84	40.818
482.19	40.688
482.53	41.758
482.88	40.895
483.23	41.307
483.58	39.956
483.92	40.337
484.27	39.839
484.62	39.810
484.97	40.163
485.31	39.599
485.66	37.348
486.01	38.837
486.36	40.793
486.70	42.967
487.05	43.899
487.40	42.489
487.75	41.552
488.09	40.603
488.44	40.074
488.79	40.675
489.13	39.464
489.48	39.495
489.83	40.121
490.17	39.530
490.52	39.778
490.87	40.821
491.22	40.858
491.56	40.614
491.91	39.948
492.26	40.502
492.60	40.840
492.95	40.763
493.30	40.520
493.64	40.823
493.99	40.439
494.34	40.244
494.68	40.728
495.03	41.189
495.37	41.323
495.72	41.497
496.07	39.571
496.41	40.069
496.76	41.493
497.11	40.892
497.45	41.303
497.80	40.915
498.14	40.816
498.49	40.671
498.84	40.356
499.18	41.161
499.53	40.987
499.87	41.187
500.22	39.581
500.56	40.081
500.91	41.373
501.26	41.364
501.60	40.875
501.95	41.815
502.29	40.851
502.64	42.020
502.98	40.466
503.33	40.994
503.67	40.427
504.02	40.893
504.36	41.644
504.71	41.158
505.06	40.928
505.40	40.814
505.75	40.392
506.09	40.700
506.44	41.783
506.78	41.743
507.13	40.802
507.47	41.734
507.82	41.619
508.16	41.539
508.51	40.694
508.85	42.230
509.19	41.307
509.54	41.547
509.88	41.865
510.23	42.448
510.57	42.049
510.92	42.284
511.26	40.356
511.61	41.526
511.95	41.288
512.30	41.753
512.64	40.880
512.98	41.521
513.33	41.331
513.67	41.611
514.02	41.492
514.36	41.586
514.70	41.823
515.05	42.596
515.39	42.520
515.74	43.319
516.08	40.835
516.42	42.543
516.77	41.746
517.11	41.362
517.46	41.622
517.80	42.758
518.14	43.036
518.49	42.516
518.83	41.724
519.17	41.303
519.52	42.086
519.86	42.450
520.20	42.652
520.55	42.059
520.89	42.342
521.23	42.323
521.58	42.429
521.92	42.720
522.26	42.383
522.61	43.519
522.95	42.907
523.29	41.897
523.64	43.386
523.98	42.727
524.32	44.355
524.66	42.402
525.01	42.016
525.35	41.872
525.69	42.111
526.04	41.160
526.38	42.874
526.72	42.445
527.06	42.815
527.41	41.808
527.75	42.755
528.09	42.975
528.43	43.339
528.78	42.486
529.12	43.693
529.46	42.777
529.80	44.165
530.15	43.246
530.49	43.179
530.83	43.034
531.17	44.086
531.51	43.321
531.86	42.969
532.20	43.354
532.54	42.609
532.88	43.091
533.22	42.958
533.57	43.624
533.91	43.434
534.25	43.019
534.59	43.391
534.93	43.237
535.27	43.211
535.62	43.604
535.96	43.812
536.30	43.537
536.64	43.243
536.98	43.604
537.32	44.259
537.66	44.230
538.01	42.175
538.35	43.057
538.69	43.630
539.03	43.409
539.37	42.933
539.71	42.402
540.05	43.765
540.39	43.093
540.73	42.502
541.07	43.777
541.42	42.764
541.76	43.179
542.10	43.245
542.44	42.205
542.78	43.735
543.12	44.458
543.46	42.918
543.80	42.926
544.14	43.447
544.48	44.149
544.82	44.165
545.16	43.709
545.50	43.439
545.84	43.356
546.18	44.012
546.52	44.268
546.86	43.396
547.20	43.639
547.54	43.134
547.88	43.038
548.22	43.684
548.56	43.534
548.90	45.015
549.24	44.742
549.58	42.902
549.92	43.240
550.26	44.142
550.60	43.586
550.94	43.338
551.28	43.102
551.62	44.003
551.96	42.848
552.30	45.252
552.64	44.119
552.98	43.169
553.32	44.437
553.66	43.859
554.00	43.632
554.34	44.273
554.68	43.964
555.02	44.152
555.36	44.379
555.69	43.626
556.03	43.317
556.37	44.368
556.71	45.149
557.05	44.153
557.39	43.597
557.73	44.584
558.07	43.576
558.41	44.585
558.75	44.692
559.08	44.607
559.42	43.553
559.76	43.826
560.10	43.537
560.44	43.931
560.78	44.125
561.12	45.074
561.45	44.221
561.79	44.444
562.13	45.903
562.47	43.650
562.81	43.987
563.15	44.381
563.48	45.805
563.82	45.284
564.16	45.064
564.50	43.802
564.84	44.307
565.17	44.353
565.51	43.843
565.85	45.903
566.19	44.297
566.52	44.646
566.86	44.992
567.20	43.556
567.54	44.344
567.88	44.648
568.21	45.208
568.55	44.988
568.89	44.757
569.23	44.782
569.56	45.682
569.90	44.833
570.24	45.261
570.57	45.446
570.91	45.346
571.25	44.750
571.59	45.255
571.92	45.096
572.26	44.362
572.60	44.854
572.93	44.615
573.27	44.788
573.61	44.653
573.95	45.059
574.28	44.219
574.62	45.475
574.96	44.486
575.29	44.349
575.63	44.144
575.97	44.599
576.30	43.523
576.64	44.548
576.98	44.556
577.31	45.116
577.65	45.646
577.98	44.804
578.32	45.008
578.66	45.138
578.99	44.993
579.33	44.398
579.67	43.994
580.00	44.549
580.34	44.284
580.67	44.395
581.01	44.245
581.35	44.750
581.68	45.058
582.02	45.847
582.35	46.202
582.69	46.100
583.02	45.786
583.36	45.718
583.70	45.035
584.03	44.684
584.37	44.631
584.70	43.961
585.04	44.315
585.37	44.631
585.71	44.876
586.04	45.134
586.38	45.775
586.72	44.924
587.05	45.536
587.39	45.151
587.72	45.909
588.06	45.793
588.39	45.432
588.73	45.053
589.06	44.836
589.40	46.220
589.73	45.533
590.07	45.225
590.40	45.335
590.73	45.281
591.07	45.607
591.40	44.829
591.74	44.277
592.07	45.432
592.41	44.519
592.74	44.622
593.08	45.892
593.41	46.340
593.75	45.920
594.08	46.350
594.41	46.346
594.75	44.603
595.08	45.929
595.42	45.909
595.75	46.174
596.09	46.391
596.42	46.327
596.75	45.851
597.09	45.697
597.42	45.928
597.75	45.590
598.09	45.714
598.42	45.879
598.76	44.746
599.09	45.568
599.42	45.424
599.76	44.965
600.09	45.512
600.42	45.646
600.76	45.740
601.09	45.470
601.42	45.108
601.76	45.276
602.09	45.068
602.42	45.547
602.76	45.351
603.09	46.219
603.42	46.712
603.76	45.983
604.09	46.167
604.42	46.422
604.76	45.358
605.09	46.111
605.42	45.694
605.75	46.000
606.09	45.502
606.42	45.275
606.75	45.690
607.09	44.969
607.42	45.626
607.75	45.721
608.08	45.699
608.42	45.828
608.75	46.600
609.08	45.416
609.41	45.390
609.75	45.670
610.08	46.218
610.41	45.624
610.74	45.546
611.07	46.314
611.41	46.771
611.74	45.497
612.07	47.125
612.40	45.960
612.73	46.406
613.07	45.819
613.40	46.054
613.73	45.787
614.06	45.927
614.39	45.335
614.72	44.978
615.06	45.236
615.39	45.916
615.72	45.877
616.05	45.653
616.38	46.569
616.71	46.134
617.05	46.592
617.38	45.586
617.71	45.464
618.04	47.167
618.37	47.268
618.70	46.719
619.03	45.818
619.36	45.746
619.69	46.381
620.03	46.077
620.36	46.196
620.69	46.206
621.02	46.588
621.35	47.460
621.68	46.927
622.01	47.117
622.34	46.444
622.67	46.460
623.00	44.197
623.33	47.379
623.66	46.887
623.99	46.807
624.32	48.018
624.65	45.495
624.99	48.244
625.32	47.877
625.65	46.392
625.98	45.085
626.31	46.563
626.64	46.960
626.97	47.112
627.30	46.317
627.63	46.662
627.96	47.973
628.29	46.537
628.62	46.012
628.95	47.239
629.28	46.389
629.61	46.128
629.94	47.531
630.26	46.949
630.59	46.200
630.92	46.494
631.25	47.764
631.58	47.363
631.91	48.172
632.24	47.646
632.57	47.059
632.90	46.239
633.23	46.837
633.56	47.041
633.89	45.764
634.22	46.881
634.55	47.912
634.88	45.563
635.20	46.825
635.53	49.831
635.86	47.021
636.19	47.508
636.52	47.468
636.85	46.578
637.18	45.738
637.51	46.989
637.83	48.173
638.16	47.350
638.49	46.714
638.82	46.336
639.15	46.964
639.48	47.460
639.81	46.767
640.13	46.408
640.46	47.030
640.79	46.691
641.12	45.342
641.45	45.922
641.77	50.449
642.10	45.801
642.43	47.207
642.76	46.612
643.09	46.575
643.41	46.779
643.74	48.138
644.07	48.276
644.40	47.525
644.73	46.734
645.05	46.990
645.38	48.058
645.71	46.188
646.04	46.198
646.36	46.277
646.69	46.933
647.02	49.694
647.35	47.786
647.67	46.860
648.00	48.726
648.33	49.099
648.66	48.645
648.98	46.122
649.31	47.361
649.64	47.809
649.96	47.480
650.29	45.480
650.62	45.403
650.94	48.498
651.27	46.257
651.60	43.860
651.92	46.353
652.25	45.441
652.58	46.905
652.90	47.820
653.23	46.901
653.56	47.504
653.88	49.298
654.21	45.775
654.54	45.231
654.86	47.025
655.19	45.420
655.52	48.204
655.84	49.261
656.17	57.681
656.49	80.307
656.82	86.494
657.15	66.984
657.47	49.970
657.80	36.650
658.13	28.055
658.45	35.946
658.78	42.626
659.10	40.492
659.43	39.048
659.75	38.711
660.08	36.807
660.41	38.296
660.73	40.707
661.06	41.116
661.38	44.338
661.71	44.655
662.03	45.503
662.36	45.438
662.68	45.966
663.01	46.903
663.33	46.503
663.66	46.337
663.98	45.192
664.31	46.529
664.63	43.545
664.96	46.461
665.28	42.468
665.61	44.406
665.93	45.000
666.26	47.491
666.58	44.096
666.91	45.421
667.23	44.000
667.56	46.154
667.88	47.800
668.21	43.555
668.53	41.699
668.86	45.776
669.18	45.010
669.50	45.726
669.83	43.600
670.15	43.504
670.48	46.825
670.80	42.447
671.13	43.856
671.45	43.504
671.77	49.718
672.10	44.333
672.42	45.631
672.75	44.700
673.07	43.881
673.39	44.992
673.72	47.483
674.04	46.034
674.37	44.723
674.69	45.503
675.01	44.762
675.34	41.794
675.66	43.633
675.98	44.963
676.31	44.922
676.63	47.148
676.95	48.084
677.28	42.944
677.60	43.307
677.92	45.873
678.25	45.887
678.57	45.374
678.89	46.416
679.22	44.599
679.54	41.368
679.86	42.373
680.18	44.776
680.51	44.969
680.83	42.717
681.15	44.828
681.48	45.941
681.80	44.905
682.12	45.804
682.44	43.072
682.77	42.376
683.09	42.992
683.41	43.798
683.73	43.833
684.06	40.959
684.38	42.218
684.70	44.165
685.02	44.923
685.34	42.596
685.67	44.637
685.99	41.411
686.31	40.698
686.63	44.708
686.96	42.114
687.28	43.160
687.60	42.761
687.92	42.122
688.24	44.240
688.56	38.276
688.89	42.650
689.21	45.597
689.53	43.529
689.85	42.998
690.17	42.222
690.49	42.032
690.82	44.356
691.14	41.700
691.46	43.786
691.78	46.409
692.10	43.119
692.42	42.321
692.74	40.835
693.06	37.778
693.39	42.884
693.71	42.857
694.03	43.123
694.35	39.238
694.67	40.246
694.99	41.489
695.31	42.384
695.63	41.775
695.95	42.236
696.27	38.462
696.59	41.372
696.91	41.667
697.23	41.319
697.56	42.159
697.88	42.614
698.20	43.503
698.52	42.992
698.84	44.491
699.16	42.857
699.48	41.841
699.80	38.511
700.12	42.140
700.44	40.323
700.76	41.330
701.08	42.857
701.40	40.933
701.72	41.791
702.04	41.176
702.36	39.529
702.68	40.098
703.00	39.364
703.32	43.596
703.64	42.543
703.96	40.811
704.28	39.558
704.60	39.241
704.91	39.796
705.23	41.918
705.55	40.390
705.87	43.333
706.19	39.264
706.51	39.458
706.83	35.447
707.15	40.741
707.47	41.121
707.79	41.703
708.11	39.407
708.43	38.280
708.74	38.393
709.06	39.907
709.38	41.080
709.70	40.447
710.02	38.243
710.34	42.021
710.66	39.106
710.98	40.710
711.29	40.385
711.61	37.006
711.93	41.880
712.25	41.081
712.57	40.118
712.89	42.647
713.20	42.308
713.52	39.595
713.84	39.833
714.16	37.895
714.48	36.598
714.80	43.377
715.11	36.745
715.43	38.462
715.75	40.263
716.07	38.674
716.39	36.339
716.70	40.060
717.02	39.344
717.34	39.373
717.66	33.557
717.97	35.959
718.29	37.457
718.61	39.803
718.93	38.511
719.24	36.025
719.56	36.810
719.88	36.937
720.20	40.645
720.51	38.509
720.83	33.750
721.15	36.842
721.46	39.384
721.78	37.000
722.10	35.275
722.42	33.221
722.73	37.742
723.05	33.333
723.37	36.458
723.68	33.692
724.00	37.184
724.32	32.394
724.63	32.168
724.95	39.362
725.27	33.449
725.58	32.155
725.90	38.276
726.22	34.169
726.53	36.688
726.85	37.421
727.16	37.764
727.48	35.474
727.80	36.093
728.11	31.802
728.43	38.047
728.74	37.124
729.06	38.411
729.38	36.688
729.69	39.933
730.01	33.333
730.32	30.303
730.64	36.164
730.96	36.957
731.27	37.151
731.59	34.890
731.90	35.065
732.22	35.417
732.53	33.702
732.85	34.571
733.16	34.311
733.48	37.195
733.80	33.983
734.11	37.037
734.43	36.486
734.74	37.722
735.06	35.930
735.37	36.486
735.69	36.216
736.00	38.983
736.32	33.423
736.63	38.889
736.95	33.621
737.26	36.667
737.58	37.879
737.89	36.765
738.21	31.498
738.52	36.066
738.83	34.130
739.15	33.333
739.46	39.456
739.78	34.969
740.09	30.946
740.41	32.362
740.72	33.667
741.04	35.275
741.35	33.684
741.66	30.980
741.98	37.705
742.29	33.473
742.61	36.404
742.92	36.154
743.23	32.852
743.55	36.434
743.86	33.600
744.18	30.165
744.49	23.629
744.80	34.156
745.12	33.755
745.43	32.520
745.74	30.172
746.06	30.085
746.37	39.241
746.68	39.024
747.00	31.667
747.31	32.189
747.62	30.769
747.94	37.247
748.25	32.129
748.56	35.102
748.88	30.342
749.19	40.086
749.50	34.632
749.82	36.948
750.13	40.569
750.44	33.000
750.75	36.000
751.07	34.462
751.38	34.069
751.69	32.268
752.01	33.333
752.32	35.948
752.63	35.714
752.94	32.526
753.26	28.996
753.57	29.259
753.88	32.959
754.19	33.119
754.51	33.762
754.82	31.833
755.13	34.754
755.44	36.177
755.75	35.526
756.07	36.716
756.38	31.447
756.69	37.952
757.00	29.640
757.31	33.607
757.63	30.946
757.94	33.803
758.25	33.860
758.56	33.551
758.87	31.591
759.18	28.000
759.50	40.510
759.81	32.493
760.12	32.884
760.43	34.375
760.74	33.251
761.05	32.500
761.36	33.735
761.67	30.711
761.99	33.514
762.30	28.049
762.61	26.403
762.92	30.970
763.23	31.461
763.54	33.453
763.85	28.179
764.16	32.323
764.47	33.803
764.78	34.824
765.10	31.965
765.41	34.615
765.72	31.217
766.03	31.356
766.34	30.408
766.65	24.739
766.96	28.287
767.27	30.415
767.58	29.851
767.89	35.577
768.20	25.822
768.51	28.704
768.82	32.129
769.13	30.682
769.44	25.000
769.75	31.408
770.06	27.692
770.37	32.283
770.68	26.809
770.99	21.862
771.30	29.259
771.61	26.236
771.92	28.148
772.23	36.437
772.54	26.852
772.85	29.954
773.16	27.143
773.47	27.513
773.78	25.405
774.09	26.705
774.39	34.000
774.70	28.415
775.01	24.390
775.32	15.882
775.63	24.540
775.94	19.108
776.25	18.710
776.56	30.128
776.87	30.612
777.18	27.586
777.48	19.580
777.79	20.270
778.10	16.176
778.41	21.528
778.72	25.517
779.03	26.543
779.34	24.848
779.65	26.943
779.95	31.111
780.26	23.864
780.57	20.645
780.88	36.957
781.19	29.032
781.50	31.765
781.80	25.269
782.11	24.868
782.42	21.212
782.73	26.946
783.04	27.933
783.34	19.394
783.65	26.797
783.96	21.739
784.27	16.667
784.57	21.192
784.88	22.857
785.19	20.472
785.50	18.898
785.81	25.564
786.11	28.462
786.42	15.827
786.73	22.302
787.04	18.045
787.34	23.770
787.65	18.400
787.96	22.388
788.26	26.573
788.57	23.776
788.88	16.447
789.19	28.758
789.49	18.493
789.80	17.021
790.11	23.622
790.41	22.656
790.72	9.322
791.03	-4.854
791.33	13.913
791.64	17.544
791.95	16.964
792.25	15.238
792.56	8.929
792.87	10.417
793.17	18.750
793.48	12.500
793.79	6.024
794.09	17.431
794.40	27.523
794.70	23.129
795.01	15.584
795.32	19.178
795.62	20.423
795.93	20.455
796.23	15.574
796.54	3.571
796.85	14.894
797.15	10.870
797.46	19.178
797.76	3.750
798.07	9.783
798.37	1.031
798.68	1.299
798.99	14.943
799.29	7.865
799.60	13.830
799.90	6.024
800.21	-3.077
800.51	5.970
800.82	2.941
801.12	-9.589
801.43	-10.294
801.73	0.000
802.04	-3.030
802.34	0.000
802.65	-3.390
802.95	7.463
803.26	-3.390
803.56	-1.370
803.87	0.000
804.17	17.808
804.48	-28.070
804.78	-5.556
805.09	-17.241
805.39	8.108
805.70	-14.085
806.00	13.415
806.30	-1.205
806.61	1.370
806.91	15.385
807.22	7.778
807.52	1.149
807.83	8.333
808.13	14.458
808.43	3.371
808.74	1.250
809.04	7.353
809.35	14.667
809.65	5.714
809.95	0.000
810.26	-10.526
810.56	-8.621
810.86	-4.412
811.17	5.263
811.47	1.639
811.77	-28.889
812.08	3.390
812.38	-1.667
812.69	6.897
812.99	-16.981
813.29	-38.462
813.59	-6.000
813.90	1.754
814.20	-7.273
814.50	15.493
814.81	12.821
815.11	6.557
815.41	0.000
815.72	0.000
816.02	-3.571
816.32	-11.111
816.62	-13.636
816.93	-24.444
817.23	-1.852
817.53	-2.128
817.84	-9.524
818.14	-29.412
818.44	-26.531
818.74	-33.333
819.04	-38.462
819.35	-17.143
819.65	-76.923
819.95	-16.981
820.25	-26.667
820.56	-30.952
820.86	-53.125
821.16	-25.641
821.46	-30.233
821.76	-34.000
822.07	-7.143
822.37	-6.522
822.67	-12.766
822.97	-37.838
823.27	-15.000
823.57	-10.204
823.88	-13.333
824.18	-27.500
824.48	-63.333
824.78	-84.000
825.08	-33.333
825.38	4.444
825.69	-12.766
825.99	-2.778
826.29	-51.429
826.59	-43.590
826.89	-27.907
827.19	-14.000
827.49	-32.353
827.79	-4.167
828.09	-62.162
828.39	-56.667
828.70	-41.463
829.00	-25.581
829.30	-75.000
829.60	2.941
829.90	-2.174
830.20	-45.714
830.50	-51.724
830.80	-116.667
831.10	-69.231
831.40	-67.647
831.70	-71.429
832.00	-3.226
832.30	-141.176
832.60	-87.500
832.90	-200.000
833.20	-78.947
833.50	-60.000
833.80	-73.684
834.10	-147.619
834.40	-19.444
834.70	6.250
835.00	-42.857
835.30	-5.882
835.60	-50.000
835.90	-76.000
836.20	-86.364
836.50	-48.000
836.80	-69.697
837.10	-74.074
837.40	-37.037
837.70	-187.500
838.00	-46.429
838.30	-69.565
838.60	-41.379
838.90	-100.000
839.19	-121.739
839.49	-166.667
839.79	-78.261
840.09	-181.250
840.39	-30.000
840.69	-29.032
840.99	-57.143
841.29	-166.667
841.59	-105.263
841.88	-23.077
842.18	-26.923
842.48	-150.000
842.78	-125.000
843.08	-40.000
843.38	-25.806
843.68	-111.111
843.97	-38.235
844.27	-93.750
844.57	-73.684
844.87	-200.000
845.17	-113.333
845.47	-42.857
845.76	-71.429
846.06	-211.111
846.36	-147.059
846.66	-57.692
846.96	-100.000
847.25	-105.882
847.55	-82.609
847.85	-65.000
848.15	-117.647
848.44	-190.909
848.74	-95.238
849.04	-58.333
849.34	-81.250
849.63	-60.870
849.93	1500.000
850.23	-100.000
850.53	-69.231
850.82	-172.727
851.12	-95.455
851.42	-154.545
851.71	-115.385
852.01	-145.000
852.31	-161.538
852.61	-89.474
852.90	-141.667
853.20	-105.556
853.50	-311.111
853.79	-114.286
854.09	-81.818
854.39	-208.333
854.68	-58.065
854.98	-76.923
855.28	-88.889
855.57	-71.429
855.87	-52.000
856.17	-59.091
856.46	-40.741
856.76	-100.000
857.05	-60.870
857.35	-95.833
857.65	-207.692
857.94	-114.286
858.24	-22.222
858.53	-34.783
858.83	-94.118
859.13	-117.647
859.42	-111.765
859.72	-100.000
860.01	-65.000
860.31	-266.667
860.60	-140.000
860.90	-133.333
861.20	-94.444
861.49	-207.692
861.79	-43.333
862.08	-138.462
862.38	-53.125
862.67	-88.235
862.97	-143.750
863.26	-244.444
863.56	-190.000
863.85	-172.727
864.15	-61.111
864.44	-533.333
864.74	-157.143
865.03	-112.500
865.33	-230.000
865.62	-70.968
865.92	-81.818
866.21	-56.522
866.51	-64.286
866.80	-560.000
867.10	-208.333
867.39	-183.333
867.69	3400.000
867.98	-242.857
868.27	-111.765
868.57	-3300.000
868.86	-310.000
869.16	-109.524
869.45	-70.833
869.75	-181.818
870.04	-257.143
870.33	-91.667
870.63	-385.714
870.92	-400.000
871.22	-337.500
871.51	-227.273
871.80	-866.667
872.10	-900.000
>>>>>End Processed Spectral Data<<<<<
