SpectraSuite Data File
++++++++++++++++++++++++++++++++++++
Date: Thu May 14 14:46:57 PDT 2015
User: schluterlab
Dark Spectrum Present: Yes
Reference Spectrum Present: Yes
Number of Sampled Component Spectra: 1
Spectrometers: USB2E3373
Integration Time (usec): 3000 (USB2E3373)
Spectra Averaged: 3 (USB2E3373)
Boxcar Smoothing: 0 (USB2E3373)
Correct for Electrical Dark: No (USB2E3373)
Strobe/Lamp Enabled: No (USB2E3373)
Correct for Detector Non-linearity: No (USB2E3373)
Correct for Stray Light: No (USB2E3373)
Number of Pixels in Processed Spectrum: 2048
>>>>>Begin Processed Spectral Data<<<<<
178.53	0.000
178.91	28.571
179.29	-900.000
179.67	-700.000
180.04	164.286
180.42	70.000
180.80	80.000
181.18	-600.000
181.56	0.000
181.94	75.000
182.31	-150.000
182.69	233.333
183.07	350.000
183.45	250.000
183.83	-33.333
184.20	233.333
184.58	200.000
184.96	-375.000
185.34	-11.111
185.72	40.000
186.09	222.222
186.47	200.000
186.85	200.000
187.23	-77.778
187.61	-1400.000
187.98	-120.000
188.36	100.000
188.74	-150.000
189.12	66.667
189.49	0.000
189.87	-150.000
190.25	11.111
190.63	120.000
191.00	-77.778
191.38	0.000
191.76	150.000
192.14	66.667
192.51	250.000
192.89	250.000
193.27	0.000
193.65	142.857
194.02	-900.000
194.40	14.286
194.78	214.286
195.15	0.000
195.53	27.273
195.91	0.000
196.29	50.000
196.66	-7.692
197.04	-200.000
197.42	28.571
197.79	0.000
198.17	25.000
198.55	-128.571
198.92	0.000
199.30	-62.500
199.68	45.455
200.05	78.571
200.43	300.000
200.81	114.286
201.18	0.000
201.56	111.111
201.94	0.000
202.31	500.000
202.69	-100.000
203.07	-400.000
203.44	11.111
203.82	-50.000
204.19	33.333
204.57	100.000
204.95	50.000
205.32	-500.000
205.70	-50.000
206.08	-100.000
206.45	83.333
206.83	200.000
207.20	-50.000
207.58	-80.000
207.96	0.000
208.33	133.333
208.71	33.333
209.08	50.000
209.46	0.000
209.84	166.667
210.21	400.000
210.59	250.000
210.96	-0.000
211.34	0.000
211.71	-37.500
212.09	-1000.000
212.46	0.000
212.84	900.000
213.22	-160.000
213.59	125.000
213.97	70.000
214.34	66.667
214.72	183.333
215.09	150.000
215.47	0.000
215.84	-42.857
216.22	550.000
216.59	-60.000
216.97	-240.000
217.34	150.000
217.72	50.000
218.09	-200.000
218.47	-250.000
218.84	0.000
219.22	140.000
219.59	-29.412
219.97	15.000
220.34	700.000
220.72	-100.000
221.09	53.846
221.47	-166.667
221.84	20.000
222.22	-57.143
222.59	0.000
222.97	50.000
223.34	-180.000
223.72	-300.000
224.09	-125.000
224.46	-75.000
224.84	160.000
225.21	-114.286
225.59	-150.000
225.96	-150.000
226.34	7.692
226.71	166.667
227.08	-100.000
227.46	40.000
227.83	50.000
228.21	63.158
228.58	175.000
228.95	450.000
229.33	33.333
229.70	-10.000
230.08	78.947
230.45	40.000
230.82	-100.000
231.20	7.143
231.57	75.000
231.95	36.364
232.32	63.636
232.69	65.000
233.07	0.000
233.44	17.647
233.81	-80.000
234.19	22.222
234.56	-18.182
234.93	58.621
235.31	26.316
235.68	-5.556
236.05	25.000
236.43	61.538
236.80	68.000
237.17	11.111
237.55	51.515
237.92	150.000
238.29	35.484
238.67	52.273
239.04	33.333
239.41	28.571
239.79	43.478
240.16	38.889
240.53	26.087
240.91	5.882
241.28	31.148
241.65	49.254
242.02	50.000
242.40	33.846
242.77	34.667
243.14	45.122
243.51	28.947
243.89	33.333
244.26	51.485
244.63	33.333
245.00	40.187
245.38	28.947
245.75	28.319
246.12	38.095
246.49	29.457
246.87	40.714
247.24	33.113
247.61	44.079
247.98	43.624
248.36	35.802
248.73	35.583
249.10	31.148
249.47	45.274
249.84	43.455
250.22	31.088
250.59	42.778
250.96	33.636
251.33	39.286
251.70	37.607
252.08	37.083
252.45	38.115
252.82	36.364
253.19	32.422
253.56	39.924
253.94	38.077
254.31	37.879
254.68	41.259
255.05	35.831
255.42	33.673
255.79	33.657
256.16	40.728
256.54	33.775
256.91	36.721
257.28	36.721
257.65	38.217
258.02	36.873
258.39	37.892
258.76	39.755
259.14	38.506
259.51	35.159
259.88	34.561
260.25	36.111
260.62	37.808
260.99	41.530
261.36	35.925
261.73	34.748
262.10	37.637
262.47	40.483
262.85	39.899
263.22	36.104
263.59	35.000
263.96	37.084
264.33	38.619
264.70	37.531
265.07	39.379
265.44	36.961
265.81	36.806
266.18	36.961
266.55	37.054
266.92	36.902
267.29	37.856
267.66	36.585
268.03	38.646
268.40	35.699
268.77	38.269
269.14	37.665
269.51	36.842
269.88	40.779
270.25	37.223
270.62	38.186
270.99	40.202
271.36	37.426
271.73	37.132
272.10	38.677
272.47	37.876
272.84	35.341
273.21	38.076
273.58	37.702
273.95	33.654
274.32	37.262
274.69	36.557
275.06	35.531
275.43	34.750
275.80	35.979
276.17	33.333
276.54	34.701
276.91	33.810
277.28	35.624
277.65	36.984
278.02	37.500
278.39	35.145
278.76	35.325
279.13	36.525
279.50	33.505
279.87	33.631
280.23	33.979
280.60	37.797
280.97	35.197
281.34	35.993
281.71	36.041
282.08	33.887
282.45	34.697
282.82	32.967
283.19	34.895
283.56	33.934
283.92	34.835
284.29	34.913
284.66	35.796
285.03	30.609
285.40	34.776
285.77	33.127
286.14	34.656
286.51	34.247
286.87	33.175
287.24	33.584
287.61	33.034
287.98	33.233
288.35	32.988
288.72	33.728
289.08	32.943
289.45	32.101
289.82	31.928
290.19	31.897
290.56	30.423
290.93	31.241
291.29	31.818
291.66	30.579
292.03	29.172
292.40	31.565
292.77	28.437
293.13	30.447
293.50	27.858
293.87	28.322
294.24	29.333
294.60	30.088
294.97	28.993
295.34	29.449
295.71	27.238
296.08	28.682
296.44	26.838
296.81	29.233
297.18	28.394
297.55	27.476
297.91	25.267
298.28	25.118
298.65	28.894
299.02	27.863
299.38	26.430
299.75	27.804
300.12	25.926
300.48	26.843
300.85	25.647
301.22	26.957
301.59	26.598
301.95	26.554
302.32	27.333
302.69	26.616
303.05	25.245
303.42	24.834
303.79	26.146
304.15	25.342
304.52	24.947
304.89	27.016
305.25	24.431
305.62	25.078
305.99	25.052
306.35	24.899
306.72	25.440
307.09	23.959
307.45	25.673
307.82	25.429
308.19	24.218
308.55	25.458
308.92	25.511
309.29	23.946
309.65	24.366
310.02	24.851
310.38	23.819
310.75	23.786
311.12	25.791
311.48	24.731
311.85	23.077
312.22	24.383
312.58	23.099
312.95	25.048
313.31	25.113
313.68	26.007
314.05	25.203
314.41	24.317
314.78	24.069
315.14	24.138
315.51	25.023
315.87	24.302
316.24	24.292
316.61	24.600
316.97	23.439
317.34	24.956
317.70	24.716
318.07	23.280
318.43	25.170
318.80	24.916
319.16	23.519
319.53	22.965
319.89	24.277
320.26	23.221
320.62	22.252
320.99	22.992
321.35	23.845
321.72	24.651
322.08	24.166
322.45	24.119
322.81	24.729
323.18	23.894
323.54	24.052
323.91	24.466
324.27	23.236
324.64	23.258
325.00	22.637
325.37	24.079
325.73	23.719
326.10	24.169
326.46	23.941
326.83	23.859
327.19	22.913
327.56	23.320
327.92	21.873
328.29	23.387
328.65	23.032
329.01	23.435
329.38	23.505
329.74	24.743
330.11	23.801
330.47	22.072
330.84	23.600
331.20	23.500
331.56	22.964
331.93	24.017
332.29	22.881
332.66	23.754
333.02	22.864
333.38	21.812
333.75	22.306
334.11	22.936
334.48	22.112
334.84	23.110
335.20	22.082
335.57	23.862
335.93	23.554
336.29	22.213
336.66	22.456
337.02	21.656
337.38	23.214
337.75	22.562
338.11	22.456
338.47	22.746
338.84	23.012
339.20	21.230
339.56	22.158
339.93	21.429
340.29	22.061
340.65	21.979
341.02	22.666
341.38	22.555
341.74	23.245
342.11	22.446
342.47	22.478
342.83	22.947
343.20	23.467
343.56	22.614
343.92	23.299
344.28	22.422
344.65	22.016
345.01	21.997
345.37	22.706
345.73	21.590
346.10	20.905
346.46	21.282
346.82	22.622
347.19	21.849
347.55	22.231
347.91	22.214
348.27	21.244
348.63	22.391
349.00	21.402
349.36	21.413
349.72	21.949
350.08	22.808
350.45	21.673
350.81	21.267
351.17	21.504
351.53	22.972
351.89	21.716
352.26	21.567
352.62	21.642
352.98	20.687
353.34	20.762
353.70	21.572
354.07	21.386
354.43	19.970
354.79	21.990
355.15	22.884
355.51	21.418
355.87	19.820
356.24	22.357
356.60	20.177
356.96	21.349
357.32	20.520
357.68	20.791
358.04	21.108
358.40	20.149
358.77	21.053
359.13	20.384
359.49	20.818
359.85	20.160
360.21	21.521
360.57	21.321
360.93	20.663
361.29	21.053
361.66	22.375
362.02	21.434
362.38	21.574
362.74	20.810
363.10	20.633
363.46	20.499
363.82	21.449
364.18	20.619
364.54	21.231
364.90	22.007
365.26	20.690
365.62	20.133
365.98	21.239
366.35	20.067
366.71	20.272
367.07	20.568
367.43	20.026
367.79	21.898
368.15	21.405
368.51	20.704
368.87	21.163
369.23	20.267
369.59	20.014
369.95	20.622
370.31	21.472
370.67	20.289
371.03	20.222
371.39	19.946
371.75	20.289
372.11	20.732
372.47	20.311
372.83	20.353
373.19	20.680
373.55	20.732
373.91	19.564
374.27	20.310
374.63	20.365
374.99	20.093
375.35	19.870
375.71	20.000
376.07	21.046
376.42	20.340
376.78	21.131
377.14	20.087
377.50	20.430
377.86	20.751
378.22	20.479
378.58	20.452
378.94	21.068
379.30	20.562
379.66	20.282
380.02	21.062
380.38	21.025
380.74	20.620
381.09	20.383
381.45	20.625
381.81	20.843
382.17	21.140
382.53	20.292
382.89	20.316
383.25	20.633
383.61	20.428
383.97	20.554
384.32	20.933
384.68	19.838
385.04	20.937
385.40	21.273
385.76	21.278
386.12	19.988
386.48	20.118
386.83	21.216
387.19	20.162
387.55	20.129
387.91	20.263
388.27	20.381
388.62	20.332
388.98	19.346
389.34	21.273
389.70	20.337
390.06	19.716
390.42	20.422
390.77	20.590
391.13	20.423
391.49	20.894
391.85	20.727
392.20	20.225
392.56	21.087
392.92	20.065
393.28	21.448
393.64	21.229
393.99	20.046
394.35	20.911
394.71	20.479
395.07	20.060
395.42	19.989
395.78	21.146
396.14	20.440
396.50	20.843
396.85	20.513
397.21	19.882
397.57	19.847
397.92	20.905
398.28	20.369
398.64	20.652
399.00	19.791
399.35	19.581
399.71	20.217
400.07	20.719
400.42	19.965
400.78	20.660
401.14	20.319
401.49	21.262
401.85	21.105
402.21	20.220
402.57	21.303
402.92	21.217
403.28	19.848
403.63	19.749
403.99	20.665
404.35	20.694
404.70	20.113
405.06	20.217
405.42	20.609
405.77	20.229
406.13	20.259
406.49	21.059
406.84	20.554
407.20	19.788
407.55	20.170
407.91	19.673
408.27	20.318
408.62	20.710
408.98	20.313
409.34	19.707
409.69	20.272
410.05	20.750
410.40	20.998
410.76	20.135
411.11	21.449
411.47	20.516
411.83	20.282
412.18	21.024
412.54	20.154
412.89	20.256
413.25	20.542
413.60	19.931
413.96	20.163
414.31	20.340
414.67	20.632
415.03	20.185
415.38	19.672
415.74	20.037
416.09	20.173
416.45	19.724
416.80	20.135
417.16	19.540
417.51	20.112
417.87	20.417
418.22	19.701
418.58	20.508
418.93	20.722
419.29	20.160
419.64	18.727
420.00	20.059
420.35	20.775
420.71	20.333
421.06	19.436
421.42	19.954
421.77	19.817
422.12	19.345
422.48	19.304
422.83	20.811
423.19	20.212
423.54	20.022
423.90	19.713
424.25	20.320
424.61	19.116
424.96	20.538
425.31	20.329
425.67	19.646
426.02	19.978
426.38	19.920
426.73	19.922
427.09	20.012
427.44	19.443
427.79	19.127
428.15	19.235
428.50	19.438
428.85	19.518
429.21	19.628
429.56	18.954
429.92	19.902
430.27	19.663
430.62	19.883
430.98	19.675
431.33	19.355
431.68	19.349
432.04	19.553
432.39	20.246
432.74	19.121
433.10	19.470
433.45	18.841
433.80	20.172
434.16	19.680
434.51	19.784
434.86	19.761
435.22	19.766
435.57	19.104
435.92	20.033
436.28	19.738
436.63	20.098
436.98	19.431
437.34	19.955
437.69	19.373
438.04	19.302
438.39	19.529
438.75	19.369
439.10	20.137
439.45	19.620
439.81	19.153
440.16	18.606
440.51	18.339
440.86	18.621
441.22	19.561
441.57	19.497
441.92	19.738
442.27	19.343
442.63	19.424
442.98	20.438
443.33	20.042
443.68	19.772
444.03	20.320
444.39	19.279
444.74	19.296
445.09	19.716
445.44	19.916
445.79	19.540
446.15	20.195
446.50	20.000
446.85	20.088
447.20	19.874
447.55	19.665
447.91	19.215
448.26	19.345
448.61	19.554
448.96	19.582
449.31	18.929
449.66	19.553
450.02	19.251
450.37	19.393
450.72	19.483
451.07	18.907
451.42	19.931
451.77	19.288
452.12	19.300
452.47	18.954
452.83	19.651
453.18	19.556
453.53	19.242
453.88	18.995
454.23	19.774
454.58	19.095
454.93	19.478
455.28	19.988
455.63	19.727
455.98	19.274
456.34	18.846
456.69	18.930
457.04	19.504
457.39	19.346
457.74	19.519
458.09	18.616
458.44	19.720
458.79	18.876
459.14	19.035
459.49	19.751
459.84	19.780
460.19	18.101
460.54	19.534
460.89	18.793
461.24	18.621
461.59	19.812
461.94	17.912
462.29	18.253
462.64	18.648
462.99	18.456
463.34	19.273
463.69	18.757
464.04	19.344
464.39	19.226
464.74	18.757
465.09	18.800
465.44	19.528
465.79	19.461
466.14	18.343
466.49	19.526
466.84	19.669
467.19	19.480
467.54	18.566
467.89	18.966
468.24	19.114
468.59	17.719
468.94	19.347
469.29	18.776
469.64	18.754
469.99	18.483
470.34	18.626
470.68	17.977
471.03	18.795
471.38	18.247
471.73	18.596
472.08	18.464
472.43	18.182
472.78	19.773
473.13	17.952
473.48	20.000
473.83	19.733
474.17	18.054
474.52	18.701
474.87	19.048
475.22	19.042
475.57	18.795
475.92	19.363
476.27	18.690
476.61	19.263
476.96	18.352
477.31	18.812
477.66	19.203
478.01	18.912
478.36	18.445
478.70	18.424
479.05	18.916
479.40	18.411
479.75	18.684
480.10	18.427
480.45	18.961
480.79	18.367
481.14	17.877
481.49	17.901
481.84	18.625
482.19	18.710
482.53	19.152
482.88	19.140
483.23	18.186
483.58	18.210
483.92	18.262
484.27	18.247
484.62	18.647
484.97	18.701
485.31	18.374
485.66	18.174
486.01	18.652
486.36	18.858
486.70	20.279
487.05	20.444
487.40	19.480
487.75	19.669
488.09	19.132
488.44	18.434
488.79	18.887
489.13	18.284
489.48	17.592
489.83	17.706
490.17	18.064
490.52	18.186
490.87	17.809
491.22	17.938
491.56	17.790
491.91	18.055
492.26	18.347
492.60	17.403
492.95	18.824
493.30	17.884
493.64	17.784
493.99	17.719
494.34	18.293
494.68	17.687
495.03	18.018
495.37	17.710
495.72	18.186
496.07	17.967
496.41	17.503
496.76	18.015
497.11	17.792
497.45	18.170
497.80	18.836
498.14	17.778
498.49	18.107
498.84	18.419
499.18	17.994
499.53	18.789
499.87	18.593
500.22	17.453
500.56	17.994
500.91	17.666
501.26	18.318
501.60	18.073
501.95	18.194
502.29	18.254
502.64	18.321
502.98	18.723
503.33	17.365
503.67	18.142
504.02	18.126
504.36	17.918
504.71	17.960
505.06	17.644
505.40	18.464
505.75	18.124
506.09	18.324
506.44	18.988
506.78	18.211
507.13	18.488
507.47	17.954
507.82	17.803
508.16	18.595
508.51	17.581
508.85	18.753
509.19	18.001
509.54	17.915
509.88	17.824
510.23	18.067
510.57	18.270
510.92	18.142
511.26	17.508
511.61	17.624
511.95	17.960
512.30	18.710
512.64	17.691
512.98	17.759
513.33	18.347
513.67	18.052
514.02	18.191
514.36	17.187
514.70	19.010
515.05	18.196
515.39	18.163
515.74	18.346
516.08	17.697
516.42	18.995
516.77	18.139
517.11	17.947
517.46	17.869
517.80	19.241
518.14	18.879
518.49	17.733
518.83	17.935
519.17	17.717
519.52	17.872
519.86	17.793
520.20	18.903
520.55	18.127
520.89	18.750
521.23	18.537
521.58	18.588
521.92	17.734
522.26	17.812
522.61	17.477
522.95	17.416
523.29	17.471
523.64	17.377
523.98	17.741
524.32	18.510
524.66	17.985
525.01	17.157
525.35	16.944
525.69	17.111
526.04	17.509
526.38	17.356
526.72	17.647
527.06	17.771
527.41	18.367
527.75	18.587
528.09	17.946
528.43	17.703
528.78	18.208
529.12	17.661
529.46	17.538
529.80	18.535
530.15	18.899
530.49	18.031
530.83	17.946
531.17	18.041
531.51	17.990
531.86	18.089
532.20	18.232
532.54	17.594
532.88	17.818
533.22	17.384
533.57	17.888
533.91	18.631
534.25	18.259
534.59	18.851
534.93	18.676
535.27	17.183
535.62	19.102
535.96	18.129
536.30	18.743
536.64	18.378
536.98	18.081
537.32	18.086
537.66	18.902
538.01	17.885
538.35	17.905
538.69	17.428
539.03	17.658
539.37	17.786
539.71	18.318
540.05	18.945
540.39	18.765
540.73	17.972
541.07	18.087
541.42	17.543
541.76	17.912
542.10	18.758
542.44	17.844
542.78	18.431
543.12	17.580
543.46	18.926
543.80	17.266
544.14	17.654
544.48	18.381
544.82	18.312
545.16	18.366
545.50	18.993
545.84	18.004
546.18	19.012
546.52	17.898
546.86	18.994
547.20	17.684
547.54	17.478
547.88	17.842
548.22	18.070
548.56	18.198
548.90	18.090
549.24	17.021
549.58	18.486
549.92	18.304
550.26	18.188
550.60	18.571
550.94	18.305
551.28	17.822
551.62	17.925
551.96	18.641
552.30	19.057
552.64	17.984
552.98	17.904
553.32	18.650
553.66	18.842
554.00	18.348
554.34	18.147
554.68	17.172
555.02	18.857
555.36	18.343
555.69	17.553
556.03	18.159
556.37	18.773
556.71	18.960
557.05	18.466
557.39	18.978
557.73	18.032
558.07	17.682
558.41	17.807
558.75	17.850
559.08	19.485
559.42	17.421
559.76	18.860
560.10	18.151
560.44	18.140
560.78	18.750
561.12	18.165
561.45	18.127
561.79	18.803
562.13	18.546
562.47	18.064
562.81	18.481
563.15	19.003
563.48	18.272
563.82	18.138
564.16	17.505
564.50	17.759
564.84	18.289
565.17	18.529
565.51	17.779
565.85	17.933
566.19	18.433
566.52	18.081
566.86	19.128
567.20	17.510
567.54	18.534
567.88	19.266
568.21	18.972
568.55	19.281
568.89	19.700
569.23	18.716
569.56	19.734
569.90	19.636
570.24	19.460
570.57	19.500
570.91	19.412
571.25	19.381
571.59	19.788
571.92	19.723
572.26	19.269
572.60	20.339
572.93	19.733
573.27	19.528
573.61	19.984
573.95	19.616
574.28	19.762
574.62	19.873
574.96	19.696
575.29	19.784
575.63	19.820
575.97	20.048
576.30	19.887
576.64	19.971
576.98	19.522
577.31	19.842
577.65	20.285
577.98	19.917
578.32	20.077
578.66	20.034
578.99	19.926
579.33	20.320
579.67	19.832
580.00	19.870
580.34	20.004
580.67	19.815
581.01	19.970
581.35	19.910
581.68	19.716
582.02	20.375
582.35	20.207
582.69	20.493
583.02	20.762
583.36	20.086
583.70	20.314
584.03	20.110
584.37	19.748
584.70	19.389
585.04	19.530
585.37	20.084
585.71	19.504
586.04	19.991
586.38	20.149
586.72	19.704
587.05	19.775
587.39	19.596
587.72	20.000
588.06	20.334
588.39	19.716
588.73	19.974
589.06	20.288
589.40	19.975
589.73	19.762
590.07	19.297
590.40	19.709
590.73	19.123
591.07	20.104
591.40	19.168
591.74	19.555
592.07	19.610
592.41	18.612
592.74	19.240
593.08	19.586
593.41	19.510
593.75	19.483
594.08	20.055
594.41	19.744
594.75	19.562
595.08	19.314
595.42	19.318
595.75	19.567
596.09	19.485
596.42	19.527
596.75	19.529
597.09	20.040
597.42	19.666
597.75	19.130
598.09	19.722
598.42	19.300
598.76	18.800
599.09	19.509
599.42	18.941
599.76	18.950
600.09	19.453
600.42	19.386
600.76	19.055
601.09	19.084
601.42	19.190
601.76	19.138
602.09	18.906
602.42	19.084
602.76	19.815
603.09	19.310
603.42	19.184
603.76	19.239
604.09	19.801
604.42	19.229
604.76	19.330
605.09	18.947
605.42	19.139
605.75	18.692
606.09	18.477
606.42	19.300
606.75	18.478
607.09	19.316
607.42	19.383
607.75	19.187
608.08	18.587
608.42	18.783
608.75	19.030
609.08	18.336
609.41	19.144
609.75	18.973
610.08	19.569
610.41	18.224
610.74	18.992
611.07	18.517
611.41	19.372
611.74	19.723
612.07	19.261
612.40	18.156
612.73	18.533
613.07	18.533
613.40	19.105
613.73	18.344
614.06	18.204
614.39	18.950
614.72	18.195
615.06	18.191
615.39	18.221
615.72	19.005
616.05	19.427
616.38	19.778
616.71	19.018
617.05	18.530
617.38	18.352
617.71	19.168
618.04	18.511
618.37	19.126
618.70	18.609
619.03	17.981
619.36	17.694
619.69	18.770
620.03	18.205
620.36	17.546
620.69	18.692
621.02	18.701
621.35	18.360
621.68	18.510
622.01	17.082
622.34	17.364
622.67	17.663
623.00	16.937
623.33	19.044
623.66	18.353
623.99	17.446
624.32	19.753
624.65	17.632
624.99	18.401
625.32	19.073
625.65	18.948
625.98	18.373
626.31	17.860
626.64	17.216
626.97	17.779
627.30	17.084
627.63	17.854
627.96	18.544
628.29	18.210
628.62	16.457
628.95	17.704
629.28	16.737
629.61	17.256
629.94	15.983
630.26	17.542
630.59	17.098
630.92	15.325
631.25	17.889
631.58	17.514
631.91	17.432
632.24	17.003
632.57	17.078
632.90	16.249
633.23	16.939
633.56	16.939
633.89	14.876
634.22	16.944
634.55	17.954
634.88	16.450
635.20	16.039
635.53	16.836
635.86	16.901
636.19	17.391
636.52	17.616
636.85	16.854
637.18	16.216
637.51	16.559
637.83	17.497
638.16	17.627
638.49	16.549
638.82	16.798
639.15	15.693
639.48	17.206
639.81	16.397
640.13	16.608
640.46	15.273
640.79	14.828
641.12	16.894
641.45	16.688
641.77	18.485
642.10	15.486
642.43	14.761
642.76	15.583
643.09	15.479
643.41	14.706
643.74	14.897
644.07	16.828
644.40	15.276
644.73	15.675
645.05	14.684
645.38	13.381
645.71	15.689
646.04	16.786
646.36	15.328
646.69	15.798
647.02	16.972
647.35	16.489
647.67	15.459
648.00	14.331
648.33	14.414
648.66	15.692
648.98	16.599
649.31	16.509
649.64	17.397
649.96	16.446
650.29	16.690
650.62	14.710
650.94	14.565
651.27	14.671
651.60	16.082
651.92	15.198
652.25	17.656
652.58	15.956
652.90	14.971
653.23	17.324
653.56	15.121
653.88	17.556
654.21	15.211
654.54	17.052
654.86	15.297
655.19	14.555
655.52	18.276
655.84	19.290
656.17	24.379
656.49	34.123
656.82	38.101
657.15	29.893
657.47	22.585
657.80	16.684
658.13	12.620
658.45	16.630
658.78	20.219
659.10	19.438
659.43	19.031
659.75	18.403
660.08	17.255
660.41	15.633
660.73	16.306
661.06	14.978
661.38	15.311
661.71	15.862
662.03	14.991
662.36	15.385
662.68	13.321
663.01	16.460
663.33	17.580
663.66	16.117
663.98	14.808
664.31	16.510
664.63	15.029
664.96	15.971
665.28	14.338
665.61	16.783
665.93	14.643
666.26	15.412
666.58	14.391
666.91	14.019
667.23	14.667
667.56	14.398
667.88	17.000
668.21	10.547
668.53	12.162
668.86	15.324
669.18	13.238
669.50	15.905
669.83	14.400
670.15	14.764
670.48	14.881
670.80	16.444
671.13	15.312
671.45	13.386
671.77	15.819
672.10	16.000
672.42	16.019
672.75	16.897
673.07	16.567
673.39	15.254
673.72	17.282
674.04	15.862
674.37	17.174
674.69	17.108
675.01	15.810
675.34	16.794
675.66	12.360
675.98	16.978
676.31	15.820
676.63	18.061
676.95	17.433
677.28	14.315
677.60	12.598
677.92	14.971
678.25	14.260
678.57	14.947
678.89	17.065
679.22	13.589
679.54	14.530
679.86	14.576
680.18	16.086
680.51	16.824
680.83	16.203
681.15	13.966
681.48	16.235
681.80	17.444
682.12	15.734
682.44	16.194
682.77	15.957
683.09	17.235
683.41	18.798
683.73	16.319
684.06	18.450
684.38	14.669
684.70	16.876
685.02	14.630
685.34	13.977
685.67	15.457
685.99	15.337
686.31	14.826
686.63	15.640
686.96	14.511
687.28	15.147
687.60	14.646
687.92	17.524
688.24	16.194
688.56	13.276
688.89	15.789
689.21	15.264
689.53	15.490
689.85	15.779
690.17	14.074
690.49	17.331
690.82	17.030
691.14	13.765
691.46	16.061
691.78	15.838
692.10	16.881
692.42	14.286
692.74	15.064
693.06	12.963
693.39	14.042
693.71	14.098
694.03	16.729
694.35	17.524
694.67	13.963
694.99	15.319
695.31	15.011
695.63	15.368
695.95	14.286
696.27	15.385
696.59	15.487
696.91	14.640
697.23	15.824
697.56	16.904
697.88	14.394
698.20	14.313
698.52	17.235
698.84	15.177
699.16	17.551
699.48	14.644
699.80	16.809
700.12	14.410
700.44	15.438
700.76	14.489
701.08	15.981
701.40	17.617
701.72	17.164
702.04	15.241
702.36	12.827
702.68	14.181
703.00	14.425
703.32	13.300
703.64	16.137
703.96	15.036
704.28	14.496
704.60	15.696
704.91	14.541
705.23	14.795
705.55	13.649
705.87	14.545
706.19	14.110
706.51	9.036
706.83	12.680
707.15	12.169
707.47	11.916
707.79	15.939
708.11	14.831
708.43	14.839
708.74	14.955
709.06	15.081
709.38	18.310
709.70	15.633
710.02	15.245
710.34	15.691
710.66	12.570
710.98	13.661
711.29	11.538
711.61	14.689
711.93	12.821
712.25	13.243
712.57	17.994
712.89	14.412
713.20	13.609
713.52	18.208
713.84	15.320
714.16	16.579
714.48	13.144
714.80	14.545
715.11	15.748
715.43	14.058
715.75	15.526
716.07	15.193
716.39	16.120
716.70	12.048
717.02	13.443
717.34	11.498
717.66	13.423
717.97	10.616
718.29	15.120
718.61	15.461
718.93	15.534
719.24	14.596
719.56	11.963
719.88	11.111
720.20	12.903
720.51	11.491
720.83	12.500
721.15	8.882
721.46	13.014
721.78	17.000
722.10	14.563
722.42	13.758
722.73	13.226
723.05	15.088
723.37	16.667
723.68	15.412
724.00	13.718
724.32	10.211
724.63	13.636
724.95	15.248
725.27	16.376
725.58	16.254
725.90	17.586
726.22	16.614
726.53	16.558
726.85	16.038
727.16	15.408
727.48	16.514
727.80	14.901
728.11	11.307
728.43	15.152
728.74	18.395
729.06	12.252
729.38	16.234
729.69	11.074
730.01	16.369
730.32	9.697
730.64	11.321
730.96	13.665
731.27	17.318
731.59	17.033
731.90	17.662
732.22	14.583
732.53	13.260
732.85	15.143
733.16	18.182
733.48	16.768
733.80	15.320
734.11	13.960
734.43	17.297
734.74	20.253
735.06	16.583
735.37	17.838
735.69	16.216
736.00	14.972
736.32	14.016
736.63	15.278
736.95	15.230
737.26	16.970
737.58	12.121
737.89	17.353
738.21	16.820
738.52	13.443
738.83	19.454
739.15	17.021
739.46	19.388
739.78	15.031
740.09	15.186
740.41	17.201
740.72	16.000
741.04	14.563
741.35	15.789
741.66	15.686
741.98	13.934
742.29	11.715
742.61	17.105
742.92	13.077
743.23	16.245
743.55	15.116
743.86	15.600
744.18	13.223
744.49	15.190
744.80	16.049
745.12	12.236
745.43	16.260
745.74	15.517
746.06	15.678
746.37	11.392
746.68	17.480
747.00	11.667
747.31	14.163
747.62	16.538
747.94	16.599
748.25	15.261
748.56	12.653
748.88	8.547
749.19	22.414
749.50	16.017
749.82	18.876
750.13	16.014
750.44	14.000
750.75	18.769
751.07	17.846
751.38	18.927
751.69	13.419
752.01	12.621
752.32	16.013
752.63	14.286
752.94	13.495
753.26	12.268
753.57	13.333
753.88	13.109
754.19	14.469
754.51	16.077
754.82	16.077
755.13	18.689
755.44	15.017
755.75	13.158
756.07	17.910
756.38	16.667
756.69	16.867
757.00	17.175
757.31	15.847
757.63	15.090
757.94	15.728
758.25	18.284
758.56	14.815
758.87	16.364
759.18	16.533
759.50	18.980
759.81	15.406
760.12	16.981
760.43	16.146
760.74	18.227
761.05	16.750
761.36	16.145
761.67	15.736
761.99	17.027
762.30	17.073
762.61	15.842
762.92	14.552
763.23	16.479
763.54	11.511
763.85	14.777
764.16	13.805
764.47	17.606
764.78	18.211
765.10	16.716
765.41	22.051
765.72	14.021
766.03	17.797
766.34	14.734
766.65	15.331
766.96	14.741
767.27	22.581
767.58	16.418
767.89	18.750
768.20	16.901
768.51	11.111
768.82	11.647
769.13	16.667
769.44	10.769
769.75	12.635
770.06	15.769
770.37	16.929
770.68	16.170
770.99	10.526
771.30	22.593
771.61	15.970
771.92	15.556
772.23	18.219
772.54	13.426
772.85	23.502
773.16	16.190
773.47	10.582
773.78	8.649
774.09	15.909
774.39	16.000
774.70	18.579
775.01	12.195
775.32	12.941
775.63	11.043
775.94	9.554
776.25	19.355
776.56	19.872
776.87	17.007
777.18	16.552
777.48	20.280
777.79	12.838
778.10	9.559
778.41	16.667
778.72	17.931
779.03	12.346
779.34	17.576
779.65	19.171
779.95	14.444
780.26	14.773
780.57	10.323
780.88	19.565
781.19	21.935
781.50	17.647
781.80	20.968
782.11	18.519
782.42	11.111
782.73	7.186
783.04	15.642
783.34	10.303
783.65	11.765
783.96	13.043
784.27	14.881
784.57	13.245
784.88	16.429
785.19	14.961
785.50	11.811
785.81	17.293
786.11	25.385
786.42	9.353
786.73	14.388
787.04	15.038
787.34	16.393
787.65	13.600
787.96	14.179
788.26	19.580
788.57	18.182
788.88	15.132
789.19	20.261
789.49	20.548
789.80	13.475
790.11	13.386
790.41	17.188
790.72	15.254
791.03	4.854
791.33	13.043
791.64	13.158
791.95	16.071
792.25	15.238
792.56	14.286
792.87	2.083
793.17	20.536
793.48	4.167
793.79	4.819
794.09	15.596
794.40	7.339
794.70	20.408
795.01	12.338
795.32	15.068
795.62	20.423
795.93	4.545
796.23	14.754
796.54	2.679
796.85	11.702
797.15	13.043
797.46	9.589
797.76	11.250
798.07	11.957
798.37	10.309
798.68	6.494
798.99	12.644
799.29	17.978
799.60	21.277
799.90	3.614
800.21	12.308
800.51	4.478
800.82	7.353
801.12	-5.479
801.43	-10.294
801.73	8.475
802.04	16.667
802.34	15.000
802.65	-3.390
802.95	14.925
803.26	25.424
803.56	19.178
803.87	15.714
804.17	13.699
804.48	-1.754
804.78	8.333
805.09	-10.345
805.39	14.865
805.70	-7.042
806.00	13.415
806.30	14.458
806.61	9.589
806.91	17.308
807.22	14.444
807.52	5.747
807.83	15.278
808.13	18.072
808.43	12.360
808.74	10.000
809.04	-10.294
809.35	18.667
809.65	24.286
809.95	13.699
810.26	-3.509
810.56	15.517
810.86	23.529
811.17	17.544
811.47	-3.279
811.77	0.000
812.08	3.390
812.38	11.667
812.69	32.759
812.99	5.660
813.29	7.692
813.59	12.000
813.90	17.544
814.20	10.909
814.50	22.535
814.81	24.359
815.11	9.836
815.41	13.433
815.72	6.897
816.02	21.429
816.32	8.889
816.62	4.545
816.93	-4.444
817.23	16.667
817.53	4.255
817.84	21.429
818.14	17.647
818.44	26.531
818.74	22.222
819.04	-10.256
819.35	-2.857
819.65	-38.462
819.95	15.094
820.25	6.667
820.56	-11.905
820.86	12.500
821.16	7.692
821.46	0.000
821.76	6.000
822.07	19.643
822.37	-2.174
822.67	23.404
822.97	-21.622
823.27	-7.500
823.57	12.245
823.88	17.778
824.18	7.500
824.48	-23.333
824.78	24.000
825.08	42.424
825.38	11.111
825.69	25.532
825.99	13.889
826.29	-28.571
826.59	15.385
826.89	0.000
827.19	10.000
827.49	35.294
827.79	12.500
828.09	-16.216
828.39	6.667
828.70	-2.439
829.00	20.930
829.30	-35.714
829.60	44.118
829.90	0.000
830.20	-5.714
830.50	-24.138
830.80	-11.111
831.10	-7.692
831.40	-23.529
831.70	-38.095
832.00	16.129
832.30	-82.353
832.60	-16.667
832.90	-38.462
833.20	-21.053
833.50	20.000
833.80	15.789
834.10	-61.905
834.40	-2.778
834.70	53.125
835.00	-22.857
835.30	17.647
835.60	6.667
835.90	12.000
836.20	-40.909
836.50	4.000
836.80	-24.242
837.10	-44.444
837.40	22.222
837.70	-50.000
838.00	3.571
838.30	0.000
838.60	-6.897
838.90	-14.286
839.19	-73.913
839.49	-116.667
839.79	-30.435
840.09	-43.750
840.39	-15.000
840.69	29.032
840.99	-17.857
841.29	0.000
841.59	26.316
841.88	7.692
842.18	-34.615
842.48	-50.000
842.78	5.000
843.08	-10.000
843.38	0.000
843.68	-72.222
843.97	20.588
844.27	37.500
844.57	-31.579
844.87	-10.000
845.17	-40.000
845.47	42.857
845.76	-4.762
846.06	-122.222
846.36	-11.765
846.66	3.846
846.96	0.000
847.25	-82.353
847.55	-4.348
847.85	10.000
848.15	-29.412
848.44	0.000
848.74	-4.762
849.04	-25.000
849.34	-18.750
849.63	13.043
849.93	650.000
850.23	-20.000
850.53	34.615
850.82	-18.182
851.12	22.727
851.42	-36.364
851.71	61.538
852.01	0.000
852.31	53.846
852.61	10.526
852.90	0.000
853.20	33.333
853.50	-111.111
853.79	-38.095
854.09	-31.818
854.39	-141.667
854.68	32.258
854.98	15.385
855.28	16.667
855.57	-21.429
855.87	32.000
856.17	9.091
856.46	14.815
856.76	0.000
857.05	-43.478
857.35	16.667
857.65	-23.077
857.94	52.381
858.24	25.926
858.53	-8.696
858.83	-41.176
859.13	-41.176
859.42	5.882
859.72	-7.143
860.01	-10.000
860.31	0.000
860.60	30.000
860.90	33.333
861.20	27.778
861.49	-30.769
861.79	10.000
862.08	-61.538
862.38	34.375
862.67	-11.765
862.97	-25.000
863.26	11.111
863.56	30.000
863.85	-9.091
864.15	11.111
864.44	-200.000
864.74	-64.286
865.03	50.000
865.33	-20.000
865.62	-12.903
865.92	27.273
866.21	26.087
866.51	7.143
866.80	-220.000
867.10	-16.667
867.39	-50.000
867.69	600.000
867.98	128.571
868.27	-5.882
868.57	-1400.000
868.86	-80.000
869.16	-9.524
869.45	50.000
869.75	-36.364
870.04	-85.714
870.33	-91.667
870.63	-171.429
870.92	0.000
871.22	-25.000
871.51	-27.273
871.80	-400.000
872.10	-350.000
>>>>>End Processed Spectral Data<<<<<
