SpectraSuite Data File
++++++++++++++++++++++++++++++++++++
Date: Thu May 14 14:56:04 PDT 2015
User: schluterlab
Dark Spectrum Present: Yes
Reference Spectrum Present: Yes
Number of Sampled Component Spectra: 1
Spectrometers: USB2E3373
Integration Time (usec): 3000 (USB2E3373)
Spectra Averaged: 3 (USB2E3373)
Boxcar Smoothing: 0 (USB2E3373)
Correct for Electrical Dark: No (USB2E3373)
Strobe/Lamp Enabled: No (USB2E3373)
Correct for Detector Non-linearity: No (USB2E3373)
Correct for Stray Light: No (USB2E3373)
Number of Pixels in Processed Spectrum: 2048
>>>>>Begin Processed Spectral Data<<<<<
178.53	0.000
178.91	357.143
179.29	-2500.000
179.67	-2800.000
180.04	250.000
180.42	220.000
180.80	600.000
181.18	-1900.000
181.56	-1200.000
181.94	500.000
182.31	-275.000
182.69	666.667
183.07	-600.000
183.45	650.000
183.83	-150.000
184.20	-333.333
184.58	1600.000
184.96	-600.000
185.34	-222.222
185.72	-340.000
186.09	277.778
186.47	550.000
186.85	640.000
187.23	-277.778
187.61	-2200.000
187.98	420.000
188.36	650.000
188.74	-625.000
189.12	-466.667
189.49	-43.750
189.87	-187.500
190.25	-100.000
190.63	-400.000
191.00	-166.667
191.38	0.000
191.76	-550.000
192.14	-233.333
192.51	1000.000
192.89	-216.667
193.27	0.000
193.65	-142.857
194.02	-2400.000
194.40	-214.286
194.78	242.857
195.15	0.000
195.53	-181.818
195.91	0.000
196.29	-425.000
196.66	-176.923
197.04	-2000.000
197.42	-257.143
197.79	-750.000
198.17	-300.000
198.55	-300.000
198.92	-255.556
199.30	-162.500
199.68	-18.182
200.05	-7.143
200.43	-1400.000
200.81	285.714
201.18	0.000
201.56	344.444
201.94	0.000
202.31	1000.000
202.69	-100.000
203.07	1300.000
203.44	-122.222
203.82	-550.000
204.19	-133.333
204.57	-400.000
204.95	-237.500
205.32	-2400.000
205.70	575.000
206.08	-283.333
206.45	-233.333
206.83	500.000
207.20	-233.333
207.58	-580.000
207.96	-116.667
208.33	-250.000
208.71	158.333
209.08	-100.000
209.46	0.000
209.84	416.667
210.21	950.000
210.59	900.000
210.96	633.333
211.34	-325.000
211.71	-200.000
212.09	-900.000
212.46	0.000
212.84	1350.000
213.22	-300.000
213.59	-200.000
213.97	-150.000
214.34	-533.333
214.72	233.333
215.09	-600.000
215.47	0.000
215.84	300.000
216.22	1200.000
216.59	-400.000
216.97	-320.000
217.34	-375.000
217.72	-137.500
218.09	-500.000
218.47	-475.000
218.84	0.000
219.22	540.000
219.59	-105.882
219.97	-50.000
220.34	1000.000
220.72	-211.111
221.09	-92.308
221.47	-1000.000
221.84	-100.000
222.22	-271.429
222.59	0.000
222.97	-137.500
223.34	-300.000
223.72	-1000.000
224.09	-650.000
224.46	-475.000
224.84	-120.000
225.21	-242.857
225.59	-500.000
225.96	-300.000
226.34	-26.923
226.71	450.000
227.08	-1050.000
227.46	-86.667
227.83	-375.000
228.21	-36.842
228.58	212.500
228.95	900.000
229.33	-41.667
229.70	-150.000
230.08	21.053
230.45	230.000
230.82	-733.333
231.20	-92.857
231.57	-125.000
231.95	-163.636
232.32	-163.636
232.69	-55.000
233.07	-425.000
233.44	-64.706
233.81	-170.000
234.19	-33.333
234.56	-4.545
234.93	-3.448
235.31	-52.632
235.68	-61.111
236.05	-40.000
236.43	0.000
236.80	0.000
237.17	-18.519
237.55	-6.061
237.92	-120.000
238.29	16.129
238.67	0.000
239.04	16.667
239.41	-4.762
239.79	0.000
240.16	3.704
240.53	8.696
240.91	0.000
241.28	6.557
241.65	25.373
242.02	20.270
242.40	10.769
242.77	10.667
243.14	7.317
243.51	15.789
243.89	15.385
244.26	14.851
244.63	19.608
245.00	16.822
245.38	22.807
245.75	17.699
246.12	27.778
246.49	26.357
246.87	25.714
247.24	20.530
247.61	23.684
247.98	20.134
248.36	25.309
248.73	22.086
249.10	20.765
249.47	30.846
249.84	34.555
250.22	25.389
250.59	26.667
250.96	28.182
251.33	29.592
251.70	26.068
252.08	27.917
252.45	30.738
252.82	31.818
253.19	30.078
253.56	30.038
253.94	30.385
254.31	34.848
254.68	34.266
255.05	34.528
255.42	32.313
255.79	29.773
256.16	33.113
256.54	30.464
256.91	32.787
257.28	32.787
257.65	30.255
258.02	30.088
258.39	31.054
258.76	33.639
259.14	38.506
259.51	30.259
259.88	35.977
260.25	32.222
260.62	34.795
260.99	33.880
261.36	36.193
261.73	33.156
262.10	36.813
262.47	32.708
262.85	35.354
263.22	32.727
263.59	28.158
263.96	31.969
264.33	36.829
264.70	36.543
265.07	36.038
265.44	33.787
265.81	31.250
266.18	33.787
266.55	33.259
266.92	34.169
267.29	35.449
267.66	33.259
268.03	33.843
268.40	35.699
268.77	32.802
269.14	31.498
269.51	35.088
269.88	32.992
270.25	34.004
270.62	34.599
270.99	36.364
271.36	33.663
271.73	33.792
272.10	33.868
272.47	33.066
272.84	33.333
273.21	34.669
273.58	33.266
273.95	32.115
274.32	30.798
274.69	33.462
275.06	31.685
275.43	29.020
275.80	31.393
276.17	31.852
276.54	32.836
276.91	31.127
277.28	35.081
277.65	32.855
278.02	32.537
278.39	33.333
278.76	31.634
279.13	34.043
279.50	32.990
279.87	33.453
280.23	30.634
280.60	32.034
280.97	31.743
281.34	31.070
281.71	34.856
282.08	31.395
282.45	31.588
282.82	31.397
283.19	33.118
283.56	31.475
283.92	33.333
284.29	33.333
284.66	30.870
285.03	31.410
285.40	30.603
285.77	32.508
286.14	32.214
286.51	31.963
286.87	29.700
287.24	31.928
287.61	32.138
287.98	29.607
288.35	31.361
288.72	33.284
289.08	33.821
289.45	28.402
289.82	29.066
290.19	29.885
290.56	31.268
290.93	31.241
291.29	28.650
291.66	28.512
292.03	28.494
292.40	31.837
292.77	28.976
293.13	27.876
293.50	30.092
293.87	29.530
294.24	29.600
294.60	27.939
294.97	27.651
295.34	30.474
295.71	28.121
296.08	28.165
296.44	27.696
296.81	27.893
297.18	27.895
297.55	28.302
297.91	28.470
298.28	25.474
298.65	26.873
299.02	25.030
299.38	27.346
299.75	26.168
300.12	27.315
300.48	27.304
300.85	26.209
301.22	27.069
301.59	25.913
301.95	27.119
302.32	27.667
302.69	26.177
303.05	27.095
303.42	24.501
303.79	26.250
304.15	26.498
304.52	27.061
304.89	27.120
305.25	25.362
305.62	25.392
305.99	25.567
306.35	26.411
306.72	26.991
307.09	25.482
307.45	26.708
307.82	26.337
308.19	24.924
308.55	25.747
308.92	25.414
309.29	26.533
309.65	25.926
310.02	27.327
310.38	26.673
310.75	27.282
311.12	26.942
311.48	25.122
311.85	25.736
312.22	24.668
312.58	25.822
312.95	25.239
313.31	26.197
313.68	26.557
314.05	27.462
314.41	27.687
314.78	26.249
315.14	26.770
315.51	25.946
315.87	25.923
316.24	28.037
316.61	26.998
316.97	26.335
317.34	26.279
317.70	27.598
318.07	25.926
318.43	25.850
318.80	26.421
319.16	26.781
319.53	25.107
319.89	25.679
320.26	26.601
320.62	25.532
320.99	26.408
321.35	25.601
321.72	26.326
322.08	25.158
322.45	26.739
322.81	26.986
323.18	25.752
323.54	27.241
323.91	26.690
324.27	25.387
324.64	27.540
325.00	25.373
325.37	27.109
325.73	26.777
326.10	26.358
326.46	27.362
326.83	26.821
327.19	27.717
327.56	26.798
327.92	26.829
328.29	25.081
328.65	25.796
329.01	26.650
329.38	28.391
329.74	27.740
330.11	27.055
330.47	27.548
330.84	27.304
331.20	28.167
331.56	26.863
331.93	28.368
332.29	27.966
332.66	27.824
333.02	27.638
333.38	26.846
333.75	26.936
334.11	27.940
334.48	26.815
334.84	28.292
335.20	27.288
335.57	27.909
335.93	27.521
336.29	26.456
336.66	26.325
337.02	28.010
337.38	26.786
337.75	27.025
338.11	27.754
338.47	27.130
338.84	27.073
339.20	26.537
339.56	27.430
339.93	26.929
340.29	26.167
340.65	27.494
341.02	26.736
341.38	26.597
341.74	26.957
342.11	27.997
342.47	28.118
342.83	26.973
343.20	27.392
343.56	27.666
343.92	27.302
344.28	27.812
344.65	27.519
345.01	26.833
345.37	28.460
345.73	28.371
346.10	28.159
346.46	27.848
346.82	27.940
347.19	27.044
347.55	27.314
347.91	26.820
348.27	27.011
348.63	28.408
349.00	26.920
349.36	27.732
349.72	27.679
350.08	28.380
350.45	27.452
350.81	27.149
351.17	27.068
351.53	28.810
351.89	28.246
352.26	26.716
352.62	27.687
352.98	27.176
353.34	26.662
353.70	27.658
354.07	27.571
354.43	27.639
354.79	27.823
355.15	28.624
355.51	28.947
355.87	27.450
356.24	28.365
356.60	27.494
356.96	29.059
357.32	28.996
357.68	28.624
358.04	28.368
358.40	27.313
358.77	28.582
359.13	28.287
359.49	27.435
359.85	28.136
360.21	28.264
360.57	28.141
360.93	28.209
361.29	28.702
361.66	29.037
362.02	28.671
362.38	28.602
362.74	28.911
363.10	28.198
363.46	29.155
363.82	28.693
364.18	28.501
364.54	29.461
364.90	29.231
365.26	29.241
365.62	29.000
365.98	29.135
366.35	29.597
366.71	28.912
367.07	29.432
367.43	28.496
367.79	30.192
368.15	30.033
368.51	29.567
368.87	29.589
369.23	30.133
369.59	30.943
369.95	29.547
370.31	30.250
370.67	30.605
371.03	29.432
371.39	29.752
371.75	30.261
372.11	29.404
372.47	29.655
372.83	30.366
373.19	30.287
373.55	29.472
373.91	29.584
374.27	29.819
374.63	30.650
374.99	29.841
375.35	30.779
375.71	29.613
376.07	30.342
376.42	31.423
376.78	31.200
377.14	31.067
377.50	31.309
377.86	30.973
378.22	31.377
378.58	32.640
378.94	30.751
379.30	30.053
379.66	30.394
380.02	30.756
380.38	31.970
380.74	31.042
381.09	31.417
381.45	31.420
381.81	31.967
382.17	31.413
382.53	31.111
382.89	31.264
383.25	32.239
383.61	31.597
383.97	31.331
384.32	32.536
384.68	31.148
385.04	31.637
385.40	32.528
385.76	32.181
386.12	31.538
386.48	32.765
386.83	33.135
387.19	31.402
387.55	31.984
387.91	31.621
388.27	32.794
388.62	31.615
388.98	31.810
389.34	32.823
389.70	32.074
390.06	32.208
390.42	31.988
390.77	32.691
391.13	31.514
391.49	31.824
391.85	32.667
392.20	32.622
392.56	31.305
392.92	32.334
393.28	32.559
393.64	31.788
393.99	33.469
394.35	32.360
394.71	32.814
395.07	31.437
395.42	31.925
395.78	33.638
396.14	32.204
396.50	31.591
396.85	32.797
397.21	32.130
397.57	32.097
397.92	32.646
398.28	32.374
398.64	31.636
399.00	32.304
399.35	31.990
399.71	30.924
400.07	32.622
400.42	32.363
400.78	33.102
401.14	32.328
401.49	32.234
401.85	32.849
402.21	31.576
402.57	32.512
402.92	31.856
403.28	32.260
403.63	32.279
403.99	32.482
404.35	31.950
404.70	31.558
405.06	31.033
405.42	31.967
405.77	31.679
406.13	32.577
406.49	32.264
406.84	31.025
407.20	32.532
407.55	31.193
407.91	31.238
408.27	31.037
408.62	31.355
408.98	31.631
409.34	30.909
409.69	31.829
410.05	32.005
410.40	31.323
410.76	31.352
411.11	31.560
411.47	31.941
411.83	32.216
412.18	31.627
412.54	32.128
412.89	31.548
413.25	31.038
413.60	32.223
413.96	31.993
414.31	31.501
414.67	30.769
415.03	32.000
415.38	31.337
415.74	31.704
416.09	31.894
416.45	31.559
416.80	31.273
417.16	31.418
417.51	31.880
417.87	32.250
418.22	32.036
418.58	30.545
418.93	31.141
419.29	32.182
419.64	31.032
420.00	31.098
420.35	31.218
420.71	31.246
421.06	30.132
421.42	30.103
421.77	30.910
422.12	31.660
422.48	31.746
422.83	32.640
423.19	32.255
423.54	31.914
423.90	32.027
424.25	32.960
424.61	31.573
424.96	31.960
425.31	32.537
425.67	31.723
426.02	33.370
426.38	32.090
426.73	31.529
427.09	33.045
427.44	31.404
427.79	31.841
428.15	32.420
428.50	33.090
428.85	32.147
429.21	32.606
429.56	32.330
429.92	32.531
430.27	32.627
430.62	32.877
430.98	32.858
431.33	31.720
431.68	33.142
432.04	33.621
432.39	33.048
432.74	32.249
433.10	32.937
433.45	32.441
433.80	32.242
434.16	32.490
434.51	33.299
434.86	33.388
435.22	33.581
435.57	33.255
435.92	32.499
436.28	33.447
436.63	33.643
436.98	32.367
437.34	32.694
437.69	32.746
438.04	33.316
438.39	32.912
438.75	32.429
439.10	33.668
439.45	32.532
439.81	32.203
440.16	33.673
440.51	32.887
440.86	32.740
441.22	33.119
441.57	33.176
441.92	32.444
442.27	33.535
442.63	33.184
442.98	33.511
443.33	33.403
443.68	33.399
444.03	34.431
444.39	33.749
444.74	33.129
445.09	32.894
445.44	32.982
445.79	34.100
446.15	33.453
446.50	33.643
446.85	33.512
447.20	33.752
447.55	33.525
447.91	33.037
448.26	33.457
448.61	34.006
448.96	33.798
449.31	32.768
449.66	33.551
450.02	33.281
450.37	32.978
450.72	33.746
451.07	33.542
451.42	32.525
451.77	32.685
452.12	33.634
452.47	33.571
452.83	33.896
453.18	33.450
453.53	33.257
453.88	32.413
454.23	32.768
454.58	33.952
454.93	33.495
455.28	33.173
455.63	32.916
455.98	33.687
456.34	33.510
456.69	33.568
457.04	32.683
457.39	33.370
457.74	34.060
458.09	33.553
458.44	32.597
458.79	32.955
459.14	32.931
459.49	33.786
459.84	33.578
460.19	33.037
460.54	33.333
460.89	34.039
461.24	31.897
461.59	33.758
461.94	32.630
462.29	33.091
462.64	34.037
462.99	34.401
463.34	34.069
463.69	32.649
464.04	34.519
464.39	33.240
464.74	33.238
465.09	33.852
465.44	34.227
465.79	32.628
466.14	32.517
466.49	33.000
466.84	33.609
467.19	33.757
467.54	32.491
467.89	32.241
468.24	34.515
468.59	32.484
468.94	32.984
469.29	33.653
469.64	31.723
469.99	33.206
470.34	33.601
470.68	34.655
471.03	34.316
471.38	33.813
471.73	33.095
472.08	34.454
472.43	33.715
472.78	33.627
473.13	33.502
473.48	33.958
473.83	33.662
474.17	32.943
474.52	34.095
474.87	34.275
475.22	33.296
475.57	32.970
475.92	33.848
476.27	33.706
476.61	34.268
476.96	33.942
477.31	34.010
477.66	34.680
478.01	33.808
478.36	33.250
478.70	33.941
479.05	34.867
479.40	33.613
479.75	34.342
480.10	35.054
480.45	33.956
480.79	34.467
481.14	34.329
481.49	34.121
481.84	34.378
482.19	34.667
482.53	34.937
482.88	34.692
483.23	34.015
483.58	33.493
483.92	33.732
484.27	33.489
484.62	33.663
484.97	34.487
485.31	33.791
485.66	31.407
486.01	31.560
486.36	32.971
486.70	35.870
487.05	37.143
487.40	36.034
487.75	35.802
488.09	35.334
488.44	35.018
488.79	34.637
489.13	33.816
489.48	33.670
489.83	33.682
490.17	34.103
490.52	33.580
490.87	32.826
491.22	33.752
491.56	34.428
491.91	33.799
492.26	34.790
492.60	33.231
492.95	35.059
493.30	34.424
493.64	34.166
493.99	33.860
494.34	33.972
494.68	34.176
495.03	33.877
495.37	34.043
495.72	34.331
496.07	34.312
496.41	33.548
496.76	33.987
497.11	33.206
497.45	34.355
497.80	34.474
498.14	34.739
498.49	33.961
498.84	34.232
499.18	34.323
499.53	34.664
499.87	34.637
500.22	33.749
500.56	34.143
500.91	34.737
501.26	35.045
501.60	33.849
501.95	34.390
502.29	34.796
502.64	33.756
502.98	33.650
503.33	34.082
503.67	33.973
504.02	34.764
504.36	35.121
504.71	35.048
505.06	35.016
505.40	34.598
505.75	34.882
506.09	34.807
506.44	35.144
506.78	35.000
507.13	34.947
507.47	35.339
507.82	35.417
508.16	35.182
508.51	34.740
508.85	35.522
509.19	35.670
509.54	35.783
509.88	36.085
510.23	35.794
510.57	35.089
510.92	36.381
511.26	35.546
511.61	34.524
511.95	35.725
512.30	36.386
512.64	35.382
512.98	35.468
513.33	35.685
513.67	36.665
514.02	36.587
514.36	36.164
514.70	36.615
515.05	37.226
515.39	36.640
515.74	38.176
516.08	36.080
516.42	37.310
516.77	36.593
517.11	36.668
517.46	37.434
517.80	37.894
518.14	37.595
518.49	36.822
518.83	37.201
519.17	37.857
519.52	36.740
519.86	37.223
520.20	37.646
520.55	37.349
520.89	37.950
521.23	38.693
521.58	38.927
521.92	37.507
522.26	38.259
522.61	38.310
522.95	37.947
523.29	37.816
523.64	39.126
523.98	39.361
524.32	39.542
524.66	38.532
525.01	37.995
525.35	39.058
525.69	38.341
526.04	38.462
526.38	38.621
526.72	38.581
527.06	39.062
527.41	39.184
527.75	40.558
528.09	40.378
528.43	39.076
528.78	39.653
529.12	39.908
529.46	38.786
529.80	40.103
530.15	40.464
530.49	39.383
530.83	39.965
531.17	39.785
531.51	40.072
531.86	40.204
532.20	40.000
532.54	39.677
532.88	39.697
533.22	40.483
533.57	39.354
533.91	39.843
534.25	40.079
534.59	40.230
534.93	39.672
535.27	40.225
535.62	41.728
535.96	39.802
536.30	40.658
536.64	41.441
536.98	40.652
537.32	40.494
537.66	41.609
538.01	39.456
538.35	40.499
538.69	40.385
539.03	39.975
539.37	40.872
539.71	40.120
540.05	39.988
540.39	39.853
540.73	40.619
541.07	40.834
541.42	40.638
541.76	39.680
542.10	40.893
542.44	40.865
542.78	40.693
543.12	39.869
543.46	40.171
543.80	41.007
544.14	40.934
544.48	40.839
544.82	41.113
545.16	40.668
545.50	40.743
545.84	41.580
546.18	41.481
546.52	40.892
546.86	39.937
547.20	40.840
547.54	40.325
547.88	40.687
548.22	40.351
548.56	40.316
548.90	40.657
549.24	40.182
549.58	40.694
549.92	40.944
550.26	42.071
550.60	40.587
550.94	42.109
551.28	40.858
551.62	42.251
551.96	39.288
552.30	41.428
552.64	41.070
552.98	41.235
553.32	41.608
553.66	40.900
554.00	41.740
554.34	40.669
554.68	40.542
555.02	41.261
555.36	41.091
555.69	40.359
556.03	39.975
556.37	41.427
556.71	42.232
557.05	41.470
557.39	41.208
557.73	40.357
558.07	41.126
558.41	41.661
558.75	41.717
559.08	42.519
559.42	40.261
559.76	40.977
560.10	42.264
560.44	40.633
560.78	42.125
561.12	41.502
561.45	41.058
561.79	41.636
562.13	41.282
562.47	40.567
562.81	41.519
563.15	41.477
563.48	41.703
563.82	40.206
564.16	41.127
564.50	41.061
564.84	41.239
565.17	41.353
565.51	39.931
565.85	41.093
566.19	40.841
566.52	41.252
566.86	41.313
567.20	40.022
567.54	41.423
567.88	40.928
568.21	41.107
568.55	40.911
568.89	40.717
569.23	39.544
569.56	39.977
569.90	39.986
570.24	40.270
570.57	39.673
570.91	39.437
571.25	40.064
571.59	40.301
571.92	39.526
572.26	39.095
572.60	40.186
572.93	39.633
573.27	39.646
573.61	39.571
573.95	39.209
574.28	39.173
574.62	39.109
574.96	38.663
575.29	39.304
575.63	39.386
575.97	39.569
576.30	38.983
576.64	39.012
576.98	39.157
577.31	39.334
577.65	39.600
577.98	39.138
578.32	39.051
578.66	38.805
578.99	39.504
579.33	39.729
579.67	39.619
580.00	39.222
580.34	38.656
580.67	38.901
581.01	38.901
581.35	38.438
581.68	38.403
582.02	38.094
582.35	39.625
582.69	39.959
583.02	40.067
583.36	40.070
583.70	40.059
584.03	39.093
584.37	39.842
584.70	39.340
585.04	38.758
585.37	38.290
585.71	38.943
586.04	39.300
586.38	40.135
586.72	39.459
587.05	39.192
587.39	39.491
587.72	39.833
588.06	39.773
588.39	39.358
588.73	39.021
589.06	39.814
589.40	40.012
589.73	39.235
590.07	40.252
590.40	39.723
590.73	39.943
591.07	40.134
591.40	39.736
591.74	39.348
592.07	40.276
592.41	39.353
592.74	38.694
593.08	39.682
593.41	39.983
593.75	39.425
594.08	39.382
594.41	40.096
594.75	39.621
595.08	39.771
595.42	39.318
595.75	40.685
596.09	40.224
596.42	40.380
596.75	39.676
597.09	39.798
597.42	40.485
597.75	39.240
598.09	39.841
598.42	40.611
598.76	38.823
599.09	39.267
599.42	39.323
599.76	38.792
600.09	39.673
600.42	39.840
600.76	39.432
601.09	38.865
601.42	39.032
601.76	38.966
602.09	39.635
602.42	39.440
602.76	39.483
603.09	39.537
603.42	39.776
603.76	39.218
604.09	40.383
604.42	40.073
604.76	39.536
605.09	40.327
605.42	39.753
605.75	39.654
606.09	39.940
606.42	39.219
606.75	39.505
607.09	39.555
607.42	39.576
607.75	39.547
608.08	38.635
608.42	40.266
608.75	40.133
609.08	39.813
609.41	40.097
609.75	39.107
610.08	40.633
610.41	39.762
610.74	39.202
611.07	39.964
611.41	39.776
611.74	40.508
612.07	40.065
612.40	39.544
612.73	41.271
613.07	40.147
613.40	40.327
613.73	39.769
614.06	40.873
614.39	38.873
614.72	39.738
615.06	38.884
615.39	39.294
615.72	40.284
616.05	39.145
616.38	39.909
616.71	39.916
617.05	40.096
617.38	40.128
617.71	40.065
618.04	40.961
618.37	40.765
618.70	40.950
619.03	40.860
619.36	40.567
619.69	39.910
620.03	41.494
620.36	39.571
620.69	40.222
621.02	41.076
621.35	41.945
621.68	41.938
622.01	39.502
622.34	40.307
622.67	40.000
623.00	39.339
623.33	40.677
623.66	41.440
623.99	40.553
624.32	41.326
624.65	39.382
624.99	41.287
625.32	41.019
625.65	40.931
625.98	40.475
626.31	39.759
626.64	40.806
626.97	39.760
627.30	40.623
627.63	40.660
627.96	42.342
628.29	41.634
628.62	41.478
628.95	42.244
629.28	41.037
629.61	40.909
629.94	40.084
630.26	40.254
630.59	39.983
630.92	40.087
631.25	41.413
631.58	42.844
631.91	41.331
632.24	40.730
632.57	41.841
632.90	42.126
633.23	41.633
633.56	42.551
633.89	41.529
634.22	42.204
634.55	42.380
634.88	41.991
635.20	42.949
635.53	41.017
635.86	41.712
636.19	43.690
636.52	41.245
636.85	40.041
637.18	39.501
637.51	41.720
637.83	42.193
638.16	43.664
638.49	43.075
638.82	41.488
639.15	40.779
639.48	42.956
639.81	41.224
640.13	43.463
640.46	39.273
640.79	42.770
641.12	41.366
641.45	42.660
641.77	44.929
642.10	40.945
642.43	41.622
642.76	42.141
643.09	43.014
643.41	41.877
643.74	41.931
644.07	42.621
644.40	43.564
644.73	43.541
645.05	42.731
645.38	43.165
645.71	43.255
646.04	42.468
646.36	41.168
646.69	42.638
647.02	43.578
647.35	43.969
647.67	45.894
648.00	43.949
648.33	41.291
648.66	41.940
648.98	41.361
649.31	43.031
649.64	40.770
649.96	41.512
650.29	40.056
650.62	43.140
650.94	41.892
651.27	40.868
651.60	39.620
651.92	43.313
652.25	42.547
652.58	41.816
652.90	42.297
653.23	42.254
653.56	41.369
653.88	44.663
654.21	42.958
654.54	40.751
654.86	41.926
655.19	40.276
655.52	41.899
655.84	40.010
656.17	45.695
656.49	63.594
656.82	70.179
657.15	55.653
657.47	43.058
657.80	32.061
658.13	25.155
658.45	32.879
658.78	39.148
659.10	37.845
659.43	36.296
659.75	35.184
660.08	33.053
660.41	34.822
660.73	35.234
661.06	38.913
661.38	42.743
661.71	41.724
662.03	41.623
662.36	42.576
662.68	41.088
663.01	40.354
663.33	42.911
663.66	45.055
663.98	40.192
664.31	41.839
664.63	41.426
664.96	40.835
665.28	42.831
665.61	40.909
665.93	40.714
666.26	43.728
666.58	42.066
666.91	43.551
667.23	44.762
667.56	43.787
667.88	40.600
668.21	41.406
668.53	40.347
668.86	44.794
669.18	42.974
669.50	42.744
669.83	41.600
670.15	42.717
670.48	43.254
670.80	39.006
671.13	44.234
671.45	44.291
671.77	43.691
672.10	39.667
672.42	41.586
672.75	40.399
673.07	37.612
673.39	40.986
673.72	42.953
674.04	43.793
674.37	42.397
674.69	41.270
675.01	42.476
675.34	43.321
675.66	41.948
675.98	43.097
676.31	40.625
676.63	43.916
676.95	44.061
677.28	41.129
677.60	41.732
677.92	42.035
678.25	39.122
678.57	43.060
678.89	41.638
679.22	41.289
679.54	40.684
679.86	40.339
680.18	41.128
680.51	43.239
680.83	41.899
681.15	41.207
681.48	43.523
681.80	45.250
682.12	44.580
682.44	39.733
682.77	41.844
683.09	44.697
683.41	42.829
683.73	42.694
684.06	38.376
684.38	39.893
684.70	42.370
685.02	39.415
685.34	41.597
685.67	41.956
685.99	40.337
686.31	39.099
686.63	40.758
686.96	39.590
687.28	40.717
687.60	40.741
687.92	39.871
688.24	41.903
688.56	39.483
688.89	43.557
689.21	40.313
689.53	40.196
689.85	39.250
690.17	41.481
690.49	43.028
690.82	38.020
691.14	38.866
691.46	40.918
691.78	39.963
692.10	40.367
692.42	39.464
692.74	39.746
693.06	39.444
693.39	41.176
693.71	38.722
694.03	39.963
694.35	38.667
694.67	40.246
694.99	39.574
695.31	41.722
695.63	40.909
695.95	40.787
696.27	40.220
696.59	45.354
696.91	38.739
697.23	44.615
697.56	41.548
697.88	41.288
698.20	39.925
698.52	42.235
698.84	41.372
699.16	41.633
699.48	38.703
699.80	39.362
700.12	40.830
700.44	42.857
700.76	43.943
701.08	40.920
701.40	42.228
701.72	38.806
702.04	42.781
702.36	39.005
702.68	40.831
703.00	39.120
703.32	46.552
703.64	39.364
703.96	38.902
704.28	39.558
704.60	43.291
704.91	39.796
705.23	42.466
705.55	39.554
705.87	42.727
706.19	44.479
706.51	42.169
706.83	42.075
707.15	39.947
707.47	40.187
707.79	37.991
708.11	37.076
708.43	36.774
708.74	33.036
709.06	38.051
709.38	43.897
709.70	40.447
710.02	41.860
710.34	43.085
710.66	37.151
710.98	39.344
711.29	39.286
711.61	40.678
711.93	39.316
712.25	39.459
712.57	42.478
712.89	40.588
713.20	37.278
713.52	40.173
713.84	38.162
714.16	38.421
714.48	40.206
714.80	40.000
715.11	41.732
715.43	38.992
715.75	39.737
716.07	39.227
716.39	38.798
716.70	37.048
717.02	40.000
717.34	37.282
717.66	38.591
717.97	34.932
718.29	39.863
718.61	38.487
718.93	43.689
719.24	34.472
719.56	40.798
719.88	37.538
720.20	40.645
720.51	37.888
720.83	33.125
721.15	38.487
721.46	38.356
721.78	40.000
722.10	35.922
722.42	35.570
722.73	36.129
723.05	40.351
723.37	37.153
723.68	42.294
724.00	39.350
724.32	34.507
724.63	38.462
724.95	43.972
725.27	39.721
725.58	38.163
725.90	41.724
726.22	37.304
726.53	39.286
726.85	37.736
727.16	35.952
727.48	37.615
727.80	39.073
728.11	42.756
728.43	38.047
728.74	38.127
729.06	38.411
729.38	36.364
729.69	40.604
730.01	37.798
730.32	34.242
730.64	39.308
730.96	33.851
731.27	39.106
731.59	37.912
731.90	34.286
732.22	35.677
732.53	35.083
732.85	37.429
733.16	37.537
733.48	34.756
733.80	35.376
734.11	35.897
734.43	38.108
734.74	38.228
735.06	34.171
735.37	37.297
735.69	40.000
736.00	36.723
736.32	34.232
736.63	34.722
736.95	36.494
737.26	36.061
737.58	36.667
737.89	38.529
738.21	36.086
738.52	37.377
738.83	40.273
739.15	37.943
739.46	39.116
739.78	37.423
740.09	36.963
740.41	35.277
740.72	37.333
741.04	34.628
741.35	38.246
741.66	39.608
741.98	41.803
742.29	41.841
742.61	37.281
742.92	37.308
743.23	38.628
743.55	41.085
743.86	37.200
744.18	34.298
744.49	34.599
744.80	39.918
745.12	38.397
745.43	38.618
745.74	34.052
746.06	40.678
746.37	40.928
746.68	40.650
747.00	37.500
747.31	38.627
747.62	41.154
747.94	35.223
748.25	38.554
748.56	37.959
748.88	36.325
749.19	42.241
749.50	34.632
749.82	43.373
750.13	43.416
750.44	33.667
750.75	36.000
751.07	37.538
751.38	39.748
751.69	37.380
752.01	37.864
752.32	38.889
752.63	38.776
752.94	36.678
753.26	36.431
753.57	34.074
753.88	34.831
754.19	36.013
754.51	36.334
754.82	38.907
755.13	36.721
755.44	37.201
755.75	38.816
756.07	36.119
756.38	33.333
756.69	39.157
757.00	34.072
757.31	36.339
757.63	35.038
757.94	38.732
758.25	36.343
758.56	37.037
758.87	37.045
759.18	36.267
759.50	40.510
759.81	31.653
760.12	38.814
760.43	35.156
760.74	40.887
761.05	37.500
761.36	35.663
761.67	34.264
761.99	34.595
762.30	37.500
762.61	34.653
762.92	32.836
763.23	36.704
763.54	39.209
763.85	33.677
764.16	38.721
764.47	32.394
764.78	38.978
765.10	36.950
765.41	38.974
765.72	32.540
766.03	39.548
766.34	34.796
766.65	36.237
766.96	37.052
767.27	41.935
767.58	34.328
767.89	40.385
768.20	33.803
768.51	32.407
768.82	34.940
769.13	35.227
769.44	33.077
769.75	36.823
770.06	35.000
770.37	40.945
770.68	32.340
770.99	30.769
771.30	35.556
771.61	35.741
771.92	32.593
772.23	37.247
772.54	30.556
772.85	40.092
773.16	37.143
773.47	34.392
773.78	29.189
774.09	35.227
774.39	34.500
774.70	33.880
775.01	32.317
775.32	30.588
775.63	28.834
775.94	31.210
776.25	34.839
776.56	41.667
776.87	31.293
777.18	33.103
777.48	34.965
777.79	19.595
778.10	29.412
778.41	33.333
778.72	28.966
779.03	35.185
779.34	34.545
779.65	32.642
779.95	37.778
780.26	32.955
780.57	34.839
780.88	39.855
781.19	35.484
781.50	37.647
781.80	31.720
782.11	34.921
782.42	25.758
782.73	35.329
783.04	26.816
783.34	24.848
783.65	25.490
783.96	32.298
784.27	30.357
784.57	31.126
784.88	35.714
785.19	33.071
785.50	29.134
785.81	27.068
786.11	40.000
786.42	31.655
786.73	22.302
787.04	28.571
787.34	23.770
787.65	28.800
787.96	25.373
788.26	40.559
788.57	39.860
788.88	25.000
789.19	29.412
789.49	31.507
789.80	27.660
790.11	29.921
790.41	25.781
790.72	22.034
791.03	13.592
791.33	33.043
791.64	27.193
791.95	14.286
792.25	28.571
792.56	26.786
792.87	21.875
793.17	19.643
793.48	26.042
793.79	27.711
794.09	23.853
794.40	29.358
794.70	27.211
795.01	27.273
795.32	23.288
795.62	23.944
795.93	21.212
796.23	20.492
796.54	23.214
796.85	20.213
797.15	26.087
797.46	15.068
797.76	28.750
798.07	15.217
798.37	18.557
798.68	12.987
798.99	16.092
799.29	24.719
799.60	25.532
799.90	14.458
800.21	16.923
800.51	11.940
800.82	11.765
801.12	-4.110
801.43	0.000
801.73	8.475
802.04	18.182
802.34	10.000
802.65	20.339
802.95	32.836
803.26	20.339
803.56	9.589
803.87	18.571
804.17	27.397
804.48	-3.509
804.78	13.889
805.09	8.621
805.39	21.622
805.70	1.408
806.00	20.732
806.30	13.253
806.61	19.178
806.91	23.077
807.22	23.333
807.52	17.241
807.83	20.833
808.13	14.458
808.43	11.236
808.74	31.250
809.04	16.176
809.35	6.667
809.65	18.571
809.95	19.178
810.26	14.035
810.56	34.483
810.86	27.941
811.17	35.088
811.47	4.918
811.77	-8.889
812.08	-5.085
812.38	13.333
812.69	15.517
812.99	22.642
813.29	-20.513
813.59	14.000
813.90	35.088
814.20	10.909
814.50	19.718
814.81	21.795
815.11	16.393
815.41	10.448
815.72	24.138
816.02	14.286
816.32	28.889
816.62	31.818
816.93	-11.111
817.23	9.259
817.53	-2.128
817.84	21.429
818.14	11.765
818.44	10.204
818.74	15.556
819.04	-23.077
819.35	-11.429
819.65	-7.692
819.95	9.434
820.25	6.667
820.56	-11.905
820.86	0.000
821.16	-7.692
821.46	-6.977
821.76	-6.000
822.07	10.714
822.37	17.391
822.67	-10.638
822.97	-32.432
823.27	17.500
823.57	20.408
823.88	15.556
824.18	25.000
824.48	-6.667
824.78	-28.000
825.08	-27.273
825.38	4.444
825.69	-4.255
825.99	-11.111
826.29	-42.857
826.59	-10.256
826.89	-16.279
827.19	0.000
827.49	5.882
827.79	14.583
828.09	8.108
828.39	-13.333
828.70	-9.756
829.00	-18.605
829.30	-50.000
829.60	8.824
829.90	-4.348
830.20	-22.857
830.50	-24.138
830.80	-5.556
831.10	-19.231
831.40	-5.882
831.70	-9.524
832.00	-12.903
832.30	-170.588
832.60	-50.000
832.90	-15.385
833.20	-47.368
833.50	-55.000
833.80	-110.526
834.10	-109.524
834.40	-11.111
834.70	12.500
835.00	-34.286
835.30	14.706
835.60	-33.333
835.90	-40.000
836.20	-95.455
836.50	-4.000
836.80	-36.364
837.10	0.000
837.40	-22.222
837.70	-87.500
838.00	10.714
838.30	-52.174
838.60	-20.690
838.90	-135.714
839.19	-86.957
839.49	-116.667
839.79	-26.087
840.09	-118.750
840.39	-40.000
840.69	0.000
840.99	-14.286
841.29	6.667
841.59	-78.947
841.88	-17.949
842.18	-50.000
842.48	-160.000
842.78	-90.000
843.08	3.333
843.38	-3.226
843.68	-94.444
843.97	-20.588
844.27	-81.250
844.57	-63.158
844.87	-160.000
845.17	-40.000
845.47	-76.190
845.76	-28.571
846.06	-188.889
846.36	-70.588
846.66	-38.462
846.96	-86.667
847.25	-52.941
847.55	-21.739
847.85	-75.000
848.15	-76.471
848.44	-136.364
848.74	-14.286
849.04	-45.833
849.34	-118.750
849.63	-56.522
849.93	650.000
850.23	-66.667
850.53	11.538
850.82	-145.455
851.12	-18.182
851.42	-100.000
851.71	0.000
852.01	-60.000
852.31	-138.462
852.61	-63.158
852.90	-108.333
853.20	-27.778
853.50	-144.444
853.79	-71.429
854.09	-63.636
854.39	-50.000
854.68	-19.355
854.98	-42.308
855.28	5.556
855.57	-28.571
855.87	-40.000
856.17	-68.182
856.46	-7.407
856.76	-105.556
857.05	-65.217
857.35	-29.167
857.65	-107.692
857.94	-28.571
858.24	-25.926
858.53	-17.391
858.83	-47.059
859.13	-11.765
859.42	-5.882
859.72	-35.714
860.01	-50.000
860.31	-77.778
860.60	-80.000
860.90	-60.000
861.20	-55.556
861.49	-46.154
861.79	-20.000
862.08	-138.462
862.38	6.250
862.67	-11.765
862.97	-50.000
863.26	-133.333
863.56	-20.000
863.85	-127.273
864.15	-44.444
864.44	-266.667
864.74	-14.286
865.03	-93.750
865.33	-170.000
865.62	-22.581
865.92	-54.545
866.21	-4.348
866.51	-100.000
866.80	-460.000
867.10	-116.667
867.39	-66.667
867.69	800.000
867.98	-71.429
868.27	-35.294
868.57	-2300.000
868.86	-260.000
869.16	-52.381
869.45	-29.167
869.75	-100.000
870.04	-242.857
870.33	-50.000
870.63	-342.857
870.92	-300.000
871.22	-212.500
871.51	-181.818
871.80	-600.000
872.10	-950.000
>>>>>End Processed Spectral Data<<<<<
