SpectraSuite Data File
++++++++++++++++++++++++++++++++++++
Date: Thu May 14 14:39:37 PDT 2015
User: schluterlab
Dark Spectrum Present: Yes
Reference Spectrum Present: Yes
Number of Sampled Component Spectra: 1
Spectrometers: USB2E3373
Integration Time (usec): 3000 (USB2E3373)
Spectra Averaged: 3 (USB2E3373)
Boxcar Smoothing: 0 (USB2E3373)
Correct for Electrical Dark: No (USB2E3373)
Strobe/Lamp Enabled: No (USB2E3373)
Correct for Detector Non-linearity: No (USB2E3373)
Correct for Stray Light: No (USB2E3373)
Number of Pixels in Processed Spectrum: 2048
>>>>>Begin Processed Spectral Data<<<<<
178.53	0.000
178.91	-57.143
179.29	-300.000
179.67	700.000
180.04	-57.143
180.42	-80.000
180.80	-220.000
181.18	400.000
181.56	2200.000
181.94	-275.000
182.31	200.000
182.69	-166.667
183.07	250.000
183.45	-200.000
183.83	216.667
184.20	600.000
184.58	-1700.000
184.96	225.000
185.34	133.333
185.72	400.000
186.09	-55.556
186.47	-400.000
186.85	-160.000
187.23	55.556
187.61	200.000
187.98	-340.000
188.36	-275.000
188.74	175.000
189.12	366.667
189.49	112.500
189.87	162.500
190.25	144.444
190.63	140.000
191.00	155.556
191.38	0.000
191.76	275.000
192.14	133.333
192.51	-250.000
192.89	266.667
193.27	0.000
193.65	214.286
194.02	-100.000
194.40	200.000
194.78	-128.571
195.15	0.000
195.53	145.455
195.91	0.000
196.29	500.000
196.66	53.846
197.04	700.000
197.42	257.143
197.79	750.000
198.17	137.500
198.55	114.286
198.92	188.889
199.30	37.500
199.68	109.091
200.05	92.857
200.43	650.000
200.81	-0.000
201.18	0.000
201.56	-33.333
201.94	0.000
202.31	-466.667
202.69	33.333
203.07	-2100.000
203.44	133.333
203.82	250.000
204.19	200.000
204.57	100.000
204.95	75.000
205.32	1100.000
205.70	-200.000
206.08	133.333
206.45	233.333
206.83	-20.000
207.20	233.333
207.58	-40.000
207.96	50.000
208.33	266.667
208.71	-41.667
209.08	433.333
209.46	0.000
209.84	-33.333
210.21	-600.000
210.59	-850.000
210.96	-200.000
211.34	375.000
211.71	112.500
212.09	700.000
212.46	0.000
212.84	-400.000
213.22	60.000
213.59	275.000
213.97	170.000
214.34	400.000
214.72	-100.000
215.09	50.000
215.47	0.000
215.84	-157.143
216.22	-50.000
216.59	440.000
216.97	320.000
217.34	550.000
217.72	100.000
218.09	-75.000
218.47	50.000
218.84	0.000
219.22	-200.000
219.59	64.706
219.97	115.000
220.34	-400.000
220.72	100.000
221.09	115.385
221.47	866.667
221.84	80.000
222.22	200.000
222.59	0.000
222.97	212.500
223.34	240.000
223.72	1500.000
224.09	300.000
224.46	225.000
224.84	160.000
225.21	100.000
225.59	50.000
225.96	200.000
226.34	76.923
226.71	-133.333
227.08	600.000
227.46	160.000
227.83	225.000
228.21	121.053
228.58	-62.500
228.95	-550.000
229.33	58.333
229.70	170.000
230.08	131.579
230.45	-0.000
230.82	433.333
231.20	128.571
231.57	116.667
231.95	27.273
232.32	154.545
232.69	90.000
233.07	550.000
233.44	76.471
233.81	170.000
234.19	105.556
234.56	81.818
234.93	51.724
235.31	73.684
235.68	72.222
236.05	40.000
236.43	115.385
236.80	112.000
237.17	74.074
237.55	66.667
237.92	110.000
238.29	70.968
238.67	40.909
239.04	72.222
239.41	30.952
239.79	58.696
240.16	51.852
240.53	45.652
240.91	60.784
241.28	40.984
241.65	62.687
242.02	58.108
242.40	43.077
242.77	57.333
243.14	42.683
243.51	34.211
243.89	37.179
244.26	44.554
244.63	45.098
245.00	40.187
245.38	42.982
245.75	21.239
246.12	34.127
246.49	42.636
246.87	32.143
247.24	33.775
247.61	40.789
247.98	40.268
248.36	36.420
248.73	26.994
249.10	30.055
249.47	35.323
249.84	39.791
250.22	26.943
250.59	37.778
250.96	33.182
251.33	29.082
251.70	32.479
252.08	32.500
252.45	31.557
252.82	26.446
253.19	26.172
253.56	27.757
253.94	31.923
254.31	32.576
254.68	35.315
255.05	28.664
255.42	30.612
255.79	29.773
256.16	27.152
256.54	26.159
256.91	32.459
257.28	29.836
257.65	27.707
258.02	25.664
258.39	30.199
258.76	34.557
259.14	30.172
259.51	28.530
259.88	29.462
260.25	25.833
260.62	30.411
260.99	30.874
261.36	31.903
261.73	28.117
262.10	28.297
262.47	29.223
262.85	31.313
263.22	26.494
263.59	27.368
263.96	30.946
264.33	27.110
264.70	31.358
265.07	31.504
265.44	30.159
265.81	29.167
266.18	30.385
266.55	28.571
266.92	28.246
267.29	31.510
267.66	27.938
268.03	29.476
268.40	27.766
268.77	27.790
269.14	27.974
269.51	29.386
269.88	28.893
270.25	27.163
270.62	30.380
270.99	26.869
271.36	29.307
271.73	27.308
272.10	30.461
272.47	29.860
272.84	27.309
273.21	27.255
273.58	30.242
273.95	26.538
274.32	27.757
274.69	29.014
275.06	27.656
275.43	24.584
275.80	26.984
276.17	27.222
276.54	25.933
276.91	25.581
277.28	27.667
277.65	28.366
278.02	28.676
278.39	28.986
278.76	25.659
279.13	27.482
279.50	27.663
279.87	24.329
280.23	25.880
280.60	26.949
280.97	27.138
281.34	26.316
281.71	29.442
282.08	25.914
282.45	25.205
282.82	24.647
283.19	25.363
283.56	24.754
283.92	26.276
284.29	26.382
284.66	28.736
285.03	23.397
285.40	26.275
285.77	27.554
286.14	26.107
286.51	24.658
286.87	26.066
287.24	26.054
287.61	25.561
287.98	25.076
288.35	24.408
288.72	25.000
289.08	24.744
289.45	23.669
289.82	25.301
290.19	25.718
290.56	24.085
290.93	24.822
291.29	25.482
291.66	24.518
292.03	23.609
292.40	24.082
292.77	23.720
293.13	21.651
293.50	22.339
293.87	21.879
294.24	24.000
294.60	22.503
294.97	21.074
295.34	22.791
295.71	19.672
296.08	21.964
296.44	20.098
296.81	21.072
297.18	21.171
297.55	19.575
297.91	20.047
298.28	19.787
298.65	20.927
299.02	19.244
299.38	19.336
299.75	19.509
300.12	19.560
300.48	19.700
300.85	20.810
301.22	20.805
301.59	17.808
301.95	19.548
302.32	19.556
302.69	19.277
303.05	19.260
303.42	19.180
303.79	19.375
304.15	19.979
304.52	19.133
304.89	19.895
305.25	19.048
305.62	19.227
305.99	19.072
306.35	19.254
306.72	19.028
307.09	18.985
307.45	18.219
307.82	19.072
308.19	18.870
308.55	18.804
308.92	17.819
309.29	18.966
309.65	17.544
310.02	18.317
310.38	19.193
310.75	17.961
311.12	20.614
311.48	19.257
311.85	17.379
312.22	18.596
312.58	19.249
312.95	17.973
313.31	19.151
313.68	18.223
314.05	19.151
314.41	19.763
314.78	18.529
315.14	20.508
315.51	19.114
315.87	19.172
316.24	20.000
316.61	19.538
316.97	20.000
317.34	19.665
317.70	18.865
318.07	19.841
318.43	20.323
318.80	20.652
319.16	20.515
319.53	20.737
319.89	20.333
320.26	20.907
320.62	20.567
320.99	20.406
321.35	20.887
321.72	21.953
322.08	21.551
322.45	21.680
322.81	21.931
323.18	22.389
323.54	22.586
323.91	23.843
324.27	21.343
324.64	23.678
325.00	22.222
325.37	23.423
325.73	23.471
326.10	23.114
326.46	24.430
326.83	25.220
327.19	24.409
327.56	23.478
327.92	24.705
328.29	23.065
328.65	24.958
329.01	24.788
329.38	25.190
329.74	24.058
330.11	25.428
330.47	25.190
330.84	25.065
331.20	25.500
331.56	25.737
331.93	25.690
332.29	25.678
332.66	26.827
333.02	25.628
333.38	25.252
333.75	26.263
334.11	25.605
334.48	24.505
334.84	26.168
335.20	26.616
335.57	26.897
335.93	27.438
336.29	24.293
336.66	25.399
337.02	26.589
337.38	26.956
337.75	26.529
338.11	26.577
338.47	27.213
338.84	25.719
339.20	25.779
339.56	25.124
339.93	25.452
340.29	26.490
340.65	24.980
341.02	26.656
341.38	25.950
341.74	26.554
342.11	25.664
342.47	25.020
342.83	26.329
343.20	26.002
343.56	25.180
343.92	24.900
344.28	25.312
344.65	25.194
345.01	26.209
345.37	25.505
345.73	24.708
346.10	26.599
346.46	25.633
346.82	26.891
347.19	25.286
347.55	25.341
347.91	26.374
348.27	24.734
348.63	25.057
349.00	25.354
349.36	24.833
349.72	25.446
350.08	25.483
350.45	25.703
350.81	25.264
351.17	25.188
351.53	25.474
351.89	26.651
352.26	25.597
352.62	26.269
352.98	25.573
353.34	25.168
353.70	25.193
354.07	26.155
354.43	25.361
354.79	25.131
355.15	24.945
355.51	25.950
355.87	25.954
356.24	26.616
356.60	25.277
356.96	25.278
357.32	25.799
357.68	25.915
358.04	24.925
358.40	25.896
358.77	25.950
359.13	25.111
359.49	25.130
359.85	24.438
360.21	25.036
360.57	25.628
360.93	24.542
361.29	26.246
361.66	25.561
362.02	26.792
362.38	25.931
362.74	25.978
363.10	26.272
363.46	25.762
363.82	25.781
364.18	26.179
364.54	24.550
364.90	25.619
365.26	25.931
365.62	26.533
365.98	25.936
366.35	25.906
366.71	27.075
367.07	25.913
367.43	26.330
367.79	26.078
368.15	27.692
368.51	27.131
368.87	27.041
369.23	26.867
369.59	26.981
369.95	25.963
370.31	26.739
370.67	26.960
371.03	27.493
371.39	27.401
371.75	27.029
372.11	27.304
372.47	26.879
372.83	27.749
373.19	26.751
373.55	27.236
373.91	26.721
374.27	26.843
374.63	26.996
374.99	27.387
375.35	27.792
375.71	27.613
376.07	28.018
376.42	27.330
376.78	27.843
377.14	27.573
377.50	28.083
377.86	28.510
378.22	27.725
378.58	27.943
378.94	27.993
379.30	27.768
379.66	28.513
380.02	28.448
380.38	30.300
380.74	29.352
381.09	29.094
381.45	29.205
381.81	29.450
382.17	29.513
382.53	29.766
382.89	28.894
383.25	30.715
383.61	28.588
383.97	29.505
384.32	29.486
384.68	28.944
385.04	30.943
385.40	30.583
385.76	31.243
386.12	30.162
386.48	30.235
386.83	31.585
387.19	30.127
387.55	29.695
387.91	31.050
388.27	31.005
388.62	30.298
388.98	29.949
389.34	31.526
389.70	31.377
390.06	30.432
390.42	30.120
390.77	31.186
391.13	30.692
391.49	31.341
391.85	31.030
392.20	31.198
392.56	32.369
392.92	30.971
393.28	31.233
393.64	30.782
393.99	31.610
394.35	31.133
394.71	31.677
395.07	31.078
395.42	31.982
395.78	32.663
396.14	31.907
396.50	32.245
396.85	32.141
397.21	31.775
397.57	31.449
397.92	32.761
398.28	31.450
398.64	31.236
399.00	30.838
399.35	32.147
399.71	31.793
400.07	32.229
400.42	31.898
400.78	32.812
401.14	32.271
401.49	32.177
401.85	32.384
402.21	32.677
402.57	32.336
402.92	32.210
403.28	32.143
403.63	32.100
403.99	32.304
404.35	32.064
404.70	31.728
405.06	31.793
405.42	31.909
405.77	32.225
406.13	32.739
406.49	32.151
406.84	31.967
407.20	32.085
407.55	31.859
407.91	32.118
408.27	31.979
408.62	31.646
408.98	33.488
409.34	31.848
409.69	32.880
410.05	32.005
410.40	32.773
410.76	32.473
411.11	32.613
411.47	32.801
411.83	33.039
412.18	32.651
412.54	32.543
412.89	32.538
413.25	32.619
413.60	32.453
413.96	33.042
414.31	31.955
414.67	32.677
415.03	32.492
415.38	33.417
415.74	31.949
416.09	33.498
416.45	32.248
416.80	32.436
417.16	33.206
417.51	33.375
417.87	33.354
418.22	33.234
418.58	32.280
418.93	33.527
419.29	33.231
419.64	33.193
420.00	32.938
420.35	32.678
420.71	32.855
421.06	32.662
421.42	33.085
421.77	32.579
422.12	32.505
422.48	33.129
422.83	32.968
423.19	33.103
423.54	34.624
423.90	33.573
424.25	34.347
424.61	33.410
424.96	33.608
425.31	32.431
425.67	33.494
426.02	33.813
426.38	34.443
426.73	33.817
427.09	34.660
427.44	34.462
427.79	34.163
428.15	34.304
428.50	34.719
428.85	33.927
429.21	35.319
429.56	34.699
429.92	34.939
430.27	34.265
430.62	35.027
430.98	33.792
431.33	34.213
431.68	34.243
432.04	35.500
432.39	34.762
432.74	34.132
433.10	35.587
433.45	34.169
433.80	35.247
434.16	34.814
434.51	35.200
434.86	36.536
435.22	36.185
435.57	36.321
435.92	36.394
436.28	37.031
436.63	37.575
436.98	35.963
437.34	36.246
437.69	36.103
438.04	36.912
438.39	36.933
438.75	37.023
439.10	36.998
439.45	36.613
439.81	37.062
440.16	37.426
440.51	37.904
440.86	36.909
441.22	36.870
441.57	37.264
441.92	36.712
442.27	37.626
442.63	37.556
442.98	38.047
443.33	37.664
443.68	37.760
444.03	38.100
444.39	38.141
444.74	38.183
445.09	37.658
445.44	38.988
445.79	38.314
446.15	39.260
446.50	38.191
446.85	38.521
447.20	38.056
447.55	38.494
447.91	38.743
448.26	38.636
448.61	39.373
448.96	40.129
449.31	37.911
449.66	38.671
450.02	39.082
450.37	39.798
450.72	39.774
451.07	38.667
451.42	39.746
451.77	39.355
452.12	40.632
452.47	38.978
452.83	41.329
453.18	39.696
453.53	39.115
453.88	39.039
454.23	39.887
454.58	41.381
454.93	41.201
455.28	40.458
455.63	40.307
455.98	39.609
456.34	39.458
456.69	40.682
457.04	41.489
457.39	40.244
457.74	40.604
458.09	39.594
458.44	40.948
458.79	40.278
459.14	39.958
459.49	40.521
459.84	41.133
460.19	40.533
460.54	40.488
460.89	41.133
461.24	40.115
461.59	41.727
461.94	40.844
462.29	40.985
462.64	40.857
462.99	40.427
463.34	42.180
463.69	41.325
464.04	42.135
464.39	42.040
464.74	41.277
465.09	41.349
465.44	40.504
465.79	42.464
466.14	41.428
466.49	41.158
466.84	42.479
467.19	42.023
467.54	42.362
467.89	41.322
468.24	41.551
468.59	42.617
468.94	41.550
469.29	42.052
469.64	41.259
469.99	42.256
470.34	42.574
470.68	43.882
471.03	43.877
471.38	43.885
471.73	43.823
472.08	43.401
472.43	42.745
472.78	43.262
473.13	44.311
473.48	43.142
473.83	44.283
474.17	43.494
474.52	44.257
474.87	43.854
475.22	44.113
475.57	43.043
475.92	42.907
476.27	43.397
476.61	43.562
476.96	44.004
477.31	43.861
477.66	44.229
478.01	45.247
478.36	43.868
478.70	44.483
479.05	44.172
479.40	44.571
479.75	44.524
480.10	44.623
480.45	43.801
480.79	44.263
481.14	43.474
481.49	44.480
481.84	44.560
482.19	44.086
482.53	44.469
482.88	45.060
483.23	45.576
483.58	44.017
483.92	43.661
484.27	43.988
484.62	43.523
484.97	43.157
485.31	42.978
485.66	40.994
486.01	39.945
486.36	40.364
486.70	41.217
487.05	42.730
487.40	42.837
487.75	43.053
488.09	43.054
488.44	43.311
488.79	43.912
489.13	44.062
489.48	44.544
489.83	43.702
490.17	44.147
490.52	44.171
490.87	44.839
491.22	44.844
491.56	44.113
491.91	45.355
492.26	44.743
492.60	43.900
492.95	44.493
493.30	45.719
493.64	45.247
493.99	45.219
494.34	43.859
494.68	44.754
495.03	46.388
495.37	45.140
495.72	45.850
496.07	45.793
496.41	45.603
496.76	45.580
497.11	45.902
497.45	45.274
497.80	46.202
498.14	45.896
498.49	46.415
498.84	46.207
499.18	45.839
499.53	45.605
499.87	46.813
500.22	46.438
500.56	45.389
500.91	46.178
501.26	46.909
501.60	45.957
501.95	45.723
502.29	46.029
502.64	46.218
502.98	46.376
503.33	45.486
503.67	46.010
504.02	47.329
504.36	47.364
504.71	46.578
505.06	47.294
505.40	46.389
505.75	47.222
506.09	47.790
506.44	47.772
506.78	47.936
507.13	47.718
507.47	48.129
507.82	48.248
508.16	47.706
508.51	47.726
508.85	48.701
509.19	49.455
509.54	49.328
509.88	48.907
510.23	50.073
510.57	49.686
510.92	49.395
511.26	49.254
511.61	48.334
511.95	48.658
512.30	51.403
512.64	49.275
512.98	49.975
513.33	50.756
513.67	51.045
514.02	51.303
514.36	51.765
514.70	51.198
515.05	52.711
515.39	51.916
515.74	52.916
516.08	51.770
516.42	52.381
516.77	52.629
517.11	52.089
517.46	52.333
517.80	53.447
518.14	53.645
518.49	53.850
518.83	52.209
519.17	53.581
519.52	53.616
519.86	53.643
520.20	54.100
520.55	53.834
520.89	53.829
521.23	54.271
521.58	54.972
521.92	55.524
522.26	53.608
522.61	54.514
522.95	53.979
523.29	54.368
523.64	53.756
523.98	54.934
524.32	56.160
524.66	54.297
525.01	54.530
525.35	54.796
525.69	54.814
526.04	54.707
526.38	54.885
526.72	55.421
527.06	55.718
527.41	54.985
527.75	55.998
528.09	55.549
528.43	55.003
528.78	55.029
529.12	55.103
529.46	54.525
529.80	55.492
530.15	55.826
530.49	55.101
530.83	55.136
531.17	56.989
531.51	55.174
531.86	57.151
532.20	57.195
532.54	54.219
532.88	55.636
533.22	55.156
533.57	54.761
533.91	54.489
534.25	54.042
534.59	55.460
534.93	53.990
535.27	54.535
535.62	54.463
535.96	55.840
536.30	55.112
536.64	55.796
536.98	57.503
537.32	57.037
537.66	56.644
538.01	54.924
538.35	56.151
538.69	55.409
539.03	56.591
539.37	54.299
539.71	54.895
540.05	55.036
540.39	54.890
540.73	53.855
541.07	56.101
541.42	53.928
541.76	54.270
542.10	54.825
542.44	55.664
542.78	56.022
543.12	55.483
543.46	55.006
543.80	54.017
544.14	55.595
544.48	55.496
544.82	55.536
545.16	55.039
545.50	56.381
545.84	55.358
546.18	55.802
546.52	56.242
546.86	55.912
547.20	55.852
547.54	56.055
547.88	55.274
548.22	54.971
548.56	54.827
548.90	54.925
549.24	56.596
549.58	56.782
549.92	55.357
550.26	58.188
550.60	57.116
550.94	56.598
551.28	56.106
551.62	58.625
551.96	55.858
552.30	56.405
552.64	55.009
552.98	55.895
553.32	57.878
553.66	57.942
554.00	55.990
554.34	56.499
554.68	56.746
555.02	57.622
555.36	58.514
555.69	56.502
556.03	55.296
556.37	56.821
556.71	57.958
557.05	57.316
557.39	57.332
557.73	57.199
558.07	57.550
558.41	57.276
558.75	57.674
559.08	57.968
559.42	57.956
559.76	58.616
560.10	57.535
560.44	57.520
560.78	57.750
561.12	57.574
561.45	56.448
561.79	56.593
562.13	56.254
562.47	55.302
562.81	56.329
563.15	57.702
563.48	57.613
563.82	57.134
564.16	56.511
564.50	56.138
564.84	55.929
565.17	55.941
565.51	54.085
565.85	56.116
566.19	55.242
566.52	55.822
566.86	55.008
567.20	53.344
567.54	55.231
567.88	54.791
568.21	53.755
568.55	54.580
568.89	52.792
569.23	52.514
569.56	51.544
569.90	51.212
570.24	50.793
570.57	50.449
570.91	48.867
571.25	49.291
571.59	49.179
571.92	49.147
572.26	48.862
572.60	48.785
572.93	49.040
573.27	48.665
573.61	48.994
573.95	47.657
574.28	48.330
574.62	47.271
574.96	46.824
575.29	46.839
575.63	47.424
575.97	47.401
576.30	47.964
576.64	47.817
576.98	46.925
577.31	47.722
577.65	47.441
577.98	46.781
578.32	46.130
578.66	46.777
578.99	47.553
579.33	47.243
579.67	47.212
580.00	46.617
580.34	46.837
580.67	47.220
581.01	47.534
581.35	46.990
581.68	46.140
582.02	46.466
582.35	46.481
582.69	46.887
583.02	46.888
583.36	47.340
583.70	47.989
584.03	48.092
584.37	48.358
584.70	48.362
585.04	48.152
585.37	47.548
585.71	47.573
586.04	47.380
586.38	47.957
586.72	48.082
587.05	48.324
587.39	48.118
587.72	48.756
588.06	48.888
588.39	49.042
588.73	48.624
589.06	49.266
589.40	50.768
589.73	49.711
590.07	51.061
590.40	50.710
590.73	50.831
591.07	52.122
591.40	50.778
591.74	52.385
592.07	52.416
592.41	51.065
592.74	49.805
593.08	50.096
593.41	49.956
593.75	49.224
594.08	49.652
594.41	50.545
594.75	49.585
595.08	50.538
595.42	50.909
595.75	50.210
596.09	51.271
596.42	50.842
596.75	51.525
597.09	52.000
597.42	51.132
597.75	51.313
598.09	51.786
598.42	52.433
598.76	51.891
599.09	50.338
599.42	49.816
599.76	49.719
600.09	50.150
600.42	50.684
600.76	50.661
601.09	50.514
601.42	50.841
601.76	50.345
602.09	50.786
602.42	51.290
602.76	50.406
603.09	51.358
603.42	51.120
603.76	50.916
604.09	52.307
604.42	50.826
604.76	50.609
605.09	52.692
605.42	52.313
605.75	51.115
606.09	50.616
606.42	49.471
606.75	50.862
607.09	50.422
607.42	51.060
607.75	50.449
608.08	50.750
608.42	51.270
608.75	51.368
609.08	51.528
609.41	51.434
609.75	51.786
610.08	52.287
610.41	51.997
610.74	51.849
611.07	52.398
611.41	52.601
611.74	53.118
612.07	52.688
612.40	52.044
612.73	53.839
613.07	53.350
613.40	52.936
613.73	52.576
614.06	53.189
614.39	52.332
614.72	51.820
615.06	51.588
615.39	52.247
615.72	51.659
616.05	51.870
616.38	53.380
616.71	52.612
617.05	52.769
617.38	54.147
617.71	53.726
618.04	53.589
618.37	55.027
618.70	54.751
619.03	54.122
619.36	55.240
619.69	56.502
620.03	55.367
620.36	54.969
620.69	54.843
621.02	56.234
621.35	59.579
621.68	57.556
622.01	56.085
622.34	56.137
622.67	56.495
623.00	55.601
623.33	56.669
623.66	55.447
623.99	55.431
624.32	55.945
624.65	54.891
624.99	56.762
625.32	55.715
625.65	56.575
625.98	55.051
626.31	56.556
626.64	57.436
626.97	57.239
627.30	59.074
627.63	58.065
627.96	58.634
628.29	58.210
628.62	57.599
628.95	59.334
629.28	59.813
629.61	59.848
629.94	59.079
630.26	59.492
630.59	59.931
630.92	59.827
631.25	61.538
631.58	61.299
631.91	61.856
632.24	60.519
632.57	60.626
632.90	63.089
633.23	62.551
633.56	61.531
633.89	60.227
634.22	62.578
634.55	62.109
634.88	64.177
635.20	64.586
635.53	65.424
635.86	63.055
636.19	60.657
636.52	63.924
636.85	60.163
637.18	60.291
637.51	62.581
637.83	60.465
638.16	64.631
638.49	64.437
638.82	63.247
639.15	62.887
639.48	63.857
639.81	63.164
640.13	64.429
640.46	60.970
640.79	62.377
641.12	64.224
641.45	63.363
641.77	66.239
642.10	65.354
642.43	66.489
642.76	65.854
643.09	65.205
643.41	64.006
643.74	64.138
644.07	66.621
644.40	65.205
644.73	65.312
645.05	66.373
645.38	65.899
645.71	66.569
646.04	65.423
646.36	64.672
646.69	68.405
647.02	68.502
647.35	68.702
647.67	69.887
648.00	66.242
648.33	66.817
648.66	63.481
648.98	65.170
649.31	64.682
649.64	61.620
649.96	61.538
650.29	60.779
650.62	63.791
650.94	63.964
651.27	62.874
651.60	62.281
651.92	63.070
652.25	62.373
652.58	62.311
652.90	63.953
653.23	64.225
653.56	63.338
653.88	62.921
654.21	60.423
654.54	62.717
654.86	61.473
655.19	58.469
655.52	51.237
655.84	41.045
656.17	49.046
656.49	68.865
656.82	76.550
657.15	60.652
657.47	46.111
657.80	34.487
658.13	27.657
658.45	36.955
658.78	44.481
659.10	44.684
659.43	45.691
659.75	47.061
660.08	47.451
660.41	51.199
660.73	56.556
661.06	60.793
661.38	61.563
661.71	64.138
662.03	63.316
662.36	66.369
662.68	66.229
663.01	67.080
663.33	70.510
663.66	67.033
663.98	66.538
664.31	67.355
664.63	66.859
664.96	64.791
665.28	63.339
665.61	64.510
665.93	65.536
666.26	66.487
666.58	65.498
666.91	68.224
667.23	66.286
667.56	64.892
667.88	69.200
668.21	66.211
668.53	63.320
668.86	67.191
669.18	71.079
669.50	65.010
669.83	65.800
670.15	67.520
670.48	67.262
670.80	64.054
671.13	64.083
671.45	67.126
671.77	67.232
672.10	58.667
672.42	60.194
672.75	58.218
673.07	55.821
673.39	58.243
673.72	63.423
674.04	63.103
674.37	65.474
674.69	64.198
675.01	65.143
675.34	66.412
675.66	62.360
675.98	65.112
676.31	63.867
676.63	66.350
676.95	64.176
677.28	64.516
677.60	64.567
677.92	62.380
678.25	63.437
678.57	62.100
678.89	61.263
679.22	58.885
679.54	57.607
679.86	58.983
680.18	61.360
680.51	59.434
680.83	60.229
681.15	62.759
681.48	59.931
681.80	63.903
682.12	60.490
682.44	59.432
682.77	59.574
683.09	63.447
683.41	65.116
683.73	59.393
684.06	60.148
684.38	58.497
684.70	62.298
685.02	58.692
685.34	58.070
685.67	55.994
685.99	55.521
686.31	54.215
686.63	55.766
686.96	57.256
687.28	59.283
687.60	55.724
687.92	54.823
688.24	57.429
688.56	56.897
688.89	60.436
689.21	62.231
689.53	60.196
689.85	60.158
690.17	58.704
690.49	59.363
690.82	61.386
691.14	60.526
691.46	59.656
691.78	58.748
692.10	59.450
692.42	55.893
692.74	56.624
693.06	54.815
693.39	59.962
693.71	56.767
694.03	59.108
694.35	60.952
694.67	58.932
694.99	61.489
695.31	61.810
695.63	60.823
695.95	58.799
696.27	60.000
696.59	61.726
696.91	56.982
697.23	62.418
697.56	58.248
697.88	57.008
698.20	60.075
698.52	57.576
698.84	59.667
699.16	57.959
699.48	58.787
699.80	55.319
700.12	60.044
700.44	58.756
700.76	62.708
701.08	61.985
701.40	63.990
701.72	59.950
702.04	66.578
702.36	58.639
702.68	59.658
703.00	59.413
703.32	61.084
703.64	61.125
703.96	62.291
704.28	60.442
704.60	62.025
704.91	56.378
705.23	67.397
705.55	60.446
705.87	63.636
706.19	70.245
706.51	64.458
706.83	62.536
707.15	61.376
707.47	55.140
707.79	53.712
708.11	55.085
708.43	56.129
708.74	52.009
709.06	56.148
709.38	56.808
709.70	62.035
710.02	56.589
710.34	60.372
710.66	62.291
710.98	57.923
711.29	59.615
711.61	64.689
711.93	61.254
712.25	59.730
712.57	63.717
712.89	63.529
713.20	60.651
713.52	61.272
713.84	57.103
714.16	58.947
714.48	57.474
714.80	59.221
715.11	56.693
715.43	57.825
715.75	57.632
716.07	54.696
716.39	58.470
716.70	56.928
717.02	60.656
717.34	62.369
717.66	60.067
717.97	62.329
718.29	62.543
718.61	56.908
718.93	57.605
719.24	59.938
719.56	58.282
719.88	59.159
720.20	61.613
720.51	58.696
720.83	60.313
721.15	56.908
721.46	56.164
721.78	60.667
722.10	56.958
722.42	57.718
722.73	60.323
723.05	61.754
723.37	59.375
723.68	58.781
724.00	58.845
724.32	55.986
724.63	56.294
724.95	63.830
725.27	56.098
725.58	56.537
725.90	59.310
726.22	57.053
726.53	56.494
726.85	57.862
727.16	53.172
727.48	54.434
727.80	53.642
728.11	54.417
728.43	56.229
728.74	57.191
729.06	52.980
729.38	56.494
729.69	55.369
730.01	53.571
730.32	51.212
730.64	55.346
730.96	51.242
731.27	53.073
731.59	54.121
731.90	50.130
732.22	51.302
732.53	52.210
732.85	47.143
733.16	55.132
733.48	52.439
733.80	54.596
734.11	54.986
734.43	55.676
734.74	55.443
735.06	51.005
735.37	49.730
735.69	50.000
736.00	53.390
736.32	49.057
736.63	50.833
736.95	53.736
737.26	58.182
737.58	53.939
737.89	51.765
738.21	49.847
738.52	52.787
738.83	55.290
739.15	51.773
739.46	55.102
739.78	52.454
740.09	49.284
740.41	51.603
740.72	52.667
741.04	54.693
741.35	54.035
741.66	58.824
741.98	59.426
742.29	57.741
742.61	65.351
742.92	56.538
743.23	54.874
743.55	56.977
743.86	58.400
744.18	52.893
744.49	56.962
744.80	52.675
745.12	59.916
745.43	58.943
745.74	59.052
746.06	60.593
746.37	61.603
746.68	61.789
747.00	52.917
747.31	62.232
747.62	60.769
747.94	61.134
748.25	58.635
748.56	54.694
748.88	59.829
749.19	61.638
749.50	51.515
749.82	61.446
750.13	55.516
750.44	50.000
750.75	50.769
751.07	49.231
751.38	55.205
751.69	54.313
752.01	50.485
752.32	52.941
752.63	53.061
752.94	56.401
753.26	55.019
753.57	47.778
753.88	58.052
754.19	48.875
754.51	49.839
754.82	51.768
755.13	56.066
755.44	52.218
755.75	53.618
756.07	49.254
756.38	47.799
756.69	50.904
757.00	46.260
757.31	47.814
757.63	43.990
757.94	45.305
758.25	42.664
758.56	44.444
758.87	46.591
759.18	48.800
759.50	51.275
759.81	48.459
760.12	45.553
760.43	47.656
760.74	48.276
761.05	45.000
761.36	44.819
761.67	44.670
761.99	46.757
762.30	49.085
762.61	48.185
762.92	50.746
763.23	50.936
763.54	52.878
763.85	50.859
764.16	51.515
764.47	48.592
764.78	48.882
765.10	45.748
765.41	45.897
765.72	43.122
766.03	43.785
766.34	43.260
766.65	50.871
766.96	48.207
767.27	59.447
767.58	53.731
767.89	55.769
768.20	55.869
768.51	59.722
768.82	48.594
769.13	45.833
769.44	48.077
769.75	50.542
770.06	51.923
770.37	50.787
770.68	45.532
770.99	46.559
771.30	52.963
771.61	52.471
771.92	47.407
772.23	50.607
772.54	48.148
772.85	50.230
773.16	54.286
773.47	51.323
773.78	51.351
774.09	65.909
774.39	55.500
774.70	61.202
775.01	58.537
775.32	51.176
775.63	57.055
775.94	49.045
776.25	61.290
776.56	62.821
776.87	63.265
777.18	58.621
777.48	50.350
777.79	50.676
778.10	57.353
778.41	61.806
778.72	55.862
779.03	53.086
779.34	52.121
779.65	48.187
779.95	48.333
780.26	52.841
780.57	53.548
780.88	54.348
781.19	58.710
781.50	57.059
781.80	53.226
782.11	50.794
782.42	45.960
782.73	46.108
783.04	50.838
783.34	46.061
783.65	52.941
783.96	47.205
784.27	45.238
784.57	52.980
784.88	53.571
785.19	53.543
785.50	64.567
785.81	54.135
786.11	59.231
786.42	43.885
786.73	51.079
787.04	59.398
787.34	59.016
787.65	53.600
787.96	55.224
788.26	55.944
788.57	55.245
788.88	44.079
789.19	49.673
789.49	55.479
789.80	49.645
790.11	50.394
790.41	46.875
790.72	55.085
791.03	60.194
791.33	53.913
791.64	59.649
791.95	62.500
792.25	56.190
792.56	65.179
792.87	57.292
793.17	53.571
793.48	63.542
793.79	65.060
794.09	45.872
794.40	51.376
794.70	54.422
795.01	42.857
795.32	44.521
795.62	51.408
795.93	52.273
796.23	48.361
796.54	48.214
796.85	57.447
797.15	55.435
797.46	68.493
797.76	42.500
798.07	50.000
798.37	46.392
798.68	63.636
798.99	67.816
799.29	69.663
799.60	62.766
799.90	53.012
800.21	70.769
800.51	59.701
800.82	54.412
801.12	53.425
801.43	48.529
801.73	66.102
802.04	65.152
802.34	75.000
802.65	66.102
802.95	58.209
803.26	66.102
803.56	54.795
803.87	64.286
804.17	72.603
804.48	56.140
804.78	66.667
805.09	65.517
805.39	83.784
805.70	64.789
806.00	53.659
806.30	62.651
806.61	43.836
806.91	49.038
807.22	47.778
807.52	52.874
807.83	59.722
808.13	48.193
808.43	56.180
808.74	48.750
809.04	47.059
809.35	56.000
809.65	62.857
809.95	61.644
810.26	54.386
810.56	75.862
810.86	72.059
811.17	49.123
811.47	45.902
811.77	51.111
812.08	76.271
812.38	80.000
812.69	74.138
812.99	60.377
813.29	79.487
813.59	80.000
813.90	63.158
814.20	61.818
814.50	69.014
814.81	51.282
815.11	62.295
815.41	44.776
815.72	68.966
816.02	75.000
816.32	108.889
816.62	68.182
816.93	60.000
817.23	66.667
817.53	78.723
817.84	76.190
818.14	76.471
818.44	77.551
818.74	73.333
819.04	56.410
819.35	74.286
819.65	76.923
819.95	50.943
820.25	57.778
820.56	83.333
820.86	78.125
821.16	94.872
821.46	79.070
821.76	54.000
822.07	62.500
822.37	39.130
822.67	42.553
822.97	54.054
823.27	70.000
823.57	85.714
823.88	95.556
824.18	100.000
824.48	86.667
824.78	88.000
825.08	115.152
825.38	84.444
825.69	57.447
825.99	102.778
826.29	54.286
826.59	61.538
826.89	62.791
827.19	70.000
827.49	79.412
827.79	60.417
828.09	59.459
828.39	76.667
828.70	80.488
829.00	65.116
829.30	89.286
829.60	85.294
829.90	58.696
830.20	45.714
830.50	65.517
830.80	94.444
831.10	88.462
831.40	100.000
831.70	104.762
832.00	70.968
832.30	117.647
832.60	91.667
832.90	192.308
833.20	84.211
833.50	70.000
833.80	126.316
834.10	71.429
834.40	72.222
834.70	106.250
835.00	62.857
835.30	85.294
835.60	43.333
835.90	76.000
836.20	77.273
836.50	96.000
836.80	39.394
837.10	66.667
837.40	96.296
837.70	125.000
838.00	78.571
838.30	65.217
838.60	75.862
838.90	142.857
839.19	30.435
839.49	141.667
839.79	86.957
840.09	87.500
840.39	130.000
840.69	83.871
840.99	67.857
841.29	106.667
841.59	136.842
841.88	76.923
842.18	57.692
842.48	90.000
842.78	95.000
843.08	73.333
843.38	100.000
843.68	127.778
843.97	70.588
844.27	125.000
844.57	73.684
844.87	120.000
845.17	26.667
845.47	95.238
845.76	76.190
846.06	88.889
846.36	111.765
846.66	84.615
846.96	80.000
847.25	105.882
847.55	78.261
847.85	100.000
848.15	117.647
848.44	127.273
848.74	142.857
849.04	91.667
849.34	131.250
849.63	73.913
849.93	100.000
850.23	46.667
850.53	107.692
850.82	109.091
851.12	127.273
851.42	118.182
851.71	261.538
852.01	120.000
852.31	153.846
852.61	115.789
852.90	175.000
853.20	50.000
853.50	155.556
853.79	52.381
854.09	81.818
854.39	16.667
854.68	83.871
854.98	73.077
855.28	155.556
855.57	64.286
855.87	92.000
856.17	72.727
856.46	70.370
856.76	50.000
857.05	82.609
857.35	75.000
857.65	84.615
857.94	119.048
858.24	107.407
858.53	134.783
858.83	94.118
859.13	123.529
859.42	141.176
859.72	135.714
860.01	105.000
860.31	111.111
860.60	150.000
860.90	106.667
861.20	122.222
861.49	215.385
861.79	60.000
862.08	123.077
862.38	53.125
862.67	129.412
862.97	112.500
863.26	155.556
863.56	200.000
863.85	200.000
864.15	83.333
864.44	333.333
864.74	150.000
865.03	93.750
865.33	120.000
865.62	38.710
865.92	150.000
866.21	69.565
866.51	135.714
866.80	340.000
867.10	133.333
867.39	100.000
867.69	-800.000
867.98	442.857
868.27	152.941
868.57	1000.000
868.86	0.000
869.16	71.429
869.45	54.167
869.75	136.364
870.04	214.286
870.33	66.667
870.63	71.429
870.92	500.000
871.22	87.500
871.51	118.182
871.80	166.667
872.10	700.000
>>>>>End Processed Spectral Data<<<<<
