SpectraSuite Data File
++++++++++++++++++++++++++++++++++++
Date: Thu May 14 14:47:29 PDT 2015
User: schluterlab
Dark Spectrum Present: Yes
Reference Spectrum Present: Yes
Number of Sampled Component Spectra: 1
Spectrometers: USB2E3373
Integration Time (usec): 3000 (USB2E3373)
Spectra Averaged: 3 (USB2E3373)
Boxcar Smoothing: 0 (USB2E3373)
Correct for Electrical Dark: No (USB2E3373)
Strobe/Lamp Enabled: No (USB2E3373)
Correct for Detector Non-linearity: No (USB2E3373)
Correct for Stray Light: No (USB2E3373)
Number of Pixels in Processed Spectrum: 2048
>>>>>Begin Processed Spectral Data<<<<<
178.53	0.000
178.91	71.429
179.29	-1100.000
179.67	-200.000
180.04	121.429
180.42	20.000
180.80	80.000
181.18	-600.000
181.56	300.000
181.94	-0.000
182.31	-25.000
182.69	66.667
183.07	0.000
183.45	225.000
183.83	-33.333
184.20	0.000
184.58	200.000
184.96	-200.000
185.34	44.444
185.72	180.000
186.09	211.111
186.47	700.000
186.85	220.000
187.23	-55.556
187.61	-700.000
187.98	-100.000
188.36	150.000
188.74	-175.000
189.12	166.667
189.49	56.250
189.87	-25.000
190.25	-66.667
190.63	-60.000
191.00	-66.667
191.38	0.000
191.76	-200.000
192.14	-83.333
192.51	400.000
192.89	50.000
193.27	0.000
193.65	-157.143
194.02	-200.000
194.40	-28.571
194.78	85.714
195.15	0.000
195.53	-54.545
195.91	0.000
196.29	200.000
196.66	23.077
197.04	-800.000
197.42	0.000
197.79	-250.000
198.17	37.500
198.55	-14.286
198.92	-11.111
199.30	-50.000
199.68	54.545
200.05	57.143
200.43	200.000
200.81	14.286
201.18	0.000
201.56	155.556
201.94	0.000
202.31	-0.000
202.69	55.556
203.07	-1000.000
203.44	66.667
203.82	-150.000
204.19	-8.333
204.57	-166.667
204.95	-112.500
205.32	-1300.000
205.70	175.000
206.08	16.667
206.45	100.000
206.83	60.000
207.20	100.000
207.58	-200.000
207.96	-150.000
208.33	83.333
208.71	33.333
209.08	16.667
209.46	0.000
209.84	116.667
210.21	350.000
210.59	150.000
210.96	166.667
211.34	175.000
211.71	12.500
212.09	500.000
212.46	0.000
212.84	900.000
213.22	-200.000
213.59	-100.000
213.97	80.000
214.34	-133.333
214.72	350.000
215.09	-125.000
215.47	0.000
215.84	-0.000
216.22	300.000
216.59	-40.000
216.97	0.000
217.34	100.000
217.72	12.500
218.09	-225.000
218.47	-250.000
218.84	0.000
219.22	140.000
219.59	-11.765
219.97	15.000
220.34	750.000
220.72	11.111
221.09	61.538
221.47	-33.333
221.84	-70.000
222.22	-71.429
222.59	0.000
222.97	75.000
223.34	-240.000
223.72	0.000
224.09	-25.000
224.46	-50.000
224.84	-40.000
225.21	-228.571
225.59	-350.000
225.96	-150.000
226.34	0.000
226.71	183.333
227.08	300.000
227.46	66.667
227.83	-50.000
228.21	47.368
228.58	12.500
228.95	300.000
229.33	116.667
229.70	50.000
230.08	68.421
230.45	120.000
230.82	200.000
231.20	-21.429
231.57	66.667
231.95	-9.091
232.32	-9.091
232.69	35.000
233.07	100.000
233.44	17.647
233.81	-90.000
234.19	44.444
234.56	-18.182
234.93	41.379
235.31	21.053
235.68	27.778
236.05	-30.000
236.43	34.615
236.80	48.000
237.17	33.333
237.55	3.030
237.92	-80.000
238.29	22.581
238.67	-13.636
239.04	-2.778
239.41	7.143
239.79	0.000
240.16	-3.704
240.53	8.696
240.91	-11.765
241.28	11.475
241.65	25.373
242.02	21.622
242.40	12.308
242.77	2.667
243.14	-2.439
243.51	-2.632
243.89	10.256
244.26	10.891
244.63	6.863
245.00	7.477
245.38	10.526
245.75	4.425
246.12	14.286
246.49	10.853
246.87	19.286
247.24	15.232
247.61	11.842
247.98	14.765
248.36	14.198
248.73	9.816
249.10	6.557
249.47	18.408
249.84	11.518
250.22	14.508
250.59	16.111
250.96	15.909
251.33	10.714
251.70	15.385
252.08	14.583
252.45	16.803
252.82	14.050
253.19	8.984
253.56	15.209
253.94	9.615
254.31	10.227
254.68	11.888
255.05	16.287
255.42	13.265
255.79	12.621
256.16	12.583
256.54	15.232
256.91	13.770
257.28	16.066
257.65	11.146
258.02	10.324
258.39	14.530
258.76	14.679
259.14	14.943
259.51	15.562
259.88	13.314
260.25	16.667
260.62	12.877
260.99	19.126
261.36	15.550
261.73	12.467
262.10	14.011
262.47	11.528
262.85	16.667
263.22	11.948
263.59	8.158
263.96	13.043
264.33	11.509
264.70	14.568
265.07	14.558
265.44	16.100
265.81	11.343
266.18	14.966
266.55	15.848
266.92	12.984
267.29	16.193
267.66	12.639
268.03	12.227
268.40	12.944
268.77	11.845
269.14	14.537
269.51	11.404
269.88	16.189
270.25	12.877
270.62	14.768
270.99	15.354
271.36	13.663
271.73	13.556
272.10	14.028
272.47	12.024
272.84	12.249
273.21	14.629
273.58	13.105
273.95	11.346
274.32	11.217
274.69	12.959
275.06	12.454
275.43	12.384
275.80	13.580
276.17	11.667
276.54	8.769
276.91	11.986
277.28	11.573
277.65	12.747
278.02	14.522
278.39	11.775
278.76	10.545
279.13	10.638
279.50	13.574
279.87	12.880
280.23	9.331
280.60	11.525
280.97	12.500
281.34	10.017
281.71	13.706
282.08	11.296
282.45	11.293
282.82	12.088
283.19	10.178
283.56	11.311
283.92	11.111
284.29	13.428
284.66	12.972
285.03	10.096
285.40	11.901
285.77	12.848
286.14	14.046
286.51	10.654
286.87	11.690
287.24	14.157
287.61	12.855
287.98	11.329
288.35	12.574
288.72	13.018
289.08	11.420
289.45	11.686
289.82	12.651
290.19	12.644
290.56	12.254
290.93	11.840
291.29	11.570
291.66	12.121
292.03	11.805
292.40	12.789
292.77	11.590
293.13	12.720
293.50	11.695
293.87	10.470
294.24	13.067
294.60	12.263
294.97	10.872
295.34	12.164
295.71	11.097
296.08	11.111
296.44	11.765
296.81	11.571
297.18	12.578
297.55	11.675
297.91	12.930
298.28	12.204
298.65	12.010
299.02	11.098
299.38	11.556
299.75	10.047
300.12	10.880
300.48	11.175
300.85	11.699
301.22	12.416
301.59	11.986
301.95	11.751
302.32	12.333
302.69	12.705
303.05	12.949
303.42	12.084
303.79	11.562
304.15	12.198
304.52	11.628
304.89	12.147
305.25	12.008
305.62	12.644
305.99	12.577
306.35	11.089
306.72	13.030
307.09	11.168
307.45	13.665
307.82	13.925
308.19	13.219
308.55	12.343
308.92	13.632
309.29	11.877
309.65	12.573
310.02	12.970
310.38	12.598
310.75	14.078
311.12	14.669
311.48	13.881
311.85	14.720
312.22	13.947
312.58	14.648
312.95	14.914
313.31	14.724
313.68	15.201
314.05	14.815
314.41	15.847
314.78	15.804
315.14	15.880
315.51	16.898
315.87	16.562
316.24	17.443
316.61	17.052
316.97	18.371
317.34	16.226
317.70	17.817
318.07	17.372
318.43	18.793
318.80	18.395
319.16	19.313
319.53	17.138
319.89	19.982
320.26	19.128
320.62	19.681
320.99	20.683
321.35	20.887
321.72	21.488
322.08	20.920
322.45	21.409
322.81	21.390
323.18	20.177
323.54	21.207
323.91	22.509
324.27	23.064
324.64	23.174
325.00	22.637
325.37	24.242
325.73	24.628
326.10	24.250
326.46	25.570
326.83	25.941
327.19	25.748
327.56	26.166
327.92	25.256
328.29	26.048
328.65	25.042
329.01	26.227
329.38	27.127
329.74	28.253
330.11	27.226
330.47	28.054
330.84	26.701
331.20	28.333
331.56	26.690
331.93	27.782
332.29	27.881
332.66	27.907
333.02	25.963
333.38	26.510
333.75	27.020
334.11	26.272
334.48	27.640
334.84	28.377
335.20	26.952
335.57	28.752
335.93	27.934
336.29	26.373
336.66	26.829
337.02	26.589
337.38	27.041
337.75	26.198
338.11	28.932
338.47	26.716
338.84	26.734
339.20	26.369
339.56	25.783
339.93	27.094
340.29	27.134
340.65	26.764
341.02	26.656
341.38	26.031
341.74	26.392
342.11	26.790
342.47	26.370
342.83	27.697
343.20	26.738
343.56	26.143
343.92	26.181
344.28	26.484
344.65	26.512
345.01	25.897
345.37	25.194
345.73	25.721
346.10	25.741
346.46	25.554
346.82	26.517
347.19	24.828
347.55	25.569
347.91	25.557
348.27	25.948
348.63	25.514
349.00	24.087
349.36	26.022
349.72	25.670
350.08	25.186
350.45	24.639
350.81	24.962
351.17	24.962
351.53	25.777
351.89	26.651
352.26	25.149
352.62	25.448
352.98	25.496
353.34	25.616
353.70	24.730
354.07	26.602
354.43	25.816
354.79	25.430
355.15	25.386
355.51	25.512
355.87	24.533
356.24	25.932
356.60	24.612
356.96	24.388
357.32	23.717
357.68	24.890
358.04	23.802
358.40	25.373
358.77	25.512
359.13	23.781
359.49	24.312
359.85	24.583
360.21	25.323
360.57	25.197
360.93	24.118
361.29	25.263
361.66	24.185
362.02	25.331
362.38	24.385
362.74	24.372
363.10	25.653
363.46	25.623
363.82	24.645
364.18	25.264
364.54	24.620
364.90	25.017
365.26	23.103
365.62	24.667
365.98	24.915
366.35	24.161
366.71	24.150
367.07	24.763
367.43	24.622
367.79	24.618
368.15	24.682
368.51	24.357
368.87	24.624
369.23	24.133
369.59	24.249
369.95	24.138
370.31	25.118
370.67	25.516
371.03	25.416
371.39	23.774
371.75	24.072
372.11	24.390
372.47	24.374
372.83	26.047
373.19	25.217
373.55	24.322
373.91	23.722
374.27	24.062
374.63	25.575
374.99	23.806
375.35	24.416
375.71	24.387
376.07	24.726
376.42	24.307
376.78	25.420
377.14	24.579
377.50	24.984
377.86	25.493
378.22	25.150
378.58	24.078
378.94	25.176
379.30	25.542
379.66	24.456
380.02	25.274
380.38	25.979
380.74	25.183
381.09	25.900
381.45	24.602
381.81	26.230
382.17	25.059
382.53	25.556
382.89	25.169
383.25	25.791
383.61	23.669
383.97	25.029
384.32	25.837
384.68	23.782
385.04	25.448
385.40	25.044
385.76	25.029
386.12	25.434
386.48	26.059
386.83	25.268
387.19	25.666
387.55	25.235
387.91	24.772
388.27	25.924
388.62	24.800
388.98	24.365
389.34	24.691
389.70	25.392
390.06	25.992
390.42	24.699
390.77	25.647
391.13	24.472
391.49	25.242
391.85	24.424
392.20	24.911
392.56	25.281
392.92	25.463
393.28	24.876
393.64	25.140
393.99	25.508
394.35	25.000
394.71	25.389
395.07	25.329
395.42	25.300
395.78	26.021
396.14	25.371
396.50	25.416
396.85	24.866
397.21	26.154
397.57	25.324
397.92	25.372
398.28	24.606
398.64	25.343
399.00	24.764
399.35	25.916
399.71	25.435
400.07	25.604
400.42	25.437
400.78	24.711
401.14	24.815
401.49	24.957
401.85	25.233
402.21	25.608
402.57	25.411
402.92	25.532
403.28	24.649
403.63	25.358
403.99	25.178
404.35	25.071
404.70	24.873
405.06	25.054
405.42	24.649
405.77	25.463
406.13	25.176
406.49	24.550
406.84	25.485
407.20	25.098
407.55	25.076
407.91	25.581
408.27	24.794
408.62	25.538
408.98	24.956
409.34	24.633
409.69	25.464
410.05	24.971
410.40	25.638
410.76	25.182
411.11	26.359
411.47	25.369
411.83	26.396
412.18	25.843
412.54	25.430
412.89	26.135
413.25	25.621
413.60	25.043
413.96	26.399
414.31	25.836
414.67	26.655
415.03	26.092
415.38	25.788
415.74	26.084
416.09	26.403
416.45	26.111
416.80	25.887
417.16	26.437
417.51	26.276
417.87	26.732
418.22	27.246
418.58	26.084
418.93	27.416
419.29	27.374
419.64	27.131
420.00	27.300
420.35	27.063
420.71	26.824
421.06	27.372
421.42	27.752
421.77	27.302
422.12	27.326
422.48	27.087
422.83	29.189
423.19	28.223
423.54	29.480
423.90	27.388
424.25	29.333
424.61	28.301
424.96	29.379
425.31	29.777
425.67	29.254
426.02	29.330
426.38	28.473
426.73	28.739
427.09	30.507
427.44	29.492
427.79	29.685
428.15	29.737
428.50	30.506
428.85	29.736
429.21	30.479
429.56	30.109
429.92	30.909
430.27	30.072
430.62	30.532
430.98	30.841
431.33	30.499
431.68	30.364
432.04	31.488
432.39	31.976
432.74	31.107
433.10	32.450
433.45	31.104
433.80	32.296
434.16	32.231
434.51	32.991
434.86	32.519
435.22	33.475
435.57	33.608
435.92	32.999
436.28	33.504
436.63	34.244
436.98	33.816
437.34	34.047
437.69	33.737
438.04	34.215
438.39	33.659
438.75	33.260
439.10	34.461
439.45	34.377
439.81	34.689
440.16	33.619
440.51	34.727
440.86	33.741
441.22	34.995
441.57	35.010
441.92	34.821
442.27	35.859
442.63	34.426
442.98	35.859
443.33	35.981
443.68	35.332
444.03	36.265
444.39	36.153
444.74	35.579
445.09	34.871
445.44	36.565
445.79	36.494
446.15	35.612
446.50	36.434
446.85	35.944
447.20	36.750
447.55	36.977
447.91	37.016
448.26	37.104
448.61	36.610
448.96	38.090
449.31	36.214
449.66	36.765
450.02	37.764
450.37	37.666
450.72	37.567
451.07	38.838
451.42	37.955
451.77	37.243
452.12	38.036
452.47	38.206
452.83	38.514
453.18	38.646
453.53	38.196
453.88	38.377
454.23	38.531
454.58	38.712
454.93	38.532
455.28	40.217
455.63	38.829
455.98	38.212
456.34	38.751
456.69	38.918
457.04	39.716
457.39	38.581
457.74	39.821
458.09	38.550
458.44	39.763
458.79	38.989
459.14	39.014
459.49	40.973
459.84	39.559
460.19	38.312
460.54	41.113
460.89	40.709
461.24	38.966
461.59	41.284
461.94	40.502
462.29	40.426
462.64	40.857
462.99	41.055
463.34	41.077
463.69	39.566
464.04	41.467
464.39	41.143
464.74	40.365
465.09	40.888
465.44	41.309
465.79	40.455
466.14	40.438
466.49	40.421
466.84	41.598
467.19	42.832
467.54	40.893
467.89	40.575
468.24	42.438
468.59	41.401
468.94	42.016
469.29	41.812
469.64	40.559
469.99	42.256
470.34	42.636
470.68	42.105
471.03	43.484
471.38	42.969
471.73	42.263
472.08	43.464
472.43	42.565
472.78	43.325
473.13	41.340
473.48	43.323
473.83	42.078
474.17	42.497
474.52	42.874
474.87	42.137
475.22	42.535
475.57	41.796
475.92	42.509
476.27	42.226
476.61	42.056
476.96	42.336
477.31	43.713
477.66	42.865
478.01	42.044
478.36	42.074
478.70	42.118
479.05	43.712
479.40	43.435
479.75	43.084
480.10	43.486
480.45	43.163
480.79	42.902
481.14	43.015
481.49	42.890
481.84	43.429
482.19	43.312
482.53	43.857
482.88	43.288
483.23	43.175
483.58	43.712
483.92	42.996
484.27	42.972
484.62	43.193
484.97	43.040
485.31	42.907
485.66	39.563
486.01	39.686
486.36	40.854
486.70	41.972
487.05	42.908
487.40	42.744
487.75	42.316
488.09	42.773
488.44	42.201
488.79	42.901
489.13	42.904
489.48	42.408
489.83	42.938
490.17	42.851
490.52	42.898
490.87	44.205
491.22	44.151
491.56	43.558
491.91	44.440
492.26	44.829
492.60	43.551
492.95	43.265
493.30	44.420
493.64	44.459
493.99	44.912
494.34	43.380
494.68	43.812
495.03	44.890
495.37	44.252
495.72	43.810
496.07	44.040
496.41	43.758
496.76	43.870
497.11	44.798
497.45	44.109
497.80	45.135
498.14	44.807
498.49	45.129
498.84	45.018
499.18	44.624
499.53	44.215
499.87	44.308
500.22	44.078
500.56	44.534
500.91	43.295
501.26	45.318
501.60	43.305
501.95	45.028
502.29	44.537
502.64	45.212
502.98	44.478
503.33	44.320
503.67	43.960
504.02	44.615
504.36	45.264
504.71	45.200
505.06	44.520
505.40	44.835
505.75	44.308
506.09	44.659
506.44	45.404
506.78	46.009
507.13	44.352
507.47	45.666
507.82	44.744
508.16	44.837
508.51	44.210
508.85	45.300
509.19	44.623
509.54	44.717
509.88	45.168
510.23	45.993
510.57	45.336
510.92	44.944
511.26	44.781
511.61	44.133
511.95	44.461
512.30	45.347
512.64	45.377
512.98	45.423
513.33	46.925
513.67	44.671
514.02	46.295
514.36	45.217
514.70	46.927
515.05	45.985
515.39	46.089
515.74	46.554
516.08	47.068
516.42	46.049
516.77	45.636
517.11	44.714
517.46	45.970
517.80	45.591
518.14	46.899
518.49	45.662
518.83	45.396
519.17	44.265
519.52	44.602
519.86	46.146
520.20	46.432
520.55	45.345
520.89	45.777
521.23	45.338
521.58	46.667
521.92	46.006
522.26	45.361
522.61	46.528
522.95	45.790
523.29	45.632
523.64	44.283
523.98	46.720
524.32	47.163
524.66	46.614
525.01	45.187
525.35	46.238
525.69	45.302
526.04	44.202
526.38	45.345
526.72	44.579
527.06	45.689
527.41	44.665
527.75	46.378
528.09	46.222
528.43	44.227
528.78	44.682
529.12	44.954
529.46	43.789
529.80	44.222
530.15	44.464
530.49	45.255
530.83	45.868
531.17	44.624
531.51	45.247
531.86	44.351
532.20	45.427
532.54	43.926
532.88	44.848
533.22	43.783
533.57	43.681
533.91	44.052
534.25	44.658
534.59	44.310
534.93	43.350
535.27	43.324
535.62	44.343
535.96	44.335
536.30	42.538
536.64	44.865
536.98	43.911
537.32	43.827
537.66	43.793
538.01	42.538
538.35	42.814
538.69	43.810
539.03	44.513
539.37	42.580
539.71	42.883
540.05	43.345
540.39	42.604
540.73	42.623
541.07	42.551
541.42	42.056
541.76	42.645
542.10	42.039
542.44	42.814
542.78	42.579
543.12	41.418
543.46	42.063
543.80	42.326
544.14	42.549
544.48	42.199
544.82	43.028
545.16	41.860
545.50	41.881
545.84	41.580
546.18	43.765
546.52	42.420
546.86	41.384
547.20	42.684
547.54	41.448
547.88	42.194
548.22	40.526
548.56	41.545
548.90	42.388
549.24	42.249
549.58	40.379
549.92	41.645
550.26	42.395
550.60	40.842
550.94	42.432
551.28	41.716
551.62	41.779
551.96	42.006
552.30	41.173
552.64	42.315
552.98	41.672
553.32	41.350
553.66	41.736
554.00	41.488
554.34	41.634
554.68	40.736
555.02	40.867
555.36	40.894
555.69	40.231
556.03	40.542
556.37	40.426
556.71	41.344
557.05	40.575
557.39	40.942
557.73	41.347
558.07	41.126
558.41	41.595
558.75	40.297
559.08	41.823
559.42	40.466
559.76	40.366
560.10	40.322
560.44	38.918
560.78	39.875
561.12	39.840
561.45	40.389
561.79	39.621
562.13	39.680
562.47	38.533
562.81	39.873
563.15	40.720
563.48	39.466
563.82	39.722
564.16	39.007
564.50	38.737
564.84	39.115
565.17	40.353
565.51	39.125
565.85	37.767
566.19	39.055
566.52	38.853
566.86	38.879
567.20	37.575
567.54	37.175
567.88	37.564
568.21	38.241
568.55	36.930
568.89	35.906
569.23	35.657
569.56	35.404
569.90	34.462
570.24	34.705
570.57	34.060
570.91	34.109
571.25	33.758
571.59	33.871
571.92	33.076
572.26	32.927
572.60	34.289
572.93	33.315
573.27	33.493
573.61	32.478
573.95	32.484
574.28	32.376
574.62	32.515
574.96	31.804
575.29	31.681
575.63	32.502
575.97	32.479
576.30	31.730
576.64	31.878
576.98	31.526
577.31	31.516
577.65	31.572
577.98	31.194
578.32	30.925
578.66	31.455
578.99	31.292
579.33	31.325
579.67	31.414
580.00	31.355
580.34	31.348
580.67	31.024
581.01	30.917
581.35	30.801
581.68	30.151
582.02	30.358
582.35	31.026
582.69	30.961
583.02	30.798
583.36	30.704
583.70	30.902
584.03	30.646
584.37	30.585
584.70	30.709
585.04	29.947
585.37	30.490
585.71	30.140
586.04	30.669
586.38	30.130
586.72	30.283
587.05	30.417
587.39	30.217
587.72	30.191
588.06	29.932
588.39	30.271
588.73	30.026
589.06	30.164
589.40	30.639
589.73	30.656
590.07	30.570
590.40	31.677
590.73	30.859
591.07	31.981
591.40	30.754
591.74	30.803
592.07	31.181
592.41	31.112
592.74	30.245
593.08	29.936
593.41	30.884
593.75	29.511
594.08	29.718
594.41	29.712
594.75	29.392
595.08	29.711
595.42	30.000
595.75	29.480
596.09	30.837
596.42	30.634
596.75	30.181
597.09	30.343
597.42	29.360
597.75	29.283
598.09	30.635
598.42	30.559
598.76	28.697
599.09	29.548
599.42	28.964
599.76	28.953
600.09	29.329
600.42	29.530
600.76	28.930
601.09	28.178
601.42	28.527
601.76	28.862
602.09	28.592
602.42	27.917
602.76	28.450
603.09	28.965
603.42	28.432
603.76	28.365
604.09	29.383
604.42	27.963
604.76	28.311
605.09	28.799
605.42	28.190
605.75	28.308
606.09	28.294
606.42	28.019
606.75	26.837
607.09	27.765
607.42	28.362
607.75	28.370
608.08	27.822
608.42	27.811
608.75	28.400
609.08	27.292
609.41	28.143
609.75	28.438
610.08	27.792
610.41	28.165
610.74	27.731
611.07	28.108
611.41	28.341
611.74	28.453
612.07	28.705
612.40	27.947
612.73	27.628
613.07	27.579
613.40	27.334
613.73	27.780
614.06	28.018
614.39	27.308
614.72	27.171
615.06	27.671
615.39	26.631
615.72	27.346
616.05	26.663
616.38	28.052
616.71	27.116
617.05	27.103
617.38	27.341
617.71	27.700
618.04	28.117
618.37	27.978
618.70	28.507
619.03	26.583
619.36	27.928
619.69	27.867
620.03	27.621
620.36	27.178
620.69	27.452
621.02	26.903
621.35	27.939
621.68	28.995
622.01	27.758
622.34	26.848
622.67	27.285
623.00	27.395
623.33	28.003
623.66	28.145
623.99	27.321
624.32	28.070
624.65	27.284
624.99	27.373
625.32	28.347
625.65	28.119
625.98	26.780
626.31	27.144
626.64	27.985
626.97	27.832
627.30	26.651
627.63	27.832
627.96	28.078
628.29	27.782
628.62	28.296
628.95	30.500
629.28	27.528
629.61	28.704
629.94	27.197
630.26	26.864
630.59	27.029
630.92	27.273
631.25	30.322
631.58	28.814
631.91	28.022
632.24	28.626
632.57	28.368
632.90	28.084
633.23	29.286
633.56	26.735
633.89	28.719
634.22	29.314
634.55	27.349
634.88	27.814
635.20	29.386
635.53	28.475
635.86	28.277
636.19	28.632
636.52	28.586
636.85	28.498
637.18	28.067
637.51	28.602
637.83	29.900
638.16	29.147
638.49	27.347
638.82	28.298
639.15	27.721
639.48	29.677
639.81	29.446
640.13	29.446
640.46	28.121
640.79	27.328
641.12	28.447
641.45	27.854
641.77	29.782
642.10	28.871
642.43	29.255
642.76	27.642
643.09	27.397
643.41	27.731
643.74	26.897
644.07	29.103
644.40	27.016
644.73	27.431
645.05	27.313
645.38	30.791
645.71	28.299
646.04	30.273
646.36	28.175
646.69	30.061
647.02	29.052
647.35	27.786
647.67	28.502
648.00	28.981
648.33	28.829
648.66	27.960
648.98	26.667
649.31	25.304
649.64	27.357
649.96	26.790
650.29	26.287
650.62	27.016
650.94	29.730
651.27	26.347
651.60	28.216
651.92	27.964
652.25	27.641
652.58	25.997
652.90	25.872
653.23	27.465
653.56	25.250
653.88	25.281
654.21	26.338
654.54	26.445
654.86	26.912
655.19	25.220
655.52	22.506
655.84	18.764
656.17	22.759
656.49	32.196
656.82	35.819
657.15	27.355
657.47	20.846
657.80	15.038
658.13	11.823
658.45	15.526
658.78	19.340
659.10	18.876
659.43	18.253
659.75	19.051
660.08	18.936
660.41	20.844
660.73	21.323
661.06	22.173
661.38	24.880
661.71	25.517
662.03	25.926
662.36	27.370
662.68	27.580
663.01	26.195
663.33	26.843
663.66	29.487
663.98	25.192
664.31	27.205
664.63	26.012
664.96	28.312
665.28	24.319
665.61	26.573
665.93	26.964
666.26	28.674
666.58	24.908
666.91	26.542
667.23	27.238
667.56	27.022
667.88	28.600
668.21	23.828
668.53	22.973
668.86	28.291
669.18	25.255
669.50	27.435
669.83	26.200
670.15	25.394
670.48	26.587
670.80	24.283
671.13	24.008
671.45	24.803
671.77	25.424
672.10	21.833
672.42	23.948
672.75	23.810
673.07	21.791
673.39	21.109
673.72	24.832
674.04	24.138
674.37	23.792
674.69	27.513
675.01	22.095
675.34	24.046
675.66	24.719
675.98	25.560
676.31	25.781
676.63	24.715
676.95	28.736
677.28	27.419
677.60	22.638
677.92	25.912
678.25	26.325
678.57	25.445
678.89	24.573
679.22	23.693
679.54	24.103
679.86	23.051
680.18	21.227
680.51	22.170
680.83	24.059
681.15	23.103
681.48	24.180
681.80	24.352
682.12	22.902
682.44	22.538
682.77	23.050
683.09	23.485
683.41	25.775
683.73	24.099
684.06	23.801
684.38	22.182
684.70	20.826
685.02	23.752
685.34	21.131
685.67	20.347
685.99	19.939
686.31	19.477
686.63	20.695
686.96	20.978
687.28	21.661
687.60	21.717
687.92	19.775
688.24	22.204
688.56	18.276
688.89	22.323
689.21	22.505
689.53	20.588
689.85	21.893
690.17	22.593
690.49	21.912
690.82	20.990
691.14	21.457
691.46	21.606
691.78	21.547
692.10	21.284
692.42	22.679
692.74	22.686
693.06	20.556
693.39	23.340
693.71	21.053
694.03	23.234
694.35	22.095
694.67	22.998
694.99	21.064
695.31	21.854
695.63	23.810
695.95	22.774
696.27	23.297
696.59	23.894
696.91	21.622
697.23	22.198
697.56	18.534
697.88	21.591
698.20	21.846
698.52	21.402
698.84	24.740
699.16	25.510
699.48	21.130
699.80	22.553
700.12	23.581
700.44	20.507
700.76	23.515
701.08	21.792
701.40	24.093
701.72	22.388
702.04	23.529
702.36	19.372
702.68	22.983
703.00	24.450
703.32	22.660
703.64	21.760
703.96	20.764
704.28	20.885
704.60	24.304
704.91	22.449
705.23	21.096
705.55	23.955
705.87	22.121
706.19	23.006
706.51	21.084
706.83	21.037
707.15	15.344
707.47	18.458
707.79	17.467
708.11	19.915
708.43	19.140
708.74	17.411
709.06	20.186
709.38	20.892
709.70	21.836
710.02	23.256
710.34	21.011
710.66	20.391
710.98	23.497
711.29	17.308
711.61	19.492
711.93	19.943
712.25	22.703
712.57	23.894
712.89	24.118
713.20	21.302
713.52	24.277
713.84	23.677
714.16	23.947
714.48	19.845
714.80	18.961
715.11	17.848
715.43	19.629
715.75	17.368
716.07	23.204
716.39	23.497
716.70	19.578
717.02	22.951
717.34	19.512
717.66	19.463
717.97	19.178
718.29	20.962
718.61	22.368
718.93	19.741
719.24	19.876
719.56	20.859
719.88	17.718
720.20	21.290
720.51	18.944
720.83	21.875
721.15	18.750
721.46	15.068
721.78	20.667
722.10	17.152
722.42	17.450
722.73	21.290
723.05	21.404
723.37	19.792
723.68	24.373
724.00	21.661
724.32	19.366
724.63	17.133
724.95	24.113
725.27	23.345
725.58	18.728
725.90	24.483
726.22	15.047
726.53	24.026
726.85	17.925
727.16	19.033
727.48	19.572
727.80	17.219
728.11	18.728
728.43	19.865
728.74	21.405
729.06	20.861
729.38	18.182
729.69	20.134
730.01	20.238
730.32	16.667
730.64	18.553
730.96	18.323
731.27	21.508
731.59	18.956
731.90	15.325
732.22	17.448
732.53	14.641
732.85	14.571
733.16	19.355
733.48	18.598
733.80	16.435
734.11	15.100
734.43	20.541
734.74	20.253
735.06	15.327
735.37	19.730
735.69	17.838
736.00	20.621
736.32	17.790
736.63	21.389
736.95	13.506
737.26	16.667
737.58	16.364
737.89	17.059
738.21	14.985
738.52	19.016
738.83	23.208
739.15	20.567
739.46	17.007
739.78	20.859
740.09	16.046
740.41	19.534
740.72	19.667
741.04	20.065
741.35	21.053
741.66	18.824
741.98	19.262
742.29	18.410
742.61	20.175
742.92	15.000
743.23	19.495
743.55	18.992
743.86	22.000
744.18	16.942
744.49	13.502
744.80	16.872
745.12	18.143
745.43	21.545
745.74	24.138
746.06	20.763
746.37	21.097
746.68	19.919
747.00	17.083
747.31	19.742
747.62	19.231
747.94	19.838
748.25	11.245
748.56	20.000
748.88	17.949
749.19	18.966
749.50	17.316
749.82	16.064
750.13	21.352
750.44	17.667
750.75	15.385
751.07	20.000
751.38	17.350
751.69	17.572
752.01	18.447
752.32	19.935
752.63	19.728
752.94	19.723
753.26	16.357
753.57	15.556
753.88	15.730
754.19	15.756
754.51	17.042
754.82	16.399
755.13	20.656
755.44	19.454
755.75	15.789
756.07	19.403
756.38	17.610
756.69	17.470
757.00	13.296
757.31	14.754
757.63	13.043
757.94	17.371
758.25	18.059
758.56	14.815
758.87	17.500
759.18	14.667
759.50	14.731
759.81	17.367
760.12	16.981
760.43	15.104
760.74	14.286
761.05	16.000
761.36	14.217
761.67	16.244
761.99	17.568
762.30	15.244
762.61	16.172
762.92	23.507
763.23	16.479
763.54	19.065
763.85	16.151
764.16	16.498
764.47	17.958
764.78	15.974
765.10	14.956
765.41	19.744
765.72	14.550
766.03	16.949
766.34	13.793
766.65	15.331
766.96	14.343
767.27	16.129
767.58	17.413
767.89	25.481
768.20	18.779
768.51	16.204
768.82	18.072
769.13	20.076
769.44	14.615
769.75	18.412
770.06	16.538
770.37	18.110
770.68	13.191
770.99	12.955
771.30	18.148
771.61	18.251
771.92	13.333
772.23	16.194
772.54	12.037
772.85	22.120
773.16	21.429
773.47	13.228
773.78	14.595
774.09	19.318
774.39	20.000
774.70	22.404
775.01	7.317
775.32	15.294
775.63	11.656
775.94	6.369
776.25	19.355
776.56	26.282
776.87	27.211
777.18	17.241
777.48	15.385
777.79	18.243
778.10	13.235
778.41	19.444
778.72	13.103
779.03	18.519
779.34	18.788
779.65	20.725
779.95	15.000
780.26	20.455
780.57	18.710
780.88	22.464
781.19	16.774
781.50	23.529
781.80	12.903
782.11	17.989
782.42	10.101
782.73	11.377
783.04	15.642
783.34	12.121
783.65	20.261
783.96	14.907
784.27	12.500
784.57	16.556
784.88	21.429
785.19	15.748
785.50	14.961
785.81	12.030
786.11	20.769
786.42	12.950
786.73	13.669
787.04	18.797
787.34	9.836
787.65	12.800
787.96	16.418
788.26	23.077
788.57	20.280
788.88	12.500
789.19	24.183
789.49	20.548
789.80	11.348
790.11	9.449
790.41	8.594
790.72	9.322
791.03	7.767
791.33	16.522
791.64	15.789
791.95	8.036
792.25	14.286
792.56	12.500
792.87	15.625
793.17	14.286
793.48	4.167
793.79	6.024
794.09	17.431
794.40	5.505
794.70	22.449
795.01	7.143
795.32	14.384
795.62	13.380
795.93	12.879
796.23	19.672
796.54	9.821
796.85	9.574
797.15	13.043
797.46	15.068
797.76	7.500
798.07	13.043
798.37	4.124
798.68	14.286
798.99	11.494
799.29	21.348
799.60	18.085
799.90	10.843
800.21	13.846
800.51	13.433
800.82	1.471
801.12	6.849
801.43	5.882
801.73	11.864
802.04	12.121
802.34	20.000
802.65	11.864
802.95	19.403
803.26	20.339
803.56	12.329
803.87	10.000
804.17	20.548
804.48	-5.263
804.78	11.111
805.09	5.172
805.39	21.622
805.70	0.000
806.00	14.634
806.30	10.843
806.61	5.479
806.91	14.423
807.22	16.667
807.52	3.448
807.83	12.500
808.13	16.867
808.43	16.854
808.74	8.750
809.04	5.882
809.35	2.667
809.65	-4.286
809.95	10.959
810.26	-1.754
810.56	3.448
810.86	5.882
811.17	10.526
811.47	9.836
811.77	24.444
812.08	8.475
812.38	18.333
812.69	27.586
812.99	5.660
813.29	7.692
813.59	8.000
813.90	15.789
814.20	9.091
814.50	23.944
814.81	23.077
815.11	18.033
815.41	5.970
815.72	8.621
816.02	14.286
816.32	24.444
816.62	20.455
816.93	8.889
817.23	20.370
817.53	10.638
817.84	23.810
818.14	17.647
818.44	22.449
818.74	31.111
819.04	-2.564
819.35	0.000
819.65	-19.231
819.95	9.434
820.25	2.222
820.56	9.524
820.86	3.125
821.16	-7.692
821.46	-11.628
821.76	-18.000
822.07	16.071
822.37	10.870
822.67	0.000
822.97	-24.324
823.27	10.000
823.57	6.122
823.88	2.222
824.18	25.000
824.48	-33.333
824.78	4.000
825.08	3.030
825.38	22.222
825.69	27.660
825.99	11.111
826.29	-17.143
826.59	-2.564
826.89	13.953
827.19	34.000
827.49	23.529
827.79	8.333
828.09	-27.027
828.39	-50.000
828.70	26.829
829.00	11.628
829.30	-17.857
829.60	11.765
829.90	6.522
830.20	-2.857
830.50	6.897
830.80	-16.667
831.10	-46.154
831.40	29.412
831.70	23.810
832.00	54.839
832.30	-70.588
832.60	-20.833
832.90	-15.385
833.20	-26.316
833.50	-20.000
833.80	-26.316
834.10	-57.143
834.40	30.556
834.70	43.750
835.00	-28.571
835.30	32.353
835.60	-10.000
835.90	-20.000
836.20	-22.727
836.50	20.000
836.80	-45.455
837.10	3.704
837.40	-33.333
837.70	-31.250
838.00	-3.571
838.30	-30.435
838.60	31.034
838.90	35.714
839.19	-56.522
839.49	-108.333
839.79	-13.043
840.09	-25.000
840.39	0.000
840.69	25.806
840.99	-7.143
841.29	-13.333
841.59	-52.632
841.88	7.692
842.18	46.154
842.48	-60.000
842.78	-30.000
843.08	-13.333
843.38	16.129
843.68	-38.889
843.97	-5.882
844.27	43.750
844.57	-26.316
844.87	-110.000
845.17	-20.000
845.47	33.333
845.76	0.000
846.06	44.444
846.36	35.294
846.66	26.923
846.96	-13.333
847.25	41.176
847.55	39.130
847.85	-15.000
848.15	11.765
848.44	-18.182
848.74	38.095
849.04	-58.333
849.34	-100.000
849.63	17.391
849.93	350.000
850.23	-13.333
850.53	53.846
850.82	36.364
851.12	68.182
851.42	-100.000
851.71	23.077
852.01	-45.000
852.31	-69.231
852.61	-63.158
852.90	16.667
853.20	-11.111
853.50	-77.778
853.79	-9.524
854.09	9.091
854.39	-41.667
854.68	12.903
854.98	-30.769
855.28	-61.111
855.57	17.857
855.87	16.000
856.17	-36.364
856.46	-11.111
856.76	-5.556
857.05	-30.435
857.35	-12.500
857.65	30.769
857.94	9.524
858.24	18.519
858.53	47.826
858.83	41.176
859.13	-5.882
859.42	52.941
859.72	0.000
860.01	-15.000
860.31	-88.889
860.60	-30.000
860.90	-20.000
861.20	-27.778
861.49	-38.462
861.79	-6.667
862.08	-23.077
862.38	12.500
862.67	17.647
862.97	-25.000
863.26	-22.222
863.56	-100.000
863.85	-9.091
864.15	16.667
864.44	-233.333
864.74	7.143
865.03	6.250
865.33	-80.000
865.62	3.226
865.92	27.273
866.21	39.130
866.51	-28.571
866.80	-240.000
867.10	8.333
867.39	-8.333
867.69	800.000
867.98	-42.857
868.27	35.294
868.57	-1600.000
868.86	-60.000
869.16	19.048
869.45	33.333
869.75	9.091
870.04	-100.000
870.33	-83.333
870.63	-228.571
870.92	50.000
871.22	-112.500
871.51	-90.909
871.80	-233.333
872.10	150.000
>>>>>End Processed Spectral Data<<<<<
