SpectraSuite Data File
++++++++++++++++++++++++++++++++++++
Date: Thu May 14 14:27:25 PDT 2015
User: schluterlab
Dark Spectrum Present: Yes
Reference Spectrum Present: Yes
Number of Sampled Component Spectra: 1
Spectrometers: USB2E3373
Integration Time (usec): 3000 (USB2E3373)
Spectra Averaged: 3 (USB2E3373)
Boxcar Smoothing: 0 (USB2E3373)
Correct for Electrical Dark: No (USB2E3373)
Strobe/Lamp Enabled: No (USB2E3373)
Correct for Detector Non-linearity: No (USB2E3373)
Correct for Stray Light: No (USB2E3373)
Number of Pixels in Processed Spectrum: 2048
>>>>>Begin Processed Spectral Data<<<<<
178.53	0.000
178.91	-157.143
179.29	600.000
179.67	500.000
180.04	50.000
180.42	-80.000
180.80	-160.000
181.18	700.000
181.56	1100.000
181.94	-275.000
182.31	375.000
182.69	-666.667
183.07	650.000
183.45	-125.000
183.83	200.000
184.20	133.333
184.58	-1700.000
184.96	275.000
185.34	66.667
185.72	220.000
186.09	55.556
186.47	-500.000
186.85	-140.000
187.23	11.111
187.61	800.000
187.98	-140.000
188.36	-75.000
188.74	75.000
189.12	100.000
189.49	87.500
189.87	100.000
190.25	133.333
190.63	320.000
191.00	11.111
191.38	0.000
191.76	150.000
192.14	133.333
192.51	-500.000
192.89	250.000
193.27	0.000
193.65	157.143
194.02	0.000
194.40	185.714
194.78	-142.857
195.15	0.000
195.53	100.000
195.91	0.000
196.29	375.000
196.66	69.231
197.04	1000.000
197.42	128.571
197.79	250.000
198.17	150.000
198.55	185.714
198.92	211.111
199.30	100.000
199.68	127.273
200.05	100.000
200.43	150.000
200.81	-57.143
201.18	0.000
201.56	-44.444
201.94	0.000
202.31	33.333
202.69	133.333
203.07	-700.000
203.44	177.778
203.82	225.000
204.19	191.667
204.57	166.667
204.95	125.000
205.32	700.000
205.70	-350.000
206.08	300.000
206.45	83.333
206.83	80.000
207.20	66.667
207.58	120.000
207.96	133.333
208.33	350.000
208.71	-25.000
209.08	233.333
209.46	0.000
209.84	-50.000
210.21	-750.000
210.59	-300.000
210.96	-300.000
211.34	350.000
211.71	125.000
212.09	400.000
212.46	0.000
212.84	-350.000
213.22	80.000
213.59	175.000
213.97	130.000
214.34	433.333
214.72	-50.000
215.09	175.000
215.47	0.000
215.84	-185.714
216.22	150.000
216.59	180.000
216.97	300.000
217.34	325.000
217.72	187.500
218.09	100.000
218.47	25.000
218.84	0.000
219.22	-340.000
219.59	94.118
219.97	90.000
220.34	-400.000
220.72	177.778
221.09	107.692
221.47	200.000
221.84	130.000
222.22	14.286
222.59	0.000
222.97	137.500
223.34	140.000
223.72	600.000
224.09	75.000
224.46	275.000
224.84	440.000
225.21	0.000
225.59	100.000
225.96	0.000
226.34	65.385
226.71	-100.000
227.08	400.000
227.46	93.333
227.83	275.000
228.21	47.368
228.58	-137.500
228.95	-250.000
229.33	50.000
229.70	140.000
230.08	126.316
230.45	-10.000
230.82	166.667
231.20	-7.143
231.57	108.333
231.95	163.636
232.32	190.909
232.69	95.000
233.07	425.000
233.44	111.765
233.81	60.000
234.19	61.111
234.56	95.455
234.93	75.862
235.31	110.526
235.68	61.111
236.05	35.000
236.43	103.846
236.80	100.000
237.17	59.259
237.55	54.545
237.92	60.000
238.29	6.452
238.67	34.091
239.04	52.778
239.41	47.619
239.79	13.043
240.16	24.074
240.53	28.261
240.91	7.843
241.28	3.279
241.65	31.343
242.02	13.514
242.40	12.308
242.77	16.000
243.14	7.317
243.51	-1.316
243.89	14.103
244.26	20.792
244.63	18.627
245.00	15.888
245.38	10.526
245.75	-0.885
246.12	19.048
246.49	12.403
246.87	22.143
247.24	14.570
247.61	19.079
247.98	9.396
248.36	15.432
248.73	11.656
249.10	10.383
249.47	14.428
249.84	14.136
250.22	15.026
250.59	9.444
250.96	13.636
251.33	4.592
251.70	11.111
252.08	10.417
252.45	11.066
252.82	10.331
253.19	8.594
253.56	11.787
253.94	8.846
254.31	10.606
254.68	10.839
255.05	9.446
255.42	9.184
255.79	6.149
256.16	6.623
256.54	3.311
256.91	10.492
257.28	6.557
257.65	5.732
258.02	5.605
258.39	7.977
258.76	13.150
259.14	7.759
259.51	5.187
259.88	3.966
260.25	6.389
260.62	9.041
260.99	8.197
261.36	7.239
261.73	2.387
262.10	4.670
262.47	8.847
262.85	10.101
263.22	6.753
263.59	4.474
263.96	4.859
264.33	3.836
264.70	5.432
265.07	6.205
265.44	9.524
265.81	6.713
266.18	5.442
266.55	6.696
266.92	4.100
267.29	5.252
267.66	5.765
268.03	4.367
268.40	6.054
268.77	5.695
269.14	3.524
269.51	3.947
269.88	7.582
270.25	8.048
270.62	6.751
270.99	7.879
271.36	8.713
271.73	3.733
272.10	5.411
272.47	4.208
272.84	4.618
273.21	6.613
273.58	4.234
273.95	6.346
274.32	4.183
274.69	5.996
275.06	6.044
275.43	4.991
275.80	5.820
276.17	3.333
276.54	3.731
276.91	5.188
277.28	5.787
277.65	6.284
278.02	6.618
278.39	6.703
278.76	4.218
279.13	5.851
279.50	6.186
279.87	6.440
280.23	3.521
280.60	6.780
280.97	7.237
281.34	4.075
281.71	5.584
282.08	5.648
282.45	4.419
282.82	5.495
283.19	2.908
283.56	4.754
283.92	7.057
284.29	7.583
284.66	6.897
285.03	4.487
285.40	6.028
285.77	4.180
286.14	8.092
286.51	4.871
286.87	5.529
287.24	5.873
287.61	5.082
287.98	6.042
288.35	5.178
288.72	5.473
289.08	6.442
289.45	5.769
289.82	5.422
290.19	6.753
290.56	6.761
290.93	5.563
291.29	7.576
291.66	5.785
292.03	5.427
292.40	7.483
292.77	5.121
293.13	7.037
293.50	5.913
293.87	4.966
294.24	6.400
294.60	6.700
294.97	5.235
295.34	7.682
295.71	6.179
296.08	5.685
296.44	6.495
296.81	6.577
297.18	6.102
297.55	6.368
297.91	6.168
298.28	6.398
298.65	7.015
299.02	6.021
299.38	6.293
299.75	6.075
300.12	6.134
300.48	6.912
300.85	7.312
301.22	6.264
301.59	6.279
301.95	6.215
302.32	7.778
302.69	6.243
303.05	6.855
303.42	6.763
303.79	8.125
304.15	7.150
304.52	7.294
304.89	7.120
305.25	7.557
305.62	7.524
305.99	7.938
306.35	7.560
306.72	9.307
307.09	7.005
307.45	8.489
307.82	8.274
308.19	7.164
308.55	8.968
308.92	8.179
309.29	8.333
309.65	8.382
310.02	8.515
310.38	9.744
310.75	9.223
311.12	9.684
311.48	10.264
311.85	9.782
312.22	9.867
312.58	10.141
312.95	9.560
313.31	10.659
313.68	10.806
314.05	11.924
314.41	12.659
314.78	11.989
315.14	13.521
315.51	13.112
315.87	12.331
316.24	12.237
316.61	13.321
316.97	12.217
317.34	12.963
317.70	13.362
318.07	14.109
318.43	14.456
318.80	14.298
319.16	13.391
319.53	12.168
319.89	14.110
320.26	15.302
320.62	14.894
320.99	15.605
321.35	15.527
321.72	16.465
322.08	14.157
322.45	16.170
322.81	15.884
323.18	15.664
323.54	16.466
323.91	16.459
324.27	16.954
324.64	17.632
325.00	16.252
325.37	17.199
325.73	17.851
326.10	17.843
326.46	18.404
326.83	19.135
327.19	18.898
327.56	19.051
327.92	19.197
328.29	18.629
328.65	19.933
329.01	19.543
329.38	20.051
329.74	19.777
330.11	21.233
330.47	20.809
330.84	20.327
331.20	20.917
331.56	20.364
331.93	21.172
332.29	21.356
332.66	21.346
333.02	21.022
333.38	20.554
333.75	21.633
334.11	22.936
334.48	21.287
334.84	22.430
335.20	20.739
335.57	21.248
335.93	22.149
336.29	21.797
336.66	21.615
337.02	22.074
337.38	22.279
337.75	20.909
338.11	22.792
338.47	22.663
338.84	22.081
339.20	21.230
339.56	21.252
339.93	22.167
340.29	21.095
340.65	20.843
341.02	21.708
341.38	23.040
341.74	22.034
342.11	23.089
342.47	21.128
342.83	22.142
343.20	21.177
343.56	22.053
343.92	22.418
344.28	22.969
344.65	23.333
345.01	21.685
345.37	22.473
345.73	22.214
346.10	22.621
346.46	22.073
346.82	21.798
347.19	22.689
347.55	22.534
347.91	21.620
348.27	22.079
348.63	22.239
349.00	21.999
349.36	22.454
349.72	22.693
350.08	22.140
350.45	21.369
350.81	22.247
351.17	22.256
351.53	23.351
351.89	22.703
352.26	22.239
352.62	22.612
352.98	22.824
353.34	21.957
353.70	22.496
354.07	22.131
354.43	21.564
354.79	21.616
355.15	20.971
355.51	23.099
355.87	22.289
356.24	22.129
356.60	21.508
356.96	22.683
357.32	21.115
357.68	22.255
358.04	21.632
358.40	22.090
358.77	21.930
359.13	22.526
359.49	21.190
359.85	22.190
360.21	22.453
360.57	22.254
360.93	22.426
361.29	22.737
361.66	22.810
362.02	22.825
362.38	23.823
362.74	22.486
363.10	22.696
363.46	22.645
363.82	21.875
364.18	23.082
364.54	23.306
364.90	23.278
365.26	23.310
365.62	23.267
365.98	22.805
366.35	23.826
366.71	23.197
367.07	23.410
367.43	23.835
367.79	23.159
368.15	23.211
368.51	23.613
368.87	24.494
369.23	24.933
369.59	24.044
369.95	24.341
370.31	24.240
370.67	24.553
371.03	24.100
371.39	23.573
371.75	25.309
372.11	24.797
372.47	24.577
372.83	24.280
373.19	23.549
373.55	24.458
373.91	23.790
374.27	24.321
374.63	24.357
374.99	24.403
375.35	25.714
375.71	25.290
376.07	24.467
376.42	24.937
376.78	25.917
377.14	25.140
377.50	25.427
377.86	25.677
378.22	26.168
378.58	25.624
378.94	25.411
379.30	26.069
379.66	25.985
380.02	25.678
380.38	26.152
380.74	26.817
381.09	26.307
381.45	26.648
381.81	26.581
382.17	26.900
382.53	27.018
382.89	27.088
383.25	27.257
383.61	26.794
383.97	27.032
384.32	28.409
384.68	27.262
385.04	27.935
385.40	28.521
385.76	28.957
386.12	28.067
386.48	28.941
386.83	28.367
387.19	28.100
387.55	28.286
387.91	27.968
388.27	29.273
388.62	27.835
388.98	28.370
389.34	29.110
389.70	29.053
390.06	29.248
390.42	28.313
390.77	29.982
391.13	28.873
391.49	30.737
391.85	28.848
392.20	29.775
392.56	29.061
392.92	30.425
393.28	29.574
393.64	30.112
393.99	30.041
394.35	29.731
394.71	29.641
395.07	29.042
395.42	29.869
395.78	31.018
396.14	30.362
396.50	30.285
396.85	29.815
397.21	30.473
397.57	29.918
397.92	30.412
398.28	29.766
398.64	29.519
399.00	29.110
399.35	30.157
399.71	29.783
400.07	30.432
400.42	30.210
400.78	30.382
401.14	30.165
401.49	30.927
401.85	30.988
402.21	30.707
402.57	31.045
402.92	31.206
403.28	30.035
403.63	29.833
403.99	30.107
404.35	30.301
404.70	29.462
405.06	29.185
405.42	31.557
405.77	30.534
406.13	30.092
406.49	30.124
406.84	29.584
407.20	29.402
407.55	29.800
407.91	30.484
408.27	30.094
408.62	30.134
408.98	30.586
409.34	29.326
409.69	31.150
410.05	30.422
410.40	30.800
410.76	30.847
411.11	30.742
411.47	30.897
411.83	31.276
412.18	30.904
412.54	31.298
412.89	30.151
413.25	30.587
413.60	30.040
413.96	30.711
414.31	30.935
414.67	30.769
415.03	31.077
415.38	31.148
415.74	30.849
416.09	31.832
416.45	31.622
416.80	30.600
417.16	30.587
417.51	30.573
417.87	31.147
418.22	31.317
418.58	32.032
418.93	31.141
419.29	31.196
419.64	30.252
420.00	31.691
420.35	30.825
420.71	31.591
421.06	31.282
421.42	32.225
421.77	30.048
422.12	31.977
422.48	31.183
422.83	32.530
423.19	32.361
423.54	32.688
423.90	31.033
424.25	31.627
424.61	32.032
424.96	32.345
425.31	32.113
425.67	32.797
426.02	32.429
426.38	33.065
426.73	32.422
427.09	33.160
427.44	31.950
427.79	32.172
428.15	32.249
428.50	32.528
428.85	32.147
429.21	33.298
429.56	32.034
429.92	32.088
430.27	32.916
430.62	33.219
430.98	32.169
431.33	32.600
431.68	31.992
432.04	33.520
432.39	33.905
432.74	32.991
433.10	33.045
433.45	33.779
433.80	33.584
434.16	33.729
434.51	34.173
434.86	33.768
435.22	34.166
435.57	34.729
435.92	33.278
436.28	34.130
436.63	34.954
436.98	32.689
437.34	34.047
437.69	33.462
438.04	33.104
438.39	34.463
438.75	33.868
439.10	33.827
439.45	33.818
439.81	34.181
440.16	33.405
440.51	33.445
440.86	33.685
441.22	33.548
441.57	34.591
441.92	34.190
442.27	34.444
442.63	33.979
442.98	33.404
443.33	34.561
443.68	34.985
444.03	35.089
444.39	35.737
444.74	35.528
445.09	34.465
445.44	34.457
445.79	34.770
446.15	35.098
446.50	34.160
446.85	34.436
447.20	34.478
447.55	34.885
447.91	34.712
448.26	34.249
448.61	34.166
448.96	35.730
449.31	34.836
449.66	33.551
450.02	34.546
450.37	35.802
450.72	35.576
451.07	34.795
451.42	34.720
451.77	35.131
452.12	35.045
452.47	34.581
452.83	35.642
453.18	34.267
453.53	35.037
453.88	34.180
454.23	35.537
454.58	35.519
454.93	35.255
455.28	35.160
455.63	35.020
455.98	34.916
456.34	34.452
456.69	35.038
457.04	35.993
457.39	34.756
457.74	34.955
458.09	34.706
458.44	34.375
458.79	34.193
459.14	35.868
459.49	35.144
459.84	35.992
460.19	34.536
460.54	35.378
460.89	34.727
461.24	35.862
461.59	35.362
461.94	34.284
462.29	35.162
462.64	34.641
462.99	34.275
463.34	34.977
463.69	35.404
464.04	35.019
464.39	35.258
464.74	34.094
465.09	34.717
465.44	35.944
465.79	35.378
466.14	34.966
466.49	34.263
466.84	35.372
467.19	34.913
467.54	33.784
467.89	33.621
468.24	34.515
468.59	34.279
468.94	33.333
469.29	33.893
469.64	34.393
469.99	34.927
470.34	35.210
470.68	34.381
471.03	35.494
471.38	34.925
471.73	34.330
472.08	34.835
472.43	34.859
472.78	35.453
473.13	34.134
473.48	35.347
473.83	35.577
474.17	34.818
474.52	36.019
474.87	34.662
475.22	35.493
475.57	33.593
475.92	34.495
476.27	34.345
476.61	34.060
476.96	34.567
477.31	34.109
477.66	35.834
478.01	34.011
478.36	34.247
478.70	34.729
479.05	34.969
479.40	34.798
479.75	35.303
480.10	34.628
480.45	33.956
480.79	33.878
481.14	34.145
481.49	34.121
481.84	35.596
482.19	34.624
482.53	34.893
482.88	34.603
483.23	34.638
483.58	34.323
483.92	33.378
484.27	34.081
484.62	33.870
484.97	33.942
485.31	34.178
485.66	33.729
486.01	33.389
486.36	33.583
486.70	32.996
487.05	32.825
487.40	32.784
487.75	33.181
488.09	33.136
488.44	33.107
488.79	34.233
489.13	33.852
489.48	33.981
489.83	33.280
490.17	33.333
490.52	33.333
490.87	33.249
491.22	34.272
491.56	33.874
491.91	34.191
492.26	33.579
492.60	33.537
492.95	34.050
493.30	33.528
493.64	34.034
493.99	33.640
494.34	32.927
494.68	33.790
495.03	33.216
495.37	33.511
495.72	33.379
496.07	33.216
496.41	33.333
496.76	33.778
497.11	33.885
497.45	33.319
497.80	33.896
498.14	33.832
498.49	33.594
498.84	33.181
499.18	33.558
499.53	33.408
499.87	34.154
500.22	33.571
500.56	34.098
500.91	33.684
501.26	34.045
501.60	33.274
501.95	34.043
502.29	33.918
502.64	33.843
502.98	33.261
503.33	32.527
503.67	32.795
504.02	33.538
504.36	33.691
504.71	33.624
505.06	33.151
505.40	32.815
505.75	33.561
506.09	34.530
506.44	33.519
506.78	33.807
507.13	33.887
507.47	32.923
507.82	33.902
508.16	32.170
508.51	33.005
508.85	33.538
509.19	34.107
509.54	33.766
509.88	34.726
510.23	34.580
510.57	33.978
510.92	33.672
511.26	33.622
511.61	32.690
511.95	33.626
512.30	33.727
512.64	32.534
512.98	33.967
513.33	33.014
513.67	34.166
514.02	32.754
514.36	33.453
514.70	33.646
515.05	33.472
515.39	33.228
515.74	34.571
516.08	33.122
516.42	34.380
516.77	33.807
517.11	32.233
517.46	33.457
517.80	34.580
518.14	34.004
518.49	34.599
518.83	33.369
519.17	32.741
519.52	34.224
519.86	33.580
520.20	34.239
520.55	33.352
520.89	33.615
521.23	33.557
521.58	33.785
521.92	33.258
522.26	33.047
522.61	33.738
522.95	33.276
523.29	33.161
523.64	33.072
523.98	33.428
524.32	34.384
524.66	32.897
525.01	32.559
525.35	33.257
525.69	33.179
526.04	32.778
526.38	33.333
526.72	33.564
527.06	33.783
527.41	33.586
527.75	33.492
528.09	34.061
528.43	33.156
528.78	33.699
529.12	33.658
529.46	32.771
529.80	33.467
530.15	33.565
530.49	33.452
530.83	33.648
531.17	33.274
531.51	33.333
531.86	33.293
532.20	33.841
532.54	32.615
532.88	32.667
533.22	33.058
533.57	32.776
533.91	33.221
534.25	33.748
534.59	32.471
534.93	31.975
535.27	33.408
535.62	33.144
535.96	32.714
536.30	33.255
536.64	33.033
536.98	32.964
537.32	32.593
537.66	33.500
538.01	33.474
538.35	32.339
538.69	33.053
539.03	33.906
539.37	33.274
539.71	31.952
540.05	33.333
540.39	32.763
540.73	32.058
541.07	33.538
541.42	33.196
541.76	32.503
542.10	32.388
542.44	32.400
542.78	32.786
543.12	33.075
543.46	32.173
543.80	31.655
544.14	31.837
544.48	32.565
544.82	32.855
545.16	32.677
545.50	32.774
545.84	32.884
546.18	33.827
546.52	32.675
546.86	33.522
547.20	33.588
547.54	32.522
547.88	32.309
548.22	31.520
548.56	32.826
548.90	32.537
549.24	32.827
549.58	32.303
549.92	33.163
550.26	32.686
550.60	32.738
550.94	33.247
551.28	31.815
551.62	32.682
551.96	32.427
552.30	32.441
552.64	32.670
552.98	33.375
553.32	33.505
553.66	33.376
554.00	33.165
554.34	32.432
554.68	33.118
555.02	33.246
555.36	33.925
555.69	32.159
556.03	32.724
556.37	32.290
556.71	33.101
557.05	32.588
557.39	31.918
557.73	33.289
558.07	31.523
558.41	33.422
558.75	32.860
559.08	32.637
559.42	33.539
559.76	32.564
560.10	31.949
560.44	33.509
560.78	32.312
561.12	32.759
561.45	32.847
561.79	32.051
562.13	33.148
562.47	31.874
562.81	32.152
563.15	32.955
563.48	32.256
563.82	33.132
564.16	32.283
564.50	32.718
564.84	31.917
565.17	32.176
565.51	31.818
565.85	31.888
566.19	31.797
566.52	32.475
566.86	31.296
567.20	31.104
567.54	31.864
567.88	31.498
568.21	32.213
568.55	31.559
568.89	32.320
569.23	32.024
569.56	31.653
569.90	31.183
570.24	31.535
570.57	30.981
570.91	30.374
571.25	31.183
571.59	30.504
571.92	30.197
572.26	30.598
572.60	30.603
572.93	30.615
573.27	30.402
573.61	30.889
573.95	30.614
574.28	30.530
574.62	30.673
574.96	30.040
575.29	29.918
575.63	30.215
575.97	29.892
576.30	29.928
576.64	29.921
576.98	30.228
577.31	30.596
577.65	30.087
577.98	30.610
578.32	29.399
578.66	29.627
578.99	29.982
579.33	29.635
579.67	29.850
580.00	30.029
580.34	29.930
580.67	30.119
581.01	30.268
581.35	30.294
581.68	30.311
582.02	29.935
582.35	30.434
582.69	30.174
583.02	30.312
583.36	30.006
583.70	30.016
584.03	29.374
584.37	30.659
584.70	30.562
585.04	29.970
585.37	30.225
585.71	30.399
586.04	30.361
586.38	30.014
586.72	30.283
587.05	30.366
587.39	30.391
587.72	30.598
588.06	30.513
588.39	30.520
588.73	30.529
589.06	30.954
589.40	31.131
589.73	30.688
590.07	30.935
590.40	30.933
590.73	31.106
591.07	31.608
591.40	30.793
591.74	31.439
592.07	31.547
592.41	30.521
592.74	30.493
593.08	30.987
593.41	31.146
593.75	29.799
594.08	30.233
594.41	30.417
594.75	30.322
595.08	30.047
595.42	30.000
595.75	30.449
596.09	30.600
596.42	31.387
596.75	30.915
597.09	32.081
597.42	30.671
597.75	30.851
598.09	31.508
598.42	30.840
598.76	30.722
599.09	30.509
599.42	30.171
599.76	29.614
600.09	30.197
600.42	30.531
600.76	30.812
601.09	30.037
601.42	30.003
601.76	29.966
602.09	30.486
602.42	30.680
602.76	30.664
603.09	30.947
603.42	31.286
603.76	30.374
604.09	31.476
604.42	30.055
604.76	30.403
605.09	30.355
605.42	30.821
605.75	30.423
606.09	30.832
606.42	30.135
606.75	30.097
607.09	29.531
607.42	30.944
607.75	30.676
608.08	30.189
608.42	30.633
608.75	30.721
609.08	31.197
609.41	31.142
609.75	30.804
610.08	31.135
610.41	30.714
610.74	30.630
611.07	29.973
611.41	31.166
611.74	31.085
612.07	30.856
612.40	30.371
612.73	30.709
613.07	31.247
613.40	31.665
613.73	30.669
614.06	31.501
614.39	31.390
614.72	30.228
615.06	31.039
615.39	30.159
615.72	30.995
616.05	30.355
616.38	30.928
616.71	31.609
617.05	29.606
617.38	30.819
617.71	31.749
618.04	31.786
618.37	32.077
618.70	32.240
619.03	31.302
619.36	31.196
619.69	31.262
620.03	31.890
620.36	31.227
620.69	30.845
621.02	31.955
621.35	32.075
621.68	32.755
622.01	32.811
622.34	31.869
622.67	32.921
623.00	30.972
623.33	31.453
623.66	33.268
623.99	32.126
624.32	33.203
624.65	31.274
624.99	31.860
625.32	31.613
625.65	31.558
625.98	30.847
626.31	31.751
626.64	31.868
626.97	31.208
627.30	32.270
627.63	31.358
627.96	32.057
628.29	31.984
628.62	31.570
628.95	31.727
629.28	32.965
629.61	31.397
629.94	31.297
630.26	31.356
630.59	31.952
630.92	30.823
631.25	32.558
631.58	33.804
631.91	31.771
632.24	33.333
632.57	31.025
632.90	34.303
633.23	33.673
633.56	33.061
633.89	32.231
634.22	34.719
634.55	32.359
634.88	33.550
635.20	34.553
635.53	33.672
635.86	31.961
636.19	34.252
636.52	34.177
636.85	32.074
637.18	33.472
637.51	31.613
637.83	33.887
638.16	33.641
638.49	32.512
638.82	33.258
639.15	32.417
639.48	35.219
639.81	31.640
640.13	35.100
640.46	32.485
640.79	31.863
641.12	33.789
641.45	33.501
641.77	35.173
642.10	31.496
642.43	35.239
642.76	36.179
643.09	32.877
643.41	31.933
643.74	33.517
644.07	35.724
644.40	32.815
644.73	33.382
645.05	32.599
645.38	34.245
645.71	34.311
646.04	35.294
646.36	32.993
646.69	32.669
647.02	36.391
647.35	33.588
647.67	33.655
648.00	33.917
648.33	33.784
648.66	34.379
648.98	33.469
649.31	33.424
649.64	35.193
649.96	33.422
650.29	32.406
650.62	34.795
650.94	33.784
651.27	34.431
651.60	32.164
651.92	34.954
652.25	32.996
652.58	33.838
652.90	32.413
653.23	34.507
653.56	31.954
653.88	33.006
654.21	32.535
654.54	32.659
654.86	33.994
655.19	30.991
655.52	29.370
655.84	27.029
656.17	34.159
656.49	48.714
656.82	53.992
657.15	41.894
657.47	31.058
657.80	23.087
658.13	18.141
658.45	23.882
658.78	29.264
659.10	28.806
659.43	29.114
659.75	30.239
660.08	31.933
660.41	33.416
660.73	31.129
661.06	30.690
661.38	32.217
661.71	34.483
662.03	35.802
662.36	35.778
662.68	34.897
663.01	35.398
663.33	35.728
663.66	35.165
663.98	34.808
664.31	35.460
664.63	31.985
664.96	33.938
665.28	34.301
665.61	33.741
665.93	34.107
666.26	32.258
666.58	32.657
666.91	35.140
667.23	32.381
667.56	34.517
667.88	36.400
668.21	31.641
668.53	32.625
668.86	32.417
669.18	33.605
669.50	33.598
669.83	32.600
670.15	34.055
670.48	35.119
670.80	31.740
671.13	34.405
671.45	33.268
671.77	34.840
672.10	32.667
672.42	33.010
672.75	31.797
673.07	32.537
673.39	32.512
673.72	34.899
674.04	32.931
674.37	30.948
674.69	34.744
675.01	33.905
675.34	34.733
675.66	33.146
675.98	34.888
676.31	34.961
676.63	37.072
676.95	33.525
677.28	33.669
677.60	31.890
677.92	33.397
678.25	33.090
678.57	37.011
678.89	34.300
679.22	30.662
679.54	33.504
679.86	31.186
680.18	32.007
680.51	31.761
680.83	33.879
681.15	32.931
681.48	34.197
681.80	35.060
682.12	33.741
682.44	33.222
682.77	31.028
683.09	33.333
683.41	32.752
683.73	33.586
684.06	32.657
684.38	32.379
684.70	33.752
685.02	35.112
685.34	30.782
685.67	32.492
685.99	32.515
686.31	31.250
686.63	31.280
686.96	31.230
687.28	31.596
687.60	31.650
687.92	32.637
688.24	33.055
688.56	30.690
688.89	33.938
689.21	31.703
689.53	31.765
689.85	31.558
690.17	32.778
690.49	32.470
690.82	33.465
691.14	32.389
691.46	34.226
691.78	34.254
692.10	35.046
692.42	29.286
692.74	31.579
693.06	30.000
693.39	31.879
693.71	33.647
694.03	33.086
694.35	33.714
694.67	35.729
694.99	34.468
695.31	33.554
695.63	33.983
695.95	30.435
696.27	35.824
696.59	31.416
696.91	31.532
697.23	34.945
697.56	31.976
697.88	31.818
698.20	32.015
698.52	35.038
698.84	33.472
699.16	34.490
699.48	32.218
699.80	33.191
700.12	34.279
700.44	32.949
700.76	36.342
701.08	31.961
701.40	34.456
701.72	31.592
702.04	39.840
702.36	33.770
702.68	31.051
703.00	31.785
703.32	33.005
703.64	32.274
703.96	34.129
704.28	32.924
704.60	36.709
704.91	33.673
705.23	33.699
705.55	33.983
705.87	37.879
706.19	38.650
706.51	32.229
706.83	33.141
707.15	32.011
707.47	32.710
707.79	32.533
708.11	30.720
708.43	30.538
708.74	28.571
709.06	29.930
709.38	30.751
709.70	34.739
710.02	31.266
710.34	33.245
710.66	35.754
710.98	34.973
711.29	32.967
711.61	33.051
711.93	30.769
712.25	33.514
712.57	33.628
712.89	34.118
713.20	33.432
713.52	33.237
713.84	32.312
714.16	35.000
714.48	32.474
714.80	33.506
715.11	31.759
715.43	31.565
715.75	32.368
716.07	33.702
716.39	33.607
716.70	33.133
717.02	35.082
717.34	34.495
717.66	37.248
717.97	31.849
718.29	34.364
718.61	35.197
718.93	30.744
719.24	32.298
719.56	32.515
719.88	34.835
720.20	33.548
720.51	32.919
720.83	32.500
721.15	34.539
721.46	30.137
721.78	34.333
722.10	30.097
722.42	32.550
722.73	34.194
723.05	36.842
723.37	34.028
723.68	36.201
724.00	33.574
724.32	27.113
724.63	35.664
724.95	34.752
725.27	32.056
725.58	34.276
725.90	32.759
726.22	31.034
726.53	35.390
726.85	35.535
727.16	34.441
727.48	31.804
727.80	33.444
728.11	30.035
728.43	34.007
728.74	32.441
729.06	34.106
729.38	31.169
729.69	33.557
730.01	33.333
730.32	31.818
730.64	32.704
730.96	30.745
731.27	31.564
731.59	31.868
731.90	28.052
732.22	31.771
732.53	28.177
732.85	32.571
733.16	31.085
733.48	31.098
733.80	27.019
734.11	33.333
734.43	30.541
734.74	34.430
735.06	31.658
735.37	34.324
735.69	32.703
736.00	34.746
736.32	29.919
736.63	31.944
736.95	31.609
737.26	33.030
737.58	29.091
737.89	32.353
738.21	26.911
738.52	33.770
738.83	35.154
739.15	34.397
739.46	31.293
739.78	34.356
740.09	30.086
740.41	32.945
740.72	38.000
741.04	33.333
741.35	36.140
741.66	33.333
741.98	32.787
742.29	31.799
742.61	34.211
742.92	32.692
743.23	35.740
743.55	32.558
743.86	36.400
744.18	26.860
744.49	33.333
744.80	32.099
745.12	29.536
745.43	30.894
745.74	31.034
746.06	35.169
746.37	32.911
746.68	38.211
747.00	28.333
747.31	30.901
747.62	34.615
747.94	32.794
748.25	33.333
748.56	29.796
748.88	32.051
749.19	32.759
749.50	34.199
749.82	31.325
750.13	32.384
750.44	28.333
750.75	32.923
751.07	30.769
751.38	38.170
751.69	32.907
752.01	29.450
752.32	31.699
752.63	34.014
752.94	31.488
753.26	31.599
753.57	28.148
753.88	29.963
754.19	29.582
754.51	30.547
754.82	33.441
755.13	32.131
755.44	30.717
755.75	30.921
756.07	30.448
756.38	31.761
756.69	30.723
757.00	28.532
757.31	32.240
757.63	27.366
757.94	26.526
758.25	27.540
758.56	28.540
758.87	29.091
759.18	28.800
759.50	30.878
759.81	30.532
760.12	30.728
760.43	30.729
760.74	30.296
761.05	28.500
761.36	29.880
761.67	27.665
761.99	32.703
762.30	29.268
762.61	28.713
762.92	31.716
763.23	33.333
763.54	28.417
763.85	31.271
764.16	30.976
764.47	29.577
764.78	33.866
765.10	29.032
765.41	27.436
765.72	26.190
766.03	30.508
766.34	31.348
766.65	32.056
766.96	34.263
767.27	34.562
767.58	29.353
767.89	30.288
768.20	32.864
768.51	27.315
768.82	32.530
769.13	28.409
769.44	27.308
769.75	28.881
770.06	33.462
770.37	33.071
770.68	29.362
770.99	23.887
771.30	35.185
771.61	30.038
771.92	32.593
772.23	31.174
772.54	32.407
772.85	35.023
773.16	32.381
773.47	29.630
773.78	30.270
774.09	38.068
774.39	34.000
774.70	38.798
775.01	22.561
775.32	32.353
775.63	33.129
775.94	27.389
776.25	36.774
776.56	35.897
776.87	42.177
777.18	36.552
777.48	36.364
777.79	29.730
778.10	23.529
778.41	36.111
778.72	35.862
779.03	27.160
779.34	29.091
779.65	26.943
779.95	32.778
780.26	30.682
780.57	33.548
780.88	42.029
781.19	35.484
781.50	38.235
781.80	34.409
782.11	32.275
782.42	19.697
782.73	29.940
783.04	36.872
783.34	27.273
783.65	32.680
783.96	40.994
784.27	27.976
784.57	34.437
784.88	29.286
785.19	38.583
785.50	31.496
785.81	30.827
786.11	34.615
786.42	28.777
786.73	27.338
787.04	31.579
787.34	36.066
787.65	36.800
787.96	40.299
788.26	39.860
788.57	36.364
788.88	26.974
789.19	35.294
789.49	34.932
789.80	34.043
790.11	39.370
790.41	28.125
790.72	41.525
791.03	25.243
791.33	33.913
791.64	34.211
791.95	27.679
792.25	28.571
792.56	33.036
792.87	32.292
793.17	31.250
793.48	38.542
793.79	31.325
794.09	26.606
794.40	36.697
794.70	29.932
795.01	29.221
795.32	28.082
795.62	42.254
795.93	37.121
796.23	39.344
796.54	37.500
796.85	34.043
797.15	45.652
797.46	45.205
797.76	31.250
798.07	26.087
798.37	37.113
798.68	38.961
798.99	29.885
799.29	40.449
799.60	34.043
799.90	43.373
800.21	32.308
800.51	28.358
800.82	33.824
801.12	28.767
801.43	22.059
801.73	30.508
802.04	34.848
802.34	31.667
802.65	20.339
802.95	41.791
803.26	49.153
803.56	31.507
803.87	34.286
804.17	47.945
804.48	24.561
804.78	40.278
805.09	31.034
805.39	31.081
805.70	25.352
806.00	39.024
806.30	32.530
806.61	23.288
806.91	26.923
807.22	25.556
807.52	25.287
807.83	51.389
808.13	45.783
808.43	33.708
808.74	27.500
809.04	32.353
809.35	33.333
809.65	28.571
809.95	32.877
810.26	57.895
810.56	55.172
810.86	52.941
811.17	40.351
811.47	36.066
811.77	46.667
812.08	47.458
812.38	41.667
812.69	43.103
812.99	18.868
813.29	48.718
813.59	42.000
813.90	24.561
814.20	43.636
814.50	46.479
814.81	30.769
815.11	62.295
815.41	25.373
815.72	43.103
816.02	39.286
816.32	51.111
816.62	31.818
816.93	51.111
817.23	38.889
817.53	48.936
817.84	28.571
818.14	35.294
818.44	30.612
818.74	51.111
819.04	23.077
819.35	54.286
819.65	76.923
819.95	28.302
820.25	44.444
820.56	30.952
820.86	78.125
821.16	48.718
821.46	32.558
821.76	36.000
822.07	33.929
822.37	32.609
822.67	40.426
822.97	2.703
823.27	27.500
823.57	59.184
823.88	64.444
824.18	77.500
824.48	63.333
824.78	64.000
825.08	57.576
825.38	51.111
825.69	61.702
825.99	61.111
826.29	22.857
826.59	64.103
826.89	37.209
827.19	42.000
827.49	58.824
827.79	54.167
828.09	62.162
828.39	73.333
828.70	58.537
829.00	44.186
829.30	25.000
829.60	76.471
829.90	36.957
830.20	25.714
830.50	41.379
830.80	83.333
831.10	69.231
831.40	38.235
831.70	85.714
832.00	74.194
832.30	29.412
832.60	83.333
832.90	53.846
833.20	78.947
833.50	75.000
833.80	94.737
834.10	19.048
834.40	69.444
834.70	93.750
835.00	28.571
835.30	55.882
835.60	36.667
835.90	60.000
836.20	36.364
836.50	76.000
836.80	0.000
837.10	51.852
837.40	74.074
837.70	6.250
838.00	50.000
838.30	39.130
838.60	58.621
838.90	85.714
839.19	17.391
839.49	16.667
839.79	78.261
840.09	68.750
840.39	40.000
840.69	87.097
840.99	42.857
841.29	13.333
841.59	47.368
841.88	41.026
842.18	26.923
842.48	100.000
842.78	45.000
843.08	46.667
843.38	54.839
843.68	44.444
843.97	55.882
844.27	12.500
844.57	78.947
844.87	60.000
845.17	80.000
845.47	85.714
845.76	33.333
846.06	22.222
846.36	47.059
846.66	84.615
846.96	46.667
847.25	123.529
847.55	86.957
847.85	105.000
848.15	76.471
848.44	45.455
848.74	57.143
849.04	50.000
849.34	25.000
849.63	69.565
849.93	-400.000
850.23	126.667
850.53	107.692
850.82	54.545
851.12	86.364
851.42	90.909
851.71	84.615
852.01	5.000
852.31	69.231
852.61	57.895
852.90	125.000
853.20	94.444
853.50	33.333
853.79	28.571
854.09	13.636
854.39	33.333
854.68	67.742
854.98	88.462
855.28	105.556
855.57	42.857
855.87	64.000
856.17	81.818
856.46	81.481
856.76	116.667
857.05	47.826
857.35	62.500
857.65	53.846
857.94	80.952
858.24	70.370
858.53	95.652
858.83	5.882
859.13	64.706
859.42	111.765
859.72	64.286
860.01	75.000
860.31	100.000
860.60	170.000
860.90	86.667
861.20	100.000
861.49	130.769
861.79	70.000
862.08	123.077
862.38	65.625
862.67	82.353
862.97	118.750
863.26	100.000
863.56	190.000
863.85	45.455
864.15	61.111
864.44	233.333
864.74	121.429
865.03	93.750
865.33	10.000
865.62	25.806
865.92	100.000
866.21	108.696
866.51	114.286
866.80	120.000
867.10	0.000
867.39	58.333
867.69	-0.000
867.98	214.286
868.27	35.294
868.57	-400.000
868.86	60.000
869.16	71.429
869.45	45.833
869.75	163.636
870.04	257.143
870.33	133.333
870.63	85.714
870.92	275.000
871.22	50.000
871.51	54.545
871.80	-133.333
872.10	250.000
>>>>>End Processed Spectral Data<<<<<
