SpectraSuite Data File
++++++++++++++++++++++++++++++++++++
Date: Thu May 14 14:27:14 PDT 2015
User: schluterlab
Dark Spectrum Present: Yes
Reference Spectrum Present: Yes
Number of Sampled Component Spectra: 1
Spectrometers: USB2E3373
Integration Time (usec): 3000 (USB2E3373)
Spectra Averaged: 3 (USB2E3373)
Boxcar Smoothing: 0 (USB2E3373)
Correct for Electrical Dark: No (USB2E3373)
Strobe/Lamp Enabled: No (USB2E3373)
Correct for Detector Non-linearity: No (USB2E3373)
Correct for Stray Light: No (USB2E3373)
Number of Pixels in Processed Spectrum: 2048
>>>>>Begin Processed Spectral Data<<<<<
178.53	0.000
178.91	-214.286
179.29	0.000
179.67	100.000
180.04	42.857
180.42	-130.000
180.80	-220.000
181.18	-300.000
181.56	1800.000
181.94	-300.000
182.31	275.000
182.69	-100.000
183.07	400.000
183.45	-25.000
183.83	200.000
184.20	300.000
184.58	-1100.000
184.96	-100.000
185.34	133.333
185.72	240.000
186.09	55.556
186.47	200.000
186.85	-180.000
187.23	11.111
187.61	600.000
187.98	-240.000
188.36	-150.000
188.74	275.000
189.12	466.667
189.49	118.750
189.87	150.000
190.25	144.444
190.63	180.000
191.00	44.444
191.38	0.000
191.76	-25.000
192.14	216.667
192.51	-450.000
192.89	200.000
193.27	0.000
193.65	128.571
194.02	300.000
194.40	114.286
194.78	-71.429
195.15	0.000
195.53	163.636
195.91	0.000
196.29	150.000
196.66	53.846
197.04	400.000
197.42	114.286
197.79	150.000
198.17	137.500
198.55	114.286
198.92	166.667
199.30	137.500
199.68	163.636
200.05	150.000
200.43	400.000
200.81	-85.714
201.18	0.000
201.56	33.333
201.94	0.000
202.31	-100.000
202.69	111.111
203.07	-0.000
203.44	111.111
203.82	25.000
204.19	91.667
204.57	66.667
204.95	175.000
205.32	300.000
205.70	-250.000
206.08	50.000
206.45	266.667
206.83	-180.000
207.20	183.333
207.58	60.000
207.96	50.000
208.33	350.000
208.71	-16.667
209.08	316.667
209.46	0.000
209.84	-166.667
210.21	-850.000
210.59	50.000
210.96	-100.000
211.34	225.000
211.71	50.000
212.09	700.000
212.46	0.000
212.84	150.000
213.22	180.000
213.59	300.000
213.97	130.000
214.34	466.667
214.72	-33.333
215.09	75.000
215.47	0.000
215.84	-57.143
216.22	50.000
216.59	140.000
216.97	200.000
217.34	325.000
217.72	162.500
218.09	100.000
218.47	200.000
218.84	0.000
219.22	-60.000
219.59	117.647
219.97	55.000
220.34	50.000
220.72	11.111
221.09	107.692
221.47	333.333
221.84	80.000
222.22	142.857
222.59	0.000
222.97	200.000
223.34	100.000
223.72	900.000
224.09	400.000
224.46	100.000
224.84	280.000
225.21	14.286
225.59	175.000
225.96	150.000
226.34	46.154
226.71	-133.333
227.08	50.000
227.46	60.000
227.83	125.000
228.21	100.000
228.58	-0.000
228.95	-0.000
229.33	100.000
229.70	150.000
230.08	126.316
230.45	-40.000
230.82	300.000
231.20	71.429
231.57	83.333
231.95	81.818
232.32	163.636
232.69	140.000
233.07	350.000
233.44	76.471
233.81	70.000
234.19	22.222
234.56	68.182
234.93	82.759
235.31	52.632
235.68	55.556
236.05	-15.000
236.43	96.154
236.80	84.000
237.17	40.741
237.55	24.242
237.92	60.000
238.29	35.484
238.67	36.364
239.04	44.444
239.41	26.190
239.79	26.087
240.16	18.519
240.53	39.130
240.91	27.451
241.28	9.836
241.65	38.806
242.02	33.784
242.40	21.538
242.77	29.333
243.14	8.537
243.51	11.842
243.89	19.231
244.26	21.782
244.63	22.549
245.00	24.299
245.38	14.035
245.75	1.770
246.12	15.079
246.49	6.202
246.87	19.286
247.24	13.907
247.61	17.105
247.98	18.121
248.36	9.877
248.73	4.294
249.10	10.929
249.47	16.915
249.84	21.990
250.22	10.363
250.59	16.111
250.96	13.636
251.33	5.102
251.70	11.538
252.08	12.917
252.45	13.934
252.82	13.223
253.19	9.375
253.56	9.506
253.94	8.077
254.31	16.667
254.68	12.937
255.05	14.984
255.42	11.565
255.79	9.709
256.16	9.934
256.54	9.934
256.91	12.131
257.28	10.164
257.65	9.873
258.02	7.375
258.39	9.972
258.76	12.844
259.14	12.356
259.51	11.239
259.88	10.482
260.25	8.333
260.62	9.863
260.99	13.934
261.36	12.601
261.73	9.284
262.10	8.242
262.47	9.920
262.85	12.374
263.22	8.312
263.59	7.632
263.96	11.253
264.33	8.696
264.70	8.148
265.07	13.126
265.44	10.204
265.81	9.028
266.18	10.884
266.55	9.598
266.92	7.745
267.29	12.691
267.66	8.204
268.03	10.699
268.40	10.230
268.77	6.834
269.14	8.150
269.51	9.430
269.88	11.680
270.25	9.457
270.62	9.494
270.99	9.293
271.36	9.307
271.73	11.395
272.10	9.218
272.47	10.220
272.84	8.233
273.21	9.018
273.58	8.669
273.95	9.615
274.32	7.034
274.69	6.770
275.06	9.890
275.43	8.133
275.80	11.817
276.17	8.704
276.54	9.888
276.91	8.766
277.28	9.584
277.65	10.233
278.02	10.662
278.39	7.065
278.76	8.436
279.13	8.333
279.50	9.794
279.87	10.555
280.23	5.810
280.60	10.339
280.97	9.868
281.34	7.810
281.71	10.829
282.08	7.973
282.45	9.329
282.82	8.006
283.19	8.885
283.56	8.525
283.92	9.009
284.29	11.374
284.66	8.374
285.03	7.372
285.40	8.655
285.77	8.514
286.14	10.076
286.51	8.219
286.87	8.057
287.24	7.380
287.61	8.371
287.98	8.459
288.35	8.580
288.72	8.876
289.08	10.249
289.45	8.432
289.82	8.133
290.19	8.908
290.56	9.718
290.93	9.558
291.29	8.127
291.66	7.851
292.03	7.734
292.40	10.068
292.77	7.547
293.13	8.390
293.50	7.753
293.87	8.591
294.24	9.333
294.60	7.838
294.97	8.322
295.34	9.347
295.71	6.810
296.08	8.786
296.44	7.966
296.81	7.674
297.18	7.472
297.55	9.198
297.91	7.829
298.28	6.872
298.65	7.610
299.02	8.146
299.38	7.437
299.75	7.944
300.12	7.639
300.48	7.719
300.85	8.211
301.22	6.600
301.59	8.219
301.95	6.893
302.32	8.889
302.69	7.886
303.05	9.467
303.42	8.537
303.79	7.500
304.15	8.623
304.52	8.774
304.89	8.063
305.25	8.592
305.62	8.359
305.99	8.866
306.35	7.258
306.72	8.583
307.09	7.716
307.45	8.489
307.82	8.476
308.19	7.669
308.55	8.004
308.92	8.374
309.29	8.525
309.65	7.992
310.02	7.327
310.38	8.071
310.75	9.515
311.12	9.971
311.48	10.068
311.85	8.832
312.22	8.918
312.58	9.484
312.95	8.700
313.31	9.575
313.68	11.172
314.05	10.298
314.41	12.204
314.78	10.263
315.14	11.252
315.51	11.265
315.87	10.801
316.24	11.416
316.61	13.410
316.97	11.584
317.34	11.817
317.70	12.576
318.07	13.051
318.43	13.946
318.80	13.462
319.16	13.648
319.53	11.825
319.89	12.883
320.26	14.235
320.62	14.273
320.99	15.051
321.35	14.418
321.72	15.442
322.08	15.059
322.45	14.634
322.81	15.975
323.18	15.752
323.54	15.603
323.91	15.302
324.27	16.695
324.64	19.060
325.00	17.081
325.37	18.837
325.73	18.182
326.10	18.735
326.46	19.137
326.83	20.657
327.19	18.819
327.56	19.684
327.92	20.378
328.29	19.919
328.65	20.184
329.01	21.743
329.38	21.483
329.74	22.432
330.11	23.459
330.47	21.567
330.84	22.825
331.20	23.500
331.56	23.397
331.93	24.435
332.29	23.898
332.66	24.419
333.02	24.037
333.38	24.581
333.75	24.074
334.11	24.687
334.48	23.927
334.84	27.443
335.20	23.426
335.57	25.126
335.93	25.124
336.29	24.792
336.66	25.484
337.02	25.836
337.38	26.361
337.75	26.860
338.11	26.577
338.47	25.310
338.84	25.888
339.20	25.611
339.56	25.124
339.93	25.534
340.29	24.557
340.65	25.385
341.02	26.177
341.38	26.677
341.74	25.504
342.11	25.583
342.47	23.193
342.83	26.651
343.20	24.857
343.56	24.699
343.92	24.900
344.28	25.078
344.65	24.961
345.01	24.805
345.37	25.272
345.73	24.084
346.10	25.585
346.46	25.237
346.82	24.345
347.19	24.675
347.55	24.507
347.91	24.071
348.27	23.748
348.63	24.981
349.00	24.310
349.36	26.097
349.72	24.628
350.08	25.111
350.45	24.563
350.81	24.510
351.17	23.534
351.53	23.578
351.89	25.437
352.26	24.254
352.62	23.433
352.98	23.817
353.34	24.272
353.70	24.576
354.07	24.814
354.43	23.994
354.79	24.383
355.15	24.135
355.51	24.708
355.87	23.411
356.24	24.335
356.60	23.873
356.96	24.463
357.32	23.569
357.68	24.012
358.04	22.455
358.40	24.552
358.77	24.123
359.13	23.338
359.49	23.494
359.85	23.423
360.21	24.319
360.57	24.049
360.93	23.836
361.29	24.421
361.66	24.982
362.02	24.843
362.38	24.245
362.74	23.254
363.10	24.622
363.46	23.615
363.82	24.787
364.18	24.138
364.54	23.721
364.90	24.950
365.26	24.138
365.62	23.867
365.98	24.030
366.35	24.027
366.71	25.850
367.07	24.966
367.43	24.425
367.79	24.950
368.15	23.880
368.51	24.222
368.87	24.494
369.23	24.000
369.59	25.068
369.95	24.476
370.31	24.916
370.67	25.585
371.03	24.584
371.39	24.110
371.75	25.309
372.11	24.729
372.47	24.577
372.83	25.196
373.19	24.149
373.55	24.051
373.91	24.131
374.27	24.386
374.63	25.778
374.99	24.469
375.35	25.584
375.71	25.032
376.07	25.307
376.42	24.685
376.78	25.171
377.14	25.078
377.50	25.553
377.86	25.677
378.22	25.269
378.58	25.624
378.94	25.646
379.30	26.948
379.66	25.867
380.02	25.447
380.38	26.555
380.74	25.972
381.09	26.249
381.45	25.341
381.81	25.937
382.17	26.781
382.53	26.316
382.89	26.524
383.25	26.377
383.61	25.810
383.97	27.444
384.32	27.811
384.68	25.406
385.04	26.894
385.40	27.048
385.76	27.140
386.12	26.152
386.48	26.471
386.83	27.235
387.19	26.709
387.55	26.526
387.91	26.884
388.27	27.194
388.62	26.690
388.98	26.114
389.34	27.873
389.70	26.845
390.06	27.413
390.42	26.687
390.77	26.731
391.13	27.230
391.49	26.812
391.85	27.515
392.20	27.817
392.56	28.057
392.92	27.481
393.28	25.926
393.64	27.207
393.99	27.484
394.35	27.804
394.71	27.725
395.07	27.365
395.42	26.099
395.78	29.250
396.14	26.797
396.50	25.772
396.85	27.490
397.21	27.337
397.57	27.091
397.92	26.690
398.28	26.507
398.64	26.716
399.00	26.492
399.35	26.230
399.71	26.250
400.07	27.120
400.42	26.310
400.78	26.100
401.14	26.807
401.49	25.640
401.85	26.337
402.21	26.709
402.57	27.347
402.92	26.655
403.28	25.995
403.63	25.716
403.99	26.069
404.35	25.412
404.70	26.856
405.06	25.054
405.42	26.054
405.77	26.554
406.13	25.662
406.49	26.239
406.84	26.094
407.20	26.104
407.55	26.166
407.91	25.581
408.27	25.206
408.62	26.120
408.98	25.479
409.34	25.103
409.69	25.711
410.05	27.081
410.40	25.348
410.76	25.631
411.11	25.891
411.47	25.921
411.83	26.396
412.18	26.084
412.54	25.963
412.89	25.669
413.25	26.749
413.60	25.732
413.96	26.107
414.31	25.609
414.67	25.880
415.03	25.169
415.38	25.914
415.74	25.290
416.09	26.095
416.45	25.924
416.80	24.663
417.16	25.734
417.51	26.276
417.87	25.567
418.22	26.287
418.58	25.898
418.93	25.902
419.29	26.264
419.64	26.230
420.00	25.460
420.35	26.951
420.71	26.020
421.06	26.279
421.42	26.606
421.77	26.494
422.12	27.061
422.48	25.755
422.83	26.835
423.19	26.790
423.54	26.770
423.90	26.891
424.25	26.720
424.61	26.521
424.96	26.744
425.31	27.070
425.67	27.214
426.02	27.006
426.38	26.980
426.73	26.842
427.09	28.720
427.44	26.761
427.79	28.082
428.15	27.511
428.50	27.528
428.85	28.416
429.21	29.096
429.56	28.134
429.92	27.568
430.27	28.482
430.62	28.041
430.98	27.693
431.33	28.837
431.68	27.682
432.04	27.933
432.39	29.405
432.74	28.824
433.10	29.043
433.45	28.428
433.80	29.345
434.16	29.545
434.51	29.137
434.86	29.642
435.22	29.330
435.57	30.425
435.92	28.102
436.28	30.262
436.63	29.711
436.98	30.166
437.34	29.989
437.69	30.490
438.04	29.667
438.39	29.753
438.75	29.939
439.10	30.550
439.45	30.129
439.81	30.565
440.16	30.349
440.51	30.435
440.86	30.295
441.22	31.458
441.57	31.342
441.92	31.377
442.27	30.859
442.63	31.446
442.98	31.750
443.33	31.299
443.68	31.021
444.03	32.267
444.39	32.594
444.74	31.853
445.09	32.184
445.44	31.665
445.79	32.040
446.15	32.169
446.50	32.403
446.85	31.712
447.20	32.592
447.55	31.485
447.91	31.885
448.26	32.611
448.61	32.997
448.96	33.208
449.31	32.503
449.66	32.516
450.02	33.175
450.37	32.978
450.72	31.970
451.07	32.802
451.42	33.391
451.77	32.685
452.12	33.578
452.47	33.868
452.83	34.009
453.18	33.567
453.53	32.165
453.88	33.241
454.23	33.785
454.58	34.649
454.93	34.102
455.28	34.678
455.63	33.769
455.98	33.911
456.34	32.862
456.69	34.392
457.04	34.456
457.39	34.313
457.74	34.508
458.09	33.773
458.44	34.375
458.79	33.110
459.14	33.665
459.49	34.465
459.84	34.890
460.19	34.703
460.54	35.945
460.89	34.780
461.24	33.793
461.59	34.754
461.94	34.284
462.29	36.282
462.64	34.943
462.99	35.091
463.34	35.561
463.69	35.229
464.04	33.908
464.39	34.809
464.74	35.918
465.09	35.409
465.44	34.871
465.79	35.801
466.14	34.497
466.49	35.368
466.84	35.647
467.19	35.202
467.54	34.019
467.89	35.805
468.24	34.238
468.59	34.742
468.94	36.131
469.29	35.453
469.64	35.664
469.99	35.309
470.34	37.067
470.68	36.842
471.03	36.018
471.38	36.167
471.73	35.371
472.08	37.627
472.43	35.762
472.78	37.280
473.13	35.967
473.48	37.100
473.83	37.493
474.17	36.518
474.52	36.681
474.87	36.323
475.22	36.169
475.57	36.968
475.92	36.137
476.27	36.528
476.61	35.722
476.96	35.610
477.31	36.139
477.66	37.356
478.01	36.960
478.36	36.491
478.70	36.897
479.05	37.883
479.40	37.216
479.75	36.840
480.10	37.234
480.45	36.281
480.79	37.324
481.14	36.259
481.49	37.165
481.84	36.597
482.19	37.161
482.53	36.642
482.88	37.483
483.23	37.528
483.58	36.419
483.92	36.525
484.27	36.537
484.62	36.881
484.97	36.820
485.31	36.114
485.66	36.376
486.01	34.367
486.36	34.548
486.70	34.923
487.05	35.103
487.40	35.268
487.75	36.438
488.09	36.996
488.44	36.467
488.79	37.437
489.13	37.581
489.48	37.204
489.83	37.746
490.17	37.181
490.52	37.438
490.87	37.225
491.22	38.085
491.56	37.756
491.91	38.290
492.26	37.473
492.60	37.735
492.95	37.824
493.30	38.548
493.64	37.889
493.99	37.763
494.34	37.239
494.68	37.602
495.03	37.753
495.37	39.148
495.72	37.868
496.07	38.081
496.41	38.653
496.76	38.032
497.11	38.556
497.45	37.635
497.80	38.383
498.14	38.458
498.49	38.557
498.84	38.848
499.18	38.596
499.53	38.430
499.87	38.857
500.22	38.112
500.56	38.641
500.91	39.451
501.26	38.955
501.60	37.958
501.95	38.081
502.29	39.096
502.64	39.528
502.98	38.352
503.33	38.618
503.67	38.116
504.02	38.266
504.36	39.231
504.71	38.815
505.06	39.427
505.40	38.574
505.75	38.980
506.09	39.733
506.44	39.694
506.78	38.945
507.13	38.681
507.47	39.223
507.82	39.347
508.16	39.293
508.51	39.334
508.85	39.632
509.19	38.702
509.54	40.010
509.88	39.145
510.23	39.922
510.57	40.164
510.92	40.252
511.26	39.683
511.61	39.112
511.95	40.215
512.30	40.276
512.64	39.280
512.98	39.070
513.33	40.272
513.67	40.388
514.02	39.550
514.36	41.535
514.70	40.729
515.05	40.667
515.39	41.050
515.74	40.933
516.08	40.729
516.42	40.712
516.77	41.220
517.11	39.814
517.46	40.562
517.80	41.529
518.14	41.077
518.49	41.649
518.83	40.394
519.17	40.765
519.52	40.356
519.86	41.130
520.20	40.841
520.55	39.869
520.89	41.667
521.23	40.927
521.58	41.073
521.92	40.737
522.26	41.352
522.61	41.493
522.95	41.522
523.29	40.747
523.64	40.695
523.98	41.586
524.32	42.350
524.66	41.434
525.01	40.147
525.35	40.953
525.69	40.197
526.04	40.643
526.38	41.092
526.72	42.099
527.06	40.938
527.41	41.341
527.75	41.568
528.09	41.558
528.43	40.616
528.78	42.023
529.12	40.768
529.46	40.585
529.80	40.789
530.15	41.333
530.49	40.985
530.83	41.440
531.17	40.860
531.51	40.915
531.86	41.707
532.20	41.646
532.54	40.874
532.88	41.273
533.22	41.072
533.57	39.931
533.91	40.180
534.25	40.701
534.59	40.862
534.93	39.219
535.27	41.014
535.62	40.648
535.96	40.093
536.30	40.893
536.64	41.502
536.98	42.005
537.32	41.420
537.66	41.298
538.01	39.758
538.35	40.682
538.69	41.046
539.03	41.876
539.37	40.283
539.71	41.562
540.05	40.707
540.39	39.609
540.73	40.498
541.07	40.773
541.42	38.984
541.76	38.909
542.10	40.832
542.44	40.073
542.78	39.964
543.12	39.035
543.46	40.904
543.80	39.388
544.14	40.215
544.48	41.312
544.82	41.771
545.16	40.608
545.50	39.964
545.84	40.294
546.18	40.556
546.52	40.892
546.86	41.321
547.20	41.094
547.54	40.137
547.88	39.783
548.22	40.058
548.56	38.912
548.90	39.522
549.24	39.818
549.58	40.442
549.92	41.327
550.26	40.906
550.60	40.523
550.94	40.556
551.28	40.858
551.62	41.644
551.96	40.194
552.30	40.280
552.64	40.697
552.98	40.549
553.32	41.029
553.66	40.772
554.00	40.605
554.34	41.377
554.68	39.445
555.02	40.999
555.36	41.354
555.69	40.999
556.03	40.984
556.37	41.489
556.71	40.520
557.05	40.575
557.39	40.942
557.73	41.413
558.07	40.927
558.41	41.462
558.75	41.853
559.08	42.450
559.42	41.358
559.76	42.334
560.10	40.723
560.44	40.567
560.78	41.500
561.12	41.195
561.45	41.363
561.79	41.026
562.13	41.343
562.47	40.012
562.81	40.696
563.15	41.162
563.48	41.081
563.82	41.173
564.16	40.581
564.50	40.465
564.84	39.115
565.17	41.059
565.51	38.435
565.85	40.558
566.19	39.343
566.52	40.140
566.86	39.955
567.20	39.260
567.54	39.193
567.88	38.889
568.21	39.130
568.55	39.137
568.89	38.538
569.23	37.347
569.56	37.515
569.90	37.883
570.24	36.661
570.57	36.241
570.91	36.130
571.25	36.072
571.59	35.708
571.92	35.821
572.26	36.316
572.60	35.490
572.93	36.293
573.27	35.768
573.61	35.945
573.95	35.324
574.28	35.039
574.62	35.425
574.96	34.495
575.29	35.294
575.63	34.904
575.97	34.898
576.30	35.702
576.64	35.481
576.98	35.262
577.31	35.064
577.65	35.576
577.98	35.109
578.32	34.712
578.66	34.112
578.99	34.753
579.33	34.904
579.67	34.859
580.00	35.379
580.34	35.035
580.67	34.863
581.01	34.920
581.35	34.600
581.68	35.209
582.02	34.202
582.35	34.923
582.69	34.827
583.02	34.554
583.36	35.079
583.70	35.469
584.03	34.821
584.37	35.349
584.70	35.257
585.04	35.341
585.37	35.440
585.71	34.995
586.04	34.500
586.38	34.958
586.72	34.796
587.05	35.508
587.39	35.353
587.72	36.029
588.06	35.904
588.39	35.524
588.73	35.503
589.06	36.146
589.40	35.956
589.73	36.247
590.07	36.771
590.40	36.545
590.73	35.984
591.07	36.709
591.40	36.820
591.74	36.884
592.07	37.556
592.41	36.987
592.74	36.280
593.08	36.401
593.41	35.958
593.75	35.776
594.08	35.474
594.41	36.122
594.75	35.470
595.08	36.676
595.42	36.591
595.75	35.906
596.09	36.937
596.42	36.797
596.75	37.129
597.09	38.101
597.42	35.956
597.75	35.986
598.09	36.548
598.42	36.832
598.76	36.186
599.09	36.312
599.42	35.836
599.76	35.754
600.09	36.403
600.42	35.903
600.76	36.030
601.09	35.679
601.42	35.565
601.76	36.483
602.09	36.419
602.42	35.951
602.76	36.052
603.09	36.784
603.42	35.694
603.76	35.906
604.09	36.622
604.42	36.661
604.76	36.225
605.09	35.820
605.42	36.324
605.75	35.538
606.09	35.909
606.42	35.644
606.75	35.682
607.09	35.100
607.42	36.108
607.75	36.499
608.08	36.267
608.42	36.114
608.75	36.526
609.08	35.654
609.41	36.656
609.75	37.188
610.08	37.071
610.41	36.449
610.74	35.966
611.07	36.545
611.41	36.592
611.74	37.182
612.07	36.793
612.40	37.215
612.73	37.751
613.07	37.653
613.40	37.440
613.73	36.158
614.06	37.193
614.39	36.540
614.72	36.245
615.06	36.429
615.39	36.588
615.72	37.014
616.05	37.008
616.38	36.983
616.71	37.774
617.05	37.167
617.38	35.902
617.71	37.419
618.04	37.453
618.37	37.432
618.70	38.122
619.03	37.933
619.36	38.101
619.69	38.437
620.03	37.602
620.36	36.994
620.69	37.138
621.02	38.386
621.35	39.985
621.68	39.986
622.01	39.359
622.34	37.796
622.67	37.595
623.00	37.652
623.33	38.952
623.66	38.716
623.99	38.776
624.32	39.246
624.65	37.645
624.99	39.012
625.32	37.949
625.65	38.840
625.98	37.695
626.31	39.050
626.64	39.194
626.97	39.610
627.30	38.345
627.63	38.635
627.96	40.465
628.29	39.611
628.62	39.295
628.95	39.351
629.28	38.658
629.61	39.141
629.94	37.238
630.26	39.576
630.59	39.378
630.92	39.740
631.25	39.624
631.58	40.490
631.91	40.300
632.24	40.442
632.57	41.176
632.90	39.920
633.23	40.918
633.56	40.612
633.89	40.496
634.22	42.620
634.55	41.649
634.88	40.801
635.20	43.057
635.53	43.164
635.86	41.278
636.19	42.948
636.52	41.878
636.85	43.105
637.18	39.917
637.51	41.290
637.83	40.642
638.16	43.894
638.49	40.258
638.82	40.924
639.15	40.435
639.48	42.263
639.81	41.109
640.13	42.521
640.46	41.697
640.79	41.789
641.12	42.609
641.45	42.660
641.77	43.902
642.10	41.339
642.43	44.415
642.76	41.599
643.09	43.151
643.41	43.838
643.74	42.897
644.07	44.966
644.40	41.584
644.73	43.251
645.05	42.584
645.38	43.453
645.71	42.229
646.04	43.759
646.36	40.876
646.69	40.951
647.02	44.801
647.35	43.359
647.67	44.767
648.00	42.834
648.33	44.745
648.66	44.793
648.98	39.864
649.31	41.543
649.64	41.169
649.96	43.236
650.29	40.612
650.62	41.867
650.94	42.342
651.27	41.467
651.60	39.766
651.92	43.769
652.25	41.968
652.58	40.715
652.90	42.151
653.23	42.676
653.56	40.799
653.88	42.135
654.21	41.127
654.54	41.618
654.86	41.218
655.19	36.888
655.52	34.876
655.84	28.212
656.17	34.821
656.49	48.790
656.82	54.611
657.15	42.429
657.47	31.880
657.80	23.800
658.13	19.040
658.45	25.314
658.78	31.608
659.10	31.710
659.43	32.406
659.75	33.441
660.08	34.734
660.41	35.897
660.73	38.997
661.06	40.088
661.38	43.222
661.71	42.069
662.03	43.210
662.36	45.081
662.68	45.028
663.01	40.354
663.33	44.612
663.66	44.139
663.98	42.500
664.31	44.090
664.63	42.582
664.96	41.924
665.28	38.657
665.61	40.559
665.93	41.786
666.26	43.907
666.58	40.775
666.91	44.112
667.23	43.048
667.56	43.195
667.88	43.400
668.21	39.453
668.53	40.734
668.86	41.650
669.18	43.177
669.50	41.750
669.83	39.800
670.15	41.339
670.48	41.468
670.80	41.300
671.13	43.100
671.45	39.173
671.77	42.750
672.10	40.167
672.42	38.673
672.75	38.556
673.07	39.403
673.39	37.134
673.72	40.772
674.04	42.069
674.37	38.819
674.69	42.504
675.01	40.381
675.34	42.366
675.66	37.079
675.98	43.284
676.31	40.820
676.63	44.297
676.95	40.996
677.28	40.726
677.60	38.583
677.92	39.539
678.25	40.951
678.57	43.594
678.89	39.590
679.22	39.895
679.54	39.316
679.86	36.102
680.18	38.308
680.51	39.308
680.83	36.334
681.15	38.276
681.48	40.587
681.80	41.278
682.12	37.937
682.44	37.062
682.77	40.071
683.09	40.530
683.41	37.791
683.73	38.710
684.06	40.037
684.38	38.104
684.70	40.036
685.02	37.866
685.34	35.774
685.67	36.435
685.99	36.350
686.31	36.483
686.63	38.389
686.96	35.962
687.28	36.319
687.60	35.185
687.92	36.174
688.24	36.728
688.56	36.724
688.89	38.475
689.21	41.292
689.53	36.863
689.85	39.645
690.17	37.778
690.49	39.243
690.82	37.624
691.14	37.247
691.46	38.623
691.78	37.017
692.10	36.514
692.42	35.357
692.74	38.475
693.06	35.185
693.39	38.710
693.71	36.278
694.03	38.290
694.35	36.190
694.67	38.809
694.99	39.574
695.31	39.514
695.63	38.312
695.95	37.060
696.27	39.121
696.59	38.938
696.91	39.189
697.23	40.220
697.56	37.271
697.88	36.174
698.20	34.840
698.52	39.583
698.84	37.006
699.16	39.388
699.48	38.494
699.80	36.383
700.12	37.555
700.44	40.783
700.76	38.480
701.08	39.225
701.40	40.415
701.72	40.299
702.04	44.385
702.36	39.005
702.68	38.875
703.00	35.208
703.32	40.640
703.64	37.897
703.96	37.232
704.28	38.821
704.60	38.228
704.91	40.306
705.23	37.808
705.55	36.490
705.87	42.424
706.19	41.718
706.51	36.747
706.83	37.752
707.15	39.418
707.47	36.449
707.79	37.555
708.11	33.051
708.43	35.054
708.74	35.491
709.06	35.731
709.38	39.906
709.70	40.447
710.02	38.501
710.34	41.489
710.66	37.709
710.98	40.710
711.29	38.736
711.61	38.418
711.93	40.741
712.25	38.378
712.57	41.298
712.89	41.471
713.20	34.320
713.52	43.353
713.84	40.390
714.16	36.842
714.48	36.082
714.80	38.182
715.11	35.433
715.43	36.340
715.75	36.579
716.07	35.635
716.39	39.071
716.70	38.253
717.02	40.984
717.34	39.721
717.66	42.617
717.97	37.329
718.29	40.893
718.61	36.184
718.93	38.835
719.24	36.957
719.56	34.663
719.88	35.135
720.20	41.935
720.51	37.578
720.83	37.188
721.15	38.158
721.46	37.329
721.78	39.667
722.10	35.599
722.42	36.577
722.73	36.452
723.05	37.193
723.37	37.153
723.68	41.577
724.00	39.711
724.32	35.563
724.63	33.916
724.95	36.525
725.27	39.373
725.58	34.982
725.90	35.862
726.22	36.364
726.53	36.688
726.85	36.164
727.16	37.764
727.48	40.367
727.80	36.424
728.11	40.989
728.43	38.047
728.74	35.786
729.06	33.775
729.38	37.338
729.69	34.564
730.01	35.119
730.32	33.636
730.64	36.478
730.96	35.404
731.27	34.078
731.59	35.989
731.90	34.286
732.22	31.510
732.53	27.901
732.85	35.714
733.16	34.311
733.48	30.183
733.80	32.591
734.11	33.333
734.43	29.730
734.74	37.975
735.06	30.905
735.37	32.973
735.69	36.757
736.00	33.898
736.32	31.806
736.63	35.278
736.95	31.897
737.26	36.364
737.58	36.970
737.89	31.765
738.21	34.557
738.52	34.754
738.83	32.423
739.15	36.525
739.46	36.735
739.78	35.583
740.09	32.665
740.41	34.694
740.72	34.667
741.04	35.599
741.35	36.842
741.66	40.784
741.98	34.016
742.29	33.891
742.61	40.351
742.92	37.308
743.23	34.657
743.55	38.760
743.86	39.200
744.18	32.645
744.49	31.646
744.80	37.449
745.12	37.131
745.43	39.024
745.74	34.914
746.06	38.136
746.37	41.350
746.68	41.463
747.00	39.583
747.31	38.627
747.62	38.846
747.94	32.794
748.25	38.554
748.56	33.061
748.88	35.897
749.19	41.379
749.50	37.662
749.82	39.759
750.13	34.875
750.44	33.000
750.75	32.923
751.07	33.538
751.38	33.123
751.69	34.185
752.01	32.686
752.32	32.353
752.63	34.354
752.94	34.602
753.26	32.342
753.57	34.815
753.88	34.831
754.19	37.621
754.51	30.547
754.82	34.727
755.13	35.410
755.44	36.860
755.75	34.539
756.07	33.433
756.38	32.390
756.69	33.434
757.00	31.302
757.31	32.787
757.63	28.133
757.94	30.282
758.25	31.603
758.56	29.630
758.87	32.955
759.18	31.733
759.50	33.144
759.81	33.333
760.12	30.728
760.43	30.208
760.74	31.281
761.05	27.750
761.36	29.398
761.67	31.218
761.99	28.649
762.30	36.585
762.61	31.353
762.92	31.716
763.23	34.457
763.54	35.252
763.85	33.677
764.16	31.987
764.47	34.859
764.78	31.629
765.10	35.777
765.41	32.821
765.72	29.101
766.03	32.768
766.34	28.527
766.65	32.056
766.96	33.068
767.27	37.327
767.58	34.328
767.89	36.538
768.20	34.742
768.51	37.037
768.82	35.341
769.13	36.364
769.44	33.846
769.75	33.213
770.06	35.769
770.37	34.252
770.68	27.234
770.99	26.721
771.30	38.519
771.61	28.517
771.92	35.185
772.23	32.389
772.54	33.333
772.85	32.719
773.16	35.714
773.47	34.921
773.78	31.351
774.09	37.500
774.39	42.000
774.70	44.262
775.01	36.585
775.32	36.471
775.63	33.742
775.94	41.401
776.25	36.774
776.56	44.231
776.87	40.136
777.18	33.793
777.48	39.161
777.79	35.135
778.10	34.559
778.41	36.806
778.72	42.069
779.03	34.568
779.34	32.727
779.65	33.679
779.95	38.333
780.26	38.068
780.57	38.065
780.88	44.203
781.19	34.839
781.50	42.353
781.80	31.183
782.11	34.921
782.42	22.727
782.73	40.719
783.04	35.754
783.34	32.121
783.65	36.601
783.96	37.267
784.27	32.143
784.57	36.424
784.88	34.286
785.19	35.433
785.50	48.031
785.81	36.842
786.11	43.846
786.42	31.655
786.73	32.374
787.04	33.083
787.34	35.246
787.65	34.400
787.96	38.060
788.26	39.161
788.57	36.364
788.88	28.289
789.19	39.216
789.49	36.301
789.80	31.206
790.11	37.008
790.41	41.406
790.72	37.288
791.03	30.097
791.33	32.174
791.64	42.105
791.95	33.929
792.25	43.810
792.56	50.000
792.87	33.333
793.17	35.714
793.48	34.375
793.79	44.578
794.09	32.110
794.40	40.367
794.70	29.932
795.01	29.870
795.32	32.877
795.62	34.507
795.93	27.273
796.23	44.262
796.54	29.464
796.85	38.298
797.15	43.478
797.46	53.425
797.76	28.750
798.07	45.652
798.37	26.804
798.68	33.766
798.99	34.483
799.29	43.820
799.60	42.553
799.90	40.964
800.21	52.308
800.51	34.328
800.82	39.706
801.12	27.397
801.43	23.529
801.73	23.729
802.04	43.939
802.34	20.000
802.65	66.102
802.95	46.269
803.26	45.763
803.56	39.726
803.87	44.286
804.17	52.055
804.48	24.561
804.78	37.500
805.09	29.310
805.39	52.703
805.70	28.169
806.00	37.805
806.30	32.530
806.61	39.726
806.91	30.769
807.22	48.889
807.52	35.632
807.83	48.611
808.13	40.964
808.43	35.955
808.74	38.750
809.04	27.941
809.35	45.333
809.65	25.714
809.95	54.795
810.26	26.316
810.56	51.724
810.86	33.824
811.17	54.386
811.47	24.590
811.77	33.333
812.08	37.288
812.38	33.333
812.69	32.759
812.99	50.943
813.29	30.769
813.59	52.000
813.90	59.649
814.20	43.636
814.50	47.887
814.81	41.026
815.11	54.098
815.41	38.806
815.72	58.621
816.02	55.357
816.32	71.111
816.62	63.636
816.93	40.000
817.23	37.037
817.53	38.298
817.84	45.238
818.14	32.353
818.44	57.143
818.74	57.778
819.04	28.205
819.35	77.143
819.65	76.923
819.95	45.283
820.25	71.111
820.56	52.381
820.86	68.750
821.16	56.410
821.46	23.256
821.76	22.000
822.07	35.714
822.37	54.348
822.67	27.660
822.97	18.919
823.27	60.000
823.57	57.143
823.88	53.333
824.18	60.000
824.48	83.333
824.78	76.000
825.08	63.636
825.38	62.222
825.69	70.213
825.99	75.000
826.29	14.286
826.59	48.718
826.89	16.279
827.19	48.000
827.49	64.706
827.79	50.000
828.09	24.324
828.39	40.000
828.70	46.341
829.00	44.186
829.30	32.143
829.60	58.824
829.90	45.652
830.20	40.000
830.50	37.931
830.80	94.444
831.10	46.154
831.40	58.824
831.70	85.714
832.00	67.742
832.30	52.941
832.60	50.000
832.90	46.154
833.20	78.947
833.50	95.000
833.80	94.737
834.10	-9.524
834.40	63.889
834.70	78.125
835.00	45.714
835.30	58.824
835.60	76.667
835.90	84.000
836.20	40.909
836.50	64.000
836.80	33.333
837.10	66.667
837.40	37.037
837.70	56.250
838.00	75.000
838.30	82.609
838.60	65.517
838.90	64.286
839.19	30.435
839.49	41.667
839.79	104.348
840.09	50.000
840.39	70.000
840.69	77.419
840.99	35.714
841.29	86.667
841.59	73.684
841.88	58.974
842.18	61.538
842.48	180.000
842.78	70.000
843.08	66.667
843.38	58.065
843.68	66.667
843.97	47.059
844.27	100.000
844.57	42.105
844.87	20.000
845.17	100.000
845.47	109.524
845.76	71.429
846.06	177.778
846.36	58.824
846.66	80.769
846.96	133.333
847.25	58.824
847.55	100.000
847.85	65.000
848.15	111.765
848.44	36.364
848.74	85.714
849.04	66.667
849.34	18.750
849.63	21.739
849.93	250.000
850.23	73.333
850.53	84.615
850.82	109.091
851.12	72.727
851.42	63.636
851.71	138.462
852.01	70.000
852.31	84.615
852.61	73.684
852.90	100.000
853.20	94.444
853.50	77.778
853.79	38.095
854.09	54.545
854.39	16.667
854.68	77.419
854.98	26.923
855.28	161.111
855.57	67.857
855.87	36.000
856.17	9.091
856.46	55.556
856.76	66.667
857.05	60.870
857.35	33.333
857.65	84.615
857.94	104.762
858.24	44.444
858.53	56.522
858.83	58.824
859.13	82.353
859.42	100.000
859.72	114.286
860.01	75.000
860.31	155.556
860.60	220.000
860.90	46.667
861.20	27.778
861.49	138.462
861.79	76.667
862.08	153.846
862.38	53.125
862.67	76.471
862.97	106.250
863.26	55.556
863.56	100.000
863.85	54.545
864.15	116.667
864.44	566.667
864.74	85.714
865.03	56.250
865.33	60.000
865.62	41.935
865.92	86.364
866.21	73.913
866.51	71.429
866.80	400.000
867.10	66.667
867.39	100.000
867.69	-100.000
867.98	200.000
868.27	105.882
868.57	500.000
868.86	10.000
869.16	80.952
869.45	79.167
869.75	109.091
870.04	128.571
870.33	116.667
870.63	114.286
870.92	300.000
871.22	50.000
871.51	109.091
871.80	133.333
872.10	550.000
>>>>>End Processed Spectral Data<<<<<
