SpectraSuite Data File
++++++++++++++++++++++++++++++++++++
Date: Thu May 14 14:26:48 PDT 2015
User: schluterlab
Dark Spectrum Present: Yes
Reference Spectrum Present: Yes
Number of Sampled Component Spectra: 1
Spectrometers: USB2E3373
Integration Time (usec): 3000 (USB2E3373)
Spectra Averaged: 3 (USB2E3373)
Boxcar Smoothing: 0 (USB2E3373)
Correct for Electrical Dark: No (USB2E3373)
Strobe/Lamp Enabled: No (USB2E3373)
Correct for Detector Non-linearity: No (USB2E3373)
Correct for Stray Light: No (USB2E3373)
Number of Pixels in Processed Spectrum: 2048
>>>>>Begin Processed Spectral Data<<<<<
178.53	0.000
178.91	-28.571
179.29	-200.000
179.67	900.000
180.04	92.857
180.42	-40.000
180.80	-40.000
181.18	1000.000
181.56	2000.000
181.94	-350.000
182.31	275.000
182.69	-566.667
183.07	700.000
183.45	-200.000
183.83	50.000
184.20	533.333
184.58	-900.000
184.96	75.000
185.34	155.556
185.72	140.000
186.09	-11.111
186.47	-50.000
186.85	-20.000
187.23	166.667
187.61	500.000
187.98	-60.000
188.36	-200.000
188.74	200.000
189.12	466.667
189.49	62.500
189.87	-12.500
190.25	155.556
190.63	200.000
191.00	11.111
191.38	0.000
191.76	150.000
192.14	166.667
192.51	-300.000
192.89	266.667
193.27	0.000
193.65	171.429
194.02	700.000
194.40	157.143
194.78	-142.857
195.15	0.000
195.53	172.727
195.91	0.000
196.29	400.000
196.66	100.000
197.04	400.000
197.42	171.429
197.79	550.000
198.17	287.500
198.55	142.857
198.92	166.667
199.30	150.000
199.68	136.364
200.05	85.714
200.43	350.000
200.81	-14.286
201.18	0.000
201.56	-11.111
201.94	0.000
202.31	100.000
202.69	166.667
203.07	-1400.000
203.44	66.667
203.82	200.000
204.19	125.000
204.57	100.000
204.95	25.000
205.32	1500.000
205.70	-325.000
206.08	150.000
206.45	300.000
206.83	100.000
207.20	216.667
207.58	200.000
207.96	33.333
208.33	266.667
208.71	75.000
209.08	300.000
209.46	0.000
209.84	33.333
210.21	-650.000
210.59	-350.000
210.96	-166.667
211.34	350.000
211.71	187.500
212.09	1500.000
212.46	0.000
212.84	300.000
213.22	160.000
213.59	300.000
213.97	150.000
214.34	333.333
214.72	-133.333
215.09	100.000
215.47	0.000
215.84	-57.143
216.22	-200.000
216.59	200.000
216.97	0.000
217.34	175.000
217.72	175.000
218.09	50.000
218.47	-25.000
218.84	0.000
219.22	-200.000
219.59	64.706
219.97	85.000
220.34	-500.000
220.72	44.444
221.09	100.000
221.47	566.667
221.84	60.000
222.22	71.429
222.59	0.000
222.97	100.000
223.34	80.000
223.72	1000.000
224.09	400.000
224.46	200.000
224.84	220.000
225.21	100.000
225.59	0.000
225.96	625.000
226.34	69.231
226.71	-83.333
227.08	700.000
227.46	86.667
227.83	125.000
228.21	136.842
228.58	-100.000
228.95	-700.000
229.33	116.667
229.70	80.000
230.08	157.895
230.45	-0.000
230.82	200.000
231.20	92.857
231.57	141.667
231.95	63.636
232.32	154.545
232.69	100.000
233.07	150.000
233.44	82.353
233.81	20.000
234.19	88.889
234.56	68.182
234.93	100.000
235.31	100.000
235.68	61.111
236.05	75.000
236.43	88.462
236.80	96.000
237.17	70.370
237.55	81.818
237.92	190.000
238.29	64.516
238.67	45.455
239.04	63.889
239.41	45.238
239.79	58.696
240.16	46.296
240.53	58.696
240.91	54.902
241.28	52.459
241.65	73.134
242.02	43.243
242.40	43.077
242.77	53.333
243.14	42.683
243.51	32.895
243.89	30.769
244.26	48.515
244.63	53.922
245.00	46.729
245.38	51.754
245.75	45.133
246.12	49.206
246.49	46.512
246.87	50.000
247.24	47.020
247.61	48.684
247.98	41.611
248.36	49.383
248.73	46.012
249.10	45.355
249.47	48.259
249.84	47.120
250.22	35.751
250.59	44.444
250.96	43.182
251.33	43.367
251.70	42.735
252.08	40.833
252.45	41.393
252.82	41.322
253.19	33.594
253.56	39.163
253.94	40.769
254.31	43.182
254.68	45.804
255.05	41.694
255.42	42.177
255.79	39.159
256.16	41.722
256.54	45.364
256.91	43.607
257.28	39.344
257.65	40.127
258.02	39.823
258.39	41.595
258.76	44.343
259.14	43.966
259.51	39.193
259.88	40.227
260.25	41.944
260.62	41.644
260.99	43.169
261.36	42.895
261.73	42.971
262.10	42.857
262.47	43.700
262.85	42.677
263.22	38.182
263.59	41.316
263.96	41.688
264.33	39.386
264.70	43.457
265.07	44.391
265.44	42.404
265.81	40.278
266.18	43.084
266.55	40.402
266.92	37.813
267.29	40.700
267.66	41.463
268.03	42.140
268.40	37.996
268.77	39.636
269.14	38.326
269.51	41.886
269.88	39.549
270.25	39.638
270.62	38.397
270.99	42.020
271.36	39.208
271.73	37.917
272.10	41.483
272.47	40.080
272.84	39.157
273.21	38.277
273.58	39.516
273.95	36.538
274.32	38.023
274.69	38.104
275.06	39.377
275.43	32.163
275.80	36.508
276.17	35.185
276.54	36.194
276.91	37.388
277.28	39.060
277.65	39.856
278.02	38.971
278.39	38.043
278.76	36.380
279.13	37.234
279.50	39.347
279.87	36.673
280.23	34.859
280.60	37.458
280.97	38.322
281.34	36.672
281.71	37.902
282.08	36.877
282.45	38.462
282.82	34.537
283.19	33.926
283.56	36.885
283.92	36.036
284.29	36.809
284.66	39.080
285.03	34.615
285.40	35.394
285.77	37.461
286.14	35.878
286.51	34.703
286.87	35.703
287.24	36.446
287.61	38.117
287.98	34.894
288.35	34.911
288.72	31.805
289.08	35.139
289.45	31.953
289.82	33.886
290.19	35.776
290.56	34.366
290.93	33.951
291.29	33.609
291.66	33.609
292.03	32.157
292.40	33.197
292.77	31.671
293.13	32.206
293.50	31.669
293.87	31.812
294.24	33.733
294.60	31.985
294.97	30.201
295.34	29.962
295.71	29.760
296.08	29.845
296.44	31.127
296.81	30.816
297.18	29.141
297.55	29.363
297.91	29.181
298.28	28.910
298.65	29.845
299.02	30.342
299.38	29.062
299.75	28.621
300.12	29.167
300.48	29.954
300.85	29.134
301.22	28.076
301.59	27.511
301.95	28.362
302.32	27.667
302.69	28.258
303.05	28.618
303.42	27.716
303.79	27.396
304.15	26.814
304.52	27.167
304.89	27.225
305.25	25.362
305.62	27.795
305.99	27.113
306.35	27.520
306.72	27.921
307.09	26.193
307.45	27.950
307.82	27.447
308.19	26.135
308.55	26.712
308.92	26.972
309.29	26.724
309.65	26.511
310.02	25.446
310.38	25.591
310.75	26.699
311.12	26.366
311.48	26.491
311.85	25.926
312.22	25.901
312.58	26.385
312.95	25.143
313.31	26.468
313.68	26.557
314.05	26.829
314.41	27.413
314.78	25.886
315.14	26.316
315.51	26.777
315.87	27.183
316.24	26.393
316.61	26.732
316.97	25.882
317.34	25.926
317.70	25.677
318.07	25.132
318.43	25.765
318.80	27.258
319.16	26.352
319.53	24.936
319.89	24.978
320.26	26.957
320.62	25.177
320.99	24.931
321.35	25.416
321.72	25.767
322.08	24.166
322.45	25.113
322.81	24.819
323.18	25.575
323.54	25.948
323.91	25.178
324.27	24.785
324.64	24.685
325.00	23.798
325.37	24.570
325.73	26.033
326.10	24.980
326.46	26.059
326.83	26.101
327.19	25.197
327.56	25.455
327.92	24.469
328.29	25.242
328.65	23.199
329.01	23.858
329.38	24.347
329.74	25.599
330.11	25.428
330.47	23.926
330.84	24.978
331.20	25.417
331.56	23.137
331.93	24.686
332.29	23.729
332.66	23.671
333.02	23.367
333.38	23.490
333.75	24.158
334.11	25.021
334.48	23.267
334.84	24.894
335.20	22.922
335.57	25.632
335.93	24.628
336.29	23.794
336.66	23.802
337.02	24.247
337.38	24.915
337.75	24.132
338.11	23.381
338.47	23.573
338.84	23.266
339.20	22.578
339.56	23.311
339.93	23.235
340.29	22.786
340.65	23.763
341.02	23.703
341.38	23.767
341.74	22.922
342.11	24.055
342.47	22.875
342.83	23.833
343.20	24.285
343.56	24.459
343.92	22.338
344.28	23.359
344.65	24.419
345.01	23.401
345.37	22.706
345.73	22.214
346.10	24.025
346.46	21.677
346.82	22.772
347.19	24.446
347.55	23.065
347.91	22.808
348.27	22.458
348.63	22.848
349.00	22.670
349.36	24.015
349.72	22.470
350.08	23.254
350.45	21.977
350.81	22.474
351.17	23.459
351.53	22.669
351.89	21.944
352.26	22.388
352.62	22.761
352.98	22.061
353.34	21.135
353.70	22.727
354.07	23.696
354.43	23.311
354.79	22.214
355.15	23.032
355.51	22.515
355.87	22.737
356.24	22.966
356.60	21.434
356.96	22.980
357.32	22.082
357.68	21.376
358.04	21.781
358.40	21.940
358.77	21.199
359.13	21.344
359.49	21.487
359.85	22.408
360.21	20.732
360.57	21.967
360.93	22.003
361.29	22.316
361.66	21.289
362.02	22.269
362.38	21.715
362.74	21.927
363.10	21.802
363.46	21.537
363.82	20.952
364.18	21.534
364.54	22.683
364.90	23.478
365.26	20.897
365.62	22.600
365.98	21.715
366.35	21.946
366.71	22.109
367.07	21.245
367.43	21.274
367.79	21.102
368.15	22.408
368.51	22.057
368.87	21.685
369.23	21.133
369.59	21.243
369.95	22.110
370.31	21.945
370.67	21.045
371.03	21.468
371.39	20.887
371.75	22.834
372.11	21.748
372.47	21.869
372.83	21.990
373.19	21.414
373.55	22.154
373.91	21.745
374.27	21.539
374.63	21.922
374.99	21.419
375.35	21.753
375.71	21.097
376.07	21.046
376.42	21.411
376.78	21.442
377.14	21.397
377.50	21.189
377.86	22.229
378.22	21.617
378.58	21.403
378.94	20.833
379.30	21.793
379.66	21.046
380.02	21.466
380.38	21.486
380.74	21.521
381.09	20.499
381.45	21.250
381.81	21.780
382.17	22.803
382.53	21.754
382.89	20.993
383.25	22.157
383.61	21.354
383.97	21.790
384.32	22.428
384.68	21.520
385.04	22.036
385.40	21.803
385.76	21.805
386.12	21.245
386.48	22.706
386.83	22.765
387.19	21.205
387.55	21.772
387.91	21.861
388.27	21.998
388.62	20.905
388.98	20.699
389.34	21.096
389.70	21.383
390.06	20.900
390.42	21.506
390.77	22.336
391.13	21.596
391.49	21.558
391.85	20.909
392.20	22.064
392.56	22.859
392.92	22.410
393.28	22.056
393.64	22.067
393.99	22.080
394.35	22.196
394.71	21.198
395.07	20.898
395.42	21.188
395.78	22.486
396.14	21.866
396.50	21.793
396.85	21.646
397.21	21.716
397.57	21.437
397.92	22.279
398.28	21.076
398.64	21.396
399.00	20.524
399.35	22.304
399.71	21.630
400.07	21.673
400.42	21.537
400.78	21.470
401.14	21.628
401.49	21.205
401.85	21.395
402.21	21.321
402.57	21.948
402.92	21.277
403.28	20.375
403.63	20.823
403.99	21.496
404.35	21.035
404.70	21.926
405.06	21.793
405.42	21.194
405.77	22.083
406.13	20.908
406.49	21.734
406.84	21.108
407.20	21.353
407.55	21.744
407.91	20.930
408.27	21.319
408.62	21.408
408.98	21.242
409.34	21.232
409.69	21.508
410.05	21.630
410.40	21.752
410.76	21.256
411.11	21.449
411.47	21.499
411.83	20.752
412.18	20.783
412.54	21.458
412.89	21.828
413.25	20.937
413.60	21.137
413.96	21.387
414.31	20.680
414.67	21.467
415.03	21.108
415.38	21.375
415.74	20.281
416.09	21.345
416.45	21.290
416.80	20.502
417.16	21.073
417.51	21.046
417.87	20.540
418.22	20.838
418.58	21.066
418.93	22.119
419.29	21.208
419.64	21.188
420.00	20.890
420.35	21.392
420.71	21.022
421.06	20.874
421.42	21.101
421.77	20.571
422.12	21.195
422.48	20.993
422.83	20.811
423.19	20.371
423.54	21.460
423.90	20.928
424.25	20.800
424.61	20.723
424.96	21.362
425.31	21.072
425.67	20.558
426.02	20.863
426.38	20.953
426.73	20.926
427.09	21.799
427.44	20.535
427.79	21.282
428.15	21.005
428.50	20.730
428.85	20.379
429.21	21.383
429.56	20.780
429.92	21.523
430.27	21.012
430.62	20.909
430.98	21.102
431.33	20.235
431.68	20.785
432.04	20.518
432.39	21.050
432.74	21.347
433.10	21.579
433.45	20.457
433.80	20.386
434.16	20.971
434.51	20.863
434.86	21.770
435.22	21.467
435.57	22.170
435.92	21.202
436.28	21.445
436.63	21.573
436.98	20.719
437.34	20.970
437.69	20.583
438.04	20.836
438.39	21.137
438.75	20.919
439.10	21.195
439.45	21.632
439.81	20.734
440.16	21.126
440.51	21.851
440.86	21.123
441.22	21.543
441.57	21.541
441.92	20.514
442.27	21.818
442.63	21.063
442.98	21.612
443.33	21.410
443.68	21.160
444.03	21.919
444.39	21.498
444.74	21.491
445.09	20.730
445.44	20.969
445.79	20.546
446.15	20.915
446.50	21.654
446.85	21.547
447.20	21.228
447.55	20.816
447.91	21.466
448.26	20.825
448.61	21.307
448.96	21.298
449.31	20.732
449.66	20.969
450.02	21.044
450.37	22.376
450.72	21.044
451.07	21.640
451.42	20.855
451.77	21.012
452.12	21.275
452.47	20.915
452.83	22.241
453.18	21.833
453.53	20.103
453.88	21.425
454.23	21.638
454.58	21.010
454.93	21.117
455.28	21.493
455.63	21.603
455.98	21.508
456.34	21.378
456.69	21.458
457.04	20.686
457.39	21.785
457.74	22.315
458.09	21.746
458.44	21.983
458.79	20.629
459.14	20.766
459.49	22.015
459.84	21.773
460.19	21.099
460.54	21.692
460.89	21.599
461.24	21.264
461.59	22.247
461.94	21.221
462.29	21.892
462.64	21.605
462.99	22.285
463.34	22.193
463.69	21.512
464.04	21.568
464.39	21.917
464.74	20.639
465.09	21.915
465.44	22.049
465.79	22.263
466.14	21.105
466.49	21.684
466.84	21.653
467.19	22.370
467.54	21.210
467.89	20.402
468.24	21.607
468.59	21.482
468.94	21.329
469.29	21.416
469.64	21.805
469.99	21.670
470.34	21.349
470.68	20.711
471.03	22.724
471.38	21.060
471.73	20.936
472.08	22.335
472.43	21.072
472.78	22.355
473.13	22.377
473.48	21.208
473.83	22.751
474.17	21.219
474.52	21.527
474.87	21.982
475.22	22.986
475.57	21.288
475.92	21.752
476.27	21.778
476.61	21.443
476.96	21.429
477.31	21.832
477.66	22.770
478.01	21.251
478.36	21.535
478.70	22.118
479.05	21.933
479.40	21.471
479.75	21.758
480.10	22.075
480.45	22.060
480.79	21.406
481.14	21.461
481.49	22.172
481.84	21.628
482.19	21.247
482.53	22.650
482.88	21.577
483.23	22.365
483.58	21.921
483.92	21.144
484.27	21.084
484.62	22.071
484.97	21.928
485.31	21.225
485.66	21.037
486.01	20.702
486.36	20.328
486.70	20.520
487.05	20.503
487.40	20.618
487.75	21.654
488.09	21.161
488.44	20.931
488.79	21.720
489.13	21.579
489.48	21.320
489.83	21.247
490.17	21.223
490.52	22.414
490.87	21.743
491.22	21.967
491.56	22.526
491.91	22.024
492.26	22.328
492.60	21.863
492.95	21.939
493.30	22.232
493.64	21.901
493.99	22.368
494.34	21.516
494.68	22.827
495.03	21.938
495.37	21.926
495.72	22.222
496.07	22.787
496.41	22.480
496.76	22.185
497.11	21.359
497.45	21.580
497.80	22.257
498.14	21.905
498.49	22.656
498.84	22.395
499.18	22.987
499.53	22.377
499.87	22.154
500.22	21.683
500.56	21.457
500.91	22.380
501.26	22.636
501.60	21.874
501.95	22.753
502.29	22.642
502.64	22.344
502.98	21.829
503.33	21.685
503.67	21.239
504.02	22.198
504.36	23.012
504.71	22.232
505.06	22.920
505.40	23.218
505.75	22.404
506.09	22.606
506.44	23.120
506.78	23.073
507.13	22.361
507.47	22.549
507.82	22.538
508.16	22.228
508.51	21.707
508.85	22.437
509.19	23.117
509.54	23.439
509.88	22.390
510.23	23.361
510.57	23.828
510.92	22.835
511.26	22.270
511.61	22.211
511.95	22.450
512.30	22.797
512.64	22.939
512.98	23.062
513.33	23.790
513.67	22.998
514.02	23.454
514.36	23.529
514.70	23.177
515.05	23.983
515.39	23.990
515.74	23.330
516.08	24.406
516.42	23.705
516.77	23.344
517.11	23.363
517.46	24.231
517.80	24.212
518.14	24.266
518.49	23.265
518.83	23.097
519.17	23.748
519.52	24.214
519.86	23.918
520.20	24.281
520.55	24.151
520.89	24.268
521.23	23.506
521.58	23.842
521.92	23.909
522.26	23.540
522.61	24.363
522.95	24.452
523.29	23.793
523.64	23.430
523.98	24.529
524.32	24.756
524.66	25.441
525.01	24.122
525.35	24.469
525.69	23.840
526.04	23.938
526.38	24.483
526.72	24.221
527.06	23.871
527.41	24.606
527.75	25.119
528.09	24.262
528.43	24.216
528.78	23.584
529.12	22.936
529.46	23.440
529.80	23.970
530.15	24.464
530.49	24.140
530.83	24.026
531.17	24.074
531.51	23.706
531.86	24.159
532.20	23.720
532.54	24.596
532.88	25.152
533.22	25.103
533.57	24.755
533.91	24.018
534.25	24.251
534.59	24.368
534.93	23.430
535.27	24.169
535.62	24.503
535.96	23.881
536.30	23.796
536.64	24.745
536.98	24.662
537.32	25.123
537.66	24.891
538.01	23.988
538.35	23.995
538.69	23.858
539.03	24.157
539.37	23.616
539.71	24.084
540.05	24.820
540.39	23.716
540.73	24.590
541.07	24.586
541.42	23.509
541.76	22.539
542.10	23.703
542.44	24.361
542.78	23.905
543.12	24.374
543.46	24.115
543.80	22.782
544.14	24.417
544.48	24.645
544.82	25.015
545.16	23.673
545.50	24.026
545.84	23.454
546.18	24.568
546.52	24.268
546.86	23.962
547.20	23.728
547.54	24.032
547.88	22.905
548.22	24.152
548.56	23.991
548.90	23.045
549.24	24.438
549.58	25.300
549.92	24.554
550.26	24.272
550.60	24.505
550.94	24.709
551.28	23.630
551.62	25.202
551.96	24.401
552.30	25.494
552.64	23.833
552.98	23.830
553.32	24.759
553.66	24.116
554.00	24.149
554.34	24.067
554.68	23.434
555.02	24.442
555.36	24.721
555.69	23.575
556.03	23.960
556.37	25.031
556.71	24.350
557.05	24.984
557.39	24.552
557.73	24.373
558.07	23.974
558.41	25.050
558.75	23.935
559.08	25.191
559.42	24.486
559.76	24.898
560.10	24.447
560.44	25.462
560.78	25.125
561.12	24.754
561.45	25.365
561.79	24.603
562.13	24.522
562.47	24.476
562.81	25.253
563.15	24.495
563.48	24.239
563.82	24.184
564.16	24.470
564.50	24.076
564.84	23.717
565.17	24.471
565.51	23.590
565.85	23.753
566.19	22.984
566.52	23.991
566.86	23.543
567.20	23.219
567.54	23.951
567.88	22.783
568.21	23.271
568.55	22.494
568.89	23.105
569.23	23.236
569.56	22.939
569.90	22.773
570.24	21.821
570.57	21.937
570.91	21.219
571.25	21.695
571.59	22.099
571.92	21.908
572.26	22.022
572.60	21.758
572.93	22.126
573.27	21.691
573.61	22.075
573.95	21.194
574.28	21.257
574.62	21.419
574.96	21.173
575.29	21.018
575.63	20.952
575.97	21.605
576.30	21.416
576.64	21.689
576.98	21.435
577.31	21.441
577.65	21.172
577.98	21.404
578.32	20.610
578.66	20.788
578.99	20.991
579.33	21.254
579.67	21.238
580.00	21.218
580.34	20.986
580.67	21.425
581.01	21.398
581.35	21.157
581.68	21.154
582.02	20.765
582.35	20.618
582.69	21.057
583.02	21.061
583.36	21.113
583.70	21.132
584.03	21.118
584.37	21.427
584.70	21.271
585.04	21.042
585.37	21.321
585.71	21.489
586.04	20.872
586.38	21.147
586.72	21.208
587.05	21.003
587.39	21.491
587.72	21.340
588.06	21.639
588.39	21.608
588.73	21.190
589.06	21.388
589.40	21.358
589.73	21.562
590.07	22.016
590.40	22.380
590.73	21.704
591.07	22.003
591.40	22.006
591.74	22.218
592.07	22.574
592.41	21.845
592.74	22.329
593.08	22.102
593.41	22.397
593.75	21.466
594.08	21.751
594.41	21.859
594.75	21.388
595.08	21.198
595.42	21.948
595.75	21.472
596.09	22.128
596.42	22.429
596.75	22.848
597.09	23.071
597.42	22.050
597.75	21.991
598.09	22.381
598.42	22.598
598.76	22.277
599.09	21.894
599.42	21.287
599.76	21.492
600.09	21.855
600.42	21.855
600.76	21.466
601.09	21.241
601.42	20.872
601.76	21.517
602.09	21.444
602.42	21.338
602.76	22.325
603.09	22.320
603.42	22.399
603.76	21.705
604.09	22.782
604.42	22.275
604.76	21.537
605.09	22.298
605.42	21.970
605.75	21.385
606.09	21.911
606.42	21.780
606.75	21.589
607.09	21.198
607.42	22.081
607.75	21.962
608.08	22.178
608.42	22.007
608.75	22.305
609.08	22.156
609.41	22.497
609.75	22.545
610.08	22.383
610.41	21.665
610.74	21.765
611.07	22.780
611.41	23.139
611.74	22.864
612.07	22.627
612.40	22.671
612.73	22.983
613.07	23.130
613.40	23.147
613.73	22.870
614.06	23.651
614.39	22.935
614.72	22.222
615.06	22.089
615.39	23.055
615.72	23.460
616.05	22.244
616.38	22.704
616.71	23.563
617.05	22.204
617.38	22.739
617.71	23.596
618.04	23.152
618.37	23.169
618.70	23.586
619.03	23.536
619.36	22.256
619.69	23.126
620.03	22.473
620.36	23.129
620.69	22.332
621.02	23.425
621.35	24.383
621.68	24.440
622.01	24.698
622.34	23.780
622.67	23.024
623.00	22.942
623.33	24.552
623.66	23.671
623.99	23.371
624.32	24.886
624.65	23.423
624.99	23.992
625.32	24.820
625.65	24.545
625.98	23.525
626.31	24.522
626.64	25.421
626.97	24.831
627.30	23.083
627.63	24.456
627.96	25.676
628.29	25.136
628.62	23.174
628.95	25.504
629.28	25.064
629.61	26.347
629.94	23.766
630.26	25.169
630.59	25.734
630.92	24.762
631.25	24.687
631.58	26.648
631.91	26.054
632.24	27.474
632.57	26.281
632.90	24.774
633.23	25.612
633.56	27.143
633.89	24.793
634.22	26.611
634.55	27.662
634.88	25.974
635.20	26.265
635.53	27.684
635.86	26.652
636.19	26.935
636.52	27.110
636.85	24.719
637.18	25.780
637.51	26.344
637.83	27.353
638.16	26.959
638.49	25.117
638.82	25.930
639.15	25.773
639.48	27.483
639.81	26.790
640.13	26.973
640.46	26.909
640.79	26.225
641.12	27.578
641.45	27.980
641.77	28.370
642.10	28.478
642.43	29.255
642.76	28.049
643.09	25.616
643.41	26.751
643.74	27.172
644.07	28.966
644.40	26.591
644.73	26.560
645.05	27.166
645.38	26.763
645.71	27.713
646.04	28.694
646.36	24.672
646.69	27.761
647.02	29.511
647.35	29.466
647.67	28.019
648.00	28.822
648.33	28.679
648.66	27.532
648.98	27.347
649.31	28.146
649.64	30.146
649.96	27.188
650.29	26.565
650.62	24.894
650.94	27.628
651.27	27.844
651.60	25.439
651.92	25.532
652.25	26.339
652.58	28.061
652.90	26.744
653.23	27.465
653.56	27.960
653.88	28.090
654.21	26.479
654.54	28.179
654.86	27.762
655.19	25.345
655.52	22.985
655.84	18.830
656.17	23.471
656.49	32.926
656.82	36.405
657.15	27.754
657.47	20.855
657.80	15.623
658.13	12.382
658.45	16.576
658.78	20.590
659.10	20.258
659.43	21.424
659.75	21.970
660.08	22.185
660.41	24.566
660.73	23.831
661.06	26.579
661.38	29.027
661.71	27.931
662.03	28.219
662.36	29.338
662.68	28.143
663.01	29.558
663.33	30.435
663.66	29.853
663.98	29.615
664.31	27.580
664.63	28.902
664.96	29.764
665.28	27.949
665.61	29.720
665.93	28.393
666.26	30.108
666.58	25.277
666.91	29.159
667.23	29.333
667.56	30.178
667.88	29.200
668.21	27.734
668.53	27.220
668.86	29.077
669.18	29.532
669.50	29.423
669.83	30.400
670.15	27.756
670.48	28.571
670.80	26.386
671.13	29.112
671.45	29.331
671.77	31.262
672.10	24.500
672.42	28.155
672.75	25.346
673.07	27.612
673.39	25.270
673.72	27.685
674.04	28.103
674.37	28.623
674.69	30.159
675.01	25.714
675.34	29.580
675.66	26.404
675.98	27.239
676.31	27.344
676.63	29.468
676.95	29.310
677.28	29.435
677.60	27.165
677.92	28.791
678.25	28.519
678.57	29.537
678.89	29.352
679.22	27.526
679.54	26.838
679.86	23.898
680.18	23.549
680.51	25.943
680.83	26.350
681.15	26.552
681.48	27.979
681.80	25.907
682.12	26.573
682.44	27.546
682.77	27.128
683.09	28.788
683.41	28.101
683.73	28.083
684.06	28.044
684.38	27.191
684.70	28.905
685.02	23.752
685.34	24.293
685.67	24.132
685.99	24.540
686.31	25.727
686.63	24.803
686.96	27.129
687.28	27.036
687.60	23.906
687.92	24.920
688.24	28.047
688.56	25.345
688.89	27.042
689.21	29.550
689.53	25.098
689.85	26.233
690.17	27.407
690.49	29.681
690.82	26.139
691.14	26.518
691.46	26.577
691.78	29.834
692.10	26.789
692.42	24.643
692.74	25.045
693.06	25.556
693.39	29.791
693.71	26.692
694.03	26.580
694.35	27.429
694.67	28.542
694.99	26.809
695.31	27.373
695.63	27.706
695.95	26.915
696.27	27.033
696.59	29.867
696.91	25.225
697.23	29.670
697.56	27.495
697.88	26.894
698.20	25.235
698.52	27.462
698.84	28.482
699.16	27.959
699.48	26.987
699.80	25.532
700.12	28.603
700.44	27.880
700.76	27.791
701.08	32.688
701.40	28.238
701.72	30.597
702.04	29.947
702.36	30.628
702.68	28.117
703.00	24.694
703.32	25.862
703.64	28.606
703.96	30.310
704.28	27.027
704.60	28.354
704.91	29.082
705.23	28.493
705.55	27.855
705.87	29.394
706.19	34.663
706.51	23.795
706.83	28.530
707.15	28.042
707.47	27.570
707.79	23.144
708.11	24.364
708.43	23.441
708.74	26.562
709.06	26.218
709.38	28.169
709.70	26.551
710.02	25.840
710.34	28.989
710.66	25.140
710.98	23.497
711.29	28.022
711.61	29.096
711.93	29.060
712.25	30.811
712.57	34.218
712.89	30.882
713.20	29.882
713.52	25.723
713.84	29.526
714.16	30.263
714.48	27.062
714.80	29.870
715.11	25.459
715.43	27.851
715.75	25.789
716.07	28.453
716.39	28.689
716.70	30.422
717.02	31.148
717.34	30.314
717.66	30.201
717.97	25.685
718.29	26.117
718.61	26.974
718.93	27.184
719.24	27.640
719.56	29.141
719.88	31.532
720.20	30.323
720.51	30.124
720.83	26.875
721.15	28.289
721.46	24.315
721.78	29.333
722.10	33.010
722.42	29.866
722.73	29.032
723.05	29.123
723.37	29.514
723.68	29.032
724.00	27.076
724.32	26.761
724.63	29.720
724.95	28.014
725.27	28.571
725.58	25.795
725.90	31.379
726.22	29.467
726.53	30.195
726.85	29.874
727.16	28.097
727.48	31.804
727.80	27.152
728.11	28.269
728.43	27.273
728.74	23.411
729.06	30.464
729.38	30.519
729.69	27.852
730.01	27.083
730.32	24.848
730.64	25.472
730.96	25.155
731.27	27.374
731.59	26.374
731.90	24.675
732.22	22.656
732.53	25.414
732.85	27.429
733.16	28.739
733.48	25.915
733.80	27.298
734.11	26.211
734.43	24.595
734.74	29.620
735.06	23.869
735.37	24.324
735.69	23.784
736.00	28.814
736.32	26.954
736.63	27.500
736.95	27.011
737.26	25.455
737.58	25.455
737.89	24.412
738.21	26.300
738.52	23.934
738.83	26.621
739.15	26.950
739.46	28.231
739.78	26.687
740.09	22.923
740.41	30.029
740.72	27.333
741.04	29.450
741.35	27.719
741.66	24.706
741.98	31.148
742.29	27.197
742.61	33.772
742.92	29.231
743.23	31.769
743.55	28.682
743.86	32.800
744.18	26.860
744.49	28.692
744.80	31.276
745.12	27.848
745.43	30.488
745.74	26.724
746.06	29.237
746.37	29.958
746.68	32.927
747.00	31.667
747.31	27.897
747.62	35.000
747.94	30.364
748.25	26.908
748.56	26.939
748.88	29.060
749.19	32.759
749.50	29.004
749.82	30.924
750.13	29.537
750.44	25.333
750.75	31.077
751.07	24.000
751.38	34.069
751.69	27.796
752.01	28.479
752.32	28.758
752.63	27.891
752.94	28.374
753.26	24.164
753.57	28.519
753.88	26.217
754.19	26.367
754.51	25.723
754.82	29.904
755.13	32.131
755.44	28.669
755.75	24.671
756.07	30.448
756.38	26.101
756.69	30.723
757.00	24.654
757.31	24.044
757.63	24.552
757.94	25.587
758.25	25.282
758.56	23.094
758.87	26.364
759.18	24.267
759.50	25.779
759.81	27.171
760.12	23.989
760.43	29.948
760.74	24.138
761.05	25.000
761.36	22.892
761.67	23.604
761.99	23.243
762.30	23.171
762.61	26.073
762.92	27.612
763.23	26.217
763.54	24.460
763.85	29.553
764.16	23.569
764.47	30.986
764.78	26.198
765.10	24.340
765.41	27.949
765.72	23.545
766.03	26.836
766.34	22.571
766.65	24.390
766.96	29.482
767.27	30.876
767.58	28.358
767.89	36.058
768.20	31.925
768.51	25.463
768.82	29.317
769.13	26.894
769.44	22.692
769.75	28.881
770.06	27.692
770.37	31.496
770.68	24.681
770.99	19.028
771.30	30.370
771.61	27.376
771.92	26.667
772.23	26.316
772.54	28.241
772.85	26.267
773.16	34.286
773.47	28.042
773.78	25.946
774.09	30.682
774.39	28.000
774.70	32.787
775.01	29.878
775.32	34.118
775.63	31.902
775.94	24.841
776.25	36.129
776.56	31.410
776.87	40.816
777.18	34.483
777.48	34.266
777.79	30.405
778.10	28.676
778.41	36.806
778.72	32.414
779.03	30.247
779.34	36.364
779.65	27.979
779.95	33.333
780.26	31.818
780.57	28.387
780.88	35.507
781.19	38.065
781.50	33.529
781.80	29.570
782.11	31.217
782.42	20.202
782.73	23.952
783.04	30.168
783.34	26.061
783.65	22.876
783.96	26.708
784.27	33.333
784.57	29.801
784.88	30.714
785.19	32.283
785.50	27.559
785.81	31.579
786.11	32.308
786.42	35.971
786.73	33.813
787.04	33.835
787.34	27.049
787.65	23.200
787.96	35.075
788.26	33.566
788.57	37.063
788.88	33.553
789.19	37.908
789.49	24.658
789.80	34.043
790.11	25.984
790.41	30.469
790.72	31.356
791.03	23.301
791.33	40.870
791.64	41.228
791.95	30.357
792.25	29.524
792.56	37.500
792.87	33.333
793.17	37.500
793.48	38.542
793.79	30.120
794.09	39.450
794.40	36.697
794.70	33.333
795.01	22.078
795.32	29.452
795.62	36.620
795.93	34.848
796.23	34.426
796.54	32.143
796.85	31.915
797.15	16.304
797.46	21.918
797.76	36.250
798.07	26.087
798.37	23.711
798.68	33.766
798.99	47.126
799.29	39.326
799.60	32.979
799.90	36.145
800.21	29.231
800.51	25.373
800.82	17.647
801.12	24.658
801.43	23.529
801.73	32.203
802.04	37.879
802.34	41.667
802.65	37.288
802.95	37.313
803.26	54.237
803.56	42.466
803.87	38.571
804.17	42.466
804.48	22.807
804.78	44.444
805.09	39.655
805.39	36.486
805.70	23.944
806.00	37.805
806.30	25.301
806.61	45.205
806.91	23.077
807.22	32.222
807.52	27.586
807.83	50.000
808.13	31.325
808.43	38.202
808.74	30.000
809.04	27.941
809.35	24.000
809.65	30.000
809.95	39.726
810.26	12.281
810.56	32.759
810.86	35.294
811.17	36.842
811.47	26.230
811.77	40.000
812.08	47.458
812.38	51.667
812.69	62.069
812.99	43.396
813.29	33.333
813.59	50.000
813.90	33.333
814.20	40.000
814.50	45.070
814.81	41.026
815.11	44.262
815.41	25.373
815.72	50.000
816.02	62.500
816.32	31.111
816.62	52.273
816.93	55.556
817.23	42.593
817.53	38.298
817.84	33.333
818.14	38.235
818.44	38.776
818.74	44.444
819.04	28.205
819.35	57.143
819.65	23.077
819.95	35.849
820.25	44.444
820.56	35.714
820.86	37.500
821.16	51.282
821.46	34.884
821.76	-4.000
822.07	46.429
822.37	65.217
822.67	34.043
822.97	8.108
823.27	30.000
823.57	46.939
823.88	55.556
824.18	50.000
824.48	46.667
824.78	60.000
825.08	75.758
825.38	57.778
825.69	38.298
825.99	80.556
826.29	17.143
826.59	20.513
826.89	44.186
827.19	50.000
827.49	67.647
827.79	60.417
828.09	48.649
828.39	83.333
828.70	48.780
829.00	41.860
829.30	42.857
829.60	41.176
829.90	45.652
830.20	31.429
830.50	44.828
830.80	38.889
831.10	61.538
831.40	52.941
831.70	52.381
832.00	48.387
832.30	64.706
832.60	70.833
832.90	38.462
833.20	63.158
833.50	115.000
833.80	57.895
834.10	-4.762
834.40	72.222
834.70	90.625
835.00	20.000
835.30	52.941
835.60	36.667
835.90	68.000
836.20	-13.636
836.50	52.000
836.80	9.091
837.10	18.519
837.40	48.148
837.70	68.750
838.00	85.714
838.30	52.174
838.60	72.414
838.90	142.857
839.19	26.087
839.49	41.667
839.79	73.913
840.09	75.000
840.39	65.000
840.69	61.290
840.99	46.429
841.29	-40.000
841.59	68.421
841.88	48.718
842.18	73.077
842.48	80.000
842.78	60.000
843.08	66.667
843.38	61.290
843.68	33.333
843.97	61.765
844.27	31.250
844.57	42.105
844.87	90.000
845.17	53.333
845.47	57.143
845.76	66.667
846.06	133.333
846.36	35.294
846.66	65.385
846.96	73.333
847.25	47.059
847.55	26.087
847.85	85.000
848.15	94.118
848.44	72.727
848.74	95.238
849.04	50.000
849.34	100.000
849.63	91.304
849.93	-350.000
850.23	80.000
850.53	34.615
850.82	27.273
851.12	68.182
851.42	63.636
851.71	138.462
852.01	40.000
852.31	92.308
852.61	31.579
852.90	125.000
853.20	105.556
853.50	-88.889
853.79	23.810
854.09	50.000
854.39	25.000
854.68	19.355
854.98	61.538
855.28	100.000
855.57	57.143
855.87	52.000
856.17	59.091
856.46	70.370
856.76	55.556
857.05	39.130
857.35	37.500
857.65	161.538
857.94	66.667
858.24	77.778
858.53	104.348
858.83	100.000
859.13	94.118
859.42	58.824
859.72	92.857
860.01	60.000
860.31	33.333
860.60	220.000
860.90	80.000
861.20	94.444
861.49	69.231
861.79	110.000
862.08	61.538
862.38	50.000
862.67	100.000
862.97	56.250
863.26	33.333
863.56	80.000
863.85	100.000
864.15	77.778
864.44	566.667
864.74	107.143
865.03	31.250
865.33	50.000
865.62	35.484
865.92	90.909
866.21	78.261
866.51	107.143
866.80	160.000
867.10	25.000
867.39	-16.667
867.69	-500.000
867.98	157.143
868.27	117.647
868.57	0.000
868.86	80.000
869.16	38.095
869.45	58.333
869.75	54.545
870.04	157.143
870.33	108.333
870.63	-85.714
870.92	400.000
871.22	0.000
871.51	27.273
871.80	-33.333
872.10	300.000
>>>>>End Processed Spectral Data<<<<<
