SpectraSuite Data File
++++++++++++++++++++++++++++++++++++
Date: Thu May 14 14:27:22 PDT 2015
User: schluterlab
Dark Spectrum Present: Yes
Reference Spectrum Present: Yes
Number of Sampled Component Spectra: 1
Spectrometers: USB2E3373
Integration Time (usec): 3000 (USB2E3373)
Spectra Averaged: 3 (USB2E3373)
Boxcar Smoothing: 0 (USB2E3373)
Correct for Electrical Dark: No (USB2E3373)
Strobe/Lamp Enabled: No (USB2E3373)
Correct for Detector Non-linearity: No (USB2E3373)
Correct for Stray Light: No (USB2E3373)
Number of Pixels in Processed Spectrum: 2048
>>>>>Begin Processed Spectral Data<<<<<
178.53	0.000
178.91	-185.714
179.29	1000.000
179.67	100.000
180.04	64.286
180.42	-110.000
180.80	-60.000
181.18	600.000
181.56	1800.000
181.94	-275.000
182.31	125.000
182.69	-233.333
183.07	400.000
183.45	-100.000
183.83	366.667
184.20	500.000
184.58	-900.000
184.96	100.000
185.34	122.222
185.72	300.000
186.09	-33.333
186.47	-150.000
186.85	40.000
187.23	77.778
187.61	500.000
187.98	-160.000
188.36	-75.000
188.74	225.000
189.12	100.000
189.49	50.000
189.87	175.000
190.25	211.111
190.63	220.000
191.00	88.889
191.38	0.000
191.76	75.000
192.14	16.667
192.51	-450.000
192.89	416.667
193.27	0.000
193.65	185.714
194.02	300.000
194.40	157.143
194.78	-71.429
195.15	0.000
195.53	81.818
195.91	0.000
196.29	600.000
196.66	100.000
197.04	900.000
197.42	242.857
197.79	600.000
198.17	0.000
198.55	71.429
198.92	144.444
199.30	25.000
199.68	172.727
200.05	114.286
200.43	150.000
200.81	-57.143
201.18	0.000
201.56	88.889
201.94	0.000
202.31	-166.667
202.69	77.778
203.07	-700.000
203.44	77.778
203.82	125.000
204.19	75.000
204.57	100.000
204.95	50.000
205.32	400.000
205.70	-150.000
206.08	150.000
206.45	233.333
206.83	100.000
207.20	83.333
207.58	100.000
207.96	250.000
208.33	350.000
208.71	-66.667
209.08	266.667
209.46	0.000
209.84	-50.000
210.21	-300.000
210.59	-700.000
210.96	33.333
211.34	200.000
211.71	150.000
212.09	300.000
212.46	0.000
212.84	-100.000
213.22	160.000
213.59	100.000
213.97	100.000
214.34	33.333
214.72	-133.333
215.09	50.000
215.47	0.000
215.84	-142.857
216.22	-0.000
216.59	220.000
216.97	60.000
217.34	175.000
217.72	237.500
218.09	325.000
218.47	100.000
218.84	0.000
219.22	-240.000
219.59	135.294
219.97	70.000
220.34	-550.000
220.72	111.111
221.09	215.385
221.47	266.667
221.84	140.000
222.22	171.429
222.59	0.000
222.97	237.500
223.34	-80.000
223.72	900.000
224.09	125.000
224.46	75.000
224.84	120.000
225.21	85.714
225.59	100.000
225.96	150.000
226.34	80.769
226.71	-50.000
227.08	750.000
227.46	66.667
227.83	25.000
228.21	78.947
228.58	-0.000
228.95	-550.000
229.33	116.667
229.70	200.000
230.08	157.895
230.45	-30.000
230.82	466.667
231.20	57.143
231.57	100.000
231.95	63.636
232.32	109.091
232.69	100.000
233.07	300.000
233.44	76.471
233.81	70.000
234.19	83.333
234.56	63.636
234.93	89.655
235.31	52.632
235.68	111.111
236.05	-5.000
236.43	103.846
236.80	84.000
237.17	55.556
237.55	45.455
237.92	70.000
238.29	35.484
238.67	15.909
239.04	72.222
239.41	26.190
239.79	36.957
240.16	31.481
240.53	34.783
240.91	17.647
241.28	37.705
241.65	35.821
242.02	28.378
242.40	18.462
242.77	24.000
243.14	25.610
243.51	17.105
243.89	21.795
244.26	27.723
244.63	20.588
245.00	18.692
245.38	21.930
245.75	7.965
246.12	23.810
246.49	11.628
246.87	22.143
247.24	19.205
247.61	15.132
247.98	11.409
248.36	12.346
248.73	11.043
249.10	9.290
249.47	16.915
249.84	21.466
250.22	11.917
250.59	17.778
250.96	14.091
251.33	8.163
251.70	12.393
252.08	12.917
252.45	14.754
252.82	11.570
253.19	10.547
253.56	15.970
253.94	10.000
254.31	15.152
254.68	13.986
255.05	15.309
255.42	12.245
255.79	11.003
256.16	11.258
256.54	9.603
256.91	11.803
257.28	9.180
257.65	7.643
258.02	7.080
258.39	9.117
258.76	12.538
259.14	12.356
259.51	9.798
259.88	9.065
260.25	9.722
260.62	10.411
260.99	11.475
261.36	13.137
261.73	8.753
262.10	7.692
262.47	9.651
262.85	12.626
263.22	8.571
263.59	10.000
263.96	12.020
264.33	9.207
264.70	11.605
265.07	10.501
265.44	12.245
265.81	9.954
266.18	9.751
266.55	9.375
266.92	5.923
267.29	10.722
267.66	10.643
268.03	9.170
268.40	9.603
268.77	7.517
269.14	8.150
269.51	7.237
269.88	11.680
270.25	9.658
270.62	11.181
270.99	11.515
271.36	10.297
271.73	8.644
272.10	8.417
272.47	9.218
272.84	7.831
273.21	8.818
273.58	8.669
273.95	8.846
274.32	8.175
274.69	8.897
275.06	11.172
275.43	7.394
275.80	8.818
276.17	7.222
276.54	6.903
276.91	8.229
277.28	9.222
277.65	8.797
278.02	8.456
278.39	6.159
278.76	7.206
279.13	7.447
279.50	9.278
279.87	11.091
280.23	6.514
280.60	9.661
280.97	8.553
281.34	9.168
281.71	10.660
282.08	9.302
282.45	8.838
282.82	8.634
283.19	6.947
283.56	8.525
283.92	8.859
284.29	8.847
284.66	8.867
285.03	6.891
285.40	9.274
285.77	7.740
286.14	9.771
286.51	8.371
286.87	8.689
287.24	8.735
287.61	8.670
287.98	8.610
288.35	9.467
288.72	9.615
289.08	10.395
289.45	7.544
289.82	7.982
290.19	8.046
290.56	7.887
290.93	7.561
291.29	8.127
291.66	8.815
292.03	7.870
292.40	11.020
292.77	8.221
293.13	9.066
293.50	6.045
293.87	8.188
294.24	10.267
294.60	9.482
294.97	7.383
295.34	9.219
295.71	8.323
296.08	9.173
296.44	8.333
296.81	9.501
297.18	9.340
297.55	9.080
297.91	8.660
298.28	9.005
298.65	10.464
299.02	8.146
299.38	10.069
299.75	9.930
300.12	7.870
300.48	8.986
300.85	9.674
301.22	9.732
301.59	9.817
301.95	9.718
302.32	11.111
302.69	10.405
303.05	9.902
303.42	10.200
303.79	9.688
304.15	9.884
304.52	10.465
304.89	10.157
305.25	11.387
305.62	12.017
305.99	10.206
306.35	9.778
306.72	12.720
307.09	11.168
307.45	11.594
307.82	10.494
308.19	12.109
308.55	11.572
308.92	11.782
309.29	12.548
309.65	12.671
310.02	12.475
310.38	13.189
310.75	13.495
311.12	14.190
311.48	14.370
311.85	13.865
312.22	13.472
312.58	14.178
312.95	13.862
313.31	14.724
313.68	15.751
314.05	16.079
314.41	17.031
314.78	16.349
315.14	15.517
315.51	17.175
315.87	17.462
316.24	16.712
316.61	18.384
316.97	18.190
317.34	17.813
317.70	19.039
318.07	17.284
318.43	19.303
318.80	20.401
319.16	19.828
319.53	19.794
319.89	19.194
320.26	20.552
320.62	20.301
320.99	21.053
321.35	21.349
321.72	22.419
322.08	21.010
322.45	22.313
322.81	22.834
323.18	21.062
323.54	21.724
323.91	23.043
324.27	22.806
324.64	23.174
325.00	22.886
325.37	23.915
325.73	23.636
326.10	24.006
326.46	24.104
326.83	26.341
327.19	25.433
327.56	25.613
327.92	24.076
328.29	25.968
328.65	25.461
329.01	25.804
329.38	27.464
329.74	26.627
330.11	27.312
330.47	27.296
330.84	27.821
331.20	27.250
331.56	28.163
331.93	27.782
332.29	28.305
332.66	28.239
333.02	27.722
333.38	27.936
333.75	28.451
334.11	28.274
334.48	28.383
334.84	29.737
335.20	28.044
335.57	28.415
335.93	29.917
336.29	29.118
336.66	28.680
337.02	30.100
337.38	30.697
337.75	29.256
338.11	29.857
338.47	29.859
338.84	29.865
339.20	28.981
339.56	29.242
339.93	28.982
340.29	27.778
340.65	30.495
341.02	29.928
341.38	29.911
341.74	29.540
342.11	30.410
342.47	27.879
342.83	29.549
343.20	28.945
343.56	29.992
343.92	29.704
344.28	29.062
344.65	29.302
345.01	28.627
345.37	30.016
345.73	28.683
346.10	29.095
346.46	29.035
346.82	29.963
347.19	30.176
347.55	28.528
347.91	29.718
348.27	29.590
348.63	30.388
349.00	29.157
349.36	28.922
349.72	29.390
350.08	29.569
350.45	30.342
350.81	30.015
351.17	29.774
351.53	30.705
351.89	29.841
352.26	29.104
352.62	29.403
352.98	29.466
353.34	29.052
353.70	30.046
354.07	29.732
354.43	30.524
354.79	29.095
355.15	30.022
355.51	31.725
355.87	30.292
356.24	30.722
356.60	30.155
356.96	29.726
357.32	30.558
357.68	30.088
358.04	30.090
358.40	30.373
358.77	29.825
359.13	29.985
359.49	29.591
359.85	31.037
360.21	31.133
360.57	30.223
360.93	30.465
361.29	29.965
361.66	29.978
362.02	31.663
362.38	30.850
362.74	31.075
363.10	30.468
363.46	31.163
363.82	31.179
364.18	30.823
364.54	30.705
364.90	30.836
365.26	32.483
365.62	31.267
365.98	31.178
366.35	31.208
366.71	32.109
367.07	32.409
367.43	32.436
367.79	30.657
368.15	32.910
368.51	32.003
368.87	31.875
369.23	32.267
369.59	32.104
369.95	34.280
370.31	32.411
370.67	33.012
371.03	31.648
371.39	32.639
371.75	33.219
372.11	32.791
372.47	33.311
372.83	33.639
373.19	33.022
373.55	32.588
373.91	32.584
374.27	32.924
374.63	33.288
374.99	33.223
375.35	33.442
375.71	33.548
376.07	34.280
376.42	33.312
376.78	34.058
377.14	34.373
377.50	34.472
377.86	34.852
378.22	35.269
378.58	34.661
378.94	34.683
379.30	34.915
379.66	35.509
380.02	35.545
380.38	36.406
380.74	35.718
381.09	37.340
381.45	36.193
381.81	38.115
382.17	36.995
382.53	35.614
382.89	36.456
383.25	38.570
383.61	36.574
383.97	36.808
384.32	37.081
384.68	36.311
385.04	37.536
385.40	37.537
385.76	38.511
386.12	37.223
386.48	39.235
386.83	38.379
387.19	37.486
387.55	38.556
387.91	39.041
388.27	39.030
388.62	38.259
388.98	37.169
389.34	39.599
389.70	40.558
390.06	38.011
390.42	38.614
390.77	39.916
391.13	40.023
391.49	39.915
391.85	38.788
392.20	40.629
392.56	40.579
392.92	39.967
393.28	40.464
393.64	40.000
393.99	39.977
394.35	40.888
394.71	40.599
395.07	39.222
395.42	41.119
395.78	40.341
396.14	40.820
396.50	41.033
396.85	39.475
397.21	40.000
397.57	41.343
397.92	40.836
398.28	40.902
398.64	40.732
399.00	40.524
399.35	40.209
399.71	39.783
400.07	40.090
400.42	40.978
400.78	41.956
401.14	41.605
401.49	41.387
401.85	42.093
402.21	42.352
402.57	42.430
402.92	41.430
403.28	41.276
403.63	42.005
403.99	41.983
404.35	40.932
404.70	41.586
405.06	41.250
405.42	41.686
405.77	42.203
406.13	41.491
406.49	41.385
406.84	41.496
407.20	41.420
407.55	41.187
407.91	41.609
408.27	42.167
408.62	41.594
408.98	41.091
409.34	40.938
409.69	41.347
410.05	41.325
410.40	41.357
410.76	42.008
411.11	42.081
411.47	40.909
411.83	41.505
412.18	42.289
412.54	41.494
412.89	41.676
413.25	42.438
413.60	41.011
413.96	42.599
414.31	41.303
414.67	42.099
415.03	41.292
415.38	42.308
415.74	40.318
416.09	42.011
416.45	42.079
416.80	41.493
417.16	42.848
417.51	41.034
417.87	42.551
418.22	42.874
418.58	42.193
418.93	42.841
419.29	42.663
419.64	43.938
420.00	43.442
420.35	42.167
420.71	42.964
421.06	41.518
421.42	43.578
421.77	42.111
422.12	43.552
422.48	43.523
422.83	44.524
423.19	42.812
423.54	43.971
423.90	43.181
424.25	44.213
424.61	44.202
424.96	43.438
425.31	43.471
425.67	44.713
426.02	44.051
426.38	44.374
426.73	42.690
427.09	45.905
427.44	44.184
427.79	44.887
428.15	44.578
428.50	43.933
428.85	44.891
429.21	44.681
429.56	45.015
429.92	44.816
430.27	45.590
430.62	44.846
430.98	44.958
431.33	44.966
431.68	44.780
432.04	44.642
432.39	45.367
432.74	44.578
433.10	45.160
433.45	45.373
433.80	45.869
434.16	45.816
434.51	46.300
434.86	46.580
435.22	47.396
435.57	46.344
435.92	46.578
436.28	46.928
436.63	47.351
436.98	46.269
437.34	47.125
437.69	46.670
438.04	47.012
438.39	47.904
438.75	47.316
439.10	47.357
439.45	45.780
439.81	46.215
440.16	45.684
440.51	46.878
440.86	46.693
441.22	47.213
441.57	48.585
441.92	47.381
442.27	47.273
442.63	47.342
442.98	46.585
443.33	47.080
443.68	48.067
444.03	48.260
444.39	48.035
444.74	47.779
445.09	47.136
445.44	47.734
445.79	48.372
446.15	47.790
446.50	48.062
446.85	48.298
447.20	47.727
447.55	48.379
447.91	47.435
448.26	48.943
448.61	47.768
448.96	48.820
449.31	48.038
449.66	47.930
450.02	47.890
450.37	48.695
450.72	47.040
451.07	48.121
451.42	48.065
451.77	47.804
452.12	48.871
452.47	47.772
452.83	49.324
453.18	47.752
453.53	47.961
453.88	47.819
454.23	48.418
454.58	49.681
454.93	48.786
455.28	48.284
455.63	48.152
455.98	49.888
456.34	49.293
456.69	47.795
457.04	50.118
457.39	48.004
457.74	50.056
458.09	48.710
458.44	48.168
458.79	48.685
459.14	47.457
459.49	48.896
459.84	48.741
460.19	48.140
460.54	49.801
460.89	49.444
461.24	49.080
461.59	49.474
461.94	47.804
462.29	48.992
462.64	48.340
462.99	48.776
463.34	48.410
463.69	47.304
464.04	49.750
464.39	48.038
464.74	48.404
465.09	49.654
465.44	48.015
465.79	49.022
466.14	47.421
466.49	48.211
466.84	49.036
467.19	48.497
467.54	48.237
467.89	48.161
468.24	49.030
468.59	47.250
468.94	48.135
469.29	47.451
469.64	47.362
469.99	49.012
470.34	49.072
470.68	49.556
471.03	49.640
471.38	48.855
471.73	49.805
472.08	49.619
472.43	47.562
472.78	49.496
473.13	48.799
473.48	49.245
473.83	48.346
474.17	48.417
474.52	50.872
474.87	49.114
475.22	50.366
475.57	48.806
475.92	48.233
476.27	48.243
476.61	48.598
476.96	48.279
477.31	49.059
477.66	48.636
478.01	48.094
478.36	48.255
478.70	47.635
479.05	48.313
479.40	48.421
479.75	47.839
480.10	49.360
480.45	48.040
480.79	48.844
481.14	48.575
481.49	48.433
481.84	48.129
482.19	48.817
482.53	48.666
482.88	48.959
483.23	48.688
483.58	48.690
483.92	48.493
484.27	48.222
484.62	47.855
484.97	47.784
485.31	47.659
485.66	47.745
486.01	47.461
486.36	46.686
486.70	46.997
487.05	46.315
487.40	46.343
487.75	46.387
488.09	46.492
488.44	46.640
488.79	47.150
489.13	47.791
489.48	48.194
489.83	47.082
490.17	46.942
490.52	46.716
490.87	47.293
491.22	48.050
491.56	47.654
491.91	48.059
492.26	47.425
492.60	47.923
492.95	46.863
493.30	48.274
493.64	47.613
493.99	46.930
494.34	47.735
494.68	47.923
495.03	47.797
495.37	48.025
495.72	47.211
496.07	48.335
496.41	47.233
496.76	48.040
497.11	48.620
497.45	47.475
497.80	48.423
498.14	47.800
498.49	48.575
498.84	47.852
499.18	47.458
499.53	48.117
499.87	48.571
500.22	47.774
500.56	48.133
500.91	47.460
501.26	47.682
501.60	47.061
501.95	47.590
502.29	47.126
502.64	48.098
502.98	47.110
503.33	46.479
503.67	47.754
504.02	47.548
504.36	48.570
504.71	47.221
505.06	46.749
505.40	47.486
505.75	47.541
506.09	47.606
506.44	49.304
506.78	48.303
507.13	48.271
507.47	47.750
507.82	47.112
508.16	49.044
508.51	46.929
508.85	47.803
509.19	48.745
509.54	49.135
509.88	47.936
510.23	48.422
510.57	48.429
510.92	48.960
511.26	47.379
511.61	47.175
511.95	47.535
512.30	47.858
512.64	47.826
512.98	47.624
513.33	48.538
513.67	47.578
514.02	47.624
514.36	48.900
514.70	47.917
515.05	49.739
515.39	48.556
515.74	49.311
516.08	48.336
516.42	49.398
516.77	49.054
517.11	47.808
517.46	49.099
517.80	48.904
518.14	48.694
518.49	47.505
518.83	48.324
519.17	48.411
519.52	47.642
519.86	48.574
520.20	48.349
520.55	48.138
520.89	49.155
521.23	48.409
521.58	49.209
521.92	48.159
522.26	48.110
522.61	48.495
522.95	48.558
523.29	48.276
523.64	47.926
523.98	48.545
524.32	49.742
524.66	48.150
525.01	48.584
525.35	47.731
525.69	48.550
526.04	48.737
526.38	48.793
526.72	48.039
527.06	48.387
527.41	49.213
527.75	49.941
528.09	48.170
528.43	49.201
528.78	48.671
529.12	47.477
529.46	48.004
529.80	48.570
530.15	48.406
530.49	49.229
530.83	49.055
531.17	47.909
531.51	49.037
531.86	48.618
532.20	49.268
532.54	47.636
532.88	47.758
533.22	48.556
533.57	48.067
533.91	47.250
534.25	49.011
534.59	48.506
534.93	48.217
535.27	47.493
535.62	47.925
535.96	48.751
536.30	48.061
536.64	47.928
536.98	47.355
537.32	48.519
537.66	48.347
538.01	48.157
538.35	48.112
538.69	48.858
539.03	48.437
539.37	47.762
539.71	48.709
540.05	48.201
540.39	47.861
540.73	47.845
541.07	48.804
541.42	46.958
541.76	46.738
542.10	48.010
542.44	47.016
542.78	48.297
543.12	48.093
543.46	47.680
543.80	46.882
544.14	46.679
544.48	48.345
544.82	47.995
545.16	47.585
545.50	48.053
545.84	48.500
546.18	49.198
546.52	47.452
546.86	47.296
547.20	48.155
547.54	47.316
547.88	47.016
548.22	47.719
548.56	47.162
548.90	46.687
549.24	48.328
549.58	46.372
549.92	47.130
550.26	47.832
550.60	47.798
550.94	47.930
551.28	48.251
551.62	48.383
551.96	47.767
552.30	48.375
552.64	47.480
552.98	48.035
553.32	49.003
553.66	47.588
554.00	48.739
554.34	47.876
554.68	47.063
555.02	49.540
555.36	48.718
555.69	47.982
556.03	49.117
556.37	47.935
556.71	47.685
557.05	46.965
557.39	47.578
557.73	48.018
558.07	49.205
558.41	47.708
558.75	48.343
559.08	48.852
559.42	48.285
559.76	46.811
560.10	48.292
560.44	48.417
560.78	47.750
561.12	48.091
561.45	48.662
561.79	48.230
562.13	47.689
562.47	47.041
562.81	48.481
563.15	47.538
563.48	47.732
563.82	47.703
564.16	47.486
564.50	46.782
564.84	46.490
565.17	47.765
565.51	46.893
565.85	46.140
566.19	46.601
566.52	47.572
566.86	47.142
567.20	46.330
567.54	46.575
567.88	47.706
568.21	46.789
568.55	47.530
568.89	46.664
569.23	45.965
569.56	46.424
569.90	46.401
570.24	45.531
570.57	45.670
570.91	45.315
571.25	45.386
571.59	45.227
571.92	45.283
572.26	44.971
572.60	44.363
572.93	44.336
573.27	44.956
573.61	44.733
573.95	43.918
574.28	44.055
574.62	44.770
574.96	43.935
575.29	43.842
575.63	43.867
575.97	44.048
576.30	44.288
576.64	43.904
576.98	44.989
577.31	44.612
577.65	44.181
577.98	44.541
578.32	44.071
578.66	43.536
578.99	43.826
579.33	43.797
579.67	44.130
580.00	44.055
580.34	44.284
580.67	43.888
581.01	44.461
581.35	44.808
581.68	44.969
582.02	44.463
582.35	44.476
582.69	44.338
583.02	44.478
583.36	44.342
583.70	43.922
584.03	43.892
584.37	44.557
584.70	43.814
585.04	44.455
585.37	44.476
585.71	44.423
586.04	44.320
586.38	44.336
586.72	44.447
587.05	44.334
587.39	44.403
587.72	45.144
588.06	44.923
588.39	44.810
588.73	44.048
589.06	44.836
589.40	44.868
589.73	45.662
590.07	44.894
590.40	45.166
590.73	45.387
591.07	46.389
591.40	45.334
591.74	46.145
592.07	46.447
592.41	44.795
592.74	45.793
593.08	45.350
593.41	44.794
593.75	45.201
594.08	45.259
594.41	45.000
594.75	44.802
595.08	45.256
595.42	45.747
595.75	44.753
596.09	46.052
596.42	45.575
596.75	45.234
597.09	46.707
597.42	45.729
597.75	45.002
598.09	45.833
598.42	45.356
598.76	46.122
599.09	45.924
599.42	44.519
599.76	44.503
600.09	45.245
600.42	45.512
600.76	45.310
601.09	44.507
601.42	45.589
601.76	44.931
602.09	44.818
602.42	44.384
602.76	45.277
603.09	45.521
603.42	45.484
603.76	45.842
604.09	45.706
604.42	46.128
604.76	45.015
605.09	45.513
605.42	45.455
605.75	45.654
606.09	44.681
606.42	44.363
606.75	45.090
607.09	44.086
607.42	44.200
607.75	46.737
608.08	45.383
608.42	45.546
608.75	46.061
609.08	45.331
609.41	45.699
609.75	46.473
610.08	45.910
610.41	45.582
610.74	45.630
611.07	46.758
611.41	45.381
611.74	45.450
612.07	45.722
612.40	46.008
612.73	45.770
613.07	44.939
613.40	46.679
613.73	46.943
614.06	46.418
614.39	44.752
614.72	45.997
615.06	46.102
615.39	45.674
615.72	46.682
616.05	46.236
616.38	46.821
616.71	46.552
617.05	45.687
617.38	47.191
617.71	46.652
618.04	47.005
618.37	46.940
618.70	46.663
619.03	46.177
619.36	48.335
619.69	46.188
620.03	46.893
620.36	47.607
620.69	46.576
621.02	47.966
621.35	49.274
621.68	48.445
622.01	46.690
622.34	47.768
622.67	48.385
623.00	46.086
623.33	48.242
623.66	47.406
623.99	46.675
624.32	47.888
624.65	47.169
624.99	48.505
625.32	50.033
625.65	47.808
625.98	47.119
626.31	47.413
626.64	47.985
626.97	47.262
627.30	47.456
627.63	48.237
627.96	48.123
628.29	48.405
628.62	48.447
628.95	48.642
629.28	49.618
629.61	49.242
629.94	47.531
630.26	48.220
630.59	48.100
630.92	48.398
631.25	50.984
631.58	48.776
631.91	49.953
632.24	50.336
632.57	48.767
632.90	49.649
633.23	50.816
633.56	50.816
633.89	49.380
634.22	49.896
634.55	49.165
634.88	49.892
635.20	51.023
635.53	51.525
635.86	49.512
636.19	50.795
636.52	50.422
636.85	49.336
637.18	50.416
637.51	50.108
637.83	50.388
638.16	50.000
638.49	50.352
638.82	49.605
639.15	49.599
639.48	52.887
639.81	48.268
640.13	50.412
640.46	50.909
640.79	49.387
641.12	52.298
641.45	50.063
641.77	52.888
642.10	49.475
642.43	50.931
642.76	50.271
643.09	51.370
643.41	51.401
643.74	51.448
644.07	51.172
644.40	51.909
644.73	51.814
645.05	53.304
645.38	50.504
645.71	51.760
646.04	54.376
646.36	50.073
646.69	51.227
647.02	52.905
647.35	52.061
647.67	53.623
648.00	52.866
648.33	52.252
648.66	51.498
648.98	50.204
649.31	49.526
649.64	50.598
649.96	49.735
650.29	50.348
650.62	51.768
650.94	52.703
651.27	49.551
651.60	48.684
651.92	49.848
652.25	48.915
652.58	50.619
652.90	50.872
653.23	51.831
653.56	50.071
653.88	50.140
654.21	49.859
654.54	53.324
654.86	49.433
655.19	48.306
655.52	45.251
655.84	41.423
656.17	52.074
656.49	72.829
656.82	80.606
657.15	62.018
657.47	46.052
657.80	33.969
658.13	26.368
658.45	34.597
658.78	42.508
659.10	42.412
659.43	42.609
659.75	42.886
660.08	43.810
660.41	46.816
660.73	48.119
661.06	49.339
661.38	50.877
661.71	48.793
662.03	51.146
662.36	48.658
662.68	53.659
663.01	51.681
663.33	53.686
663.66	50.549
663.98	53.269
664.31	55.722
664.63	52.987
664.96	49.909
665.28	49.183
665.61	50.874
665.93	51.607
666.26	52.330
666.58	51.845
666.91	54.019
667.23	49.714
667.56	54.635
667.88	56.200
668.21	50.000
668.53	51.737
668.86	51.081
669.18	51.935
669.50	54.076
669.83	49.600
670.15	51.378
670.48	51.984
670.80	49.713
671.13	51.796
671.45	50.591
671.77	52.919
672.10	51.500
672.42	48.706
672.75	47.312
673.07	50.149
673.39	47.458
673.72	53.188
674.04	50.862
674.37	52.236
674.69	50.970
675.01	49.524
675.34	47.710
675.66	50.187
675.98	51.119
676.31	51.758
676.63	53.042
676.95	54.789
677.28	51.613
677.60	49.606
677.92	51.440
678.25	51.188
678.57	52.847
678.89	50.341
679.22	50.348
679.54	49.573
679.86	48.475
680.18	48.922
680.51	50.629
680.83	49.755
681.15	50.000
681.48	48.877
681.80	51.641
682.12	49.301
682.44	49.416
682.77	48.582
683.09	52.083
683.41	51.938
683.73	48.577
684.06	49.815
684.38	47.764
684.70	50.628
685.02	52.151
685.34	47.754
685.67	50.789
685.99	47.393
686.31	46.657
686.63	47.077
686.96	49.054
687.28	48.697
687.60	46.801
687.92	45.338
688.24	48.748
688.56	47.414
688.89	50.635
689.21	50.294
689.53	50.784
689.85	52.663
690.17	48.519
690.49	50.598
690.82	50.891
691.14	48.381
691.46	51.434
691.78	48.803
692.10	48.807
692.42	47.679
692.74	47.187
693.06	50.926
693.39	51.044
693.71	48.496
694.03	50.558
694.35	46.667
694.67	49.487
694.99	49.574
695.31	49.448
695.63	52.597
695.95	48.861
696.27	49.231
696.59	50.885
696.91	49.775
697.23	48.791
697.56	49.084
697.88	46.970
698.20	48.588
698.52	49.621
698.84	52.807
699.16	48.571
699.48	49.582
699.80	49.787
700.12	50.000
700.44	53.226
700.76	49.644
701.08	49.153
701.40	54.145
701.72	49.502
702.04	54.011
702.36	51.832
702.68	48.655
703.00	50.122
703.32	51.970
703.64	52.812
703.96	49.403
704.28	46.683
704.60	51.392
704.91	51.786
705.23	51.507
705.55	51.253
705.87	53.030
706.19	53.374
706.51	50.602
706.83	51.873
707.15	49.735
707.47	45.561
707.79	49.127
708.11	46.398
708.43	47.742
708.74	47.321
709.06	48.956
709.38	50.939
709.70	48.635
710.02	49.871
710.34	50.000
710.66	50.838
710.98	50.000
711.29	51.099
711.61	49.153
711.93	54.131
712.25	48.108
712.57	51.917
712.89	49.118
713.20	50.888
713.52	48.844
713.84	47.911
714.16	49.737
714.48	48.454
714.80	51.169
715.11	48.556
715.43	51.194
715.75	53.158
716.07	46.409
716.39	52.459
716.70	50.602
717.02	52.459
717.34	50.523
717.66	51.678
717.97	49.315
718.29	52.234
718.61	47.697
718.93	48.867
719.24	49.379
719.56	48.160
719.88	48.048
720.20	49.677
720.51	51.553
720.83	45.313
721.15	47.368
721.46	51.370
721.78	46.667
722.10	43.689
722.42	51.678
722.73	50.968
723.05	47.719
723.37	48.264
723.68	45.878
724.00	54.874
724.32	49.296
724.63	49.301
724.95	51.418
725.27	49.129
725.58	48.410
725.90	52.414
726.22	47.022
726.53	50.000
726.85	51.572
727.16	48.943
727.48	51.070
727.80	47.351
728.11	49.117
728.43	49.832
728.74	47.157
729.06	47.682
729.38	54.221
729.69	53.691
730.01	48.214
730.32	46.364
730.64	51.572
730.96	49.379
731.27	47.765
731.59	46.154
731.90	44.675
732.22	45.312
732.53	46.409
732.85	47.429
733.16	45.748
733.48	43.293
733.80	44.290
734.11	46.154
734.43	49.189
734.74	48.608
735.06	47.487
735.37	48.108
735.69	46.757
736.00	45.763
736.32	45.013
736.63	45.000
736.95	49.138
737.26	48.485
737.58	46.970
737.89	49.412
738.21	46.789
738.52	45.574
738.83	48.805
739.15	49.291
739.46	50.000
739.78	43.252
740.09	43.266
740.41	49.563
740.72	47.333
741.04	44.660
741.35	53.333
741.66	51.373
741.98	55.738
742.29	50.209
742.61	50.877
742.92	49.615
743.23	51.264
743.55	49.612
743.86	53.600
744.18	49.174
744.49	45.148
744.80	50.617
745.12	46.414
745.43	48.780
745.74	46.121
746.06	49.576
746.37	58.650
746.68	52.846
747.00	45.000
747.31	48.927
747.62	50.000
747.94	51.417
748.25	49.398
748.56	48.163
748.88	48.291
749.19	55.172
749.50	52.814
749.82	53.012
750.13	45.907
750.44	43.667
750.75	47.385
751.07	45.846
751.38	48.580
751.69	45.367
752.01	46.602
752.32	50.327
752.63	48.639
752.94	45.675
753.26	48.327
753.57	48.148
753.88	47.940
754.19	44.373
754.51	47.267
754.82	48.875
755.13	47.213
755.44	49.488
755.75	47.039
756.07	47.463
756.38	44.654
756.69	49.398
757.00	42.936
757.31	42.350
757.63	44.246
757.94	42.723
758.25	41.986
758.56	42.484
758.87	44.318
759.18	43.467
759.50	45.609
759.81	45.658
760.12	45.822
760.43	42.708
760.74	44.828
761.05	45.250
761.36	42.651
761.67	43.147
761.99	46.757
762.30	49.085
762.61	43.894
762.92	48.507
763.23	47.191
763.54	46.763
763.85	44.674
764.16	45.455
764.47	48.944
764.78	43.131
765.10	47.801
765.41	41.538
765.72	42.328
766.03	43.785
766.34	44.514
766.65	45.645
766.96	48.606
767.27	51.613
767.58	45.274
767.89	49.038
768.20	45.070
768.51	46.759
768.82	47.791
769.13	44.318
769.44	44.615
769.75	48.736
770.06	44.231
770.37	47.244
770.68	48.085
770.99	38.057
771.30	50.741
771.61	49.810
771.92	40.000
772.23	47.773
772.54	43.056
772.85	49.770
773.16	47.143
773.47	42.328
773.78	44.324
774.09	55.682
774.39	48.500
774.70	58.470
775.01	48.171
775.32	45.294
775.63	46.626
775.94	50.318
776.25	50.968
776.56	53.846
776.87	47.619
777.18	53.103
777.48	54.545
777.79	50.000
778.10	44.118
778.41	37.500
778.72	52.414
779.03	45.679
779.34	46.667
779.65	47.668
779.95	49.444
780.26	49.432
780.57	50.323
780.88	54.348
781.19	52.258
781.50	50.000
781.80	43.548
782.11	43.915
782.42	36.869
782.73	47.305
783.04	48.045
783.34	46.061
783.65	42.484
783.96	50.311
784.27	45.238
784.57	52.318
784.88	50.714
785.19	48.819
785.50	46.457
785.81	51.880
786.11	50.769
786.42	46.763
786.73	47.482
787.04	50.376
787.34	53.279
787.65	53.600
787.96	52.985
788.26	55.944
788.57	55.245
788.88	42.105
789.19	49.020
789.49	49.315
789.80	47.518
790.11	46.457
790.41	37.500
790.72	51.695
791.03	39.806
791.33	46.957
791.64	50.000
791.95	45.536
792.25	48.571
792.56	48.214
792.87	51.042
793.17	45.536
793.48	53.125
793.79	37.349
794.09	38.532
794.40	50.459
794.70	44.218
795.01	43.506
795.32	45.890
795.62	51.408
795.93	49.242
796.23	49.180
796.54	40.179
796.85	50.000
797.15	40.217
797.46	54.795
797.76	50.000
798.07	52.174
798.37	41.237
798.68	58.442
798.99	55.172
799.29	49.438
799.60	45.745
799.90	69.880
800.21	49.231
800.51	58.209
800.82	52.941
801.12	41.096
801.43	60.294
801.73	49.153
802.04	53.030
802.34	55.000
802.65	61.017
802.95	71.642
803.26	55.932
803.56	52.055
803.87	61.429
804.17	57.534
804.48	38.596
804.78	54.167
805.09	58.621
805.39	66.216
805.70	49.296
806.00	59.756
806.30	45.783
806.61	46.575
806.91	50.962
807.22	47.778
807.52	43.678
807.83	62.500
808.13	56.627
808.43	58.427
808.74	50.000
809.04	32.353
809.35	50.667
809.65	57.143
809.95	46.575
810.26	57.895
810.56	48.276
810.86	47.059
811.17	50.877
811.47	39.344
811.77	60.000
812.08	59.322
812.38	55.000
812.69	50.000
812.99	47.170
813.29	46.154
813.59	64.000
813.90	75.439
814.20	70.909
814.50	52.113
814.81	44.872
815.11	49.180
815.41	35.821
815.72	74.138
816.02	60.714
816.32	57.778
816.62	88.636
816.93	42.222
817.23	57.407
817.53	48.936
817.84	78.571
818.14	105.882
818.44	51.020
818.74	44.444
819.04	46.154
819.35	45.714
819.65	73.077
819.95	50.943
820.25	62.222
820.56	78.571
820.86	93.750
821.16	69.231
821.46	53.488
821.76	60.000
822.07	69.643
822.37	60.870
822.67	36.170
822.97	27.027
823.27	72.500
823.57	57.143
823.88	77.778
824.18	52.500
824.48	76.667
824.78	40.000
825.08	57.576
825.38	66.667
825.69	53.191
825.99	86.111
826.29	37.143
826.59	43.590
826.89	41.860
827.19	46.000
827.49	64.706
827.79	64.583
828.09	45.946
828.39	36.667
828.70	58.537
829.00	51.163
829.30	42.857
829.60	85.294
829.90	56.522
830.20	65.714
830.50	31.034
830.80	88.889
831.10	69.231
831.40	58.824
831.70	109.524
832.00	100.000
832.30	17.647
832.60	75.000
832.90	107.692
833.20	42.105
833.50	55.000
833.80	52.632
834.10	0.000
834.40	86.111
834.70	78.125
835.00	25.714
835.30	52.941
835.60	43.333
835.90	44.000
836.20	54.545
836.50	80.000
836.80	60.606
837.10	92.593
837.40	70.370
837.70	75.000
838.00	82.143
838.30	52.174
838.60	86.207
838.90	128.571
839.19	17.391
839.49	33.333
839.79	73.913
840.09	106.250
840.39	55.000
840.69	100.000
840.99	39.286
841.29	80.000
841.59	36.842
841.88	69.231
842.18	38.462
842.48	130.000
842.78	30.000
843.08	70.000
843.38	61.290
843.68	72.222
843.97	35.294
844.27	137.500
844.57	115.789
844.87	110.000
845.17	140.000
845.47	95.238
845.76	76.190
846.06	166.667
846.36	11.765
846.66	84.615
846.96	13.333
847.25	29.412
847.55	69.565
847.85	70.000
848.15	111.765
848.44	72.727
848.74	76.190
849.04	37.500
849.34	106.250
849.63	86.957
849.93	50.000
850.23	73.333
850.53	92.308
850.82	100.000
851.12	95.455
851.42	118.182
851.71	146.154
852.01	65.000
852.31	92.308
852.61	26.316
852.90	133.333
853.20	55.556
853.50	100.000
853.79	9.524
854.09	63.636
854.39	125.000
854.68	77.419
854.98	46.154
855.28	111.111
855.57	92.857
855.87	92.000
856.17	72.727
856.46	70.370
856.76	55.556
857.05	78.261
857.35	45.833
857.65	46.154
857.94	109.524
858.24	77.778
858.53	82.609
858.83	105.882
859.13	135.294
859.42	58.824
859.72	192.857
860.01	40.000
860.31	55.556
860.60	180.000
860.90	120.000
861.20	94.444
861.49	61.538
861.79	63.333
862.08	138.462
862.38	84.375
862.67	100.000
862.97	56.250
863.26	144.444
863.56	130.000
863.85	109.091
864.15	77.778
864.44	366.667
864.74	64.286
865.03	75.000
865.33	60.000
865.62	22.581
865.92	118.182
866.21	104.348
866.51	135.714
866.80	100.000
867.10	58.333
867.39	100.000
867.69	-1100.000
867.98	314.286
868.27	147.059
868.57	600.000
868.86	20.000
869.16	57.143
869.45	62.500
869.75	245.455
870.04	185.714
870.33	91.667
870.63	-28.571
870.92	475.000
871.22	50.000
871.51	45.455
871.80	0.000
872.10	450.000
>>>>>End Processed Spectral Data<<<<<
