SpectraSuite Data File
++++++++++++++++++++++++++++++++++++
Date: Fri May 15 21:11:26 PDT 2015
User: schluterlab
Dark Spectrum Present: Yes
Reference Spectrum Present: Yes
Number of Sampled Component Spectra: 1
Spectrometers: USB2E3373
Integration Time (usec): 3000 (USB2E3373)
Spectra Averaged: 3 (USB2E3373)
Boxcar Smoothing: 0 (USB2E3373)
Correct for Electrical Dark: No (USB2E3373)
Strobe/Lamp Enabled: No (USB2E3373)
Correct for Detector Non-linearity: No (USB2E3373)
Correct for Stray Light: No (USB2E3373)
Number of Pixels in Processed Spectrum: 2048
>>>>>Begin Processed Spectral Data<<<<<
178.53	0.000
178.91	0.000
179.29	0.000
179.67	-400.000
180.04	57.143
180.42	-50.000
180.80	-1200.000
181.18	-200.000
181.56	300.000
181.94	0.000
182.31	700.000
182.69	40.000
183.07	-133.333
183.45	-40.000
183.83	50.000
184.20	81.818
184.58	88.889
184.96	50.000
185.34	300.000
185.72	-600.000
186.09	76.923
186.47	-900.000
186.85	233.333
187.23	100.000
187.61	300.000
187.98	-300.000
188.36	11.111
188.74	-166.667
189.12	-17.647
189.49	27.778
189.87	0.000
190.25	0.000
190.63	50.000
191.00	0.000
191.38	15.789
191.76	200.000
192.14	200.000
192.51	-400.000
192.89	-66.667
193.27	-71.429
193.65	100.000
194.02	281.818
194.40	-60.000
194.78	-150.000
195.15	-66.667
195.53	-200.000
195.91	100.000
196.29	-150.000
196.66	84.615
197.04	85.714
197.42	-66.667
197.79	-266.667
198.17	-115.385
198.55	1700.000
198.92	-533.333
199.30	-500.000
199.68	-140.000
200.05	-300.000
200.43	0.000
200.81	33.333
201.18	-333.333
201.56	1200.000
201.94	-400.000
202.31	66.667
202.69	-60.000
203.07	400.000
203.44	-200.000
203.82	0.000
204.19	-7.143
204.57	-566.667
204.95	75.000
205.32	60.000
205.70	-14.286
206.08	-150.000
206.45	177.778
206.83	92.857
207.20	-214.286
207.58	1300.000
207.96	-333.333
208.33	-20.000
208.71	-25.000
209.08	-133.333
209.46	-1300.000
209.84	-240.000
210.21	-400.000
210.59	28.571
210.96	-183.333
211.34	50.000
211.71	53.333
212.09	-157.143
212.46	-1600.000
212.84	0.000
213.22	0.000
213.59	850.000
213.97	38.462
214.34	-54.545
214.72	33.333
215.09	550.000
215.47	-30.769
215.84	-54.545
216.22	-66.667
216.59	-87.500
216.97	-50.000
217.34	-275.000
217.72	-240.000
218.09	-12.500
218.47	87.500
218.84	-1200.000
219.22	-77.778
219.59	-240.000
219.97	500.000
220.34	150.000
220.72	0.000
221.09	50.000
221.47	0.000
221.84	-450.000
222.22	-550.000
222.59	9.091
222.97	-83.333
223.34	-233.333
223.72	14.286
224.09	52.381
224.46	28.571
224.84	400.000
225.21	-30.000
225.59	6.667
225.96	-700.000
226.34	250.000
226.71	28.571
227.08	-133.333
227.46	-87.500
227.83	-400.000
228.21	0.000
228.58	-54.545
228.95	50.000
229.33	130.000
229.70	6.250
230.08	-125.000
230.45	-214.286
230.82	85.714
231.20	-33.333
231.57	-14.286
231.95	0.000
232.32	10.000
232.69	57.143
233.07	-166.667
233.44	0.000
233.81	-100.000
234.19	0.000
234.56	-29.412
234.93	-50.000
235.31	0.000
235.68	-440.000
236.05	-100.000
236.43	-45.000
236.80	-11.765
237.17	21.875
237.55	-35.000
237.92	0.000
238.29	-8.333
238.67	10.000
239.04	-11.765
239.41	-9.756
239.79	-20.000
240.16	19.512
240.53	0.000
240.91	10.870
241.28	11.111
241.65	5.357
242.02	16.438
242.40	13.333
242.77	5.085
243.14	-7.576
243.51	7.500
243.89	12.644
244.26	4.598
244.63	10.714
245.00	16.495
245.38	22.680
245.75	3.371
246.12	6.034
246.49	10.744
246.87	5.769
247.24	14.286
247.61	3.509
247.98	7.317
248.36	8.125
248.73	16.447
249.10	7.143
249.47	11.392
249.84	16.993
250.22	14.706
250.59	10.458
250.96	15.493
251.33	6.977
251.70	13.529
252.08	11.675
252.45	10.396
252.82	13.568
253.19	13.825
253.56	11.215
253.94	16.216
254.31	12.609
254.68	19.298
255.05	11.024
255.42	14.847
255.79	17.761
256.16	13.230
256.54	18.657
256.91	8.745
257.28	15.613
257.65	10.487
258.02	13.121
258.39	16.162
258.76	12.088
259.14	16.611
259.51	13.269
259.88	17.869
260.25	13.072
260.62	16.319
260.99	10.508
261.36	10.959
261.73	13.291
262.10	17.933
262.47	13.190
262.85	15.047
263.22	13.846
263.59	12.773
263.96	15.528
264.33	14.242
264.70	14.286
265.07	14.286
265.44	13.314
265.81	12.712
266.18	13.934
266.55	15.167
266.92	14.508
267.29	13.055
267.66	15.345
268.03	14.921
268.40	13.055
268.77	18.449
269.14	13.429
269.51	14.910
269.88	13.716
270.25	11.480
270.62	15.610
270.99	13.811
271.36	9.780
271.73	19.953
272.10	15.572
272.47	14.894
272.84	13.614
273.21	16.473
273.58	13.494
273.95	16.247
274.32	13.395
274.69	11.312
275.06	14.955
275.43	13.605
275.80	15.011
276.17	11.954
276.54	12.848
276.91	14.912
277.28	14.847
277.65	14.876
278.02	12.128
278.39	11.379
278.76	11.530
279.13	9.544
279.50	14.916
279.87	12.959
280.23	11.183
280.60	15.789
280.97	13.131
281.34	11.346
281.71	14.374
282.08	15.133
282.45	11.350
282.82	12.162
283.19	14.507
283.56	15.029
283.92	11.385
284.29	11.346
284.66	14.729
285.03	13.360
285.40	13.043
285.77	12.127
286.14	12.816
286.51	16.052
286.87	14.260
287.24	12.891
287.61	13.051
287.98	12.456
288.35	12.305
288.72	13.835
289.08	14.062
289.45	13.181
289.82	13.112
290.19	11.945
290.56	11.835
290.93	13.468
291.29	13.251
291.66	16.220
292.03	12.759
292.40	14.839
292.77	11.962
293.13	12.175
293.50	10.319
293.87	10.229
294.24	13.138
294.60	10.432
294.97	11.756
295.34	11.503
295.71	10.432
296.08	10.762
296.44	8.677
296.81	12.361
297.18	10.435
297.55	12.060
297.91	12.329
298.28	12.005
298.65	10.855
299.02	10.782
299.38	8.482
299.75	10.897
300.12	9.293
300.48	10.277
300.85	12.674
301.22	11.558
301.59	11.711
301.95	11.392
302.32	11.933
302.69	10.323
303.05	9.530
303.42	12.204
303.79	11.098
304.15	10.872
304.52	10.226
304.89	9.591
305.25	11.864
305.62	8.285
305.99	10.994
306.35	9.942
306.72	9.224
307.09	12.201
307.45	11.711
307.82	9.606
308.19	11.150
308.55	10.796
308.92	11.765
309.29	10.056
309.65	11.195
310.02	10.891
310.38	11.196
310.75	11.257
311.12	11.087
311.48	11.347
311.85	11.832
312.22	12.447
312.58	12.420
312.95	11.419
313.31	11.180
313.68	12.880
314.05	11.327
314.41	12.680
314.78	13.299
315.14	15.005
315.51	13.043
315.87	13.422
316.24	15.672
316.61	14.764
316.97	14.881
317.34	14.063
317.70	14.914
318.07	15.385
318.43	14.608
318.80	15.436
319.16	17.188
319.53	18.519
319.89	17.028
320.26	17.206
320.62	17.252
320.99	17.641
321.35	17.986
321.72	18.588
322.08	18.328
322.45	18.985
322.81	19.941
323.18	19.333
323.54	20.367
323.91	20.156
324.27	20.898
324.64	21.629
325.00	21.168
325.37	23.967
325.73	21.306
326.10	22.979
326.46	22.870
326.83	24.497
327.19	24.150
327.56	25.891
327.92	25.440
328.29	23.839
328.65	26.792
329.01	25.276
329.38	26.820
329.74	25.212
330.11	27.896
330.47	25.603
330.84	27.788
331.20	29.278
331.56	27.315
331.93	27.580
332.29	28.506
332.66	27.964
333.02	27.695
333.38	28.781
333.75	29.670
334.11	27.663
334.48	27.924
334.84	29.945
335.20	29.003
335.57	28.105
335.93	29.901
336.29	29.650
336.66	28.792
337.02	27.974
337.38	29.815
337.75	30.545
338.11	30.298
338.47	30.931
338.84	31.238
339.20	30.256
339.56	31.927
339.93	31.692
340.29	31.193
340.65	32.885
341.02	32.181
341.38	31.681
341.74	31.449
342.11	31.369
342.47	32.562
342.83	30.969
343.20	31.446
343.56	33.043
343.92	33.038
344.28	33.646
344.65	32.642
345.01	33.189
345.37	32.380
345.73	34.895
346.10	33.563
346.46	33.810
346.82	33.388
347.19	33.832
347.55	34.252
347.91	35.761
348.27	34.681
348.63	35.009
349.00	34.208
349.36	35.495
349.72	35.904
350.08	35.082
350.45	35.674
350.81	35.631
351.17	36.075
351.53	38.041
351.89	35.508
352.26	35.920
352.62	38.226
352.98	35.904
353.34	37.520
353.70	37.298
354.07	36.452
354.43	36.910
354.79	37.572
355.15	38.492
355.51	39.478
355.87	39.482
356.24	37.357
356.60	38.399
356.96	38.254
357.32	39.377
357.68	38.155
358.04	38.207
358.40	39.148
358.77	39.155
359.13	41.473
359.49	39.445
359.85	39.626
360.21	40.271
360.57	39.250
360.93	41.074
361.29	41.012
361.66	40.125
362.02	40.606
362.38	40.746
362.74	40.802
363.10	41.836
363.46	42.179
363.82	42.524
364.18	41.328
364.54	41.103
364.90	41.792
365.26	40.611
365.62	43.650
365.98	42.595
366.35	43.263
366.71	42.646
367.07	43.324
367.43	42.056
367.79	42.686
368.15	42.929
368.51	43.627
368.87	43.647
369.23	42.527
369.59	44.461
369.95	43.035
370.31	43.280
370.67	44.179
371.03	41.598
371.39	42.378
371.75	44.249
372.11	44.294
372.47	45.044
372.83	44.642
373.19	43.723
373.55	44.477
373.91	43.988
374.27	44.862
374.63	44.939
374.99	45.461
375.35	44.847
375.71	45.734
376.07	45.576
376.42	45.170
376.78	46.443
377.14	45.836
377.50	45.286
377.86	45.649
378.22	45.756
378.58	45.897
378.94	45.936
379.30	45.789
379.66	45.893
380.02	45.371
380.38	46.196
380.74	46.559
381.09	47.485
381.45	47.217
381.81	46.514
382.17	46.764
382.53	47.220
382.89	47.772
383.25	48.164
383.61	47.256
383.97	47.683
384.32	47.967
384.68	46.873
385.04	46.936
385.40	46.484
385.76	48.868
386.12	49.418
386.48	49.553
386.83	48.256
387.19	47.375
387.55	48.745
387.91	47.311
388.27	48.168
388.62	48.962
388.98	48.987
389.34	47.908
389.70	50.715
390.06	48.143
390.42	49.741
390.77	49.444
391.13	48.928
391.49	49.677
391.85	49.188
392.20	49.278
392.56	49.841
392.92	49.031
393.28	49.410
393.64	48.949
393.99	50.219
394.35	48.893
394.71	48.467
395.07	48.272
395.42	48.027
395.78	49.055
396.14	49.433
396.50	49.588
396.85	49.517
397.21	50.000
397.57	48.715
397.92	49.970
398.28	49.310
398.64	48.554
399.00	50.056
399.35	48.363
399.71	48.937
400.07	49.879
400.42	48.898
400.78	50.214
401.14	49.002
401.49	49.732
401.85	49.360
402.21	47.952
402.57	49.563
402.92	47.679
403.28	48.684
403.63	47.730
403.99	48.214
404.35	47.970
404.70	47.500
405.06	47.239
405.42	47.296
405.77	48.228
406.13	48.487
406.49	48.668
406.84	49.144
407.20	48.886
407.55	48.487
407.91	48.128
408.27	48.948
408.62	48.062
408.98	48.244
409.34	48.451
409.69	46.253
410.05	46.675
410.40	46.975
410.76	48.492
411.11	48.000
411.47	47.929
411.83	47.018
412.18	47.490
412.54	45.506
412.89	46.552
413.25	46.029
413.60	46.460
413.96	45.521
414.31	46.159
414.67	46.440
415.03	48.202
415.38	45.888
415.74	46.450
416.09	47.159
416.45	45.915
416.80	46.993
417.16	46.754
417.51	46.902
417.87	46.349
418.22	46.826
418.58	46.823
418.93	46.458
419.29	45.711
419.64	46.598
420.00	47.418
420.35	45.134
420.71	45.869
421.06	45.918
421.42	46.815
421.77	46.358
422.12	45.970
422.48	45.858
422.83	45.708
423.19	45.429
423.54	44.797
423.90	44.641
424.25	45.809
424.61	46.144
424.96	45.470
425.31	47.140
425.67	45.423
426.02	45.760
426.38	45.961
426.73	46.671
427.09	46.582
427.44	45.824
427.79	44.785
428.15	45.631
428.50	45.185
428.85	44.410
429.21	46.237
429.56	45.984
429.92	44.684
430.27	44.261
430.62	44.119
430.98	45.011
431.33	44.795
431.68	44.532
432.04	44.159
432.39	43.925
432.74	44.257
433.10	45.690
433.45	44.564
433.80	44.399
434.16	44.100
434.51	43.817
434.86	44.715
435.22	43.242
435.57	43.980
435.92	43.713
436.28	43.172
436.63	43.982
436.98	43.279
437.34	43.981
437.69	44.603
438.04	44.274
438.39	42.944
438.75	44.019
439.10	41.483
439.45	43.457
439.81	42.875
440.16	44.359
440.51	42.866
440.86	44.048
441.22	42.930
441.57	42.991
441.92	42.812
442.27	42.184
442.63	42.238
442.98	42.906
443.33	42.014
443.68	41.698
444.03	42.921
444.39	41.909
444.74	43.478
445.09	42.706
445.44	42.678
445.79	42.909
446.15	41.795
446.50	40.876
446.85	43.305
447.20	41.606
447.55	41.964
447.91	41.399
448.26	41.890
448.61	41.623
448.96	42.857
449.31	41.214
449.66	41.463
450.02	39.989
450.37	39.715
450.72	41.352
451.07	41.013
451.42	39.763
451.77	40.325
452.12	39.773
452.47	40.373
452.83	39.635
453.18	39.026
453.53	40.834
453.88	39.891
454.23	39.213
454.58	39.861
454.93	39.948
455.28	37.905
455.63	39.368
455.98	39.808
456.34	38.761
456.69	38.818
457.04	40.202
457.39	38.153
457.74	38.210
458.09	38.140
458.44	37.624
458.79	38.263
459.14	38.215
459.49	37.791
459.84	37.394
460.19	37.985
460.54	38.570
460.89	37.841
461.24	36.708
461.59	36.758
461.94	36.792
462.29	38.661
462.64	36.811
462.99	36.696
463.34	35.605
463.69	35.907
464.04	36.380
464.39	36.264
464.74	36.135
465.09	35.745
465.44	34.968
465.79	34.524
466.14	36.146
466.49	34.963
466.84	35.277
467.19	34.981
467.54	34.930
467.89	34.934
468.24	34.672
468.59	34.540
468.94	33.333
469.29	35.869
469.64	34.586
469.99	35.879
470.34	33.720
470.68	35.123
471.03	34.466
471.38	33.951
471.73	33.894
472.08	33.175
472.43	33.356
472.78	32.557
473.13	33.741
473.48	33.029
473.83	33.624
474.17	34.780
474.52	33.631
474.87	32.242
475.22	33.069
475.57	31.395
475.92	31.925
476.27	32.014
476.61	32.986
476.96	31.511
477.31	32.883
477.66	31.685
478.01	31.499
478.36	31.318
478.70	31.756
479.05	32.363
479.40	31.426
479.75	30.605
480.10	30.927
480.45	30.400
480.79	31.319
481.14	30.891
481.49	30.099
481.84	31.033
482.19	30.075
482.53	31.079
482.88	30.119
483.23	30.470
483.58	29.340
483.92	28.848
484.27	29.535
484.62	29.269
484.97	29.146
485.31	28.504
485.66	27.539
486.01	28.285
486.36	27.909
486.70	27.928
487.05	27.652
487.40	27.999
487.75	28.085
488.09	27.534
488.44	27.751
488.79	28.353
489.13	28.446
489.48	28.217
489.83	28.386
490.17	28.180
490.52	28.222
490.87	27.534
491.22	28.032
491.56	28.131
491.91	27.916
492.26	28.488
492.60	28.023
492.95	27.595
493.30	27.553
493.64	27.947
493.99	27.246
494.34	27.379
494.68	27.333
495.03	27.348
495.37	26.742
495.72	27.208
496.07	26.537
496.41	26.415
496.76	26.716
497.11	26.176
497.45	26.635
497.80	26.942
498.14	26.627
498.49	27.070
498.84	26.796
499.18	26.104
499.53	26.488
499.87	25.778
500.22	25.865
500.56	26.223
500.91	26.355
501.26	25.260
501.60	25.676
501.95	26.395
502.29	26.150
502.64	25.483
502.98	25.506
503.33	25.216
503.67	25.735
504.02	25.464
504.36	25.829
504.71	24.949
505.06	25.415
505.40	25.178
505.75	25.773
506.09	24.328
506.44	25.257
506.78	25.153
507.13	25.440
507.47	24.386
507.82	24.626
508.16	24.775
508.51	25.393
508.85	24.804
509.19	24.321
509.54	24.450
509.88	24.919
510.23	23.991
510.57	24.906
510.92	24.094
511.26	25.532
511.61	24.037
511.95	24.986
512.30	25.222
512.64	24.652
512.98	23.807
513.33	24.510
513.67	23.366
514.02	24.085
514.36	24.514
514.70	25.524
515.05	25.206
515.39	24.439
515.74	25.150
516.08	24.088
516.42	25.147
516.77	25.453
517.11	24.926
517.46	24.357
517.80	25.268
518.14	24.250
518.49	23.678
518.83	23.572
519.17	22.923
519.52	23.742
519.86	23.169
520.20	24.727
520.55	24.078
520.89	24.090
521.23	23.686
521.58	24.353
521.92	23.718
522.26	23.422
522.61	23.961
522.95	24.238
523.29	23.571
523.64	23.825
523.98	23.979
524.32	23.711
524.66	24.840
525.01	24.545
525.35	23.785
525.69	23.367
526.04	22.288
526.38	24.643
526.72	22.498
527.06	23.606
527.41	23.285
527.75	22.922
528.09	21.794
528.43	24.713
528.78	22.706
529.12	23.097
529.46	22.677
529.80	23.116
530.15	24.224
530.49	23.165
530.83	23.598
531.17	22.095
531.51	22.640
531.86	21.346
532.20	22.338
532.54	23.758
532.88	23.888
533.22	22.984
533.57	23.132
533.91	21.867
534.25	23.112
534.59	22.514
534.93	22.341
535.27	22.398
535.62	22.165
535.96	22.831
536.30	22.823
536.64	21.640
536.98	21.951
537.32	22.262
537.66	21.599
538.01	21.748
538.35	21.637
538.69	22.170
539.03	21.599
539.37	22.005
539.71	21.063
540.05	20.978
540.39	21.399
540.73	21.618
541.07	21.892
541.42	21.774
541.76	22.092
542.10	21.473
542.44	21.960
542.78	19.615
543.12	21.223
543.46	21.349
543.80	21.374
544.14	20.761
544.48	20.386
544.82	21.326
545.16	21.038
545.50	21.629
545.84	21.742
546.18	21.986
546.52	21.269
546.86	21.495
547.20	21.102
547.54	20.495
547.88	20.924
548.22	20.381
548.56	20.053
548.90	21.294
549.24	20.937
549.58	20.451
549.92	20.586
550.26	20.220
550.60	20.595
550.94	20.911
551.28	21.020
551.62	21.077
551.96	21.278
552.30	20.614
552.64	20.240
552.98	21.730
553.32	20.685
553.66	20.174
554.00	19.708
554.34	21.196
554.68	19.985
555.02	20.982
555.36	19.970
555.69	20.220
556.03	19.772
556.37	20.214
556.71	20.144
557.05	20.283
557.39	18.513
557.73	19.865
558.07	21.493
558.41	20.444
558.75	20.421
559.08	20.961
559.42	20.476
559.76	20.576
560.10	20.260
560.44	19.881
560.78	20.210
561.12	20.028
561.45	20.169
561.79	20.168
562.13	19.872
562.47	20.000
562.81	19.957
563.15	20.451
563.48	20.085
563.82	19.835
564.16	20.056
564.50	18.378
564.84	20.549
565.17	19.852
565.51	20.902
565.85	19.822
566.19	19.496
566.52	19.705
566.86	19.409
567.20	19.676
567.54	19.526
567.88	19.625
568.21	19.400
568.55	19.239
568.89	19.610
569.23	18.633
569.56	18.651
569.90	18.961
570.24	18.236
570.57	18.327
570.91	18.543
571.25	17.889
571.59	17.751
571.92	17.215
572.26	17.452
572.60	17.271
572.93	17.603
573.27	17.273
573.61	18.198
573.95	17.832
574.28	17.320
574.62	17.061
574.96	17.153
575.29	17.087
575.63	17.181
575.97	17.159
576.30	17.459
576.64	16.980
576.98	17.864
577.31	17.105
577.65	17.729
577.98	16.610
578.32	17.247
578.66	16.398
578.99	16.706
579.33	16.638
579.67	17.007
580.00	16.835
580.34	17.313
580.67	16.592
581.01	16.907
581.35	16.667
581.68	16.749
582.02	16.682
582.35	16.657
582.69	16.810
583.02	16.834
583.36	17.057
583.70	17.368
584.03	16.959
584.37	17.532
584.70	17.418
585.04	16.477
585.37	17.076
585.71	16.342
586.04	16.616
586.38	16.671
586.72	16.987
587.05	17.187
587.39	16.997
587.72	17.277
588.06	16.634
588.39	16.463
588.73	16.972
589.06	16.797
589.40	16.937
589.73	17.561
590.07	17.409
590.40	17.067
590.73	17.298
591.07	16.709
591.40	17.275
591.74	17.149
592.07	17.532
592.41	17.491
592.74	16.687
593.08	16.277
593.41	17.068
593.75	16.781
594.08	16.752
594.41	16.885
594.75	16.489
595.08	17.253
595.42	17.262
595.75	17.424
596.09	16.771
596.42	16.825
596.75	16.874
597.09	17.084
597.42	16.757
597.75	16.812
598.09	17.021
598.42	16.968
598.76	16.645
599.09	16.266
599.42	16.029
599.76	16.403
600.09	16.252
600.42	16.490
600.76	15.490
601.09	16.145
601.42	16.334
601.76	16.078
602.09	16.378
602.42	16.681
602.76	16.171
603.09	16.860
603.42	17.349
603.76	15.766
604.09	15.958
604.42	17.005
604.76	16.911
605.09	16.545
605.42	16.749
605.75	16.025
606.09	16.008
606.42	16.681
606.75	16.277
607.09	17.099
607.42	16.216
607.75	16.519
608.08	15.813
608.42	15.989
608.75	16.530
609.08	16.243
609.41	16.396
609.75	17.188
610.08	17.074
610.41	15.990
610.74	16.529
611.07	16.693
611.41	16.866
611.74	16.151
612.07	15.792
612.40	17.123
612.73	16.497
613.07	16.198
613.40	16.849
613.73	15.221
614.06	16.583
614.39	16.018
614.72	15.742
615.06	16.425
615.39	16.703
615.72	16.308
616.05	16.369
616.38	15.897
616.71	16.881
617.05	16.306
617.38	16.279
617.71	15.912
618.04	16.127
618.37	17.024
618.70	16.964
619.03	17.500
619.36	16.570
619.69	18.196
620.03	18.481
620.36	17.167
620.69	16.631
621.02	16.590
621.35	17.344
621.68	18.367
622.01	17.167
622.34	16.919
622.67	17.508
623.00	17.152
623.33	16.540
623.66	15.782
623.99	16.641
624.32	17.262
624.65	16.767
624.99	16.629
625.32	16.452
625.65	17.518
625.98	17.164
626.31	16.791
626.64	16.638
626.97	17.888
627.30	16.900
627.63	16.984
627.96	16.801
628.29	17.114
628.62	18.092
628.95	17.234
629.28	15.927
629.61	17.049
629.94	18.475
630.26	17.688
630.59	18.835
630.92	17.744
631.25	18.154
631.58	18.282
631.91	16.118
632.24	16.055
632.57	17.614
632.90	16.133
633.23	18.235
633.56	17.254
633.89	15.290
634.22	17.531
634.55	16.645
634.88	16.986
635.20	18.077
635.53	18.667
635.86	16.645
636.19	17.464
636.52	17.219
636.85	16.005
637.18	17.358
637.51	16.730
637.83	17.214
638.16	18.554
638.49	17.030
638.82	18.026
639.15	18.318
639.48	17.331
639.81	17.155
640.13	14.863
640.46	17.201
640.79	16.200
641.12	16.100
641.45	19.069
641.77	19.407
642.10	17.220
642.43	16.399
642.76	18.317
643.09	17.932
643.41	17.476
643.74	17.463
644.07	18.391
644.40	19.932
644.73	18.739
645.05	17.953
645.38	17.637
645.71	18.617
646.04	17.415
646.36	17.730
646.69	21.043
647.02	20.794
647.35	17.724
647.67	18.464
648.00	18.843
648.33	16.724
648.66	17.797
648.98	13.903
649.31	14.050
649.64	17.268
649.96	13.452
650.29	18.058
650.62	18.120
650.94	18.889
651.27	15.642
651.60	18.378
651.92	16.608
652.25	14.565
652.58	18.167
652.90	16.981
653.23	17.815
653.56	16.582
653.88	18.041
654.21	16.287
654.54	16.808
654.86	16.638
655.19	16.667
655.52	18.344
655.84	14.965
656.17	15.993
656.49	21.709
656.82	22.385
657.15	17.406
657.47	12.801
657.80	9.628
658.13	9.495
658.45	14.442
658.78	14.608
659.10	14.254
659.43	14.828
659.75	14.998
660.08	15.517
660.41	15.832
660.73	16.160
661.06	14.731
661.38	15.851
661.71	13.963
662.03	16.738
662.36	17.143
662.68	17.478
663.01	17.031
663.33	13.689
663.66	15.349
663.98	16.047
664.31	18.550
664.63	14.977
664.96	15.435
665.28	17.219
665.61	16.667
665.93	17.174
666.26	18.872
666.58	15.660
666.91	18.353
667.23	19.104
667.56	20.142
667.88	17.506
668.21	18.377
668.53	16.785
668.86	16.274
669.18	15.094
669.50	13.801
669.83	15.116
670.15	14.685
670.48	15.072
670.80	16.820
671.13	17.450
671.45	14.612
671.77	18.455
672.10	17.228
672.42	16.854
672.75	16.163
673.07	19.320
673.39	18.165
673.72	13.018
674.04	15.417
674.37	18.432
674.69	17.773
675.01	18.000
675.34	17.117
675.66	19.907
675.98	17.295
676.31	14.679
676.63	15.202
676.95	14.091
677.28	18.118
677.60	18.554
677.92	15.367
678.25	15.755
678.57	14.719
678.89	17.857
679.22	17.226
679.54	15.462
679.86	17.694
680.18	16.893
680.51	17.235
680.83	14.513
681.15	14.800
681.48	16.803
681.80	18.388
682.12	15.323
682.44	15.481
682.77	16.115
683.09	14.645
683.41	16.818
683.73	16.820
684.06	17.035
684.38	14.409
684.70	18.301
685.02	15.560
685.34	16.601
685.67	14.634
685.99	19.349
686.31	14.690
686.63	17.069
686.96	15.970
687.28	12.929
687.60	15.779
687.92	17.980
688.24	17.137
688.56	15.066
688.89	16.518
689.21	13.111
689.53	17.169
689.85	15.116
690.17	15.179
690.49	16.785
690.82	15.049
691.14	17.143
691.46	15.421
691.78	14.189
692.10	16.774
692.42	14.069
692.74	16.880
693.06	17.117
693.39	16.063
693.71	12.896
694.03	13.164
694.35	15.888
694.67	16.919
694.99	13.316
695.31	16.971
695.63	16.250
695.95	14.394
696.27	14.249
696.59	16.389
696.91	16.527
697.23	13.882
697.56	17.574
697.88	16.129
698.20	13.895
698.52	14.588
698.84	12.919
699.16	12.500
699.48	17.043
699.80	15.385
700.12	13.747
700.44	15.406
700.76	13.953
701.08	16.970
701.40	12.952
701.72	16.975
702.04	15.842
702.36	16.388
702.68	11.712
703.00	15.152
703.32	15.249
703.64	12.994
703.96	13.913
704.28	15.337
704.60	15.556
704.91	15.142
705.23	14.950
705.55	19.788
705.87	19.856
706.19	13.704
706.51	14.089
706.83	17.363
707.15	11.838
707.47	15.126
707.79	12.760
708.11	16.750
708.43	16.250
708.74	15.245
709.06	15.493
709.38	13.761
709.70	17.160
710.02	14.968
710.34	17.647
710.66	13.462
710.98	11.589
711.29	13.443
711.61	15.932
711.93	14.658
712.25	18.557
712.57	18.681
712.89	12.687
713.20	15.917
713.52	13.589
713.84	11.945
714.16	10.653
714.48	13.548
714.80	15.705
715.11	13.070
715.43	10.658
715.75	14.667
716.07	16.279
716.39	16.443
716.70	12.546
717.02	11.069
717.34	17.004
717.66	7.965
717.97	16.957
718.29	15.481
718.61	10.630
718.93	15.116
719.24	18.251
719.56	14.458
719.88	16.838
720.20	16.288
720.51	14.943
720.83	17.375
721.15	13.025
721.46	16.935
721.78	13.834
722.10	12.268
722.42	9.544
722.73	17.551
723.05	15.102
723.37	20.339
723.68	13.964
724.00	12.821
724.32	12.889
724.63	14.091
724.95	15.721
725.27	11.982
725.58	18.220
725.90	7.937
726.22	14.672
726.53	18.305
726.85	12.734
727.16	17.358
727.48	8.907
727.80	13.360
728.11	9.746
728.43	15.686
728.74	12.097
729.06	13.600
729.38	20.301
729.69	10.757
730.01	16.154
730.32	16.418
730.64	13.428
730.96	14.717
731.27	13.667
731.59	16.949
731.90	11.465
732.22	14.826
732.53	15.282
732.85	14.539
733.16	15.488
733.48	11.151
733.80	15.580
734.11	12.203
734.43	8.935
734.74	14.848
735.06	14.658
735.37	18.127
735.69	18.519
736.00	12.892
736.32	11.745
736.63	14.789
736.95	18.089
737.26	13.523
737.58	13.087
737.89	11.722
738.21	12.406
738.52	9.877
738.83	13.100
739.15	11.790
739.46	17.717
739.78	10.256
740.09	15.033
740.41	15.580
740.72	11.024
741.04	12.551
741.35	7.660
741.66	9.953
741.98	7.653
742.29	14.851
742.61	9.948
742.92	11.374
743.23	11.111
743.55	13.575
743.86	10.526
744.18	11.005
744.49	9.574
744.80	14.130
745.12	16.578
745.43	9.268
745.74	13.021
746.06	9.756
746.37	10.995
746.68	20.379
747.00	15.957
747.31	18.408
747.62	7.767
747.94	15.311
748.25	10.891
748.56	13.661
748.88	14.136
749.19	13.830
749.50	13.793
749.82	8.962
750.13	5.505
750.44	18.421
750.75	11.567
751.07	21.168
751.38	15.326
751.69	11.765
752.01	15.116
752.32	15.538
752.63	16.996
752.94	9.483
753.26	19.665
753.57	13.575
753.88	15.929
754.19	10.833
754.51	11.570
754.82	10.121
755.13	16.667
755.44	12.097
755.75	13.672
756.07	15.175
756.38	15.094
756.69	10.345
757.00	13.333
757.31	11.765
757.63	10.671
757.94	14.444
758.25	9.589
758.56	13.564
758.87	11.615
759.18	12.773
759.50	13.091
759.81	16.054
760.12	14.194
760.43	14.242
760.74	17.901
761.05	12.000
761.36	11.080
761.67	14.848
761.99	14.626
762.30	8.000
762.61	16.996
762.92	12.217
763.23	8.108
763.54	5.607
763.85	13.983
764.16	14.938
764.47	14.919
764.78	11.722
765.10	13.805
765.41	12.303
765.72	11.429
766.03	12.030
766.34	11.679
766.65	14.343
766.96	7.071
767.27	14.894
767.58	10.920
767.89	8.511
768.20	13.636
768.51	10.440
768.82	9.852
769.13	9.217
769.44	11.159
769.75	9.132
770.06	15.948
770.37	11.538
770.68	10.152
770.99	7.692
771.30	16.667
771.61	11.765
771.92	17.241
772.23	11.330
772.54	17.742
772.85	13.580
773.16	19.663
773.47	16.340
773.78	11.111
774.09	12.575
774.39	15.333
774.70	13.376
775.01	18.621
775.32	11.429
775.63	14.050
775.94	9.924
776.25	9.449
776.56	13.333
776.87	6.731
777.18	9.402
777.48	5.172
777.79	7.826
778.10	-4.762
778.41	13.514
778.72	20.635
779.03	15.038
779.34	8.511
779.65	13.014
779.95	6.849
780.26	8.966
780.57	8.130
780.88	17.323
781.19	12.931
781.50	1.550
781.80	13.609
782.11	6.918
782.42	12.308
782.73	10.072
783.04	15.556
783.34	9.722
783.65	8.547
783.96	7.377
784.27	11.034
784.57	11.382
784.88	19.531
785.19	15.000
785.50	17.000
785.81	17.241
786.11	9.483
786.42	7.767
786.73	20.909
787.04	-6.122
787.34	8.036
787.65	12.381
787.96	2.655
788.26	6.364
788.57	11.111
788.88	21.875
789.19	15.079
789.49	11.304
789.80	0.000
790.11	0.000
790.41	10.909
790.72	7.609
791.03	22.727
791.33	26.250
791.64	11.250
791.95	12.791
792.25	20.213
792.56	12.360
792.87	-12.329
793.17	14.493
793.48	12.000
793.79	12.500
794.09	26.250
794.40	-0.943
794.70	8.738
795.01	4.065
795.32	2.564
795.62	18.095
795.93	3.922
796.23	18.868
796.54	0.000
796.85	7.353
797.15	18.310
797.46	6.944
797.76	10.606
798.07	13.953
798.37	0.000
798.68	-13.636
798.99	11.111
799.29	18.571
799.60	-7.246
799.90	16.000
800.21	6.557
800.51	-4.615
800.82	11.864
801.12	13.043
801.43	4.918
801.73	11.111
802.04	4.000
802.34	-8.955
802.65	3.846
802.95	17.857
803.26	19.231
803.56	15.686
803.87	-10.870
804.17	-8.000
804.48	4.762
804.78	7.407
805.09	0.000
805.39	6.667
805.70	-1.852
806.00	-17.544
806.30	15.493
806.61	8.571
806.91	-1.389
807.22	19.737
807.52	12.000
807.83	-7.273
808.13	15.278
808.43	5.882
808.74	-17.910
809.04	-6.780
809.35	-13.462
809.65	10.938
809.95	-32.432
810.26	2.273
810.56	19.178
810.86	-23.810
811.17	-12.000
811.47	2.041
811.77	-13.158
812.08	-13.636
812.38	26.415
812.69	12.500
812.99	-3.030
813.29	0.000
813.59	-28.571
813.90	-6.818
814.20	15.385
814.50	13.462
814.81	18.868
815.11	-2.128
815.41	30.508
815.72	-11.905
816.02	19.608
816.32	4.167
816.62	12.195
816.93	21.622
817.23	-2.857
817.53	14.583
817.84	-4.348
818.14	21.154
818.44	2.632
818.74	15.217
819.04	-15.000
819.35	8.108
819.65	-11.765
819.95	0.000
820.25	-4.762
820.56	20.000
820.86	-31.034
821.16	40.000
821.46	31.915
821.76	-5.000
822.07	13.953
822.37	-27.027
822.67	-12.500
822.97	11.905
823.27	-3.571
823.57	12.000
823.88	-44.444
824.18	-3.571
824.48	5.882
824.78	-3.226
825.08	-26.087
825.38	9.091
825.69	-41.667
825.99	-5.263
826.29	-8.333
826.59	-26.667
826.89	-52.381
827.19	-4.348
827.49	-2.500
827.79	20.000
828.09	3.571
828.39	15.152
828.70	54.054
829.00	-10.714
829.30	-28.571
829.60	-36.667
829.90	6.250
830.20	-7.895
830.50	-37.037
830.80	0.000
831.10	-4.545
831.40	57.576
831.70	12.903
832.00	52.381
832.30	-14.286
832.60	8.333
832.90	-3.448
833.20	-30.000
833.50	45.455
833.80	3.704
834.10	-23.077
834.40	15.625
834.70	-100.000
835.00	0.000
835.30	46.154
835.60	40.000
835.90	-9.677
836.20	-18.182
836.50	7.143
836.80	-30.769
837.10	-14.286
837.40	-500.000
837.70	-9.091
838.00	-27.273
838.30	-13.043
838.60	15.385
838.90	4.545
839.19	-14.286
839.49	6.667
839.79	-30.769
840.09	-108.333
840.39	32.143
840.69	10.714
840.99	23.077
841.29	-57.895
841.59	-90.000
841.88	9.091
842.18	-100.000
842.48	-18.750
842.78	-53.333
843.08	-7.407
843.38	-60.000
843.68	-8.696
843.97	-20.000
844.27	-40.000
844.57	45.000
844.87	-22.222
845.17	4.762
845.47	-26.667
845.76	-33.333
846.06	17.647
846.36	-60.000
846.66	-28.571
846.96	0.000
847.25	-175.000
847.55	-50.000
847.85	-75.000
848.15	-68.182
848.44	-533.333
848.74	5.000
849.04	66.667
849.34	-27.273
849.63	-50.000
849.93	-220.000
850.23	66.667
850.53	-60.000
850.82	-76.923
851.12	-177.778
851.42	-80.000
851.71	-3.846
852.01	35.714
852.31	-50.000
852.61	27.273
852.90	-30.000
853.20	-21.053
853.50	-83.333
853.79	13.043
854.09	16.667
854.39	-47.368
854.68	-20.833
854.98	-6.452
855.28	53.846
855.57	-15.000
855.87	-27.778
856.17	51.852
856.46	42.857
856.76	-66.667
857.05	44.444
857.35	20.000
857.65	-5.556
857.94	0.000
858.24	31.034
858.53	55.556
858.83	22.222
859.13	18.182
859.42	0.000
859.72	-250.000
860.01	-100.000
860.31	-8.000
860.60	-4.762
860.90	-133.333
861.20	-73.333
861.49	-650.000
861.79	-46.667
862.08	45.000
862.38	6.667
862.67	-220.000
862.97	-116.667
863.26	0.000
863.56	-5.556
863.85	-600.000
864.15	-16.667
864.44	-80.000
864.74	-50.000
865.03	225.000
865.33	-160.000
865.62	-83.333
865.92	-100.000
866.21	-100.000
866.51	6.250
866.80	-63.636
867.10	-50.000
867.39	33.333
867.69	0.000
867.98	-23.077
868.27	-100.000
868.57	-80.000
868.86	-27.778
869.16	-84.615
869.45	6.667
869.75	-400.000
870.04	0.000
870.33	-42.857
870.63	14.286
870.92	233.333
871.22	-280.000
871.51	-500.000
871.80	11.111
872.10	666.667
>>>>>End Processed Spectral Data<<<<<
