SpectraSuite Data File
++++++++++++++++++++++++++++++++++++
Date: Fri May 15 20:30:07 PDT 2015
User: schluterlab
Dark Spectrum Present: Yes
Reference Spectrum Present: Yes
Number of Sampled Component Spectra: 1
Spectrometers: USB2E3373
Integration Time (usec): 3000 (USB2E3373)
Spectra Averaged: 3 (USB2E3373)
Boxcar Smoothing: 0 (USB2E3373)
Correct for Electrical Dark: No (USB2E3373)
Strobe/Lamp Enabled: No (USB2E3373)
Correct for Detector Non-linearity: No (USB2E3373)
Correct for Stray Light: No (USB2E3373)
Number of Pixels in Processed Spectrum: 2048
>>>>>Begin Processed Spectral Data<<<<<
178.53	0.000
178.91	0.000
179.29	62.500
179.67	-350.000
180.04	-14.286
180.42	125.000
180.80	-800.000
181.18	-100.000
181.56	350.000
181.94	-350.000
182.31	800.000
182.69	-60.000
183.07	-300.000
183.45	-120.000
183.83	183.333
184.20	45.455
184.58	100.000
184.96	-225.000
185.34	-133.333
185.72	-450.000
186.09	76.923
186.47	-600.000
186.85	183.333
187.23	122.222
187.61	500.000
187.98	-200.000
188.36	11.111
188.74	-100.000
189.12	17.647
189.49	27.778
189.87	0.000
190.25	135.714
190.63	350.000
191.00	-333.333
191.38	15.789
191.76	300.000
192.14	-25.000
192.51	100.000
192.89	-88.889
193.27	-114.286
193.65	133.333
194.02	145.455
194.40	-20.000
194.78	0.000
195.15	-25.000
195.53	-12.500
195.91	350.000
196.29	-200.000
196.66	92.308
197.04	71.429
197.42	-11.111
197.79	-466.667
198.17	-130.769
198.55	700.000
198.92	-400.000
199.30	700.000
199.68	-240.000
200.05	-200.000
200.43	0.000
200.81	-300.000
201.18	33.333
201.56	1600.000
201.94	-150.000
202.31	133.333
202.69	-260.000
203.07	325.000
203.44	400.000
203.82	0.000
204.19	21.429
204.57	-400.000
204.95	187.500
205.32	100.000
205.70	42.857
206.08	-50.000
206.45	177.778
206.83	14.286
207.20	57.143
207.58	-0.000
207.96	0.000
208.33	-120.000
208.71	-225.000
209.08	-166.667
209.46	-200.000
209.84	-140.000
210.21	-1500.000
210.59	0.000
210.96	-166.667
211.34	-75.000
211.71	0.000
212.09	-157.143
212.46	-2300.000
212.84	0.000
213.22	60.000
213.59	350.000
213.97	46.154
214.34	-63.636
214.72	0.000
215.09	300.000
215.47	23.077
215.84	-45.455
216.22	-366.667
216.59	-62.500
216.97	-150.000
217.34	-325.000
217.72	-100.000
218.09	75.000
218.47	75.000
218.84	-700.000
219.22	-33.333
219.59	-220.000
219.97	333.333
220.34	125.000
220.72	42.857
221.09	-250.000
221.47	-100.000
221.84	-900.000
222.22	-1200.000
222.59	-45.455
222.97	50.000
223.34	-300.000
223.72	50.000
224.09	-14.286
224.46	10.714
224.84	366.667
225.21	-30.000
225.59	66.667
225.96	-500.000
226.34	350.000
226.71	-100.000
227.08	66.667
227.46	37.500
227.83	-700.000
228.21	-100.000
228.58	-45.455
228.95	-125.000
229.33	100.000
229.70	-50.000
230.08	-25.000
230.45	-28.571
230.82	-42.857
231.20	-80.000
231.57	21.429
231.95	-85.714
232.32	-10.000
232.69	92.857
233.07	-33.333
233.44	-20.000
233.81	-120.000
234.19	-77.778
234.56	-41.176
234.93	200.000
235.31	75.000
235.68	-180.000
236.05	-115.385
236.43	-50.000
236.80	-41.176
237.17	-3.125
237.55	-20.000
237.92	-14.815
238.29	19.444
238.67	50.000
239.04	-14.706
239.41	-34.146
239.79	-13.333
240.16	24.390
240.53	-7.895
240.91	4.348
241.28	1.587
241.65	12.500
242.02	32.877
242.40	8.333
242.77	13.559
243.14	4.545
243.51	17.500
243.89	31.034
244.26	16.092
244.63	8.333
245.00	13.402
245.38	17.526
245.75	8.989
246.12	10.345
246.49	17.355
246.87	28.846
247.24	5.882
247.61	5.263
247.98	11.382
248.36	15.000
248.73	15.789
249.10	12.987
249.47	13.924
249.84	16.340
250.22	18.235
250.59	13.072
250.96	14.085
251.33	15.116
251.70	12.353
252.08	18.782
252.45	14.356
252.82	16.080
253.19	17.972
253.56	16.355
253.94	18.919
254.31	16.957
254.68	20.614
255.05	15.748
255.42	19.214
255.79	17.761
256.16	18.288
256.54	21.269
256.91	15.970
257.28	13.011
257.65	14.981
258.02	14.894
258.39	17.508
258.76	18.315
259.14	19.269
259.51	19.094
259.88	18.900
260.25	13.725
260.62	19.792
260.99	11.864
261.36	20.890
261.73	20.570
262.10	13.678
262.47	16.871
262.85	14.734
263.22	17.231
263.59	18.692
263.96	16.770
264.33	17.879
264.70	17.857
265.07	13.988
265.44	18.414
265.81	19.209
266.18	17.213
266.55	20.308
266.92	19.689
267.29	16.710
267.66	16.624
268.03	17.016
268.40	19.321
268.77	19.786
269.14	18.945
269.51	16.195
269.88	16.209
270.25	12.755
270.62	14.390
270.99	14.834
271.36	16.381
271.73	16.901
272.10	14.112
272.47	18.440
272.84	17.079
273.21	16.705
273.58	18.554
273.95	19.222
274.32	14.088
274.69	15.837
275.06	17.187
275.43	16.327
275.80	18.764
276.17	15.632
276.54	15.632
276.91	15.351
277.28	15.284
277.65	15.496
278.02	17.660
278.39	16.193
278.76	16.981
279.13	13.900
279.50	17.857
279.87	15.551
280.23	15.269
280.60	16.179
280.97	17.778
281.34	15.769
281.71	17.659
282.08	15.337
282.45	15.264
282.82	16.602
283.19	15.667
283.56	16.956
283.92	14.991
284.29	15.385
284.66	16.473
285.03	15.128
285.40	16.257
285.77	14.587
286.14	16.787
286.51	18.450
286.87	13.163
287.24	16.022
287.61	14.638
287.98	17.193
288.35	15.251
288.72	16.287
289.08	14.931
289.45	15.993
289.82	16.084
290.19	13.140
290.56	15.094
290.93	15.825
291.29	14.638
291.66	15.433
292.03	14.992
292.40	12.903
292.77	13.876
293.13	10.227
293.50	13.354
293.87	14.351
294.24	13.292
294.60	13.562
294.97	13.244
295.34	12.577
295.71	12.072
296.08	13.752
296.44	9.957
296.81	13.472
297.18	14.203
297.55	12.873
297.91	12.603
298.28	13.720
298.65	12.483
299.02	10.782
299.38	10.534
299.75	12.138
300.12	11.649
300.48	11.594
300.85	12.167
301.22	11.299
301.59	11.316
301.95	13.291
302.32	13.748
302.69	11.567
303.05	11.510
303.42	13.200
303.79	12.734
304.15	13.142
304.52	11.177
304.89	9.825
305.25	10.291
305.62	10.852
305.99	11.579
306.35	10.405
306.72	11.361
307.09	10.718
307.45	11.481
307.82	10.301
308.19	11.731
308.55	10.578
308.92	12.636
309.29	10.615
309.65	11.625
310.02	11.331
310.38	11.636
310.75	11.913
311.12	11.087
311.48	11.665
311.85	10.995
312.22	10.549
312.58	11.996
312.95	9.285
313.31	11.905
313.68	11.204
314.05	10.816
314.41	12.371
314.78	11.031
315.14	13.464
315.51	12.629
315.87	12.500
316.24	14.459
316.61	12.992
316.97	12.401
317.34	12.891
317.70	13.384
318.07	13.173
318.43	14.510
318.80	12.879
319.16	14.551
319.53	16.429
319.89	15.650
320.26	15.688
320.62	16.449
320.99	15.553
321.35	16.136
321.72	16.822
322.08	16.918
322.45	18.985
322.81	17.289
323.18	16.781
323.54	17.278
323.91	18.793
324.27	19.531
324.64	19.382
325.00	21.350
325.37	22.406
325.73	19.764
326.10	21.072
326.46	22.601
326.83	23.010
327.19	22.581
327.56	23.197
327.92	24.736
328.29	23.036
328.65	24.245
329.01	24.357
329.38	23.963
329.74	25.212
330.11	24.096
330.47	24.768
330.84	24.712
331.20	28.327
331.56	26.389
331.93	27.397
332.29	27.589
332.66	26.335
333.02	26.394
333.38	26.031
333.75	26.923
334.11	26.500
334.48	27.833
334.84	27.930
335.20	28.271
335.57	27.017
335.93	27.733
336.29	28.177
336.66	27.339
337.02	27.323
337.38	28.241
337.75	27.545
338.11	29.396
338.47	29.927
338.84	29.020
339.20	28.519
339.56	28.440
339.93	28.917
340.29	29.358
340.65	29.570
341.02	29.610
341.38	29.823
341.74	28.092
342.11	28.076
342.47	28.203
342.83	29.239
343.20	28.920
343.56	29.478
343.92	30.027
344.28	29.377
344.65	30.052
345.01	29.473
345.37	29.857
345.73	29.874
346.10	29.163
346.46	29.352
346.82	30.360
347.19	28.595
347.55	29.908
347.91	30.906
348.27	29.426
348.63	30.068
349.00	28.794
349.36	29.759
349.72	30.348
350.08	30.410
350.45	30.247
350.81	29.236
351.17	29.479
351.53	29.796
351.89	28.984
352.26	29.440
352.62	29.355
352.98	29.880
353.34	30.113
353.70	30.987
354.07	29.516
354.43	31.225
354.79	30.801
355.15	30.873
355.51	31.408
355.87	30.987
356.24	30.098
356.60	29.426
356.96	30.873
357.32	30.591
357.68	30.180
358.04	30.695
358.40	30.145
358.77	31.340
359.13	30.905
359.49	30.740
359.85	30.655
360.21	31.579
360.57	30.910
360.93	31.316
361.29	30.816
361.66	31.897
362.02	32.424
362.38	31.607
362.74	31.188
363.10	32.430
363.46	31.208
363.82	32.682
364.18	31.587
364.54	30.515
364.90	30.394
365.26	30.495
365.62	33.577
365.98	31.818
366.35	32.848
366.71	33.333
367.07	32.293
367.43	32.782
367.79	32.509
368.15	33.453
368.51	33.066
368.87	32.448
369.23	32.058
369.59	32.507
369.95	31.525
370.31	32.587
370.67	33.657
371.03	32.263
371.39	32.312
371.75	32.821
372.11	32.596
372.47	34.024
372.83	34.067
373.19	32.810
373.55	33.502
373.91	34.413
374.27	34.940
374.63	34.027
374.99	33.972
375.35	34.680
375.71	34.825
376.07	33.989
376.42	33.741
376.78	34.430
377.14	34.936
377.50	33.599
377.86	34.940
378.22	34.205
378.58	34.551
378.94	34.342
379.30	34.124
379.66	35.235
380.02	35.193
380.38	34.875
380.74	34.051
381.09	36.074
381.45	35.291
381.81	35.780
382.17	34.772
382.53	35.103
382.89	36.221
383.25	35.594
383.61	35.915
383.97	34.984
384.32	34.834
384.68	36.037
385.04	35.784
385.40	35.532
385.76	37.233
386.12	36.481
386.48	37.037
386.83	36.145
387.19	36.752
387.55	37.327
387.91	36.614
388.27	36.630
388.62	38.200
388.98	36.341
389.34	37.664
389.70	37.974
390.06	36.879
390.42	36.593
390.77	37.279
391.13	36.381
391.49	36.934
391.85	36.387
392.20	36.409
392.56	36.936
392.92	37.698
393.28	37.146
393.64	37.658
393.99	37.868
394.35	37.698
394.71	37.229
395.07	37.649
395.42	36.916
395.78	37.655
396.14	36.948
396.50	37.730
396.85	37.476
397.21	37.155
397.57	36.364
397.92	37.208
398.28	37.989
398.64	36.145
399.00	37.528
399.35	36.907
399.71	36.646
400.07	36.941
400.42	36.414
400.78	37.783
401.14	36.782
401.49	37.046
401.85	36.502
402.21	37.289
402.57	36.750
402.92	37.265
403.28	37.406
403.63	36.822
403.99	36.288
404.35	36.790
404.70	36.548
405.06	36.251
405.42	36.544
405.77	36.084
406.13	35.390
406.49	37.123
406.84	36.308
407.20	37.267
407.55	35.995
407.91	35.428
408.27	37.094
408.62	35.754
408.98	36.414
409.34	36.121
409.69	35.401
410.05	37.438
410.40	36.790
410.76	36.128
411.11	36.375
411.47	36.160
411.83	35.279
412.18	35.779
412.54	35.268
412.89	35.345
413.25	37.124
413.60	35.342
413.96	35.521
414.31	34.878
414.67	34.509
415.03	35.087
415.38	34.661
415.74	35.505
416.09	35.271
416.45	35.922
416.80	35.492
417.16	35.912
417.51	34.910
417.87	35.398
418.22	36.528
418.58	35.987
418.93	35.298
419.29	33.227
419.64	36.034
420.00	36.713
420.35	34.448
420.71	36.087
421.06	35.605
421.42	35.637
421.77	35.087
422.12	34.790
422.48	34.597
422.83	34.745
423.19	35.271
423.54	35.567
423.90	33.569
424.25	35.362
424.61	35.373
424.96	34.030
425.31	36.511
425.67	35.446
426.02	36.101
426.38	35.817
426.73	35.472
427.09	35.759
427.44	35.706
427.79	35.769
428.15	35.740
428.50	35.251
428.85	34.275
429.21	35.371
429.56	35.040
429.92	34.515
430.27	34.637
430.62	34.449
430.98	34.713
431.33	35.331
431.68	34.694
432.04	34.936
432.39	34.683
432.74	33.734
433.10	35.057
433.45	34.349
433.80	35.229
434.16	34.294
434.51	34.785
434.86	35.134
435.22	34.717
435.57	35.745
435.92	35.569
436.28	33.333
436.63	34.398
436.98	33.314
437.34	33.757
437.69	35.063
438.04	33.105
438.39	34.026
438.75	33.030
439.10	34.465
439.45	34.267
439.81	34.924
440.16	34.798
440.51	34.746
440.86	35.650
441.22	33.201
441.57	33.775
441.92	35.100
442.27	34.479
442.63	34.636
442.98	34.176
443.33	33.055
443.68	34.430
444.03	34.476
444.39	33.842
444.74	34.281
445.09	33.073
445.44	34.017
445.79	34.812
446.15	33.315
446.50	32.390
446.85	33.634
447.20	33.316
447.55	32.812
447.91	33.446
448.26	33.978
448.61	32.873
448.96	32.817
449.31	33.526
449.66	32.753
450.02	32.116
450.37	33.254
450.72	33.505
451.07	33.734
451.42	32.834
451.77	31.826
452.12	32.596
452.47	32.518
452.83	32.391
453.18	33.144
453.53	31.732
453.88	32.787
454.23	31.961
454.58	33.123
454.93	32.796
455.28	30.667
455.63	32.610
455.98	32.712
456.34	32.184
456.69	32.910
457.04	31.443
457.39	32.017
457.74	31.318
458.09	30.135
458.44	30.954
458.79	31.485
459.14	32.838
459.49	31.821
459.84	31.641
460.19	31.007
460.54	32.457
460.89	31.705
461.24	31.304
461.59	32.007
461.94	30.692
462.29	31.604
462.64	31.960
462.99	32.024
463.34	30.876
463.69	30.502
464.04	31.114
464.39	31.534
464.74	31.656
465.09	30.193
465.44	31.795
465.79	29.649
466.14	31.072
466.49	29.845
466.84	30.577
467.19	30.601
467.54	30.524
467.89	30.575
468.24	30.535
468.59	30.794
468.94	29.714
469.29	30.295
469.64	29.118
469.99	29.993
470.34	28.942
470.68	31.469
471.03	30.007
471.38	30.742
471.73	29.272
472.08	29.647
472.43	29.329
472.78	28.992
473.13	29.048
473.48	29.186
473.83	28.892
474.17	30.117
474.52	29.228
474.87	28.242
475.22	28.615
475.57	29.531
475.92	28.908
476.27	29.860
476.61	28.993
476.96	28.946
477.31	28.880
477.66	27.978
478.01	28.523
478.36	28.377
478.70	29.636
479.05	28.736
479.40	29.253
479.75	27.998
480.10	28.520
480.45	27.550
480.79	27.845
481.14	28.996
481.49	27.094
481.84	27.992
482.19	28.110
482.53	28.585
482.88	27.780
483.23	27.687
483.58	28.302
483.92	27.832
484.27	27.302
484.62	26.804
484.97	26.866
485.31	26.770
485.66	25.927
486.01	26.223
486.36	26.089
486.70	26.414
487.05	26.513
487.40	26.939
487.75	26.056
488.09	25.927
488.44	26.547
488.79	25.215
489.13	26.042
489.48	26.208
489.83	26.188
490.17	26.157
490.52	26.282
490.87	26.469
491.22	26.695
491.56	26.328
491.91	25.860
492.26	26.446
492.60	26.104
492.95	26.463
493.30	25.550
493.64	26.523
493.99	25.314
494.34	25.534
494.68	25.714
495.03	25.499
495.37	26.595
495.72	26.047
496.07	26.049
496.41	25.330
496.76	25.518
497.11	24.779
497.45	25.967
497.80	26.690
498.14	25.236
498.49	24.937
498.84	25.399
499.18	25.301
499.53	25.942
499.87	25.000
500.22	24.530
500.56	24.811
500.91	24.398
501.26	24.666
501.60	25.578
501.95	25.182
502.29	24.988
502.64	25.145
502.98	24.864
503.33	23.823
503.67	24.627
504.02	25.269
504.36	25.037
504.71	23.586
505.06	25.063
505.40	24.619
505.75	24.381
506.09	24.126
506.44	24.795
506.78	25.459
507.13	24.147
507.47	23.655
507.82	23.718
508.16	23.930
508.51	25.289
508.85	24.542
509.19	23.576
509.54	24.075
509.88	23.948
510.23	23.830
510.57	24.532
510.92	22.814
511.26	23.513
511.61	24.697
511.95	23.397
512.30	24.279
512.64	23.484
512.98	22.740
513.33	23.783
513.67	22.911
514.02	23.684
514.36	24.171
514.70	24.242
515.05	24.324
515.39	23.672
515.74	24.611
516.08	23.431
516.42	24.676
516.77	24.400
517.11	24.510
517.46	24.057
517.80	23.778
518.14	23.025
518.49	23.317
518.83	23.876
519.17	23.044
519.52	22.499
519.86	22.689
520.20	24.180
520.55	22.577
520.89	23.338
521.23	22.609
521.58	23.091
521.92	23.013
522.26	22.967
522.61	22.662
522.95	23.179
523.29	23.380
523.64	23.062
523.98	23.202
524.32	21.456
524.66	23.367
525.01	23.377
525.35	22.748
525.69	22.492
526.04	23.082
526.38	23.671
526.72	22.106
527.06	22.438
527.41	23.879
527.75	21.381
528.09	22.326
528.43	23.093
528.78	22.046
529.12	21.871
529.46	21.572
529.80	22.039
530.15	23.234
530.49	21.684
530.83	22.161
531.17	21.021
531.51	21.956
531.86	22.162
532.20	21.503
532.54	22.396
532.88	21.971
533.22	22.513
533.57	22.149
533.91	21.540
534.25	22.396
534.59	20.462
534.93	20.705
535.27	19.734
535.62	21.905
535.96	20.939
536.30	21.966
536.64	21.227
536.98	20.557
537.32	21.550
537.66	22.090
538.01	21.888
538.35	20.943
538.69	20.040
539.03	20.711
539.37	21.063
539.71	21.336
540.05	20.706
540.39	20.983
540.73	21.269
541.07	20.856
541.42	22.043
541.76	21.060
542.10	20.578
542.44	21.265
542.78	18.100
543.12	19.780
543.46	21.975
543.80	21.582
544.14	20.494
544.48	20.320
544.82	19.959
545.16	21.038
545.50	20.427
545.84	20.467
546.18	20.851
546.52	20.836
546.86	19.770
547.20	20.529
547.54	19.717
547.88	21.060
548.22	19.001
548.56	19.591
548.90	20.350
549.24	20.523
549.58	20.169
549.92	18.656
550.26	19.634
550.60	21.561
550.94	20.612
551.28	19.861
551.62	21.154
551.96	20.226
552.30	20.322
552.64	19.958
552.98	19.761
553.32	20.257
553.66	19.013
554.00	20.000
554.34	20.236
554.68	19.543
555.02	19.792
555.36	19.447
555.69	18.974
556.03	19.629
556.37	18.149
556.71	20.000
557.05	20.283
557.39	18.959
557.73	19.415
558.07	19.155
558.41	19.985
558.75	19.486
559.08	19.149
559.42	19.206
559.76	19.135
560.10	18.654
560.44	18.987
560.78	18.531
561.12	19.535
561.45	18.904
561.79	19.748
562.13	19.304
562.47	18.705
562.81	18.948
563.15	18.970
563.48	18.246
563.82	18.737
564.16	19.150
564.50	19.257
564.84	18.876
565.17	18.243
565.51	20.287
565.85	18.999
566.19	18.103
566.52	19.102
566.86	18.445
567.20	18.493
567.54	18.005
567.88	18.981
568.21	18.948
568.55	18.370
568.89	18.891
569.23	17.959
569.56	17.601
569.90	18.230
570.24	17.827
570.57	17.818
570.91	18.020
571.25	17.724
571.59	17.378
571.92	16.978
572.26	17.059
572.60	17.457
572.93	17.289
573.27	17.492
573.61	17.303
573.95	17.914
574.28	16.896
574.62	17.340
574.96	17.003
575.29	17.012
575.63	16.429
575.97	16.427
576.30	16.587
576.64	16.689
576.98	17.040
577.31	16.982
577.65	17.271
577.98	17.244
578.32	16.913
578.66	16.462
578.99	16.612
579.33	16.463
579.67	16.225
580.00	16.506
580.34	16.891
580.67	16.197
581.01	16.595
581.35	16.731
581.68	16.808
582.02	16.498
582.35	16.676
582.69	16.420
583.02	16.385
583.36	16.584
583.70	16.693
584.03	16.347
584.37	17.194
584.70	16.648
585.04	16.373
585.37	16.069
585.71	16.317
586.04	16.818
586.38	16.618
586.72	16.327
587.05	16.378
587.39	16.215
587.72	16.293
588.06	16.081
588.39	16.320
588.73	16.453
589.06	16.601
589.40	16.142
589.73	16.904
590.07	16.579
590.40	16.873
590.73	16.763
591.07	16.073
591.40	15.761
591.74	16.425
592.07	16.837
592.41	15.813
592.74	16.527
593.08	15.543
593.41	15.914
593.75	16.225
594.08	16.238
594.41	16.339
594.75	15.954
595.08	15.702
595.42	16.378
595.75	16.560
596.09	15.833
596.42	15.709
596.75	15.808
597.09	15.626
597.42	16.215
597.75	15.712
598.09	16.116
598.42	15.614
598.76	15.487
599.09	16.266
599.42	15.195
599.76	15.726
600.09	15.724
600.42	15.732
600.76	15.825
601.09	15.191
601.42	15.198
601.76	15.284
602.09	15.594
602.42	16.554
602.76	15.407
603.09	15.739
603.42	15.928
603.76	15.282
604.09	15.026
604.42	15.736
604.76	16.244
605.09	15.814
605.42	15.576
605.75	15.193
606.09	15.244
606.42	14.971
606.75	15.628
607.09	15.429
607.42	15.109
607.75	15.364
608.08	15.004
608.42	15.761
608.75	15.952
609.08	15.197
609.41	15.381
609.75	15.726
610.08	16.126
610.41	14.831
610.74	15.553
611.07	15.556
611.41	15.620
611.74	15.832
612.07	14.989
612.40	15.700
612.73	15.763
613.07	15.073
613.40	15.755
613.73	15.277
614.06	15.359
614.39	15.285
614.72	15.798
615.06	14.860
615.39	14.629
615.72	15.770
616.05	15.084
616.38	14.245
616.71	15.352
617.05	15.256
617.38	16.091
617.71	14.969
618.04	16.063
618.37	15.574
618.70	15.644
619.03	15.833
619.36	14.834
619.69	16.452
620.03	15.267
620.36	15.808
620.69	15.703
621.02	15.749
621.35	16.266
621.68	14.966
622.01	15.583
622.34	15.563
622.67	15.142
623.00	15.620
623.33	16.006
623.66	15.782
623.99	15.582
624.32	16.046
624.65	14.361
624.99	14.898
625.32	14.177
625.65	15.318
625.98	14.263
626.31	14.879
626.64	15.858
626.97	16.143
627.30	15.587
627.63	15.425
627.96	15.903
628.29	15.264
628.62	14.946
628.95	14.830
629.28	14.819
629.61	14.855
629.94	16.031
630.26	15.613
630.59	15.609
630.92	15.282
631.25	14.974
631.58	15.859
631.91	13.377
632.24	14.220
632.57	15.114
632.90	14.353
633.23	16.118
633.56	14.358
633.89	13.317
634.22	15.309
634.55	13.088
634.88	13.410
635.20	14.487
635.53	15.067
635.86	13.394
636.19	16.429
636.52	14.668
636.85	15.012
637.18	13.711
637.51	15.472
637.83	14.060
638.16	17.190
638.49	14.033
638.82	17.895
639.15	14.111
639.48	14.718
639.81	14.365
640.13	15.152
640.46	14.286
640.79	14.875
641.12	13.885
641.45	15.015
641.77	15.556
642.10	16.904
642.43	13.344
642.76	13.861
643.09	14.378
643.41	14.887
643.74	13.180
644.07	16.092
644.40	14.527
644.73	14.361
645.05	15.772
645.38	13.757
645.71	14.716
646.04	17.594
646.36	14.184
646.69	17.266
647.02	13.422
647.35	13.806
647.67	15.905
648.00	15.112
648.33	15.870
648.66	14.237
648.98	12.563
649.31	13.223
649.64	14.286
649.96	14.911
650.29	13.458
650.62	14.530
650.94	14.074
651.27	11.918
651.60	14.414
651.92	15.210
652.25	15.453
652.58	14.167
652.90	15.094
653.23	13.950
653.56	12.521
653.88	15.120
654.21	12.259
654.54	14.431
654.86	16.469
655.19	13.158
655.52	15.480
655.84	15.381
656.17	16.350
656.49	21.487
656.82	21.525
657.15	16.214
657.47	12.188
657.80	8.708
658.13	8.460
658.45	12.950
658.78	12.355
659.10	12.598
659.43	12.224
659.75	12.679
660.08	12.552
660.41	13.892
660.73	12.983
661.06	14.558
661.38	12.524
661.71	11.499
662.03	16.524
662.36	15.165
662.68	12.832
663.01	15.284
663.33	14.153
663.66	13.256
663.98	12.093
664.31	14.499
664.63	14.286
664.96	13.043
665.28	12.141
665.61	15.368
665.93	12.609
666.26	16.703
666.58	13.647
666.91	15.294
667.23	12.736
667.56	14.218
667.88	13.669
668.21	13.604
668.53	14.894
668.86	13.915
669.18	13.915
669.50	13.317
669.83	14.186
670.15	12.354
670.48	11.483
670.80	12.903
671.13	13.423
671.45	11.872
671.77	14.592
672.10	15.446
672.42	15.543
672.75	16.163
673.07	15.206
673.39	14.495
673.72	14.990
674.04	11.458
674.37	13.347
674.69	14.775
675.01	12.889
675.34	17.117
675.66	15.278
675.98	13.747
676.31	12.156
676.63	11.876
676.95	13.182
677.28	15.529
677.60	15.904
677.92	13.532
678.25	14.442
678.57	13.853
678.89	15.126
679.22	14.541
679.54	14.257
679.86	12.922
680.18	10.291
680.51	14.773
680.83	12.525
681.15	14.000
681.48	14.754
681.80	15.909
682.12	15.121
682.44	14.854
682.77	13.907
683.09	14.874
683.41	11.818
683.73	14.055
684.06	12.389
684.38	7.527
684.70	13.508
685.02	10.788
685.34	13.834
685.67	11.069
685.99	13.382
686.31	13.274
686.63	12.430
686.96	12.167
687.28	11.919
687.60	12.738
687.92	14.747
688.24	8.266
688.56	13.974
688.89	14.509
689.21	14.667
689.53	11.369
689.85	13.256
690.17	13.170
690.49	13.002
690.82	13.592
691.14	10.000
691.46	15.888
691.78	13.288
692.10	15.054
692.42	14.069
692.74	15.171
693.06	11.937
693.39	11.765
693.71	12.217
694.03	12.240
694.35	12.150
694.67	12.879
694.99	10.444
695.31	14.883
695.63	13.750
695.95	13.636
696.27	11.399
696.59	17.778
696.91	12.045
697.23	10.797
697.56	12.871
697.88	16.129
698.20	12.756
698.52	13.882
698.84	10.287
699.16	13.250
699.48	14.286
699.80	12.655
700.12	14.016
700.44	12.605
700.76	10.174
701.08	9.091
701.40	13.253
701.72	16.667
702.04	10.561
702.36	12.040
702.68	13.814
703.00	11.515
703.32	10.557
703.64	8.192
703.96	15.942
704.28	8.589
704.60	14.921
704.91	11.356
705.23	13.953
705.55	13.781
705.87	16.606
706.19	11.852
706.51	15.808
706.83	13.183
707.15	10.592
707.47	15.126
707.79	11.979
708.11	16.750
708.43	12.000
708.74	11.628
709.06	15.211
709.38	10.703
709.70	15.089
710.02	13.376
710.34	14.551
710.66	9.936
710.98	12.252
711.29	13.115
711.61	11.525
711.93	14.658
712.25	16.838
712.57	12.454
712.89	10.075
713.20	15.225
713.52	10.105
713.84	11.263
714.16	10.653
714.48	11.935
714.80	13.141
715.11	12.766
715.43	8.777
715.75	10.000
716.07	12.625
716.39	10.738
716.70	8.487
717.02	10.305
717.34	14.170
717.66	13.274
717.97	8.261
718.29	18.410
718.61	16.535
718.93	10.853
719.24	11.407
719.56	9.639
719.88	15.120
720.20	13.258
720.51	6.513
720.83	13.127
721.15	10.924
721.46	9.274
721.78	7.905
722.10	14.126
722.42	7.884
722.73	11.020
723.05	13.061
723.37	16.949
723.68	18.468
724.00	14.957
724.32	11.556
724.63	10.000
724.95	14.847
725.27	10.599
725.58	10.169
725.90	14.286
726.22	11.969
726.53	17.288
726.85	11.985
727.16	16.604
727.48	9.717
727.80	14.575
728.11	11.864
728.43	12.157
728.74	10.887
729.06	12.800
729.38	16.165
729.69	11.155
730.01	11.154
730.32	14.925
730.64	16.254
730.96	12.830
731.27	11.667
731.59	11.186
731.90	16.242
732.22	14.196
732.53	14.286
732.85	12.766
733.16	18.519
733.48	8.633
733.80	11.232
734.11	11.864
734.43	12.371
734.74	17.273
735.06	10.749
735.37	10.876
735.69	15.825
736.00	8.014
736.32	17.114
736.63	14.437
736.95	11.263
737.26	10.320
737.58	12.081
737.89	12.088
738.21	13.158
738.52	8.642
738.83	10.917
739.15	5.240
739.46	14.567
739.78	10.256
740.09	9.150
740.41	10.507
740.72	12.205
741.04	14.170
741.35	11.489
741.66	8.057
741.98	10.714
742.29	10.396
742.61	6.806
742.92	6.635
743.23	6.019
743.55	12.217
743.86	7.177
744.18	11.962
744.49	5.851
744.80	6.522
745.12	12.299
745.43	6.341
745.74	11.979
746.06	10.244
746.37	9.948
746.68	16.114
747.00	11.170
747.31	12.935
747.62	9.709
747.94	10.048
748.25	10.891
748.56	5.464
748.88	12.042
749.19	12.234
749.50	13.300
749.82	8.962
750.13	12.844
750.44	16.917
750.75	10.821
751.07	17.518
751.38	11.494
751.69	8.235
752.01	11.240
752.32	11.155
752.63	11.858
752.94	13.793
753.26	16.318
753.57	9.502
753.88	10.177
754.19	6.250
754.51	11.157
754.82	12.955
755.13	16.250
755.44	12.097
755.75	17.187
756.07	11.284
756.38	11.698
756.69	10.728
757.00	10.333
757.31	15.359
757.63	9.146
757.94	12.500
758.25	14.247
758.56	8.511
758.87	11.331
759.18	13.396
759.50	6.909
759.81	13.712
760.12	13.871
760.43	13.030
760.74	12.346
761.05	8.615
761.36	16.193
761.67	13.030
761.99	14.286
762.30	8.364
762.61	14.229
762.92	9.502
763.23	5.856
763.54	10.748
763.85	15.254
764.16	10.373
764.47	10.887
764.78	13.553
765.10	14.141
765.41	11.041
765.72	13.651
766.03	6.391
766.34	10.949
766.65	14.343
766.96	10.101
767.27	11.702
767.58	4.598
767.89	9.929
768.20	8.523
768.51	8.791
768.82	9.852
769.13	9.677
769.44	14.163
769.75	12.785
770.06	13.793
770.37	9.135
770.68	14.213
770.99	9.050
771.30	12.745
771.61	10.407
771.92	12.069
772.23	14.778
772.54	16.129
772.85	12.963
773.16	12.921
773.47	18.954
773.78	6.536
774.09	13.772
774.39	12.667
774.70	16.561
775.01	13.793
775.32	7.143
775.63	0.000
775.94	7.634
776.25	6.299
776.56	15.000
776.87	14.423
777.18	12.821
777.48	11.207
777.79	13.043
778.10	0.000
778.41	9.009
778.72	10.317
779.03	11.278
779.34	9.220
779.65	15.753
779.95	6.849
780.26	8.966
780.57	5.691
780.88	11.024
781.19	12.069
781.50	3.876
781.80	8.284
782.11	8.176
782.42	12.308
782.73	10.791
783.04	14.074
783.34	12.500
783.65	0.000
783.96	3.279
784.27	14.483
784.57	2.439
784.88	7.031
785.19	16.000
785.50	18.000
785.81	13.793
786.11	14.655
786.42	10.680
786.73	14.545
787.04	5.102
787.34	0.000
787.65	7.619
787.96	12.389
788.26	8.182
788.57	7.692
788.88	18.750
789.19	11.111
789.49	5.217
789.80	1.020
790.11	13.131
790.41	6.364
790.72	13.043
791.03	23.864
791.33	10.000
791.64	-13.750
791.95	3.488
792.25	13.830
792.56	13.483
792.87	4.110
793.17	0.000
793.48	-6.667
793.79	7.500
794.09	15.000
794.40	8.491
794.70	2.913
795.01	2.439
795.32	1.709
795.62	5.714
795.93	8.824
796.23	14.151
796.54	16.667
796.85	4.412
797.15	4.225
797.46	0.000
797.76	4.545
798.07	17.442
798.37	7.895
798.68	-3.030
798.99	6.173
799.29	11.429
799.60	4.348
799.90	10.667
800.21	11.475
800.51	3.077
800.82	11.864
801.12	0.000
801.43	-13.115
801.73	6.349
802.04	-6.000
802.34	0.000
802.65	19.231
802.95	-10.714
803.26	13.462
803.56	9.804
803.87	-8.696
804.17	14.667
804.48	26.984
804.78	-1.852
805.09	19.565
805.39	4.444
805.70	3.704
806.00	-3.509
806.30	4.225
806.61	20.000
806.91	0.000
807.22	26.316
807.52	14.667
807.83	0.000
808.13	8.333
808.43	0.000
808.74	2.985
809.04	-5.085
809.35	-15.385
809.65	1.563
809.95	-37.838
810.26	-45.455
810.56	15.068
810.86	-23.810
811.17	-26.000
811.47	-10.204
811.77	-26.316
812.08	11.364
812.38	5.660
812.69	-22.500
812.99	-18.182
813.29	13.158
813.59	-17.143
813.90	-13.636
814.20	-15.385
814.50	-3.846
814.81	20.755
815.11	-19.149
815.41	1.695
815.72	14.286
816.02	25.490
816.32	4.167
816.62	-7.317
816.93	5.405
817.23	-8.571
817.53	10.417
817.84	8.696
818.14	-5.769
818.44	-34.211
818.74	8.696
819.04	-30.000
819.35	-16.216
819.65	14.706
819.95	-2.778
820.25	28.571
820.56	10.000
820.86	-31.034
821.16	15.000
821.46	23.404
821.76	15.000
822.07	-11.628
822.37	-51.351
822.67	-6.250
822.97	26.190
823.27	-25.000
823.57	0.000
823.88	-11.111
824.18	10.714
824.48	-20.588
824.78	-12.903
825.08	-47.826
825.38	12.121
825.69	-25.000
825.99	-13.158
826.29	-2.778
826.59	-80.000
826.89	-23.810
827.19	15.217
827.49	-2.500
827.79	22.857
828.09	-10.714
828.39	-3.030
828.70	43.243
829.00	-17.857
829.30	-47.619
829.60	-16.667
829.90	34.375
830.20	-23.684
830.50	-55.556
830.80	4.348
831.10	-13.636
831.40	-15.152
831.70	25.806
832.00	9.524
832.30	-71.429
832.60	-25.000
832.90	31.034
833.20	5.000
833.50	9.091
833.80	-22.222
834.10	-3.846
834.40	6.250
834.70	11.111
835.00	21.053
835.30	11.538
835.60	-6.667
835.90	9.677
836.20	-36.364
836.50	14.286
836.80	-23.077
837.10	-14.286
837.40	-466.667
837.70	0.000
838.00	27.273
838.30	30.435
838.60	-15.385
838.90	-27.273
839.19	21.429
839.49	13.333
839.79	53.846
840.09	-75.000
840.39	28.571
840.69	14.286
840.99	-3.846
841.29	-52.632
841.59	-100.000
841.88	0.000
842.18	40.000
842.48	-12.500
842.78	-26.667
843.08	7.407
843.38	-120.000
843.68	4.348
843.97	13.333
844.27	-46.667
844.57	5.000
844.87	-55.556
845.17	-47.619
845.47	53.333
845.76	-42.857
846.06	41.176
846.36	-20.000
846.66	-7.143
846.96	13.333
847.25	-137.500
847.55	-21.429
847.85	-25.000
848.15	0.000
848.44	-433.333
848.74	5.000
849.04	96.296
849.34	-63.636
849.63	-116.667
849.93	-240.000
850.23	-27.778
850.53	30.000
850.82	-107.692
851.12	0.000
851.42	6.667
851.71	-23.077
852.01	85.714
852.31	25.000
852.61	-109.091
852.90	-45.000
853.20	21.053
853.50	-16.667
853.79	17.391
854.09	-4.167
854.39	15.789
854.68	-25.000
854.98	-3.226
855.28	15.385
855.57	-35.000
855.87	22.222
856.17	44.444
856.46	0.000
856.76	-86.667
857.05	33.333
857.35	24.000
857.65	-27.778
857.94	-69.231
858.24	17.241
858.53	66.667
858.83	33.333
859.13	18.182
859.42	-21.739
859.72	-200.000
860.01	-500.000
860.31	0.000
860.60	-23.810
860.90	-66.667
861.20	-53.333
861.49	-250.000
861.79	-26.667
862.08	-5.000
862.38	46.667
862.67	-180.000
862.97	-150.000
863.26	-25.000
863.56	0.000
863.85	-733.333
864.15	33.333
864.44	-20.000
864.74	-14.286
865.03	275.000
865.33	-140.000
865.62	-100.000
865.92	-33.333
866.21	-133.333
866.51	37.500
866.80	-45.455
867.10	-200.000
867.39	16.667
867.69	0.000
867.98	76.923
868.27	-266.667
868.57	-73.333
868.86	-11.111
869.16	15.385
869.45	-6.667
869.75	-1000.000
870.04	0.000
870.33	-185.714
870.63	9.524
870.92	466.667
871.22	-120.000
871.51	-600.000
871.80	66.667
872.10	266.667
>>>>>End Processed Spectral Data<<<<<
