SpectraSuite Data File
++++++++++++++++++++++++++++++++++++
Date: Fri May 15 20:53:54 PDT 2015
User: schluterlab
Dark Spectrum Present: Yes
Reference Spectrum Present: Yes
Number of Sampled Component Spectra: 1
Spectrometers: USB2E3373
Integration Time (usec): 3000 (USB2E3373)
Spectra Averaged: 3 (USB2E3373)
Boxcar Smoothing: 0 (USB2E3373)
Correct for Electrical Dark: No (USB2E3373)
Strobe/Lamp Enabled: No (USB2E3373)
Correct for Detector Non-linearity: No (USB2E3373)
Correct for Stray Light: No (USB2E3373)
Number of Pixels in Processed Spectrum: 2048
>>>>>Begin Processed Spectral Data<<<<<
178.53	0.000
178.91	0.000
179.29	62.500
179.67	-650.000
180.04	142.857
180.42	300.000
180.80	900.000
181.18	233.333
181.56	250.000
181.94	-100.000
182.31	900.000
182.69	-180.000
183.07	-66.667
183.45	-120.000
183.83	83.333
184.20	27.273
184.58	166.667
184.96	-200.000
185.34	33.333
185.72	-350.000
186.09	23.077
186.47	-100.000
186.85	216.667
187.23	111.111
187.61	500.000
187.98	-200.000
188.36	-22.222
188.74	-133.333
189.12	5.882
189.49	-5.556
189.87	0.000
190.25	21.429
190.63	-250.000
191.00	-366.667
191.38	36.842
191.76	-100.000
192.14	-25.000
192.51	200.000
192.89	22.222
193.27	42.857
193.65	16.667
194.02	127.273
194.40	0.000
194.78	-100.000
195.15	-50.000
195.53	-137.500
195.91	125.000
196.29	-125.000
196.66	138.462
197.04	-14.286
197.42	-33.333
197.79	-233.333
198.17	-84.615
198.55	-200.000
198.92	-133.333
199.30	-1000.000
199.68	-220.000
200.05	-366.667
200.43	0.000
200.81	166.667
201.18	0.000
201.56	-200.000
201.94	-650.000
202.31	-66.667
202.69	-100.000
203.07	75.000
203.44	0.000
203.82	0.000
204.19	178.571
204.57	-266.667
204.95	12.500
205.32	40.000
205.70	-57.143
206.08	-125.000
206.45	188.889
206.83	100.000
207.20	0.000
207.58	-100.000
207.96	66.667
208.33	-100.000
208.71	-50.000
209.08	-250.000
209.46	-700.000
209.84	-200.000
210.21	-1100.000
210.59	-57.143
210.96	-33.333
211.34	125.000
211.71	66.667
212.09	-142.857
212.46	-900.000
212.84	0.000
213.22	0.000
213.59	300.000
213.97	23.077
214.34	54.545
214.72	0.000
215.09	350.000
215.47	-7.692
215.84	-45.455
216.22	-66.667
216.59	-50.000
216.97	250.000
217.34	25.000
217.72	-80.000
218.09	62.500
218.47	162.500
218.84	-800.000
219.22	66.667
219.59	-20.000
219.97	400.000
220.34	375.000
220.72	14.286
221.09	50.000
221.47	0.000
221.84	-700.000
222.22	-700.000
222.59	63.636
222.97	66.667
223.34	66.667
223.72	7.143
224.09	4.762
224.46	-3.571
224.84	400.000
225.21	-10.000
225.59	93.333
225.96	-250.000
226.34	200.000
226.71	28.571
227.08	-50.000
227.46	0.000
227.83	-800.000
228.21	33.333
228.58	-9.091
228.95	-100.000
229.33	90.000
229.70	37.500
230.08	-37.500
230.45	-57.143
230.82	14.286
231.20	-20.000
231.57	35.714
231.95	-14.286
232.32	-110.000
232.69	64.286
233.07	200.000
233.44	-60.000
233.81	-60.000
234.19	66.667
234.56	-29.412
234.93	400.000
235.31	400.000
235.68	80.000
236.05	-30.769
236.43	-75.000
236.80	88.235
237.17	9.375
237.55	-5.000
237.92	0.000
238.29	27.778
238.67	36.667
239.04	17.647
239.41	-19.512
239.79	16.667
240.16	24.390
240.53	44.737
240.91	6.522
241.28	23.810
241.65	33.929
242.02	38.356
242.40	20.000
242.77	23.729
243.14	19.697
243.51	37.500
243.89	42.529
244.26	27.586
244.63	23.810
245.00	28.866
245.38	34.021
245.75	23.596
246.12	36.207
246.49	30.579
246.87	37.500
247.24	27.731
247.61	24.561
247.98	21.138
248.36	31.875
248.73	34.868
249.10	25.325
249.47	31.646
249.84	35.948
250.22	33.529
250.59	35.294
250.96	32.394
251.33	31.977
251.70	28.824
252.08	28.934
252.45	31.683
252.82	32.663
253.19	32.258
253.56	27.103
253.94	34.234
254.31	33.478
254.68	34.649
255.05	28.740
255.42	32.751
255.79	32.432
256.16	35.409
256.54	32.090
256.91	30.798
257.28	33.086
257.65	33.333
258.02	30.142
258.39	33.670
258.76	35.897
259.14	35.880
259.51	32.039
259.88	29.210
260.25	31.373
260.62	36.111
260.99	28.814
261.36	28.425
261.73	29.114
262.10	35.866
262.47	32.515
262.85	31.661
263.22	31.077
263.59	31.776
263.96	33.851
264.33	31.515
264.70	30.952
265.07	32.143
265.44	36.544
265.81	32.203
266.18	30.874
266.55	32.905
266.92	36.269
267.29	34.204
267.66	31.458
268.03	32.723
268.40	31.854
268.77	35.829
269.14	30.456
269.51	33.419
269.88	32.668
270.25	33.163
270.62	30.732
270.99	30.691
271.36	32.763
271.73	30.047
272.10	30.657
272.47	31.442
272.84	30.941
273.21	32.715
273.58	34.699
273.95	29.977
274.32	28.868
274.69	30.317
275.06	35.938
275.43	29.932
275.80	30.243
276.17	32.644
276.54	31.692
276.91	34.649
277.28	32.096
277.65	32.025
278.02	31.915
278.39	33.698
278.76	32.075
279.13	29.668
279.50	32.983
279.87	33.909
280.23	28.817
280.60	30.409
280.97	34.545
281.34	29.038
281.71	33.470
282.08	32.311
282.45	30.137
282.82	32.625
283.19	30.368
283.56	32.948
283.92	28.273
284.29	30.385
284.66	29.845
285.03	27.898
285.40	30.246
285.77	26.889
286.14	29.964
286.51	30.627
286.87	31.627
287.24	31.123
287.61	29.982
287.98	31.404
288.35	29.809
288.72	29.947
289.08	29.514
289.45	29.877
289.82	27.797
290.19	27.474
290.56	26.244
290.93	25.589
291.29	25.424
291.66	29.134
292.03	25.678
292.40	27.258
292.77	26.316
293.13	25.162
293.50	25.190
293.87	26.718
294.24	23.493
294.60	25.186
294.97	25.000
295.34	25.767
295.71	25.186
296.08	24.813
296.44	22.902
296.81	23.056
297.18	24.348
297.55	24.932
297.91	24.521
298.28	25.198
298.65	23.202
299.02	23.854
299.38	23.393
299.75	23.034
300.12	21.335
300.48	23.584
300.85	22.560
301.22	21.948
301.59	22.368
301.95	22.405
302.32	24.643
302.69	24.378
303.05	21.163
303.42	22.167
303.79	22.664
304.15	23.059
304.52	21.641
304.89	21.287
305.25	22.760
305.62	19.370
305.99	19.532
306.35	22.081
306.72	22.047
307.09	21.209
307.45	21.584
307.82	20.949
308.19	22.184
308.55	22.028
308.92	23.638
309.29	21.453
309.65	19.699
310.02	19.912
310.38	22.613
310.75	20.437
311.12	22.390
311.48	20.997
311.85	20.105
312.22	20.253
312.58	21.125
312.95	20.384
313.31	20.290
313.68	20.314
314.05	20.714
314.41	20.722
314.78	21.031
315.14	22.919
315.51	22.257
315.87	21.721
316.24	22.447
316.61	21.850
316.97	22.718
317.34	23.047
317.70	22.180
318.07	23.365
318.43	23.529
318.80	23.958
319.16	24.121
319.53	26.021
319.89	26.181
320.26	26.316
320.62	26.078
320.99	25.470
321.35	26.927
321.72	28.453
322.08	27.795
322.45	28.832
322.81	28.193
323.18	28.656
323.54	29.826
323.91	29.698
324.27	30.664
324.64	32.397
325.00	33.668
325.37	34.711
325.73	34.180
326.10	34.423
326.46	36.233
326.83	36.833
327.19	37.402
327.56	37.098
327.92	37.940
328.29	39.286
328.65	40.000
329.01	40.349
329.38	41.567
329.74	42.115
330.11	41.983
330.47	43.228
330.84	41.058
331.20	44.772
331.56	43.241
331.93	43.379
332.29	43.355
332.66	42.896
333.02	44.145
333.38	44.363
333.75	46.429
334.11	44.494
334.48	45.059
334.84	45.238
335.20	46.478
335.57	45.694
335.93	45.619
336.29	46.041
336.66	46.322
337.02	48.234
337.38	45.833
337.75	46.909
338.11	47.791
338.47	47.080
338.84	50.000
339.20	48.446
339.56	49.541
339.93	48.791
340.29	49.266
340.65	50.090
341.02	47.518
341.38	48.673
341.74	49.117
342.11	47.747
342.47	48.932
342.83	48.962
343.20	49.477
343.56	51.391
343.92	50.841
344.28	50.299
344.65	50.432
345.01	50.043
345.37	48.865
345.73	50.962
346.10	52.718
346.46	50.883
346.82	50.736
347.19	49.293
347.55	50.376
347.91	51.618
348.27	49.717
348.63	52.044
349.00	52.502
349.36	52.203
349.72	51.907
350.08	51.393
350.45	51.077
350.81	53.405
351.17	51.303
351.53	53.633
351.89	51.197
352.26	52.160
352.62	54.032
352.98	53.253
353.34	51.127
353.70	54.126
354.07	53.468
354.43	52.282
354.79	54.170
355.15	53.016
355.51	53.877
355.87	54.450
356.24	54.568
356.60	53.840
356.96	54.365
357.32	53.834
357.68	53.948
358.04	55.816
358.40	55.064
358.77	56.140
359.13	55.645
359.49	55.008
359.85	55.616
360.21	56.380
360.57	56.083
360.93	56.808
361.29	55.891
361.66	57.288
362.02	58.030
362.38	58.111
362.74	57.381
363.10	59.443
363.46	57.524
363.82	57.701
364.18	58.155
364.54	57.574
364.90	58.423
365.26	58.515
365.62	59.343
365.98	59.384
366.35	60.233
366.71	60.458
367.07	61.829
367.43	59.885
367.79	59.011
368.15	60.302
368.51	61.326
368.87	60.230
369.23	60.000
369.59	60.714
369.95	59.971
370.31	61.633
370.67	62.463
371.03	61.688
371.39	61.415
371.75	62.711
372.11	61.840
372.47	62.352
372.83	63.591
373.19	61.912
373.55	61.300
373.91	61.915
374.27	63.926
374.63	63.604
374.99	63.688
375.35	63.231
375.71	66.014
376.07	64.677
376.42	64.558
376.78	64.631
377.14	64.929
377.50	65.870
377.86	65.127
378.22	65.412
378.58	65.577
378.94	64.209
379.30	65.190
379.66	66.897
380.02	67.259
380.38	67.133
380.74	65.470
381.09	66.564
381.45	66.850
381.81	67.181
382.17	66.180
382.53	66.458
382.89	66.855
383.25	67.082
383.61	68.720
383.97	68.762
384.32	66.917
384.68	67.864
385.04	68.689
385.40	68.699
385.76	70.818
386.12	68.823
386.48	70.179
386.83	69.055
387.19	69.780
387.55	70.013
387.91	69.315
388.27	69.597
388.62	71.114
388.98	69.675
389.34	70.394
389.70	72.592
390.06	69.478
390.42	69.430
390.77	71.485
391.13	68.726
391.49	71.475
391.85	71.475
392.20	70.810
392.56	70.884
392.92	70.816
393.28	72.288
393.64	70.330
393.99	72.100
394.35	70.715
394.71	72.478
395.07	69.767
395.42	70.370
395.78	71.075
396.14	70.240
396.50	71.845
396.85	72.762
397.21	71.554
397.57	70.658
397.92	70.222
398.28	70.230
398.64	69.759
399.00	71.783
399.35	70.034
399.71	70.247
400.07	71.463
400.42	70.624
400.78	70.790
401.14	70.236
401.49	71.412
401.85	70.140
402.21	71.807
402.57	71.625
402.92	71.455
403.28	71.742
403.63	71.816
403.99	72.003
404.35	72.455
404.70	70.476
405.06	69.683
405.42	70.292
405.77	70.482
406.13	70.955
406.49	70.456
406.84	72.066
407.20	71.403
407.55	70.766
407.91	71.858
408.27	70.108
408.62	71.692
408.98	71.103
409.34	70.508
409.69	72.028
410.05	68.658
410.40	71.605
410.76	70.989
411.11	70.500
411.47	71.400
411.83	70.621
412.18	71.429
412.54	71.660
412.89	68.473
413.25	71.721
413.60	69.379
413.96	68.528
414.31	69.878
414.67	70.173
415.03	71.039
415.38	70.822
415.74	69.186
416.09	71.653
416.45	70.088
416.80	70.853
417.16	71.961
417.51	71.219
417.87	70.860
418.22	71.503
418.58	72.174
418.93	71.724
419.29	69.910
419.64	71.549
420.00	72.733
420.35	69.791
420.71	71.567
421.06	70.841
421.42	71.575
421.77	72.312
422.12	70.375
422.48	71.467
422.83	71.578
423.19	70.598
423.54	70.253
423.90	70.024
424.25	70.723
424.61	71.114
424.96	70.499
425.31	73.310
425.67	72.359
426.02	71.908
426.38	72.386
426.73	72.458
427.09	72.278
427.44	72.529
427.79	70.831
428.15	72.512
428.50	72.441
428.85	71.929
429.21	70.968
429.56	73.369
429.92	70.981
430.27	70.276
430.62	71.511
430.98	71.709
431.33	71.030
431.68	70.225
432.04	72.051
432.39	72.333
432.74	70.716
433.10	72.011
433.45	72.162
433.80	71.677
434.16	71.911
434.51	70.914
434.86	72.009
435.22	71.509
435.57	72.489
435.92	72.156
436.28	70.125
436.63	70.280
436.98	70.336
437.34	71.930
437.69	72.689
438.04	71.225
438.39	71.289
438.75	72.920
439.10	71.420
439.45	72.855
439.81	72.232
440.16	73.219
440.51	71.284
440.86	74.562
441.22	72.794
441.57	72.737
441.92	73.767
442.27	73.670
442.63	72.537
442.98	72.487
443.33	71.174
443.68	72.732
444.03	73.125
444.39	72.061
444.74	72.575
445.09	74.165
445.44	72.593
445.79	72.873
446.15	70.650
446.50	71.880
446.85	72.635
447.20	72.576
447.55	72.042
447.91	72.984
448.26	72.681
448.61	72.424
448.96	71.945
449.31	73.237
449.66	71.777
450.02	71.192
450.37	74.096
450.72	71.077
451.07	73.291
451.42	71.785
451.77	70.826
452.12	71.112
452.47	71.861
452.83	71.908
453.18	71.790
453.53	72.630
453.88	72.253
454.23	71.174
454.58	73.300
454.93	72.101
455.28	70.349
455.63	73.218
455.98	71.678
456.34	72.095
456.69	72.935
457.04	72.023
457.39	71.203
457.74	71.342
458.09	70.159
458.44	70.626
458.79	70.084
459.14	71.110
459.49	72.060
459.84	70.784
460.19	70.146
460.54	70.477
460.89	71.193
461.24	70.621
461.59	70.724
461.94	70.063
462.29	71.351
462.64	69.967
462.99	70.074
463.34	69.680
463.69	70.785
464.04	69.249
464.39	69.618
464.74	69.816
465.09	71.241
465.44	70.340
465.79	67.914
466.14	68.529
466.49	68.028
466.84	69.185
467.19	70.651
467.54	68.455
467.89	69.994
468.24	69.221
468.59	69.079
468.94	66.857
469.29	68.525
469.64	68.763
469.99	69.657
470.34	68.874
470.68	71.514
471.03	68.648
471.38	68.973
471.73	69.398
472.08	69.607
472.43	68.456
472.78	68.746
473.13	69.456
473.48	68.208
473.83	67.870
474.17	68.264
474.52	68.411
474.87	67.758
475.22	69.311
475.57	67.476
475.92	68.239
476.27	67.113
476.61	69.039
476.96	66.648
477.31	68.307
477.66	67.022
478.01	67.378
478.36	67.048
478.70	67.645
479.05	67.637
479.40	67.091
479.75	67.049
480.10	65.591
480.45	66.600
480.79	67.724
481.14	66.803
481.49	66.256
481.84	66.602
482.19	65.154
482.53	66.523
482.88	65.585
483.23	64.299
483.58	65.047
483.92	65.489
484.27	63.765
484.62	66.428
484.97	63.806
485.31	63.114
485.66	61.634
486.01	60.951
486.36	61.325
486.70	62.000
487.05	62.341
487.40	62.616
487.75	62.845
488.09	61.867
488.44	61.898
488.79	62.346
489.13	63.261
489.48	62.334
489.83	63.139
490.17	63.281
490.52	64.249
490.87	62.702
491.22	64.470
491.56	63.757
491.91	63.002
492.26	64.803
492.60	62.860
492.95	64.338
493.30	62.921
493.64	64.587
493.99	63.237
494.34	62.670
494.68	62.095
495.03	61.946
495.37	62.071
495.72	63.352
496.07	63.659
496.41	62.311
496.76	62.229
497.11	61.295
497.45	63.150
497.80	63.824
498.14	61.401
498.49	63.027
498.84	60.928
499.18	62.048
499.53	61.260
499.87	61.381
500.22	61.325
500.56	61.775
500.91	61.747
501.26	59.812
501.60	61.633
501.95	61.426
502.29	60.823
502.64	60.956
502.98	62.111
503.33	60.471
503.67	60.386
504.02	59.531
504.36	60.762
504.71	60.808
505.06	60.493
505.40	60.914
505.75	60.825
506.09	60.162
506.44	61.550
506.78	62.602
507.13	61.686
507.47	59.373
507.82	60.951
508.16	60.856
508.51	60.546
508.85	60.387
509.19	60.138
509.54	60.322
509.88	59.924
510.23	59.602
510.57	60.983
510.92	59.168
511.26	59.738
511.61	60.781
511.95	59.836
512.30	60.200
512.64	59.766
512.98	60.247
513.33	59.429
513.67	59.466
514.02	61.384
514.36	61.257
514.70	62.646
515.05	62.338
515.39	61.216
515.74	63.114
516.08	61.745
516.42	61.602
516.77	62.317
517.11	61.602
517.46	62.418
517.80	61.204
518.14	60.870
518.49	60.637
518.83	61.057
519.17	59.673
519.52	60.983
519.86	59.184
520.20	60.632
520.55	60.538
520.89	61.857
521.23	59.975
521.58	60.820
521.92	61.410
522.26	60.898
522.61	62.338
522.95	62.848
523.29	61.182
523.64	61.753
523.98	61.115
524.32	61.276
524.66	60.563
525.01	61.948
525.35	61.892
525.69	60.943
526.04	60.119
526.38	63.165
526.72	59.451
527.06	60.311
527.41	60.488
527.75	59.853
528.09	60.000
528.43	61.850
528.78	60.726
529.12	60.129
529.46	60.949
529.80	60.545
530.15	61.518
530.49	61.010
530.83	62.380
531.17	60.510
531.51	61.218
531.86	61.047
532.20	60.612
532.54	59.700
532.88	61.396
533.22	61.425
533.57	59.436
533.91	59.726
534.25	59.570
534.59	58.371
534.93	58.653
535.27	58.058
535.62	57.615
535.96	58.252
536.30	59.367
536.64	59.683
536.98	59.024
537.32	60.028
537.66	60.659
538.01	59.161
538.35	58.877
538.69	56.391
539.03	56.801
539.37	58.816
539.71	58.010
540.05	58.248
540.39	57.756
540.73	58.020
541.07	57.459
541.42	58.804
541.76	58.568
542.10	57.949
542.44	56.845
542.78	56.710
543.12	57.898
543.46	56.606
543.80	58.362
544.14	55.474
544.48	57.828
544.82	55.844
545.16	57.309
545.50	55.941
545.84	57.932
546.18	56.738
546.52	56.741
546.86	57.225
547.20	57.153
547.54	56.961
547.88	56.658
548.22	54.898
548.56	54.881
548.90	56.065
549.24	54.752
549.58	56.417
549.92	55.039
550.26	55.018
550.60	56.134
550.94	56.236
551.28	56.105
551.62	57.000
551.96	56.541
552.30	56.579
552.64	55.289
552.98	55.626
553.32	55.136
553.66	56.023
554.00	55.839
554.34	55.096
554.68	55.900
555.02	55.878
555.36	55.348
555.69	55.018
556.03	54.247
556.37	53.167
556.71	54.296
557.05	56.376
557.39	53.011
557.73	56.522
558.07	55.882
558.41	57.198
558.75	54.793
559.08	54.452
559.42	55.714
559.76	55.484
560.10	54.740
560.44	54.877
560.78	52.657
561.12	55.007
561.45	56.008
561.79	54.692
562.13	54.081
562.47	53.525
562.81	54.251
563.15	53.597
563.48	52.687
563.82	54.358
564.16	54.596
564.50	52.838
564.84	53.748
565.17	53.320
565.51	54.303
565.85	54.321
566.19	53.448
566.52	54.290
566.86	52.699
567.20	50.809
567.54	51.946
567.88	52.021
568.21	52.036
568.55	50.543
568.89	52.105
569.23	49.880
569.56	49.825
569.90	49.614
570.24	48.530
570.57	48.436
570.91	48.484
571.25	47.057
571.59	46.901
571.92	46.489
572.26	46.196
572.60	46.512
572.93	46.156
573.27	45.925
573.61	45.883
573.95	46.122
574.28	45.869
574.62	45.385
574.96	44.303
575.29	44.876
575.63	43.742
575.97	44.213
576.30	45.066
576.64	44.026
576.98	45.019
577.31	45.318
577.65	45.069
577.98	44.928
578.32	43.837
578.66	43.499
578.99	43.285
579.33	43.367
579.67	43.149
580.00	44.557
580.34	43.557
580.67	43.422
581.01	43.780
581.35	42.937
581.68	43.397
582.02	43.109
582.35	42.990
582.69	43.358
583.02	43.046
583.36	43.553
583.70	44.600
584.03	44.204
584.37	44.636
584.70	43.516
585.04	43.135
585.37	43.071
585.71	42.706
586.04	43.646
586.38	43.051
586.72	43.673
587.05	44.454
587.39	44.255
587.72	44.232
588.06	43.786
588.39	43.435
588.73	43.651
589.06	43.933
589.40	44.660
589.73	44.651
590.07	44.562
590.40	44.892
590.73	44.646
591.07	44.869
591.40	44.746
591.74	44.887
592.07	45.686
592.41	45.097
592.74	44.365
593.08	43.486
593.41	43.427
593.75	43.180
594.08	42.980
594.41	44.214
594.75	43.779
595.08	44.003
595.42	43.209
595.75	44.086
596.09	43.550
596.42	44.440
596.75	44.405
597.09	45.057
597.42	43.089
597.75	45.213
598.09	43.685
598.42	43.547
598.76	44.015
599.09	42.909
599.42	42.706
599.76	42.287
600.09	42.986
600.42	42.077
600.76	41.716
601.09	42.672
601.42	42.382
601.76	43.271
602.09	43.069
602.42	44.019
602.76	43.251
603.09	43.688
603.42	44.774
603.76	43.508
604.09	43.135
604.42	43.443
604.76	44.459
605.09	43.327
605.42	42.935
605.75	42.776
606.09	42.420
606.42	42.285
606.75	42.944
607.09	42.945
607.42	42.313
607.75	42.851
608.08	41.914
608.42	42.165
608.75	43.084
609.08	42.601
609.41	42.944
609.75	42.288
610.08	44.633
610.41	41.932
610.74	42.467
611.07	43.669
611.41	43.902
611.74	44.456
612.07	43.094
612.40	43.709
612.73	44.463
613.07	43.645
613.40	43.217
613.73	43.369
614.06	43.517
614.39	44.444
614.72	42.353
615.06	43.408
615.39	42.303
615.72	42.088
616.05	42.905
616.38	41.425
616.71	43.119
617.05	45.213
617.38	44.312
617.71	44.340
618.04	44.317
618.37	45.334
618.70	45.545
619.03	45.139
619.36	44.211
619.69	45.716
620.03	45.069
620.36	46.066
620.69	44.897
621.02	45.872
621.35	46.971
621.68	47.534
622.01	47.250
622.34	44.613
622.67	46.451
623.00	45.482
623.33	45.884
623.66	45.101
623.99	45.008
624.32	45.475
624.65	44.135
624.99	45.071
625.32	43.669
625.65	45.169
625.98	46.656
626.31	45.885
626.64	47.054
626.97	45.812
627.30	46.322
627.63	46.187
627.96	46.810
628.29	46.531
628.62	47.001
628.95	47.595
629.28	47.581
629.61	46.560
629.94	47.116
630.26	45.455
630.59	47.555
630.92	47.385
631.25	47.385
631.58	47.687
631.91	48.026
632.24	49.427
632.57	49.318
632.90	49.703
633.23	48.118
633.56	50.630
633.89	47.349
634.22	49.012
634.55	50.445
634.88	48.531
635.20	50.769
635.53	50.000
635.86	47.724
636.19	50.582
636.52	50.255
636.85	47.270
637.18	47.296
637.51	48.428
637.83	48.752
638.16	51.842
638.49	49.455
638.82	50.263
639.15	49.796
639.48	49.931
639.81	48.117
640.13	49.928
640.46	50.583
640.79	49.632
641.12	52.290
641.45	50.450
641.77	48.444
642.10	50.869
642.43	51.286
642.76	51.155
643.09	50.242
643.41	52.265
643.74	52.883
644.07	52.053
644.40	51.858
644.73	52.890
645.05	51.007
645.38	50.794
645.71	50.000
646.04	53.321
646.36	50.887
646.69	51.259
647.02	53.875
647.35	52.425
647.67	50.823
648.00	53.545
648.33	49.147
648.66	51.525
648.98	49.246
649.31	48.760
649.64	48.666
649.96	47.326
650.29	48.893
650.62	49.744
650.94	50.370
651.27	47.858
651.60	49.009
651.92	49.650
652.25	49.734
652.58	45.667
652.90	51.973
653.23	49.076
653.56	49.577
653.88	48.282
654.21	47.110
654.54	49.236
654.86	47.878
655.19	45.906
655.52	42.724
655.84	35.874
656.17	39.564
656.49	52.967
656.82	54.225
657.15	41.160
657.47	30.747
657.80	22.827
658.13	22.307
658.45	34.514
658.78	34.162
659.10	34.315
659.43	33.816
659.75	35.224
660.08	37.172
660.41	40.960
660.73	42.680
661.06	45.407
661.38	44.814
661.71	49.487
662.03	48.283
662.36	50.989
662.68	51.106
663.01	52.402
663.33	49.652
663.66	49.535
663.98	49.535
664.31	51.386
664.63	50.461
664.96	44.783
665.28	46.137
665.61	50.433
665.93	51.739
666.26	48.373
666.58	49.217
666.91	47.765
667.23	47.877
667.56	52.133
667.88	51.799
668.21	51.313
668.53	50.118
668.86	49.292
669.18	49.528
669.50	48.184
669.83	48.837
670.15	50.816
670.48	50.000
670.80	46.313
671.13	48.770
671.45	48.174
671.77	50.000
672.10	47.129
672.42	43.633
672.75	48.845
673.07	47.406
673.39	46.239
673.72	43.590
674.04	48.542
674.37	47.669
674.69	46.253
675.01	47.111
675.34	50.000
675.66	49.306
675.98	50.333
676.31	50.917
676.63	47.268
676.95	46.591
677.28	51.765
677.60	48.193
677.92	45.642
678.25	50.109
678.57	46.320
678.89	46.218
679.22	47.875
679.54	44.980
679.86	43.141
680.18	46.408
680.51	45.076
680.83	43.539
681.15	46.000
681.48	43.852
681.80	44.421
682.12	45.565
682.44	42.887
682.77	47.682
683.09	45.309
683.41	45.682
683.73	46.083
684.06	46.903
684.38	43.226
684.70	45.534
685.02	42.531
685.34	43.874
685.67	41.088
685.99	42.676
686.31	44.425
686.63	42.857
686.96	40.684
687.28	41.010
687.60	42.015
687.92	47.475
688.24	45.766
688.56	46.288
688.89	45.536
689.21	44.889
689.53	45.012
689.85	45.349
690.17	44.420
690.49	49.645
690.82	48.544
691.14	45.952
691.46	45.561
691.78	43.919
692.10	43.226
692.42	44.156
692.74	42.735
693.06	44.369
693.39	39.819
693.71	42.534
694.03	44.573
694.35	43.925
694.67	46.717
694.99	43.864
695.31	47.258
695.63	44.500
695.95	41.919
696.27	44.819
696.59	49.444
696.91	45.378
697.23	39.846
697.56	45.050
697.88	42.151
698.20	41.913
698.52	43.059
698.84	40.670
699.16	41.750
699.48	42.356
699.80	43.672
700.12	46.900
700.44	46.218
700.76	45.349
701.08	44.242
701.40	47.590
701.72	48.765
702.04	45.875
702.36	47.826
702.68	45.946
703.00	46.364
703.32	48.094
703.64	42.373
703.96	42.899
704.28	44.785
704.60	44.444
704.91	43.849
705.23	45.847
705.55	49.823
705.87	49.097
706.19	46.667
706.51	40.550
706.83	46.624
707.15	41.745
707.47	42.297
707.79	44.531
708.11	42.000
708.43	39.750
708.74	41.860
709.06	44.789
709.38	43.425
709.70	44.970
710.02	41.401
710.34	47.059
710.66	39.744
710.98	42.384
711.29	41.639
711.61	42.712
711.93	44.300
712.25	46.735
712.57	45.788
712.89	51.493
713.20	44.637
713.52	42.857
713.84	40.956
714.16	41.237
714.48	43.548
714.80	43.590
715.11	41.945
715.43	39.185
715.75	44.000
716.07	40.864
716.39	42.282
716.70	43.173
717.02	41.603
717.34	44.534
717.66	47.345
717.97	49.565
718.29	43.096
718.61	47.244
718.93	44.961
719.24	44.106
719.56	43.373
719.88	45.704
720.20	39.015
720.51	43.295
720.83	41.699
721.15	46.218
721.46	44.355
721.78	42.292
722.10	41.636
722.42	40.249
722.73	38.776
723.05	46.122
723.37	45.763
723.68	48.198
724.00	41.453
724.32	42.667
724.63	35.909
724.95	41.048
725.27	48.387
725.58	41.102
725.90	39.286
726.22	40.541
726.53	44.407
726.85	41.948
727.16	41.509
727.48	40.486
727.80	43.320
728.11	43.644
728.43	40.000
728.74	38.710
729.06	40.400
729.38	45.489
729.69	41.036
730.01	40.000
730.32	44.030
730.64	41.696
730.96	44.151
731.27	36.667
731.59	41.695
731.90	39.490
732.22	38.486
732.53	43.189
732.85	41.489
733.16	40.067
733.48	39.928
733.80	38.768
734.11	40.000
734.43	43.299
734.74	36.061
735.06	36.808
735.37	37.764
735.69	38.721
736.00	39.373
736.32	40.940
736.63	38.380
736.95	41.297
737.26	37.722
737.58	38.591
737.89	35.897
738.21	41.353
738.52	45.267
738.83	44.105
739.15	41.048
739.46	39.370
739.78	38.828
740.09	37.582
740.41	35.145
740.72	39.764
741.04	41.296
741.35	41.277
741.66	45.498
741.98	40.816
742.29	42.574
742.61	39.791
742.92	36.493
743.23	41.204
743.55	39.367
743.86	45.455
744.18	41.148
744.49	39.894
744.80	41.304
745.12	52.406
745.43	40.000
745.74	42.188
746.06	40.488
746.37	41.361
746.68	42.180
747.00	37.234
747.31	46.766
747.62	39.806
747.94	41.148
748.25	33.663
748.56	43.716
748.88	39.791
749.19	39.362
749.50	42.365
749.82	32.075
750.13	41.743
750.44	41.729
750.75	36.194
751.07	44.526
751.38	39.080
751.69	36.471
752.01	42.248
752.32	40.239
752.63	36.364
752.94	42.672
753.26	42.259
753.57	37.104
753.88	35.841
754.19	36.667
754.51	37.603
754.82	32.794
755.13	39.167
755.44	40.726
755.75	41.797
756.07	38.911
756.38	33.962
756.69	34.483
757.00	37.333
757.31	36.601
757.63	32.012
757.94	36.667
758.25	32.329
758.56	32.181
758.87	32.861
759.18	33.333
759.50	37.091
759.81	36.120
760.12	40.968
760.43	33.333
760.74	34.568
761.05	35.385
761.36	34.375
761.67	36.061
761.99	38.776
762.30	37.091
762.61	39.130
762.92	35.294
763.23	36.036
763.54	29.907
763.85	38.136
764.16	38.174
764.47	33.871
764.78	34.799
765.10	39.394
765.41	34.700
765.72	37.143
766.03	31.579
766.34	35.401
766.65	40.637
766.96	42.929
767.27	36.702
767.58	40.805
767.89	48.227
768.20	36.932
768.51	31.868
768.82	45.320
769.13	30.876
769.44	30.901
769.75	33.333
770.06	37.500
770.37	32.692
770.68	35.025
770.99	31.222
771.30	38.725
771.61	37.104
771.92	37.931
772.23	37.438
772.54	35.484
772.85	40.741
773.16	31.461
773.47	38.562
773.78	39.216
774.09	35.329
774.39	35.333
774.70	36.306
775.01	37.241
775.32	35.714
775.63	38.017
775.94	38.168
776.25	33.071
776.56	42.500
776.87	37.500
777.18	36.752
777.48	43.103
777.79	53.043
778.10	31.429
778.41	32.432
778.72	34.127
779.03	41.353
779.34	36.879
779.65	36.301
779.95	30.137
780.26	35.172
780.57	30.081
780.88	43.307
781.19	35.345
781.50	42.636
781.80	27.811
782.11	28.302
782.42	40.769
782.73	42.446
783.04	35.556
783.34	38.889
783.65	21.368
783.96	40.164
784.27	44.138
784.57	38.211
784.88	38.281
785.19	50.000
785.50	50.000
785.81	37.931
786.11	37.931
786.42	29.126
786.73	35.455
787.04	38.776
787.34	41.964
787.65	28.571
787.96	41.593
788.26	34.545
788.57	28.205
788.88	40.625
789.19	27.778
789.49	33.043
789.80	37.755
790.11	42.424
790.41	40.909
790.72	43.478
791.03	26.136
791.33	42.500
791.64	25.000
791.95	32.558
792.25	36.170
792.56	38.202
792.87	27.397
793.17	43.478
793.48	26.667
793.79	38.750
794.09	48.750
794.40	17.925
794.70	29.126
795.01	28.455
795.32	35.043
795.62	36.190
795.93	13.725
796.23	41.509
796.54	31.250
796.85	39.706
797.15	38.028
797.46	48.611
797.76	40.909
798.07	30.233
798.37	38.158
798.68	40.909
798.99	25.926
799.29	32.857
799.60	27.536
799.90	25.333
800.21	27.869
800.51	38.462
800.82	25.424
801.12	24.638
801.43	26.230
801.73	20.635
802.04	12.000
802.34	28.358
802.65	42.308
802.95	19.643
803.26	32.692
803.56	35.294
803.87	19.565
804.17	26.667
804.48	46.032
804.78	37.037
805.09	34.783
805.39	4.444
805.70	42.593
806.00	26.316
806.30	33.803
806.61	28.571
806.91	25.000
807.22	47.368
807.52	38.667
807.83	3.636
808.13	37.500
808.43	30.882
808.74	31.343
809.04	6.780
809.35	30.769
809.65	21.875
809.95	8.108
810.26	18.182
810.56	21.918
810.86	19.048
811.17	10.000
811.47	40.816
811.77	39.474
812.08	25.000
812.38	37.736
812.69	10.000
812.99	21.212
813.29	28.947
813.59	20.000
813.90	34.091
814.20	38.462
814.50	19.231
814.81	30.189
815.11	29.787
815.41	18.644
815.72	26.190
816.02	21.569
816.32	35.417
816.62	12.195
816.93	21.622
817.23	22.857
817.53	45.833
817.84	17.391
818.14	26.923
818.44	31.579
818.74	39.130
819.04	7.500
819.35	51.351
819.65	5.882
819.95	-2.778
820.25	30.952
820.56	62.500
820.86	-31.034
821.16	52.500
821.46	31.915
821.76	30.000
822.07	37.209
822.37	18.919
822.67	6.250
822.97	52.381
823.27	7.143
823.57	12.000
823.88	14.815
824.18	85.714
824.48	11.765
824.78	25.806
825.08	30.435
825.38	12.121
825.69	-50.000
825.99	28.947
826.29	19.444
826.59	0.000
826.89	-23.810
827.19	15.217
827.49	32.500
827.79	31.429
828.09	35.714
828.39	24.242
828.70	51.351
829.00	17.857
829.30	-19.048
829.60	30.000
829.90	28.125
830.20	36.842
830.50	7.407
830.80	43.478
831.10	36.364
831.40	48.485
831.70	51.613
832.00	47.619
832.30	-9.524
832.60	116.667
832.90	55.172
833.20	-25.000
833.50	15.152
833.80	44.444
834.10	57.692
834.40	-9.375
834.70	-33.333
835.00	21.053
835.30	50.000
835.60	86.667
835.90	22.581
836.20	13.636
836.50	42.857
836.80	-7.692
837.10	39.286
837.40	-433.333
837.70	63.636
838.00	-54.545
838.30	4.348
838.60	15.385
838.90	0.000
839.19	28.571
839.49	30.000
839.79	46.154
840.09	-66.667
840.39	28.571
840.69	-7.143
840.99	-3.846
841.29	-15.789
841.59	-50.000
841.88	54.545
842.18	10.000
842.48	25.000
842.78	6.667
843.08	22.222
843.38	-70.000
843.68	-8.696
843.97	-20.000
844.27	-26.667
844.57	-10.000
844.87	5.556
845.17	-19.048
845.47	-26.667
845.76	52.381
846.06	35.294
846.36	90.000
846.66	-28.571
846.96	46.667
847.25	-112.500
847.55	14.286
847.85	50.000
848.15	18.182
848.44	-566.667
848.74	-10.000
849.04	59.259
849.34	72.727
849.63	16.667
849.93	-200.000
850.23	-22.222
850.53	70.000
850.82	53.846
851.12	0.000
851.42	40.000
851.71	-34.615
852.01	64.286
852.31	-250.000
852.61	-18.182
852.90	15.000
853.20	52.632
853.50	25.000
853.79	8.696
854.09	33.333
854.39	-10.526
854.68	0.000
854.98	35.484
855.28	50.000
855.57	5.000
855.87	27.778
856.17	-3.704
856.46	0.000
856.76	-20.000
857.05	100.000
857.35	32.000
857.65	16.667
857.94	46.154
858.24	41.379
858.53	22.222
858.83	33.333
859.13	4.545
859.42	4.348
859.72	50.000
860.01	-100.000
860.31	12.000
860.60	38.095
860.90	-200.000
861.20	0.000
861.49	-400.000
861.79	-6.667
862.08	40.000
862.38	80.000
862.67	-200.000
862.97	0.000
863.26	66.667
863.56	50.000
863.85	-533.333
864.15	38.889
864.44	50.000
864.74	35.714
865.03	550.000
865.33	-280.000
865.62	100.000
865.92	-58.333
866.21	-183.333
866.51	75.000
866.80	-63.636
867.10	0.000
867.39	75.000
867.69	0.000
867.98	84.615
868.27	-233.333
868.57	106.667
868.86	22.222
869.16	-15.385
869.45	73.333
869.75	-1500.000
870.04	0.000
870.33	-14.286
870.63	52.381
870.92	233.333
871.22	-260.000
871.51	-1000.000
871.80	66.667
872.10	100.000
>>>>>End Processed Spectral Data<<<<<
