SpectraSuite Data File
++++++++++++++++++++++++++++++++++++
Date: Fri May 15 20:51:12 PDT 2015
User: schluterlab
Dark Spectrum Present: Yes
Reference Spectrum Present: Yes
Number of Sampled Component Spectra: 1
Spectrometers: USB2E3373
Integration Time (usec): 3000 (USB2E3373)
Spectra Averaged: 3 (USB2E3373)
Boxcar Smoothing: 0 (USB2E3373)
Correct for Electrical Dark: No (USB2E3373)
Strobe/Lamp Enabled: No (USB2E3373)
Correct for Detector Non-linearity: No (USB2E3373)
Correct for Stray Light: No (USB2E3373)
Number of Pixels in Processed Spectrum: 2048
>>>>>Begin Processed Spectral Data<<<<<
178.53	0.000
178.91	0.000
179.29	50.000
179.67	-350.000
180.04	-28.571
180.42	225.000
180.80	-800.000
181.18	-66.667
181.56	700.000
181.94	-100.000
182.31	1200.000
182.69	0.000
183.07	-100.000
183.45	-20.000
183.83	116.667
184.20	-36.364
184.58	188.889
184.96	100.000
185.34	166.667
185.72	-350.000
186.09	76.923
186.47	-1600.000
186.85	216.667
187.23	88.889
187.61	-400.000
187.98	-233.333
188.36	-100.000
188.74	-300.000
189.12	-5.882
189.49	-16.667
189.87	0.000
190.25	57.143
190.63	-150.000
191.00	-333.333
191.38	26.316
191.76	-300.000
192.14	100.000
192.51	-200.000
192.89	-200.000
193.27	-128.571
193.65	116.667
194.02	172.727
194.40	10.000
194.78	-150.000
195.15	-50.000
195.53	-137.500
195.91	125.000
196.29	-400.000
196.66	61.538
197.04	157.143
197.42	-144.444
197.79	-400.000
198.17	-138.462
198.55	1300.000
198.92	-133.333
199.30	-700.000
199.68	-140.000
200.05	-433.333
200.43	0.000
200.81	-33.333
201.18	-200.000
201.56	1600.000
201.94	-150.000
202.31	-200.000
202.69	-420.000
203.07	275.000
203.44	300.000
203.82	0.000
204.19	14.286
204.57	-400.000
204.95	137.500
205.32	0.000
205.70	-71.429
206.08	25.000
206.45	166.667
206.83	42.857
207.20	-71.429
207.58	400.000
207.96	0.000
208.33	-170.000
208.71	-75.000
209.08	-133.333
209.46	-500.000
209.84	-220.000
210.21	-900.000
210.59	-14.286
210.96	0.000
211.34	-150.000
211.71	93.333
212.09	-271.429
212.46	-1700.000
212.84	0.000
213.22	-10.000
213.59	350.000
213.97	15.385
214.34	-18.182
214.72	-16.667
215.09	300.000
215.47	-46.154
215.84	36.364
216.22	-433.333
216.59	-87.500
216.97	100.000
217.34	-175.000
217.72	80.000
218.09	-75.000
218.47	175.000
218.84	-1200.000
219.22	-33.333
219.59	-280.000
219.97	600.000
220.34	250.000
220.72	-100.000
221.09	-225.000
221.47	0.000
221.84	-1100.000
222.22	-850.000
222.59	54.545
222.97	-16.667
223.34	-366.667
223.72	-35.714
224.09	14.286
224.46	3.571
224.84	366.667
225.21	-70.000
225.59	-6.667
225.96	-400.000
226.34	200.000
226.71	-28.571
227.08	-66.667
227.46	-12.500
227.83	-450.000
228.21	-22.222
228.58	-45.455
228.95	-175.000
229.33	-0.000
229.70	12.500
230.08	12.500
230.45	-42.857
230.82	-242.857
231.20	20.000
231.57	-7.143
231.95	-14.286
232.32	-70.000
232.69	64.286
233.07	-133.333
233.44	-240.000
233.81	-90.000
234.19	-33.333
234.56	58.824
234.93	200.000
235.31	25.000
235.68	-200.000
236.05	-61.538
236.43	-10.000
236.80	0.000
237.17	-21.875
237.55	-40.000
237.92	0.000
238.29	36.111
238.67	-3.333
239.04	35.294
239.41	9.756
239.79	10.000
240.16	29.268
240.53	15.789
240.91	4.348
241.28	28.571
241.65	44.643
242.02	26.027
242.40	25.000
242.77	35.593
243.14	27.273
243.51	32.500
243.89	56.322
244.26	32.184
244.63	33.333
245.00	42.268
245.38	39.175
245.75	35.955
246.12	35.345
246.49	37.190
246.87	42.308
247.24	36.134
247.61	31.579
247.98	41.463
248.36	37.500
248.73	47.368
249.10	37.013
249.47	44.304
249.84	46.405
250.22	35.882
250.59	39.869
250.96	38.498
251.33	36.628
251.70	42.941
252.08	45.178
252.45	42.574
252.82	44.221
253.19	37.788
253.56	33.178
253.94	41.441
254.31	37.391
254.68	40.789
255.05	38.583
255.42	44.541
255.79	41.699
256.16	41.634
256.54	42.164
256.91	39.544
257.28	41.264
257.65	37.828
258.02	41.135
258.39	42.424
258.76	41.758
259.14	40.199
259.51	38.511
259.88	42.268
260.25	40.523
260.62	44.097
260.99	38.983
261.36	38.014
261.73	43.038
262.10	40.426
262.47	45.706
262.85	41.379
263.22	40.308
263.59	41.433
263.96	42.236
264.33	39.394
264.70	42.560
265.07	40.476
265.44	41.643
265.81	40.113
266.18	40.164
266.55	42.416
266.92	41.710
267.29	37.859
267.66	38.363
268.03	42.147
268.40	39.426
268.77	43.850
269.14	41.247
269.51	41.388
269.88	38.903
270.25	40.561
270.62	37.805
270.99	38.107
271.36	39.609
271.73	39.202
272.10	41.363
272.47	40.662
272.84	39.851
273.21	41.763
273.58	38.554
273.95	39.588
274.32	35.797
274.69	38.688
275.06	39.955
275.43	41.270
275.80	39.514
276.17	37.011
276.54	38.330
276.91	39.693
277.28	36.681
277.65	39.463
278.02	38.723
278.39	37.418
278.76	37.317
279.13	35.270
279.50	38.655
279.87	38.229
280.23	39.140
280.60	38.596
280.97	40.808
281.34	36.346
281.71	41.068
282.08	38.241
282.45	38.160
282.82	36.873
283.19	40.232
283.56	38.921
283.92	39.658
284.29	38.654
284.66	37.209
285.03	36.346
285.40	35.728
285.77	33.568
286.14	36.101
286.51	39.668
286.87	35.466
287.24	37.937
287.61	36.155
287.98	38.070
288.35	34.142
288.72	37.478
289.08	39.410
289.45	37.434
289.82	35.315
290.19	32.935
290.56	34.134
290.93	33.333
291.29	32.512
291.66	34.488
292.03	34.609
292.40	33.065
292.77	31.738
293.13	31.169
293.50	30.197
293.87	31.450
294.24	31.066
294.60	32.489
294.97	29.167
295.34	29.755
295.71	30.700
296.08	31.091
296.44	27.169
296.81	29.444
297.18	27.971
297.55	29.268
297.91	29.041
298.28	29.288
298.65	27.137
299.02	26.550
299.38	26.949
299.75	27.172
300.12	27.487
300.48	27.800
300.85	27.883
301.22	26.494
301.59	26.447
301.95	26.709
302.32	28.923
302.69	27.488
303.05	25.990
303.42	26.276
303.79	25.935
304.15	26.882
304.52	26.278
304.89	26.316
305.25	26.271
305.62	24.271
305.99	25.614
306.35	26.012
306.72	25.647
307.09	25.656
307.45	25.603
307.82	25.231
308.19	26.481
308.55	24.100
308.92	26.797
309.29	23.128
309.65	23.897
310.02	25.413
310.38	24.369
310.75	24.918
311.12	26.480
311.48	24.178
311.85	24.084
312.22	24.051
312.58	22.824
312.95	23.799
313.31	24.638
313.68	24.084
314.05	24.694
314.41	24.227
314.78	24.948
315.14	26.002
315.51	24.431
315.87	23.770
316.24	24.975
316.61	24.016
316.97	24.702
317.34	24.512
317.70	23.901
318.07	25.192
318.43	24.314
318.80	22.917
319.16	24.609
319.53	24.786
319.89	24.508
320.26	24.696
320.62	25.176
320.99	23.695
321.35	23.947
321.72	25.545
322.08	24.068
322.45	23.249
322.81	23.183
323.18	22.866
323.54	23.649
323.91	23.369
324.27	23.535
324.64	24.064
325.00	23.631
325.37	25.253
325.73	23.119
326.10	25.068
326.46	24.036
326.83	23.972
327.19	24.412
327.56	24.587
327.92	24.560
328.29	22.679
328.65	23.774
329.01	23.070
329.38	23.594
329.74	22.946
330.11	23.540
330.47	23.284
330.84	23.462
331.20	24.335
331.56	23.426
331.93	24.475
332.29	24.565
332.66	23.620
333.02	23.327
333.38	23.556
333.75	24.451
334.11	23.814
334.48	23.572
334.84	22.802
335.20	23.788
335.57	22.847
335.93	23.668
336.29	23.665
336.66	22.616
337.02	23.513
337.38	23.148
337.75	23.182
338.11	23.805
338.47	23.996
338.84	23.937
339.20	22.852
339.56	23.578
339.93	23.724
340.29	21.927
340.65	23.387
341.02	23.404
341.38	23.186
341.74	22.085
342.11	21.231
342.47	23.665
342.83	23.097
343.20	23.171
343.56	23.739
343.92	22.675
344.28	23.740
344.65	22.539
345.01	22.299
345.37	23.213
345.73	22.678
346.10	23.814
346.46	21.951
346.82	22.013
347.19	22.111
347.55	21.303
347.91	23.382
348.27	22.716
348.63	22.743
349.00	22.559
349.36	22.195
349.72	23.466
350.08	22.213
350.45	22.346
350.81	21.429
351.17	22.068
351.53	22.041
351.89	21.800
352.26	21.840
352.62	22.419
352.98	22.008
353.34	21.578
353.70	22.087
354.07	21.613
354.43	22.258
354.79	21.635
355.15	22.778
355.51	22.231
355.87	22.006
356.24	20.392
356.60	21.665
356.96	22.302
357.32	20.208
357.68	21.188
358.04	21.405
358.40	22.186
358.77	20.255
359.13	21.938
359.49	20.570
359.85	21.529
360.21	20.415
360.57	21.500
360.93	21.180
361.29	19.789
361.66	21.944
362.02	22.273
362.38	21.935
362.74	20.742
363.10	21.520
363.46	20.830
363.82	22.389
364.18	20.221
364.54	21.544
364.90	20.573
365.26	20.888
365.62	21.825
365.98	20.308
366.35	21.850
366.71	20.177
367.07	21.335
367.43	20.489
367.79	20.495
368.15	20.388
368.51	20.830
368.87	20.172
369.23	19.422
369.59	20.190
369.95	20.894
370.31	19.798
370.67	20.672
371.03	19.417
371.39	19.912
371.75	19.780
372.11	20.114
372.47	20.636
372.83	20.227
373.19	20.471
373.55	19.495
373.91	19.222
374.27	20.482
374.63	19.598
374.99	19.504
375.35	20.474
375.71	20.909
376.07	19.733
376.42	20.068
376.78	18.926
377.14	19.025
377.50	19.987
377.86	19.746
378.22	20.485
378.58	19.487
378.94	19.030
379.30	19.651
379.66	20.878
380.02	19.497
380.38	19.051
380.74	19.808
381.09	20.613
381.45	19.083
381.81	19.494
382.17	19.543
382.53	19.051
382.89	18.770
383.25	19.664
383.61	19.451
383.97	18.794
384.32	19.387
384.68	19.567
385.04	18.811
385.40	19.415
385.76	20.126
386.12	19.146
386.48	19.987
386.83	19.594
387.19	19.109
387.55	19.887
387.91	18.949
388.27	18.864
388.62	19.950
388.98	19.153
389.34	20.050
389.70	19.453
390.06	18.880
390.42	19.495
390.77	18.770
391.13	19.420
391.49	19.728
391.85	18.778
392.20	18.142
392.56	18.563
392.92	19.201
393.28	19.222
393.64	18.859
393.99	19.624
394.35	19.545
394.71	19.540
395.07	18.416
395.42	18.640
395.78	19.544
396.14	18.222
396.50	19.404
396.85	19.317
397.21	18.922
397.57	18.934
397.92	19.053
398.28	19.828
398.64	18.313
399.00	19.582
399.35	19.074
399.71	19.299
400.07	19.226
400.42	18.543
400.78	19.106
401.14	18.935
401.49	19.952
401.85	18.891
402.21	19.578
402.57	18.938
402.92	18.883
403.28	18.797
403.63	17.591
403.99	18.559
404.35	19.176
404.70	18.810
405.06	18.684
405.42	18.210
405.77	18.420
406.13	18.452
406.49	18.591
406.84	19.132
407.20	19.266
407.55	17.257
407.91	19.051
408.27	18.228
408.62	18.585
408.98	19.347
409.34	19.145
409.69	18.540
410.05	18.534
410.40	19.012
410.76	18.637
411.11	18.437
411.47	19.264
411.83	18.393
412.18	18.468
412.54	17.478
412.89	17.549
413.25	18.532
413.60	18.385
413.96	18.344
414.31	18.780
414.67	17.319
415.03	18.775
415.38	17.363
415.74	18.893
416.09	18.223
416.45	18.231
416.80	18.440
417.16	19.406
417.51	19.254
417.87	18.709
418.22	18.718
418.58	18.997
418.93	18.245
419.29	17.734
419.64	17.758
420.00	19.458
420.35	18.806
420.71	19.502
421.06	18.109
421.42	18.750
421.77	19.306
422.12	18.275
422.48	18.192
422.83	18.039
423.19	19.526
423.54	18.519
423.90	17.668
424.25	18.312
424.61	18.605
424.96	17.944
425.31	19.006
425.67	18.251
426.02	19.552
426.38	18.660
426.73	19.189
427.09	19.684
427.44	18.471
427.79	18.562
428.15	19.114
428.50	17.747
428.85	17.690
429.21	18.902
429.56	18.544
429.92	19.158
430.27	18.546
430.62	18.975
430.98	18.631
431.33	19.558
431.68	18.681
432.04	18.949
432.39	18.311
432.74	18.040
433.10	19.770
433.45	18.638
433.80	18.979
434.16	18.338
434.51	18.656
434.86	18.235
435.22	18.845
435.57	19.027
435.92	19.222
436.28	18.962
436.63	18.197
436.98	18.076
437.34	18.693
437.69	18.784
438.04	18.519
438.39	18.082
438.75	18.640
439.10	18.676
439.45	18.685
439.81	17.982
440.16	18.943
440.51	18.806
440.86	19.396
441.22	18.043
441.57	18.819
441.92	18.730
442.27	18.459
442.63	19.111
442.98	18.840
443.33	18.030
443.68	18.621
444.03	19.026
444.39	18.347
444.74	19.398
445.09	19.209
445.44	18.462
445.79	19.856
446.15	18.833
446.50	17.748
446.85	18.704
447.20	18.405
447.55	19.029
447.91	17.936
448.26	18.782
448.61	19.632
448.96	18.531
449.31	18.497
449.66	18.467
450.02	19.110
450.37	19.324
450.72	18.557
451.07	18.924
451.42	18.477
451.77	19.168
452.12	18.541
452.47	18.609
452.83	17.727
453.18	17.963
453.53	19.153
453.88	18.276
454.23	18.685
454.58	18.892
454.93	18.814
455.28	17.587
455.63	19.219
455.98	19.302
456.34	17.561
456.69	18.996
457.04	19.975
457.39	17.801
457.74	18.077
458.09	18.069
458.44	18.373
458.79	18.824
459.14	18.478
459.49	19.284
459.84	19.233
460.19	18.871
460.54	19.560
460.89	18.580
461.24	18.634
461.59	18.884
461.94	17.547
462.29	18.637
462.64	18.804
462.99	18.280
463.34	18.428
463.69	17.761
464.04	18.523
464.39	18.253
464.74	18.466
465.09	18.528
465.44	18.869
465.79	18.651
466.14	18.187
466.49	18.286
466.84	19.036
467.19	18.335
467.54	17.752
467.89	18.067
468.24	18.856
468.59	18.984
468.94	17.905
469.29	18.623
469.64	18.524
469.99	18.641
470.34	17.338
470.68	19.090
471.03	18.330
471.38	18.117
471.73	18.207
472.08	18.725
472.43	17.584
472.78	18.369
473.13	18.571
473.48	18.502
473.83	17.621
474.17	18.264
474.52	17.805
474.87	18.121
475.22	18.670
475.57	17.674
475.92	18.760
476.27	18.102
476.61	18.229
476.96	17.513
477.31	18.226
477.66	18.146
478.01	18.585
478.36	17.702
478.70	18.815
479.05	17.802
479.40	18.071
479.75	17.205
480.10	17.665
480.45	17.000
480.79	18.530
481.14	18.186
481.49	17.882
481.84	18.195
482.19	17.867
482.53	18.849
482.88	18.425
483.23	17.802
483.58	17.925
483.92	17.909
484.27	17.639
484.62	18.064
484.97	17.662
485.31	17.775
485.66	18.109
486.01	18.444
486.36	18.628
486.70	18.775
487.05	18.472
487.40	18.614
487.75	17.915
488.09	17.645
488.44	17.744
488.79	18.080
489.13	17.949
489.48	18.213
489.83	17.892
490.17	17.573
490.52	18.199
490.87	17.214
491.22	17.908
491.56	17.315
491.91	17.830
492.26	18.230
492.60	17.610
492.95	18.200
493.30	17.978
493.64	17.731
493.99	17.826
494.34	17.476
494.68	17.905
495.03	17.324
495.37	18.008
495.72	17.819
496.07	17.902
496.41	18.302
496.76	18.194
497.11	18.118
497.45	18.282
497.80	17.911
498.14	17.337
498.49	17.420
498.84	17.166
499.18	17.319
499.53	18.552
499.87	17.412
500.22	17.359
500.56	18.356
500.91	17.821
501.26	17.499
501.60	18.052
501.95	17.467
502.29	17.676
502.64	17.423
502.98	17.612
503.33	17.147
503.67	17.831
504.02	18.035
504.36	18.209
504.71	17.626
505.06	17.464
505.40	17.360
505.75	17.577
506.09	17.334
506.44	18.224
506.78	18.214
507.13	17.684
507.47	17.023
507.82	16.987
508.16	17.591
508.51	17.524
508.85	17.373
509.19	17.084
509.54	16.729
509.88	16.721
510.23	17.321
510.57	16.729
510.92	16.258
511.26	16.858
511.61	17.657
511.95	17.534
512.30	18.071
512.64	17.028
512.98	17.350
513.33	17.292
513.67	17.112
514.02	17.735
514.36	17.543
514.70	18.415
515.05	17.861
515.39	17.237
515.74	17.844
516.08	16.139
516.42	17.314
516.77	17.379
517.11	17.092
517.46	17.175
517.80	17.759
518.14	16.412
518.49	16.526
518.83	17.679
519.17	15.888
519.52	16.933
519.86	17.107
520.20	16.768
520.55	17.073
520.89	17.378
521.23	17.163
521.58	17.792
521.92	16.795
522.26	17.176
522.61	17.013
522.95	17.748
523.29	17.535
523.64	17.662
523.98	17.693
524.32	15.786
524.66	17.798
525.01	17.403
525.35	18.082
525.69	15.960
526.04	17.659
526.38	17.445
526.72	17.266
527.06	17.056
527.41	17.744
527.75	16.890
528.09	17.209
528.43	17.893
528.78	16.766
529.12	17.613
529.46	16.569
529.80	17.543
530.15	18.152
530.49	17.441
530.83	18.057
531.17	16.320
531.51	17.100
531.86	17.199
532.20	17.258
532.54	16.882
532.88	17.864
533.22	17.742
533.57	17.497
533.91	17.232
534.25	18.099
534.59	17.575
534.93	16.237
535.27	17.132
535.62	17.045
535.96	17.025
536.30	16.095
536.64	17.505
536.98	17.282
537.32	17.568
537.66	17.041
538.01	16.783
538.35	17.129
538.69	17.510
539.03	15.858
539.37	17.968
539.71	17.519
540.05	16.768
540.39	18.144
540.73	17.364
541.07	17.472
541.42	18.011
541.76	17.894
542.10	17.068
542.44	16.122
542.78	16.380
543.12	16.621
543.46	16.968
543.80	17.280
544.14	16.822
544.48	17.455
544.82	17.840
545.16	17.896
545.50	17.423
545.84	17.351
546.18	17.447
546.52	17.664
546.86	17.757
547.20	17.525
547.54	16.396
547.88	17.867
548.22	17.094
548.56	17.678
548.90	16.981
549.24	17.149
549.58	17.348
549.92	16.226
550.26	16.190
550.60	16.877
550.94	17.326
551.28	15.997
551.62	16.846
551.96	17.068
552.30	17.178
552.64	15.867
552.98	16.526
553.32	17.332
553.66	16.038
554.00	17.883
554.34	17.799
554.68	15.855
555.02	17.113
555.36	17.502
555.69	16.484
556.03	16.774
556.37	16.370
556.71	17.617
557.05	17.301
557.39	16.431
557.73	15.742
558.07	16.968
558.41	16.692
558.75	16.368
559.08	16.627
559.42	16.984
559.76	17.614
560.10	17.431
560.44	16.158
560.78	16.783
561.12	16.502
561.45	16.725
561.79	17.927
562.13	16.608
562.47	15.899
562.81	17.291
563.15	16.925
563.48	16.478
563.82	17.364
564.16	17.549
564.50	16.892
564.84	17.202
565.17	16.901
565.51	17.281
565.85	17.695
566.19	17.573
566.52	17.560
566.86	17.738
567.20	17.186
567.54	17.579
567.88	18.219
568.21	18.100
568.55	17.337
568.89	18.172
569.23	18.151
569.56	17.644
569.90	18.352
570.24	18.459
570.57	17.927
570.91	18.543
571.25	17.593
571.59	18.094
571.92	17.689
572.26	17.874
572.60	17.984
572.93	17.603
573.27	18.056
573.61	17.601
573.95	17.804
574.28	17.876
574.62	17.747
574.96	18.050
575.29	17.895
575.63	17.492
575.97	17.755
576.30	17.683
576.64	17.536
576.98	18.481
577.31	17.867
577.65	18.349
577.98	18.597
578.32	18.081
578.66	17.795
578.99	18.273
579.33	18.036
579.67	17.512
580.00	18.101
580.34	18.109
580.67	17.285
581.01	18.108
581.35	18.131
581.68	18.244
582.02	18.444
582.35	17.902
582.69	18.407
583.02	18.223
583.36	17.861
583.70	17.991
584.03	18.210
584.37	18.267
584.70	18.077
585.04	17.668
585.37	17.961
585.71	17.971
586.04	18.003
586.38	17.711
586.72	18.106
587.05	18.775
587.39	18.507
587.72	18.835
588.06	18.323
588.39	18.257
588.73	18.193
589.06	18.200
589.40	18.147
589.73	18.766
590.07	17.825
590.40	18.266
590.73	18.328
591.07	16.836
591.40	17.676
591.74	17.421
592.07	18.135
592.41	18.110
592.74	17.921
593.08	17.779
593.41	17.496
593.75	17.861
594.08	17.267
594.41	17.758
594.75	17.557
595.08	18.048
595.42	17.998
595.75	17.987
596.09	17.514
596.42	17.859
596.75	18.206
597.09	18.041
597.42	17.841
597.75	18.140
598.09	17.565
598.42	17.464
598.76	17.975
599.09	17.508
599.42	17.279
599.76	17.645
600.09	17.949
600.42	17.741
600.76	17.273
601.09	17.443
601.42	17.822
601.76	17.428
602.09	17.574
602.42	17.776
602.76	18.081
603.09	18.023
603.42	18.687
603.76	17.500
604.09	16.889
604.42	17.851
604.76	17.490
605.09	17.733
605.42	17.065
605.75	17.469
606.09	17.367
606.42	17.556
606.75	17.792
607.09	18.286
607.42	17.501
607.75	17.407
608.08	16.487
608.42	17.908
608.75	17.301
609.08	16.841
609.41	17.513
609.75	17.591
610.08	17.524
610.41	17.101
610.74	17.455
611.07	18.088
611.41	17.800
611.74	17.964
612.07	16.649
612.40	18.271
612.73	17.401
613.07	17.773
613.40	17.615
613.73	16.788
614.06	16.973
614.39	17.766
614.72	16.751
615.06	17.374
615.39	16.157
615.72	17.330
616.05	17.374
616.38	16.752
616.71	16.636
617.05	17.233
617.38	16.342
617.71	17.547
618.04	17.143
618.37	17.150
618.70	17.426
619.03	17.986
619.36	16.860
619.69	16.603
620.03	17.677
620.36	17.239
620.69	16.702
621.02	16.743
621.35	17.261
621.68	17.007
622.01	16.583
622.34	16.441
622.67	15.931
623.00	16.692
623.33	16.463
623.66	17.053
623.99	17.776
624.32	17.719
624.65	15.940
624.99	17.682
625.32	16.452
625.65	17.675
625.98	17.083
626.31	17.290
626.64	16.638
626.97	16.928
627.30	16.725
627.63	17.591
627.96	17.161
628.29	16.466
628.62	17.797
628.95	17.335
629.28	17.339
629.61	15.753
629.94	17.400
630.26	16.601
630.59	18.418
630.92	16.615
631.25	16.513
631.58	16.189
631.91	15.680
632.24	15.482
632.57	16.136
632.90	16.370
633.23	15.647
633.56	14.232
633.89	15.536
634.22	15.679
634.55	16.010
634.88	16.220
635.20	15.897
635.53	15.200
635.86	14.174
636.19	16.688
636.52	16.199
636.85	16.625
637.18	14.843
637.51	16.352
637.83	16.426
638.16	18.008
638.49	14.033
638.82	16.579
639.15	14.654
639.48	14.856
639.81	15.202
640.13	15.873
640.46	16.035
640.79	16.348
641.12	17.430
641.45	13.814
641.77	15.704
642.10	14.850
642.43	13.505
642.76	16.007
643.09	16.478
643.41	13.916
643.74	14.662
644.07	14.614
644.40	15.372
644.73	14.711
645.05	15.604
645.38	15.520
645.71	15.071
646.04	16.158
646.36	14.007
646.69	16.547
647.02	16.824
647.35	14.179
647.67	15.356
648.00	17.164
648.33	17.235
648.66	14.407
648.98	13.903
649.31	13.554
649.64	15.228
649.96	14.587
650.29	16.865
650.62	15.726
650.94	13.704
651.27	14.711
651.60	15.135
651.92	15.909
652.25	16.163
652.58	17.000
652.90	17.153
653.23	14.454
653.56	14.721
653.88	15.120
654.21	13.835
654.54	14.941
654.86	15.280
655.19	16.228
655.52	18.885
655.84	19.107
656.17	21.289
656.49	28.922
656.82	29.787
657.15	22.067
657.47	16.310
657.80	12.023
658.13	11.544
658.45	17.486
658.78	17.185
659.10	17.508
659.43	17.324
659.75	17.020
660.08	17.241
660.41	15.935
660.73	16.022
661.06	17.158
661.38	15.068
661.71	14.579
662.03	16.738
662.36	14.945
662.68	15.044
663.01	14.410
663.33	14.617
663.66	14.419
663.98	12.791
664.31	15.139
664.63	11.982
664.96	12.826
665.28	12.583
665.61	16.883
665.93	15.217
666.26	15.618
666.58	12.528
666.91	15.765
667.23	15.802
667.56	14.692
667.88	14.628
668.21	14.320
668.53	15.839
668.86	14.387
669.18	11.792
669.50	17.191
669.83	13.953
670.15	15.152
670.48	13.636
670.80	14.286
671.13	13.423
671.45	13.242
671.77	14.807
672.10	14.851
672.42	15.918
672.75	18.117
673.07	18.247
673.39	16.881
673.72	13.018
674.04	16.250
674.37	15.466
674.69	15.632
675.01	13.111
675.34	13.739
675.66	15.509
675.98	15.299
676.31	15.367
676.63	15.914
676.95	15.000
677.28	18.118
677.60	15.663
677.92	14.220
678.25	15.536
678.57	15.368
678.89	12.815
679.22	14.541
679.54	15.261
679.86	11.531
680.18	15.922
680.51	15.530
680.83	13.519
681.15	14.400
681.48	17.008
681.80	17.355
682.12	16.532
682.44	15.063
682.77	16.777
683.09	12.815
683.41	15.227
683.73	13.594
684.06	12.611
684.38	11.613
684.70	16.993
685.02	13.485
685.34	14.625
685.67	17.636
685.99	17.541
686.31	15.575
686.63	14.100
686.96	15.209
687.28	13.535
687.60	13.118
687.92	16.768
688.24	14.516
688.56	15.284
688.89	12.500
689.21	14.667
689.53	15.313
689.85	14.186
690.17	16.071
690.49	13.239
690.82	12.621
691.14	13.571
691.46	16.355
691.78	13.514
692.10	12.903
692.42	14.502
692.74	14.957
693.06	16.216
693.39	10.633
693.71	13.801
694.03	12.702
694.35	16.121
694.67	13.131
694.99	13.055
695.31	12.010
695.63	15.250
695.95	12.879
696.27	12.435
696.59	15.278
696.91	15.686
697.23	14.653
697.56	12.624
697.88	17.204
698.20	14.351
698.52	14.824
698.84	12.679
699.16	13.750
699.48	15.038
699.80	12.903
700.12	15.364
700.44	13.445
700.76	13.081
701.08	10.000
701.40	15.060
701.72	17.901
702.04	10.891
702.36	13.378
702.68	13.514
703.00	12.121
703.32	12.023
703.64	13.842
703.96	15.072
704.28	15.644
704.60	14.286
704.91	11.987
705.23	13.289
705.55	19.435
705.87	14.801
706.19	11.481
706.51	13.058
706.83	15.756
707.15	11.215
707.47	15.966
707.79	12.240
708.11	17.750
708.43	15.000
708.74	16.796
709.06	16.338
709.38	17.431
709.70	16.864
710.02	16.242
710.34	14.861
710.66	13.141
710.98	14.238
711.29	14.754
711.61	13.559
711.93	17.264
712.25	19.244
712.57	15.385
712.89	11.567
713.20	13.149
713.52	14.983
713.84	12.628
714.16	10.653
714.48	12.258
714.80	16.346
715.11	17.629
715.43	11.912
715.75	13.667
716.07	16.279
716.39	13.758
716.70	12.177
717.02	10.305
717.34	17.409
717.66	13.717
717.97	13.913
718.29	12.971
718.61	14.173
718.93	13.178
719.24	14.829
719.56	15.261
719.88	15.808
720.20	14.773
720.51	13.410
720.83	15.058
721.15	13.445
721.46	16.532
721.78	7.115
722.10	13.011
722.42	10.788
722.73	15.510
723.05	18.776
723.37	16.949
723.68	17.568
724.00	15.812
724.32	9.778
724.63	11.364
724.95	12.664
725.27	9.217
725.58	13.136
725.90	13.095
726.22	14.286
726.53	16.271
726.85	16.479
727.16	19.623
727.48	8.907
727.80	12.551
728.11	13.136
728.43	11.373
728.74	12.097
729.06	16.000
729.38	21.805
729.69	12.351
730.01	13.846
730.32	14.925
730.64	16.961
730.96	19.623
731.27	14.000
731.59	14.237
731.90	15.924
732.22	13.565
732.53	17.608
732.85	15.248
733.16	16.835
733.48	13.309
733.80	15.580
734.11	14.576
734.43	10.997
734.74	16.364
735.06	13.029
735.37	17.523
735.69	14.141
736.00	16.376
736.32	12.416
736.63	13.380
736.95	15.017
737.26	16.370
737.58	14.430
737.89	13.187
738.21	15.414
738.52	15.638
738.83	14.847
739.15	10.044
739.46	12.598
739.78	14.286
740.09	17.647
740.41	16.667
740.72	13.386
741.04	16.194
741.35	13.191
741.66	14.218
741.98	12.755
742.29	15.347
742.61	14.136
742.92	9.479
743.23	13.426
743.55	13.575
743.86	13.876
744.18	11.483
744.49	9.043
744.80	13.587
745.12	14.973
745.43	10.244
745.74	14.062
746.06	9.756
746.37	14.660
746.68	11.374
747.00	15.426
747.31	17.910
747.62	13.107
747.94	15.311
748.25	11.881
748.56	11.475
748.88	10.471
749.19	20.213
749.50	10.345
749.82	11.792
750.13	11.927
750.44	15.789
750.75	14.179
751.07	18.248
751.38	15.709
751.69	11.373
752.01	16.279
752.32	13.546
752.63	16.996
752.94	15.517
753.26	19.665
753.57	14.932
753.88	12.832
754.19	10.833
754.51	15.289
754.82	12.955
755.13	16.250
755.44	14.919
755.75	16.016
756.07	14.008
756.38	16.981
756.69	14.176
757.00	10.667
757.31	15.686
757.63	13.110
757.94	13.611
758.25	16.986
758.56	16.489
758.87	12.181
759.18	16.511
759.50	14.909
759.81	14.716
760.12	14.839
760.43	14.242
760.74	16.049
761.05	14.462
761.36	16.477
761.67	16.364
761.99	17.687
762.30	10.182
762.61	12.648
762.92	12.670
763.23	14.865
763.54	10.748
763.85	13.136
764.16	12.448
764.47	11.694
764.78	15.018
765.10	17.845
765.41	17.350
765.72	14.603
766.03	11.278
766.34	17.883
766.65	13.546
766.96	13.636
767.27	11.702
767.58	10.920
767.89	9.220
768.20	9.091
768.51	15.934
768.82	14.778
769.13	9.217
769.44	7.296
769.75	5.479
770.06	14.655
770.37	14.423
770.68	13.198
770.99	9.502
771.30	16.667
771.61	15.837
771.92	14.655
772.23	15.764
772.54	12.903
772.85	17.284
773.16	10.112
773.47	20.261
773.78	18.301
774.09	9.581
774.39	10.000
774.70	10.828
775.01	14.483
775.32	15.714
775.63	9.091
775.94	11.450
776.25	14.173
776.56	10.833
776.87	3.846
777.18	6.838
777.48	15.517
777.79	0.870
778.10	-0.952
778.41	4.505
778.72	12.698
779.03	8.271
779.34	17.730
779.65	15.753
779.95	6.849
780.26	11.724
780.57	9.756
780.88	8.661
781.19	12.069
781.50	7.752
781.80	15.385
782.11	15.094
782.42	15.385
782.73	11.511
783.04	13.333
783.34	11.806
783.65	2.564
783.96	12.295
784.27	15.862
784.57	7.317
784.88	12.500
785.19	16.000
785.50	14.000
785.81	12.069
786.11	15.517
786.42	7.767
786.73	15.455
787.04	13.265
787.34	14.286
787.65	8.571
787.96	6.195
788.26	17.273
788.57	11.111
788.88	19.531
789.19	6.349
789.49	13.043
789.80	1.020
790.11	2.020
790.41	15.455
790.72	10.870
791.03	7.955
791.33	13.750
791.64	3.750
791.95	-1.163
792.25	8.511
792.56	12.360
792.87	-1.370
793.17	11.594
793.48	2.667
793.79	-8.750
794.09	8.750
794.40	7.547
794.70	14.563
795.01	2.439
795.32	18.803
795.62	10.476
795.93	9.804
796.23	16.038
796.54	5.208
796.85	8.824
797.15	4.225
797.46	13.889
797.76	9.091
798.07	4.651
798.37	-3.947
798.68	-3.030
798.99	8.642
799.29	-2.857
799.60	10.145
799.90	14.667
800.21	1.639
800.51	6.154
800.82	0.000
801.12	17.391
801.43	4.918
801.73	12.698
802.04	-10.000
802.34	-7.463
802.65	-3.846
802.95	-12.500
803.26	-17.308
803.56	9.804
803.87	-23.913
804.17	14.667
804.48	11.111
804.78	-11.111
805.09	-6.522
805.39	-13.333
805.70	-1.852
806.00	0.000
806.30	14.085
806.61	4.286
806.91	-11.111
807.22	22.368
807.52	20.000
807.83	3.636
808.13	6.944
808.43	19.118
808.74	-11.940
809.04	-5.085
809.35	3.846
809.65	14.062
809.95	-40.541
810.26	-9.091
810.56	5.479
810.86	19.048
811.17	4.000
811.47	12.245
811.77	-7.895
812.08	-18.182
812.38	5.660
812.69	-12.500
812.99	-3.030
813.29	10.526
813.59	0.000
813.90	13.636
814.20	-46.154
814.50	15.385
814.81	7.547
815.11	-2.128
815.41	15.254
815.72	7.143
816.02	39.216
816.32	8.333
816.62	9.756
816.93	-13.514
817.23	-14.286
817.53	25.000
817.84	2.174
818.14	5.769
818.44	-13.158
818.74	10.870
819.04	-25.000
819.35	5.405
819.65	-29.412
819.95	-27.778
820.25	-11.905
820.56	17.500
820.86	-34.483
821.16	7.500
821.46	12.766
821.76	5.000
822.07	2.326
822.37	-32.432
822.67	-28.125
822.97	30.952
823.27	-28.571
823.57	-8.000
823.88	-48.148
824.18	-7.143
824.48	-14.706
824.78	-6.452
825.08	30.435
825.38	-15.152
825.69	-50.000
825.99	-7.895
826.29	-11.111
826.59	-93.333
826.89	-76.190
827.19	26.087
827.49	-7.500
827.79	0.000
828.09	-25.000
828.39	-9.091
828.70	45.946
829.00	-25.000
829.30	-33.333
829.60	-6.667
829.90	3.125
830.20	-10.526
830.50	-3.704
830.80	-43.478
831.10	-18.182
831.40	15.152
831.70	3.226
832.00	-19.048
832.30	-42.857
832.60	-66.667
832.90	6.897
833.20	-80.000
833.50	9.091
833.80	-33.333
834.10	-7.692
834.40	12.500
834.70	-155.556
835.00	15.789
835.30	7.692
835.60	-53.333
835.90	16.129
836.20	-45.455
836.50	7.143
836.80	-42.308
837.10	17.857
837.40	-133.333
837.70	18.182
838.00	-18.182
838.30	-17.391
838.60	-100.000
838.90	-13.636
839.19	28.571
839.49	23.333
839.79	-23.077
840.09	-116.667
840.39	10.714
840.69	-32.143
840.99	-30.769
841.29	-84.211
841.59	-110.000
841.88	-81.818
842.18	-20.000
842.48	18.750
842.78	0.000
843.08	22.222
843.38	-140.000
843.68	0.000
843.97	-33.333
844.27	-66.667
844.57	-20.000
844.87	-44.444
845.17	-28.571
845.47	-33.333
845.76	19.048
846.06	5.882
846.36	-10.000
846.66	-57.143
846.96	-80.000
847.25	-150.000
847.55	-35.714
847.85	87.500
848.15	-18.182
848.44	-433.333
848.74	0.000
849.04	37.037
849.34	45.455
849.63	-283.333
849.93	-240.000
850.23	-100.000
850.53	10.000
850.82	-15.385
851.12	-100.000
851.42	40.000
851.71	-3.846
852.01	-7.143
852.31	-350.000
852.61	-54.545
852.90	-15.000
853.20	-31.579
853.50	0.000
853.79	-13.043
854.09	-4.167
854.39	-31.579
854.68	0.000
854.98	3.226
855.28	26.923
855.57	30.000
855.87	-27.778
856.17	33.333
856.46	-7.143
856.76	0.000
857.05	-55.556
857.35	32.000
857.65	-16.667
857.94	0.000
858.24	3.448
858.53	16.667
858.83	22.222
859.13	13.636
859.42	-8.696
859.72	-250.000
860.01	-500.000
860.31	20.000
860.60	38.095
860.90	-200.000
861.20	-113.333
861.49	-250.000
861.79	-26.667
862.08	10.000
862.38	13.333
862.67	-40.000
862.97	-200.000
863.26	0.000
863.56	83.333
863.85	-533.333
864.15	-11.111
864.44	-10.000
864.74	-7.143
865.03	250.000
865.33	-320.000
865.62	0.000
865.92	8.333
866.21	-266.667
866.51	-6.250
866.80	-18.182
867.10	-300.000
867.39	0.000
867.69	0.000
867.98	15.385
868.27	-233.333
868.57	-20.000
868.86	5.556
869.16	-130.769
869.45	-13.333
869.75	-1300.000
870.04	0.000
870.33	-157.143
870.63	-4.762
870.92	233.333
871.22	-160.000
871.51	-800.000
871.80	33.333
872.10	200.000
>>>>>End Processed Spectral Data<<<<<
