SpectraSuite Data File
++++++++++++++++++++++++++++++++++++
Date: Fri May 15 20:48:12 PDT 2015
User: schluterlab
Dark Spectrum Present: Yes
Reference Spectrum Present: Yes
Number of Sampled Component Spectra: 1
Spectrometers: USB2E3373
Integration Time (usec): 3000 (USB2E3373)
Spectra Averaged: 3 (USB2E3373)
Boxcar Smoothing: 0 (USB2E3373)
Correct for Electrical Dark: No (USB2E3373)
Strobe/Lamp Enabled: No (USB2E3373)
Correct for Detector Non-linearity: No (USB2E3373)
Correct for Stray Light: No (USB2E3373)
Number of Pixels in Processed Spectrum: 2048
>>>>>Begin Processed Spectral Data<<<<<
178.53	0.000
178.91	0.000
179.29	12.500
179.67	-600.000
180.04	-14.286
180.42	-25.000
180.80	-1100.000
181.18	100.000
181.56	650.000
181.94	-500.000
182.31	400.000
182.69	-280.000
183.07	-266.667
183.45	-280.000
183.83	383.333
184.20	-27.273
184.58	144.444
184.96	-100.000
185.34	-66.667
185.72	-850.000
186.09	84.615
186.47	-1500.000
186.85	33.333
187.23	200.000
187.61	-300.000
187.98	100.000
188.36	-11.111
188.74	-400.000
189.12	29.412
189.49	38.889
189.87	0.000
190.25	7.143
190.63	-50.000
191.00	-433.333
191.38	-47.368
191.76	250.000
192.14	225.000
192.51	-100.000
192.89	-33.333
193.27	-114.286
193.65	116.667
194.02	254.545
194.40	-30.000
194.78	-250.000
195.15	-91.667
195.53	-62.500
195.91	150.000
196.29	-400.000
196.66	146.154
197.04	300.000
197.42	22.222
197.79	-566.667
198.17	-138.462
198.55	2100.000
198.92	-466.667
199.30	-600.000
199.68	-80.000
200.05	-400.000
200.43	0.000
200.81	233.333
201.18	-100.000
201.56	1100.000
201.94	-350.000
202.31	-66.667
202.69	-300.000
203.07	175.000
203.44	-300.000
203.82	0.000
204.19	50.000
204.57	-200.000
204.95	112.500
205.32	10.000
205.70	42.857
206.08	-325.000
206.45	155.556
206.83	64.286
207.20	-128.571
207.58	800.000
207.96	-500.000
208.33	-20.000
208.71	-275.000
209.08	-183.333
209.46	-1200.000
209.84	-140.000
210.21	-1300.000
210.59	-57.143
210.96	-100.000
211.34	-150.000
211.71	0.000
212.09	-114.286
212.46	-2400.000
212.84	0.000
213.22	90.000
213.59	450.000
213.97	7.692
214.34	-27.273
214.72	-83.333
215.09	525.000
215.47	7.692
215.84	-109.091
216.22	-166.667
216.59	-200.000
216.97	100.000
217.34	-25.000
217.72	-340.000
218.09	87.500
218.47	137.500
218.84	-900.000
219.22	-44.444
219.59	40.000
219.97	566.667
220.34	300.000
220.72	-71.429
221.09	-175.000
221.47	-400.000
221.84	-850.000
222.22	-1150.000
222.59	-54.545
222.97	-25.000
223.34	-533.333
223.72	-28.571
224.09	-19.048
224.46	10.714
224.84	633.333
225.21	-30.000
225.59	0.000
225.96	-100.000
226.34	175.000
226.71	-71.429
227.08	-33.333
227.46	-62.500
227.83	-950.000
228.21	-11.111
228.58	-18.182
228.95	-125.000
229.33	100.000
229.70	-31.250
230.08	-287.500
230.45	-157.143
230.82	-71.429
231.20	-53.333
231.57	21.429
231.95	-28.571
232.32	-100.000
232.69	7.143
233.07	-233.333
233.44	-220.000
233.81	-120.000
234.19	-11.111
234.56	-64.706
234.93	300.000
235.31	50.000
235.68	-240.000
236.05	-92.308
236.43	-45.000
236.80	-47.059
237.17	-6.250
237.55	-50.000
237.92	-29.630
238.29	0.000
238.67	-13.333
239.04	-17.647
239.41	-7.317
239.79	-6.667
240.16	-26.829
240.53	-36.842
240.91	-15.217
241.28	4.762
241.65	12.500
242.02	-5.479
242.40	5.000
242.77	8.475
243.14	-6.061
243.51	7.500
243.89	8.046
244.26	4.598
244.63	-2.381
245.00	0.000
245.38	10.309
245.75	-19.101
246.12	7.759
246.49	17.355
246.87	0.962
247.24	10.084
247.61	-4.386
247.98	6.504
248.36	3.125
248.73	7.237
249.10	2.597
249.47	6.329
249.84	1.307
250.22	2.353
250.59	4.575
250.96	11.737
251.33	-1.163
251.70	9.412
252.08	5.584
252.45	7.921
252.82	7.538
253.19	7.373
253.56	5.140
253.94	11.261
254.31	7.391
254.68	7.018
255.05	7.874
255.42	9.607
255.79	5.792
256.16	4.280
256.54	10.448
256.91	9.125
257.28	5.576
257.65	6.742
258.02	3.546
258.39	5.387
258.76	11.355
259.14	9.967
259.51	7.443
259.88	8.247
260.25	8.170
260.62	8.681
260.99	7.119
261.36	2.740
261.73	5.380
262.10	9.422
262.47	7.669
262.85	7.837
263.22	4.923
263.59	7.477
263.96	9.627
264.33	8.182
264.70	7.440
265.07	5.357
265.44	7.932
265.81	6.497
266.18	5.191
266.55	8.740
266.92	8.808
267.29	8.355
267.66	6.905
268.03	8.901
268.40	6.266
268.77	11.765
269.14	8.633
269.51	8.997
269.88	7.232
270.25	7.908
270.62	6.098
270.99	7.417
271.36	6.601
271.73	8.451
272.10	7.543
272.47	7.329
272.84	5.446
273.21	7.889
273.58	9.157
273.95	8.238
274.32	6.928
274.69	4.525
275.06	5.580
275.43	8.390
275.80	7.064
276.17	8.276
276.54	8.779
276.91	11.404
277.28	8.297
277.65	9.504
278.02	9.149
278.39	6.565
278.76	6.499
279.13	7.054
279.50	8.824
279.87	7.991
280.23	4.946
280.60	9.357
280.97	7.273
281.34	8.077
281.71	10.883
282.08	7.771
282.45	8.219
282.82	7.722
283.19	6.963
283.56	6.358
283.92	4.554
284.29	7.308
284.66	7.752
285.03	7.662
285.40	6.805
285.77	6.678
286.14	6.679
286.51	9.963
286.87	8.044
287.24	6.814
287.61	7.055
287.98	9.123
288.35	6.586
288.72	8.757
289.08	8.681
289.45	7.733
289.82	7.692
290.19	5.802
290.56	5.317
290.93	6.902
291.29	5.393
291.66	6.614
292.03	6.220
292.40	5.000
292.77	6.380
293.13	4.221
293.50	5.463
293.87	6.107
294.24	6.028
294.60	6.408
294.97	8.036
295.34	5.675
295.71	7.154
296.08	5.680
296.44	3.698
296.81	5.972
297.18	5.362
297.55	8.808
297.91	5.890
298.28	7.520
298.65	6.513
299.02	6.334
299.38	2.736
299.75	6.069
300.12	5.366
300.48	4.743
300.85	6.717
301.22	4.675
301.59	5.000
301.95	6.962
302.32	6.355
302.69	6.716
303.05	5.198
303.42	5.604
303.79	6.192
304.15	6.691
304.52	3.448
304.89	4.094
305.25	5.085
305.62	4.084
305.99	4.444
306.35	5.434
306.72	5.512
307.09	6.499
307.45	5.511
307.82	6.019
308.19	5.923
308.55	4.798
308.92	6.100
309.29	4.693
309.65	5.382
310.02	4.950
310.38	5.488
310.75	6.230
311.12	5.167
311.48	5.832
311.85	5.654
312.22	4.958
312.58	4.565
312.95	5.016
313.31	5.797
313.68	5.654
314.05	5.918
314.41	7.010
314.78	4.845
315.14	6.886
315.51	6.832
315.87	5.430
316.24	6.977
316.61	6.988
316.97	8.135
317.34	7.031
317.70	6.501
318.07	7.885
318.43	7.353
318.80	7.765
319.16	7.617
319.53	8.167
319.89	8.268
320.26	7.996
320.62	10.030
320.99	7.829
321.35	9.250
321.72	9.553
322.08	9.164
322.45	10.457
322.81	9.627
323.18	10.010
323.54	9.266
323.91	9.348
324.27	9.766
324.64	11.330
325.00	12.409
325.37	13.682
325.73	10.245
326.10	12.443
326.46	11.211
326.83	11.374
327.19	12.816
327.56	12.250
327.92	11.708
328.29	12.054
328.65	12.642
329.01	12.960
329.38	13.548
329.74	11.992
330.11	13.160
330.47	13.451
330.84	12.115
331.20	13.878
331.56	13.704
331.93	12.603
332.29	14.299
332.66	13.665
333.02	12.175
333.38	12.466
333.75	14.194
334.11	12.444
334.48	13.962
334.84	13.095
335.20	13.083
335.57	12.239
335.93	14.815
336.29	12.431
336.66	13.533
337.02	12.918
337.38	11.759
337.75	12.818
338.11	13.796
338.47	13.412
338.84	14.325
339.20	14.351
339.56	12.936
339.93	14.772
340.29	13.945
340.65	12.814
341.02	13.564
341.38	12.389
341.74	13.074
342.11	12.218
342.47	12.989
342.83	13.841
343.20	13.328
343.56	14.087
343.92	13.198
344.28	14.347
344.65	12.781
345.01	13.051
345.37	14.382
345.73	12.887
346.10	13.201
346.46	13.625
346.82	13.093
347.19	12.219
347.55	13.367
347.91	13.430
348.27	13.581
348.63	13.543
349.00	12.059
349.36	13.633
349.72	13.433
350.08	13.033
350.45	13.408
350.81	13.289
351.17	13.355
351.53	13.143
351.89	12.634
352.26	14.240
352.62	13.468
352.98	12.450
353.34	12.077
353.70	13.188
354.07	12.500
354.43	13.451
354.79	12.964
355.15	14.444
355.51	12.500
355.87	12.864
356.24	13.132
356.60	12.935
356.96	14.048
357.32	13.099
357.68	12.275
358.04	12.682
358.40	12.781
358.77	14.115
359.13	12.090
359.49	12.943
359.85	14.197
360.21	12.839
360.57	12.930
360.93	13.464
361.29	12.840
361.66	13.558
362.02	14.091
362.38	13.481
362.74	13.248
363.10	14.296
363.46	14.529
363.82	14.801
364.18	12.694
364.54	13.235
364.90	13.047
365.26	13.028
365.62	14.672
365.98	14.296
366.35	14.057
366.71	13.673
367.07	14.006
367.43	13.515
367.79	14.134
368.15	13.640
368.51	13.474
368.87	13.424
369.23	12.996
369.59	13.411
369.95	13.636
370.31	13.656
370.67	13.731
371.03	13.592
371.39	14.734
371.75	14.579
372.11	13.909
372.47	13.979
372.83	14.833
373.19	14.622
373.55	13.574
373.91	14.327
374.27	14.600
374.63	15.434
374.99	14.255
375.35	14.694
375.71	14.196
376.07	14.256
376.42	14.354
376.78	14.966
377.14	14.218
377.50	15.471
377.86	14.926
378.22	15.507
378.58	15.128
378.94	14.493
379.30	14.972
379.66	15.361
380.02	14.408
380.38	14.547
380.74	15.500
381.09	15.644
381.45	15.902
381.81	15.484
382.17	15.355
382.53	15.803
382.89	15.945
383.25	15.806
383.61	16.341
383.97	15.365
384.32	15.510
384.68	15.604
385.04	15.748
385.40	15.184
385.76	16.604
386.12	16.300
386.48	17.305
386.83	16.424
387.19	16.484
387.55	17.315
387.91	16.443
388.27	16.300
388.62	16.866
388.98	16.452
389.34	16.802
389.70	17.216
390.06	16.111
390.42	16.580
390.77	16.220
391.13	16.141
391.49	16.753
391.85	16.244
392.20	17.263
392.56	17.101
392.92	17.322
393.28	16.922
393.64	17.417
393.99	18.683
394.35	16.319
394.71	17.305
395.07	17.348
395.42	17.486
395.78	17.980
396.14	17.087
396.50	17.882
396.85	17.901
397.21	18.296
397.57	16.803
397.92	17.675
398.28	17.414
398.64	17.470
399.00	18.792
399.35	17.156
399.71	18.208
400.07	18.259
400.42	18.299
400.78	19.351
401.14	18.814
401.49	19.178
401.85	18.282
402.21	19.398
402.57	18.125
402.92	18.381
403.28	18.734
403.63	17.970
403.99	17.857
404.35	18.926
404.70	18.333
405.06	18.801
405.42	18.583
405.77	18.303
406.13	18.335
406.49	19.420
406.84	19.315
407.20	18.543
407.55	18.416
407.91	18.382
408.27	19.120
408.62	19.323
408.98	19.039
409.34	20.198
409.69	18.798
410.05	18.966
410.40	19.938
410.76	19.542
411.11	18.688
411.47	19.527
411.83	18.770
412.18	20.399
412.54	19.913
412.89	19.458
413.25	19.795
413.60	19.627
413.96	18.896
414.31	19.268
414.67	19.436
415.03	19.840
415.38	20.039
415.74	21.173
416.09	20.575
416.45	20.527
416.80	19.894
417.16	21.409
417.51	20.253
417.87	20.860
418.22	20.337
418.58	20.468
418.93	21.317
419.29	19.078
419.64	19.572
420.00	21.348
420.35	20.358
420.71	20.778
421.06	20.872
421.42	20.733
421.77	20.462
422.12	20.034
422.48	20.357
422.83	21.056
423.19	20.824
423.54	19.988
423.90	20.730
424.25	20.551
424.61	21.236
424.96	21.080
425.31	21.722
425.67	21.244
426.02	21.673
426.38	20.977
426.73	21.792
427.09	21.392
427.44	21.118
427.79	21.450
428.15	21.784
428.50	21.563
428.85	20.209
429.21	21.336
429.56	20.809
429.92	21.726
430.27	21.153
430.62	20.753
430.98	21.656
431.33	21.767
431.68	21.350
432.04	20.906
432.39	21.221
432.74	20.325
433.10	21.954
433.45	21.386
433.80	21.938
434.16	20.942
434.51	21.344
434.86	21.835
435.22	21.481
435.57	21.335
435.92	22.874
436.28	22.063
436.63	21.962
436.98	21.263
437.34	21.355
437.69	22.361
438.04	21.652
438.39	22.114
438.75	22.040
439.10	22.071
439.45	22.702
439.81	20.979
440.16	22.743
440.51	23.343
440.86	23.021
441.22	21.946
441.57	22.075
441.92	22.770
442.27	22.506
442.63	23.126
442.98	22.114
443.33	22.148
443.68	22.440
444.03	22.553
444.39	23.414
444.74	23.300
445.09	22.940
445.44	22.222
445.79	23.414
446.15	23.073
446.50	22.573
446.85	23.486
447.20	22.367
447.55	23.326
447.91	22.843
448.26	22.994
448.61	22.453
448.96	23.236
449.31	22.717
449.66	22.590
450.02	23.388
450.37	23.711
450.72	23.425
451.07	24.051
451.42	23.159
451.77	22.242
452.12	22.309
452.47	23.310
452.83	22.674
453.18	23.340
453.53	22.314
453.88	22.890
454.23	23.356
454.58	23.489
454.93	23.260
455.28	22.349
455.63	23.745
455.98	23.151
456.34	22.733
456.69	23.253
457.04	24.260
457.39	23.269
457.74	23.579
458.09	22.131
458.44	23.406
458.79	24.090
459.14	23.684
459.49	23.881
459.84	23.858
460.19	23.483
460.54	24.205
460.89	23.807
461.24	23.416
461.59	23.872
461.94	22.642
462.29	23.703
462.64	24.053
462.99	23.358
463.34	22.670
463.69	23.616
464.04	23.668
464.39	22.923
464.74	22.638
465.09	23.331
465.44	23.832
465.79	22.676
466.14	24.344
466.49	23.289
466.84	23.795
467.19	23.967
467.54	23.627
467.89	23.184
468.24	22.567
468.59	23.810
468.94	22.857
469.29	23.738
469.64	24.129
469.99	25.368
470.34	22.457
470.68	24.087
471.03	24.558
471.38	24.536
471.73	23.669
472.08	23.406
472.43	23.154
472.78	23.441
473.13	23.265
473.48	23.713
473.83	24.284
474.17	23.316
474.52	23.740
474.87	23.576
475.22	23.917
475.57	23.546
475.92	23.587
476.27	23.166
476.61	24.074
476.96	23.090
477.31	23.959
477.66	23.708
478.01	23.695
478.36	22.930
478.70	24.307
479.05	23.681
479.40	23.476
479.75	22.993
480.10	22.888
480.45	24.200
480.79	24.169
481.14	23.770
481.49	23.153
481.84	23.793
482.19	23.527
482.53	24.269
482.88	23.962
483.23	24.088
483.58	23.821
483.92	22.943
484.27	23.336
484.62	23.487
484.97	22.347
485.31	22.652
485.66	22.058
486.01	22.766
486.36	22.384
486.70	22.901
487.05	23.185
487.40	22.958
487.75	22.676
488.09	22.559
488.44	23.177
488.79	22.787
489.13	23.117
489.48	23.215
489.83	23.094
490.17	23.101
490.52	22.818
490.87	22.999
491.22	23.018
491.56	22.723
491.91	22.467
492.26	22.849
492.60	22.745
492.95	23.709
493.30	23.009
493.64	23.330
493.99	22.754
494.34	22.961
494.68	23.143
495.03	22.433
495.37	23.503
495.72	23.776
496.07	22.634
496.41	22.028
496.76	22.801
497.11	22.403
497.45	23.246
497.80	23.512
498.14	23.000
498.49	23.108
498.84	23.204
499.18	23.343
499.53	22.768
499.87	22.228
500.22	22.651
500.56	22.693
500.91	22.691
501.26	22.739
501.60	22.381
501.95	23.241
502.29	22.228
502.64	23.069
502.98	23.039
503.33	22.574
503.67	21.880
504.02	22.630
504.36	22.761
504.71	22.980
505.06	22.748
505.40	22.792
505.75	22.887
506.09	22.149
506.44	22.279
506.78	23.316
507.13	23.423
507.47	22.350
507.82	22.062
508.16	22.240
508.51	21.511
508.85	22.606
509.19	21.820
509.54	22.359
509.88	22.006
510.23	21.678
510.57	23.036
510.92	21.375
511.26	21.277
511.61	22.772
511.95	22.356
512.30	22.949
512.64	22.371
512.98	21.168
513.33	22.608
513.67	22.626
514.02	22.712
514.36	23.200
514.70	23.193
515.05	23.149
515.39	22.904
515.74	23.054
516.08	23.192
516.42	23.557
516.77	22.996
517.11	22.967
517.46	22.741
517.80	22.944
518.14	21.555
518.49	21.875
518.83	23.208
519.17	20.982
519.52	22.143
519.86	22.509
520.20	21.750
520.55	22.702
520.89	22.710
521.23	21.723
521.58	22.902
521.92	22.692
522.26	22.056
522.61	22.468
522.95	23.179
523.29	22.618
523.64	22.046
523.98	23.526
524.32	22.487
524.66	23.431
525.01	22.143
525.35	23.072
525.69	22.222
526.04	22.024
526.38	24.060
526.72	22.302
527.06	21.401
527.41	22.098
527.75	21.649
528.09	21.462
528.43	22.552
528.78	20.594
529.12	22.903
529.46	21.378
529.80	22.483
530.15	22.178
530.49	21.481
530.83	21.546
531.17	21.625
531.51	22.845
531.86	21.210
532.20	20.738
532.54	22.328
532.88	22.108
533.22	21.841
533.57	21.101
533.91	21.932
534.25	21.940
534.59	21.167
534.93	20.327
535.27	20.685
535.62	20.998
535.96	21.135
536.30	20.515
536.64	21.778
536.98	21.254
537.32	21.906
537.66	21.248
538.01	20.909
538.35	20.804
538.69	21.305
539.03	20.301
539.37	21.400
539.71	20.995
540.05	20.163
540.39	20.429
540.73	21.548
541.07	20.580
541.42	21.841
541.76	20.647
542.10	20.165
542.44	21.751
542.78	19.339
543.12	19.712
543.46	19.958
543.80	21.305
544.14	19.359
544.48	20.120
544.82	20.232
545.16	21.516
545.50	20.427
545.84	20.822
546.18	19.858
546.52	20.404
546.86	19.626
547.20	19.599
547.54	18.799
547.88	20.245
548.22	19.461
548.56	19.459
548.90	20.350
549.24	19.697
549.58	19.605
549.92	18.227
550.26	19.780
550.60	20.372
550.94	19.268
551.28	20.247
551.62	19.538
551.96	20.376
552.30	20.614
552.64	18.759
552.98	19.198
553.32	19.757
553.66	19.158
554.00	18.905
554.34	19.941
554.68	19.248
555.02	20.089
555.36	18.549
555.69	18.022
556.03	18.772
556.37	19.288
556.71	18.556
557.05	19.761
557.39	17.472
557.73	19.115
558.07	19.382
558.41	18.836
558.75	19.174
559.08	18.519
559.42	19.127
559.76	18.575
560.10	18.043
560.44	18.466
560.78	18.811
561.12	19.605
561.45	19.115
561.79	18.697
562.13	18.595
562.47	17.842
562.81	18.012
563.15	18.406
563.48	18.388
563.82	18.600
564.16	19.568
564.50	17.297
564.84	18.742
565.17	17.103
565.51	19.262
565.85	18.244
566.19	18.568
566.52	18.365
566.86	18.959
567.20	16.750
567.54	17.701
567.88	17.223
568.21	18.100
568.55	17.500
568.89	17.813
569.23	17.959
569.56	17.163
569.90	17.661
570.24	17.194
570.57	17.309
570.91	17.288
571.25	16.705
571.59	16.381
571.92	16.385
572.26	16.365
572.60	16.527
572.93	16.724
573.27	16.928
573.61	16.498
573.95	16.303
574.28	16.340
574.62	16.196
574.96	16.255
575.29	16.280
575.63	15.755
575.97	16.536
576.30	15.912
576.64	15.682
576.98	16.371
577.31	16.171
577.65	16.376
577.98	16.272
578.32	15.787
578.66	15.452
578.99	15.629
579.33	15.813
579.67	15.796
580.00	15.772
580.34	15.920
580.67	14.787
581.01	15.418
581.35	16.021
581.68	15.745
582.02	15.562
582.35	15.413
582.69	15.952
583.02	15.616
583.36	15.756
583.70	15.498
584.03	16.152
584.37	16.093
584.70	15.687
585.04	15.052
585.37	15.356
585.71	15.527
586.04	15.129
586.38	14.991
586.72	15.581
587.05	15.945
587.39	15.851
587.72	15.637
588.06	14.835
588.39	15.181
588.73	15.140
589.06	15.982
589.40	15.762
589.73	16.028
590.07	15.748
590.40	14.706
590.73	15.692
591.07	15.225
591.40	14.960
591.74	15.339
592.07	15.863
592.41	16.078
592.74	15.333
593.08	15.543
593.41	15.618
593.75	14.917
594.08	15.139
594.41	15.757
594.75	15.229
595.08	14.907
595.42	14.869
595.75	15.509
596.09	15.324
596.42	14.882
596.75	15.187
597.09	15.171
597.42	15.176
597.75	15.117
598.09	15.211
598.42	14.756
598.76	14.929
599.09	14.623
599.42	14.665
599.76	14.635
600.09	14.027
600.42	15.049
600.76	13.856
601.09	14.122
601.42	14.140
601.76	14.490
602.09	14.109
602.42	14.954
602.76	14.559
603.09	14.120
603.42	15.092
603.76	14.395
604.09	14.621
604.42	14.975
604.76	15.131
605.09	14.351
605.42	14.582
605.75	14.317
606.09	14.565
606.42	14.053
606.75	14.589
607.09	14.505
607.42	13.912
607.75	14.032
608.08	14.106
608.42	14.070
608.75	14.892
609.08	14.499
609.41	14.619
609.75	14.516
610.08	14.828
610.41	14.155
610.74	14.334
611.07	14.470
611.41	14.271
611.74	14.659
612.07	14.507
612.40	14.004
612.73	13.559
613.07	14.567
613.40	14.770
613.73	14.158
614.06	14.969
614.39	14.157
614.72	13.389
615.06	13.743
615.39	13.592
615.72	13.455
616.05	15.084
616.38	12.821
616.71	13.639
617.05	13.589
617.38	13.953
617.71	14.025
618.04	13.714
618.37	15.637
618.70	14.653
619.03	14.514
619.36	13.531
619.69	14.708
620.03	14.901
620.36	13.877
620.69	13.776
621.02	13.761
621.35	14.274
621.68	14.286
622.01	14.167
622.34	14.126
622.67	14.038
623.00	15.926
623.33	13.720
623.66	13.613
623.99	14.599
624.32	14.601
624.65	13.233
624.99	14.372
625.32	13.192
625.65	14.297
625.98	14.263
626.31	13.217
626.64	14.298
626.97	14.485
627.30	13.135
627.63	14.471
627.96	14.196
628.29	13.228
628.62	14.159
628.95	14.028
629.28	14.819
629.61	12.762
629.94	14.761
630.26	13.043
630.59	13.424
630.92	13.949
631.25	15.077
631.58	13.656
631.91	13.596
632.24	13.188
632.57	13.977
632.90	13.642
633.23	14.824
633.56	13.224
633.89	13.810
634.22	13.704
634.55	13.977
634.88	13.921
635.20	12.179
635.53	13.733
635.86	12.614
636.19	14.360
636.52	13.138
636.85	13.275
637.18	13.585
637.51	13.208
637.83	12.878
638.16	14.052
638.49	11.853
638.82	14.737
639.15	12.212
639.48	14.718
639.81	13.389
640.13	12.843
640.46	13.411
640.79	10.457
641.12	11.965
641.45	14.565
641.77	14.963
642.10	12.796
642.43	12.862
642.76	14.356
643.09	14.540
643.41	13.754
643.74	12.521
644.07	13.136
644.40	14.696
644.73	13.660
645.05	13.758
645.38	12.522
645.71	14.362
646.04	12.208
646.36	12.234
646.69	12.770
647.02	13.422
647.35	14.552
647.67	13.346
648.00	14.739
648.33	15.017
648.66	13.051
648.98	10.050
649.31	10.744
649.64	12.716
649.96	11.831
650.29	14.140
650.62	11.282
650.94	12.963
651.27	11.173
651.60	12.252
651.92	12.762
652.25	12.611
652.58	13.000
652.90	13.722
653.23	12.773
653.56	13.029
653.88	12.543
654.21	10.858
654.54	11.545
654.86	14.092
655.19	12.135
655.52	13.080
655.84	12.317
656.17	13.574
656.49	17.531
656.82	18.194
657.15	13.615
657.47	10.144
657.80	7.345
658.13	7.108
658.45	10.861
658.78	10.543
659.10	10.438
659.43	10.380
659.75	10.607
660.08	11.034
660.41	11.747
660.73	11.602
661.06	12.652
661.38	10.959
661.71	9.856
662.03	13.948
662.36	12.088
662.68	10.841
663.01	12.882
663.33	9.049
663.66	10.465
663.98	11.628
664.31	14.712
664.63	9.677
664.96	9.130
665.28	11.479
665.61	9.524
665.93	9.348
666.26	11.497
666.58	10.515
666.91	9.882
667.23	14.151
667.56	13.507
667.88	10.312
668.21	11.456
668.53	13.002
668.86	11.792
669.18	9.198
669.50	11.138
669.83	13.256
670.15	12.354
670.48	10.287
670.80	11.982
671.13	14.094
671.45	11.416
671.77	11.588
672.10	13.465
672.42	11.798
672.75	12.078
673.07	12.522
673.39	11.743
673.72	9.862
674.04	10.000
674.37	11.441
674.69	12.848
675.01	10.889
675.34	13.063
675.66	11.343
675.98	11.973
676.31	11.468
676.63	9.976
676.95	11.818
677.28	14.353
677.60	11.566
677.92	10.092
678.25	13.567
678.57	8.874
678.89	12.185
679.22	12.081
679.54	10.241
679.86	8.946
680.18	11.068
680.51	10.985
680.83	9.940
681.15	12.400
681.48	15.369
681.80	11.364
682.12	12.097
682.44	10.669
682.77	10.155
683.09	13.272
683.41	9.091
683.73	9.447
684.06	9.956
684.38	9.677
684.70	9.150
685.02	9.544
685.34	8.498
685.67	10.131
685.99	13.382
686.31	13.097
686.63	10.019
686.96	10.266
687.28	6.061
687.60	10.456
687.92	10.909
688.24	11.089
688.56	12.445
688.89	10.045
689.21	12.222
689.53	12.065
689.85	9.302
690.17	14.286
690.49	10.402
690.82	8.252
691.14	8.095
691.46	10.047
691.78	9.685
692.10	12.903
692.42	10.606
692.74	11.325
693.06	9.685
693.39	8.145
693.71	10.181
694.03	10.624
694.35	8.645
694.67	10.354
694.99	9.399
695.31	13.577
695.63	12.000
695.95	8.333
696.27	9.845
696.59	12.778
696.91	8.964
697.23	7.712
697.56	7.921
697.88	14.409
698.20	9.112
698.52	9.412
698.84	7.895
699.16	7.750
699.48	12.030
699.80	8.437
700.12	10.782
700.44	11.204
700.76	7.849
701.08	5.455
701.40	8.133
701.72	10.494
702.04	6.601
702.36	9.030
702.68	11.712
703.00	10.909
703.32	9.091
703.64	5.650
703.96	6.377
704.28	9.816
704.60	10.794
704.91	9.464
705.23	6.645
705.55	10.601
705.87	9.747
706.19	10.741
706.51	9.966
706.83	11.576
707.15	3.738
707.47	11.765
707.79	12.760
708.11	12.500
708.43	11.500
708.74	9.819
709.06	11.549
709.38	9.786
709.70	10.059
710.02	7.962
710.34	12.384
710.66	5.128
710.98	10.265
711.29	8.525
711.61	7.797
711.93	6.840
712.25	13.402
712.57	9.524
712.89	10.075
713.20	12.457
713.52	6.272
713.84	10.922
714.16	3.436
714.48	9.355
714.80	10.897
715.11	11.854
715.43	10.658
715.75	9.333
716.07	7.973
716.39	9.732
716.70	8.487
717.02	8.779
717.34	11.741
717.66	6.195
717.97	5.652
718.29	6.695
718.61	9.449
718.93	6.202
719.24	12.167
719.56	9.639
719.88	8.591
720.20	6.818
720.51	10.345
720.83	8.494
721.15	10.084
721.46	9.677
721.78	8.696
722.10	11.152
722.42	6.639
722.73	8.163
723.05	11.020
723.37	8.051
723.68	15.766
724.00	13.675
724.32	7.556
724.63	10.455
724.95	14.410
725.27	13.364
725.58	10.593
725.90	7.540
726.22	12.741
726.53	9.831
726.85	7.116
727.16	9.434
727.48	6.073
727.80	6.883
728.11	6.780
728.43	9.020
728.74	1.613
729.06	7.600
729.38	15.789
729.69	5.976
730.01	7.308
730.32	12.313
730.64	14.488
730.96	9.811
731.27	9.000
731.59	10.508
731.90	5.732
732.22	11.672
732.53	11.296
732.85	12.057
733.16	13.805
733.48	8.273
733.80	7.246
734.11	8.136
734.43	5.498
734.74	11.818
735.06	6.189
735.37	9.063
735.69	9.764
736.00	10.105
736.32	5.369
736.63	7.746
736.95	9.556
737.26	6.050
737.58	6.376
737.89	8.425
738.21	9.398
738.52	10.700
738.83	11.354
739.15	4.803
739.46	8.661
739.78	5.128
740.09	8.824
740.41	9.420
740.72	9.055
741.04	10.931
741.35	6.383
741.66	3.318
741.98	8.163
742.29	6.931
742.61	6.806
742.92	-0.474
743.23	2.315
743.55	11.312
743.86	5.742
744.18	11.005
744.49	0.532
744.80	5.978
745.12	15.508
745.43	8.293
745.74	4.167
746.06	6.829
746.37	6.806
746.68	10.427
747.00	3.191
747.31	10.945
747.62	1.942
747.94	5.263
748.25	6.436
748.56	7.650
748.88	3.665
749.19	7.447
749.50	10.837
749.82	4.245
750.13	4.587
750.44	12.030
750.75	10.075
751.07	14.964
751.38	12.644
751.69	4.706
752.01	9.302
752.32	5.976
752.63	8.300
752.94	5.172
753.26	12.134
753.57	4.072
753.88	7.522
754.19	4.167
754.51	6.198
754.82	7.692
755.13	8.333
755.44	10.081
755.75	9.766
756.07	3.891
756.38	5.283
756.69	6.897
757.00	6.000
757.31	11.111
757.63	7.012
757.94	9.167
758.25	7.945
758.56	9.043
758.87	5.099
759.18	9.969
759.50	3.273
759.81	10.702
760.12	8.387
760.43	5.455
760.74	6.173
761.05	8.000
761.36	9.091
761.67	8.485
761.99	8.844
762.30	5.455
762.61	4.348
762.92	6.335
763.23	4.955
763.54	5.140
763.85	11.017
764.16	9.959
764.47	4.032
764.78	7.326
765.10	12.121
765.41	6.625
765.72	9.206
766.03	6.015
766.34	7.299
766.65	10.757
766.96	7.071
767.27	10.638
767.58	2.299
767.89	-2.837
768.20	5.114
768.51	6.593
768.82	6.897
769.13	6.452
769.44	6.009
769.75	8.219
770.06	8.190
770.37	4.327
770.68	7.107
770.99	1.810
771.30	9.804
771.61	8.597
771.92	13.362
772.23	11.823
772.54	10.215
772.85	9.877
773.16	6.742
773.47	10.458
773.78	1.961
774.09	8.383
774.39	3.333
774.70	9.554
775.01	12.414
775.32	6.429
775.63	-3.306
775.94	8.397
776.25	5.512
776.56	6.667
776.87	1.923
777.18	9.402
777.48	0.000
777.79	7.826
778.10	-1.905
778.41	1.802
778.72	15.873
779.03	5.263
779.34	9.220
779.65	9.589
779.95	6.849
780.26	3.448
780.57	-4.065
780.88	0.787
781.19	-1.724
781.50	3.876
781.80	10.059
782.11	5.660
782.42	9.231
782.73	0.000
783.04	6.667
783.34	4.167
783.65	-11.966
783.96	4.918
784.27	12.414
784.57	7.317
784.88	9.375
785.19	7.000
785.50	15.000
785.81	4.310
786.11	0.862
786.42	0.971
786.73	13.636
787.04	9.184
787.34	5.357
787.65	-0.952
787.96	0.885
788.26	3.636
788.57	6.838
788.88	8.594
789.19	4.762
789.49	1.739
789.80	0.000
790.11	8.081
790.41	-3.636
790.72	5.435
791.03	11.364
791.33	18.750
791.64	1.250
791.95	1.163
792.25	7.447
792.56	-1.124
792.87	-5.479
793.17	1.449
793.48	-13.333
793.79	0.000
794.09	1.250
794.40	-0.943
794.70	5.825
795.01	-2.439
795.32	7.692
795.62	-1.905
795.93	5.882
796.23	7.547
796.54	-1.042
796.85	-2.941
797.15	-2.817
797.46	4.167
797.76	12.121
798.07	9.302
798.37	-3.947
798.68	-21.212
798.99	-3.704
799.29	1.429
799.60	5.797
799.90	5.333
800.21	18.033
800.51	-9.231
800.82	-8.475
801.12	14.493
801.43	1.639
801.73	6.349
802.04	-14.000
802.34	-2.985
802.65	-3.846
802.95	-8.929
803.26	-5.769
803.56	1.961
803.87	-26.087
804.17	4.000
804.48	9.524
804.78	-14.815
805.09	-2.174
805.39	-6.667
805.70	-18.519
806.00	-14.035
806.30	5.634
806.61	7.143
806.91	5.556
807.22	9.211
807.52	-1.333
807.83	-14.545
808.13	0.000
808.43	11.765
808.74	-2.985
809.04	8.475
809.35	-13.462
809.65	7.813
809.95	-10.811
810.26	-20.455
810.56	-2.740
810.86	-9.524
811.17	12.000
811.47	-2.041
811.77	2.632
812.08	-9.091
812.38	-1.887
812.69	-12.500
812.99	-18.182
813.29	26.316
813.59	-37.143
813.90	-2.273
814.20	5.128
814.50	0.000
814.81	-13.208
815.11	-17.021
815.41	11.864
815.72	-23.810
816.02	-3.922
816.32	-12.500
816.62	-24.390
816.93	-10.811
817.23	-5.714
817.53	-10.417
817.84	-6.522
818.14	-7.692
818.44	-26.316
818.74	19.565
819.04	-25.000
819.35	16.216
819.65	-23.529
819.95	-27.778
820.25	-7.143
820.56	40.000
820.86	-41.379
821.16	10.000
821.46	-6.383
821.76	2.500
822.07	-2.326
822.37	-21.622
822.67	-18.750
822.97	7.143
823.27	-21.429
823.57	-20.000
823.88	-33.333
824.18	-3.571
824.48	-41.176
824.78	-32.258
825.08	-43.478
825.38	-30.303
825.69	-54.167
825.99	-26.316
826.29	-2.778
826.59	-13.333
826.89	-38.095
827.19	2.174
827.49	-20.000
827.79	8.571
828.09	-3.571
828.39	9.091
828.70	27.027
829.00	-28.571
829.30	-9.524
829.60	-6.667
829.90	-21.875
830.20	-28.947
830.50	-29.630
830.80	-13.043
831.10	-54.545
831.40	24.242
831.70	12.903
832.00	4.762
832.30	-38.095
832.60	-83.333
832.90	10.345
833.20	-35.000
833.50	-27.273
833.80	-33.333
834.10	-11.538
834.40	-3.125
834.70	-155.556
835.00	15.789
835.30	23.077
835.60	-66.667
835.90	19.355
836.20	-27.273
836.50	-10.714
836.80	-26.923
837.10	-46.429
837.40	-333.333
837.70	-4.545
838.00	-109.091
838.30	0.000
838.60	-53.846
838.90	0.000
839.19	-10.714
839.49	20.000
839.79	-53.846
840.09	-175.000
840.39	0.000
840.69	-32.143
840.99	-15.385
841.29	-78.947
841.59	-180.000
841.88	-81.818
842.18	0.000
842.48	-18.750
842.78	-46.667
843.08	-14.815
843.38	-170.000
843.68	-17.391
843.97	-6.667
844.27	-146.667
844.57	-40.000
844.87	-50.000
845.17	-76.190
845.47	-6.667
845.76	-23.810
846.06	5.882
846.36	-80.000
846.66	-107.143
846.96	-40.000
847.25	-162.500
847.55	-7.143
847.85	-200.000
848.15	-63.636
848.44	-533.333
848.74	5.000
849.04	44.444
849.34	-81.818
849.63	-216.667
849.93	-360.000
850.23	-44.444
850.53	90.000
850.82	-69.231
851.12	-88.889
851.42	-33.333
851.71	-19.231
852.01	-78.571
852.31	-200.000
852.61	-100.000
852.90	5.000
853.20	-21.053
853.50	-50.000
853.79	-17.391
854.09	12.500
854.39	36.842
854.68	-20.833
854.98	3.226
855.28	-7.692
855.57	-45.000
855.87	-27.778
856.17	25.926
856.46	-28.571
856.76	-60.000
857.05	-111.111
857.35	4.000
857.65	-38.889
857.94	-61.538
858.24	6.897
858.53	38.889
858.83	14.815
859.13	-9.091
859.42	-8.696
859.72	-450.000
860.01	-400.000
860.31	-12.000
860.60	19.048
860.90	-433.333
861.20	-40.000
861.49	-800.000
861.79	-86.667
862.08	20.000
862.38	86.667
862.67	-300.000
862.97	-150.000
863.26	-16.667
863.56	-22.222
863.85	-400.000
864.15	27.778
864.44	-110.000
864.74	-7.143
865.03	500.000
865.33	-280.000
865.62	-116.667
865.92	-91.667
866.21	-333.333
866.51	-12.500
866.80	-163.636
867.10	-500.000
867.39	8.333
867.69	0.000
867.98	-61.538
868.27	-433.333
868.57	-6.667
868.86	0.000
869.16	-123.077
869.45	13.333
869.75	-500.000
870.04	0.000
870.33	-185.714
870.63	-4.762
870.92	533.333
871.22	-200.000
871.51	-1000.000
871.80	-11.111
872.10	933.333
>>>>>End Processed Spectral Data<<<<<
