SpectraSuite Data File
++++++++++++++++++++++++++++++++++++
Date: Fri May 15 20:44:08 PDT 2015
User: schluterlab
Dark Spectrum Present: Yes
Reference Spectrum Present: Yes
Number of Sampled Component Spectra: 1
Spectrometers: USB2E3373
Integration Time (usec): 3000 (USB2E3373)
Spectra Averaged: 3 (USB2E3373)
Boxcar Smoothing: 0 (USB2E3373)
Correct for Electrical Dark: No (USB2E3373)
Strobe/Lamp Enabled: No (USB2E3373)
Correct for Detector Non-linearity: No (USB2E3373)
Correct for Stray Light: No (USB2E3373)
Number of Pixels in Processed Spectrum: 2048
>>>>>Begin Processed Spectral Data<<<<<
178.53	0.000
178.91	0.000
179.29	-12.500
179.67	-850.000
180.04	-28.571
180.42	25.000
180.80	300.000
181.18	100.000
181.56	200.000
181.94	-50.000
182.31	800.000
182.69	200.000
183.07	33.333
183.45	-120.000
183.83	266.667
184.20	-81.818
184.58	200.000
184.96	-0.000
185.34	-0.000
185.72	-300.000
186.09	92.308
186.47	-1000.000
186.85	66.667
187.23	111.111
187.61	-400.000
187.98	-166.667
188.36	133.333
188.74	33.333
189.12	-35.294
189.49	-5.556
189.87	0.000
190.25	50.000
190.63	-50.000
191.00	-333.333
191.38	21.053
191.76	-300.000
192.14	150.000
192.51	-100.000
192.89	-122.222
193.27	-100.000
193.65	166.667
194.02	109.091
194.40	20.000
194.78	-137.500
195.15	0.000
195.53	-75.000
195.91	125.000
196.29	-125.000
196.66	115.385
197.04	85.714
197.42	0.000
197.79	-66.667
198.17	7.692
198.55	900.000
198.92	-200.000
199.30	-100.000
199.68	-120.000
200.05	-133.333
200.43	0.000
200.81	100.000
201.18	-133.333
201.56	700.000
201.94	-300.000
202.31	400.000
202.69	-260.000
203.07	-0.000
203.44	-300.000
203.82	0.000
204.19	7.143
204.57	-366.667
204.95	87.500
205.32	40.000
205.70	-85.714
206.08	-100.000
206.45	155.556
206.83	71.429
207.20	-57.143
207.58	800.000
207.96	-233.333
208.33	-20.000
208.71	-200.000
209.08	-283.333
209.46	-1300.000
209.84	-120.000
210.21	-600.000
210.59	14.286
210.96	66.667
211.34	-250.000
211.71	-20.000
212.09	-142.857
212.46	-1100.000
212.84	0.000
213.22	90.000
213.59	-0.000
213.97	23.077
214.34	0.000
214.72	-33.333
215.09	350.000
215.47	69.231
215.84	27.273
216.22	-200.000
216.59	-100.000
216.97	-350.000
217.34	-250.000
217.72	-20.000
218.09	37.500
218.47	150.000
218.84	-1200.000
219.22	-133.333
219.59	140.000
219.97	266.667
220.34	100.000
220.72	-57.143
221.09	-150.000
221.47	150.000
221.84	-750.000
222.22	-550.000
222.59	-36.364
222.97	-25.000
223.34	-300.000
223.72	-50.000
224.09	23.810
224.46	32.143
224.84	333.333
225.21	90.000
225.59	33.333
225.96	50.000
226.34	300.000
226.71	-71.429
227.08	-66.667
227.46	37.500
227.83	-250.000
228.21	-44.444
228.58	9.091
228.95	-50.000
229.33	80.000
229.70	12.500
230.08	-62.500
230.45	-14.286
230.82	-85.714
231.20	-46.667
231.57	78.571
231.95	-14.286
232.32	-160.000
232.69	0.000
233.07	200.000
233.44	40.000
233.81	-120.000
234.19	33.333
234.56	-70.588
234.93	600.000
235.31	-25.000
235.68	-320.000
236.05	-53.846
236.43	-15.000
236.80	23.529
237.17	25.000
237.55	20.000
237.92	-18.519
238.29	22.222
238.67	0.000
239.04	8.824
239.41	-24.390
239.79	-3.333
240.16	17.073
240.53	2.632
240.91	15.217
241.28	17.460
241.65	19.643
242.02	9.589
242.40	5.000
242.77	11.864
243.14	25.758
243.51	16.250
243.89	14.943
244.26	0.000
244.63	13.095
245.00	19.588
245.38	19.588
245.75	15.730
246.12	14.655
246.49	19.008
246.87	14.423
247.24	10.084
247.61	9.649
247.98	18.699
248.36	13.750
248.73	17.763
249.10	18.182
249.47	17.089
249.84	17.647
250.22	14.706
250.59	19.608
250.96	23.944
251.33	20.930
251.70	21.765
252.08	16.751
252.45	17.327
252.82	16.583
253.19	16.129
253.56	16.355
253.94	20.721
254.31	20.870
254.68	19.298
255.05	15.748
255.42	19.214
255.79	17.375
256.16	18.677
256.54	20.896
256.91	16.350
257.28	20.446
257.65	18.352
258.02	17.376
258.39	20.539
258.76	20.879
259.14	17.276
259.51	18.123
259.88	21.649
260.25	17.647
260.62	20.139
260.99	16.610
261.36	20.205
261.73	16.139
262.10	20.669
262.47	20.245
262.85	20.376
263.22	14.769
263.59	23.676
263.96	24.224
264.33	18.788
264.70	21.726
265.07	19.940
265.44	20.680
265.81	20.621
266.18	22.678
266.55	21.594
266.92	20.725
267.29	22.977
267.66	18.670
268.03	20.157
268.40	20.104
268.77	22.995
269.14	20.144
269.51	20.308
269.88	19.950
270.25	18.622
270.62	19.268
270.99	19.693
271.36	18.826
271.73	21.127
272.10	18.735
272.47	20.095
272.84	16.089
273.21	22.274
273.58	21.928
273.95	18.535
274.32	17.090
274.69	18.326
275.06	20.313
275.43	18.821
275.80	21.634
276.17	19.770
276.54	19.272
276.91	19.737
277.28	19.869
277.65	21.281
278.02	17.447
278.39	20.350
278.76	20.335
279.13	16.390
279.50	21.218
279.87	20.302
280.23	18.280
280.60	20.273
280.97	18.788
281.34	19.231
281.71	21.355
282.08	19.018
282.45	16.634
282.82	17.181
283.19	19.923
283.56	17.534
283.92	18.786
284.29	18.462
284.66	15.891
285.03	18.861
285.40	17.958
285.77	16.169
286.14	16.065
286.51	18.819
286.87	17.916
287.24	17.311
287.61	19.048
287.98	18.772
288.35	16.291
288.72	19.615
289.08	17.014
289.45	18.453
289.82	17.133
290.19	16.894
290.56	15.094
290.93	14.983
291.29	15.716
291.66	17.795
292.03	14.673
292.40	17.581
292.77	15.152
293.13	14.610
293.50	14.719
293.87	14.962
294.24	16.074
294.60	17.139
294.97	16.964
295.34	16.718
295.71	16.095
296.08	16.741
296.44	14.083
296.81	14.722
297.18	14.928
297.55	16.667
297.91	14.658
298.28	15.172
298.65	15.604
299.02	13.747
299.38	11.902
299.75	15.034
300.12	14.529
300.48	14.361
300.85	14.702
301.22	13.506
301.59	14.342
301.95	14.557
302.32	15.175
302.69	12.438
303.05	14.356
303.42	13.325
303.79	13.435
304.15	15.651
304.52	12.961
304.89	14.152
305.25	13.680
305.62	13.186
305.99	13.684
306.35	13.526
306.72	12.036
307.09	14.253
307.45	14.351
307.82	12.847
308.19	13.240
308.55	13.740
308.92	14.488
309.29	11.732
309.65	14.424
310.02	14.741
310.38	13.611
310.75	13.770
311.12	12.702
311.48	15.270
311.85	13.613
312.22	14.241
312.58	14.119
312.95	14.835
313.31	14.907
313.68	14.555
314.05	15.000
314.41	16.082
314.78	14.536
315.14	14.388
315.51	16.874
315.87	14.652
316.24	16.684
316.61	16.043
316.97	16.865
317.34	17.090
317.70	17.304
318.07	17.212
318.43	19.314
318.80	17.898
319.16	19.043
319.53	20.228
319.89	19.291
320.26	21.964
320.62	18.656
320.99	19.937
321.35	22.610
321.72	22.326
322.08	24.874
322.45	25.279
322.81	24.165
323.18	25.221
323.54	25.290
323.91	27.361
324.27	28.418
324.64	28.464
325.00	29.562
325.37	30.946
325.73	30.009
326.10	31.608
326.46	33.543
326.83	34.471
327.19	33.827
327.56	36.056
327.92	37.412
328.29	37.232
328.65	37.830
329.01	38.511
329.38	40.645
329.74	40.510
330.11	40.130
330.47	39.981
330.84	41.442
331.20	45.247
331.56	41.759
331.93	43.836
332.29	44.271
332.66	43.801
333.02	44.981
333.38	43.171
333.75	45.696
334.11	45.479
334.48	47.960
334.84	46.154
335.20	46.020
335.57	46.419
335.93	46.974
336.29	49.171
336.66	47.866
337.02	48.048
337.38	47.130
337.75	48.909
338.11	48.061
338.47	50.365
338.84	49.168
339.20	50.000
339.56	48.624
339.93	50.492
340.29	49.450
340.65	50.090
341.02	50.709
341.38	50.531
341.74	49.912
342.11	49.393
342.47	51.246
342.83	53.720
343.20	51.916
343.56	52.609
343.92	52.170
344.28	52.775
344.65	52.418
345.01	52.290
345.37	50.631
345.73	52.552
346.10	53.322
346.46	53.406
346.82	52.700
347.19	51.787
347.55	52.799
347.91	54.207
348.27	52.627
348.63	54.174
349.00	54.635
349.36	54.530
349.72	56.716
350.08	54.508
350.45	54.509
350.81	54.651
351.17	55.049
351.53	53.878
351.89	55.987
352.26	54.960
352.62	56.048
352.98	53.976
353.34	54.992
353.70	55.987
354.07	54.516
354.43	55.084
354.79	56.069
355.15	57.063
355.51	56.171
355.87	56.796
356.24	54.894
356.60	57.235
356.96	57.381
357.32	57.268
357.68	56.529
358.04	58.158
358.40	58.923
358.77	58.533
359.13	58.687
359.49	57.858
359.85	58.736
360.21	58.134
360.57	58.301
360.93	58.775
361.29	56.344
361.66	59.404
362.02	59.545
362.38	60.015
362.74	60.636
363.10	60.722
363.46	59.970
363.82	61.908
364.18	59.852
364.54	61.176
364.90	59.355
365.26	60.771
365.62	61.898
365.98	62.390
366.35	62.054
366.71	63.341
367.07	62.409
367.43	62.401
367.79	61.555
368.15	62.527
368.51	62.564
368.87	62.240
369.23	61.588
369.59	64.286
369.95	62.317
370.31	63.006
370.67	63.433
371.03	62.509
371.39	63.384
371.75	63.516
372.11	63.552
372.47	64.423
372.83	64.088
373.19	62.340
373.55	64.116
373.91	65.587
374.27	65.060
374.63	64.393
374.99	62.979
375.35	65.599
375.71	66.713
376.07	66.854
376.42	66.259
376.78	66.376
377.14	64.658
377.50	65.538
377.86	65.529
378.22	66.241
378.58	66.538
378.94	65.469
379.30	66.500
379.66	66.082
380.02	65.481
380.38	65.733
380.74	65.949
381.09	67.178
381.45	67.095
381.81	66.872
382.17	67.005
382.53	67.083
382.89	68.424
383.25	68.637
383.61	67.561
383.97	68.127
384.32	66.479
384.68	67.740
385.04	66.605
385.40	66.957
385.76	68.931
386.12	68.629
386.48	68.263
386.83	68.167
387.19	68.437
387.55	68.005
387.91	69.071
388.27	67.521
388.62	69.604
388.98	68.754
389.34	68.582
389.70	67.806
390.06	68.471
390.42	67.487
390.77	69.326
391.13	68.033
391.49	68.758
391.85	68.941
392.20	69.303
392.56	68.722
392.92	68.996
393.28	68.868
393.64	68.468
393.99	69.091
394.35	69.386
394.71	70.370
395.07	68.448
395.42	68.670
395.78	68.925
396.14	69.357
396.50	69.753
396.85	69.156
397.21	68.045
397.57	68.840
397.92	67.525
398.28	69.195
398.64	66.506
399.00	68.905
399.35	67.607
399.71	69.213
400.07	68.803
400.42	67.013
400.78	68.830
401.14	68.361
401.49	69.267
401.85	68.373
402.21	68.313
402.57	67.938
402.92	67.691
403.28	68.797
403.63	69.294
403.99	68.304
404.35	69.269
404.70	67.262
405.06	64.865
405.42	67.806
405.77	67.403
406.13	67.753
406.49	66.726
406.84	69.438
407.20	68.393
407.55	67.354
407.91	67.447
408.27	66.794
408.62	67.015
408.98	67.160
409.34	67.224
409.69	66.860
410.05	65.640
410.40	66.667
410.76	66.586
411.11	67.750
411.47	67.061
411.83	65.788
412.18	68.662
412.54	65.605
412.89	66.502
413.25	65.523
413.60	65.901
413.96	65.276
414.31	65.488
414.67	64.657
415.03	66.844
415.38	65.992
415.74	66.059
416.09	66.623
416.45	67.657
416.80	65.763
417.16	66.575
417.51	67.022
417.87	65.711
418.22	67.811
418.58	66.756
418.93	66.395
419.29	63.508
419.64	66.364
420.00	67.254
420.35	65.015
420.71	65.492
421.06	66.483
421.42	66.466
421.77	64.220
422.12	64.302
422.48	65.782
422.83	65.313
423.19	64.898
423.54	64.433
423.90	64.782
424.25	65.959
424.61	66.218
424.96	64.576
425.31	65.858
425.67	67.547
426.02	66.549
426.38	66.875
426.73	66.828
427.09	67.532
427.44	66.353
427.79	65.410
428.15	64.988
428.50	65.718
428.85	65.295
429.21	65.082
429.56	65.283
429.92	64.920
430.27	64.110
430.62	63.356
430.98	63.960
431.33	65.037
431.68	63.998
432.04	65.679
432.39	64.062
432.74	63.620
433.10	64.425
433.45	63.919
433.80	64.016
434.16	63.823
434.51	64.086
434.86	64.750
435.22	64.947
435.57	65.876
435.92	65.629
436.28	64.758
436.63	64.233
436.98	63.905
437.34	63.884
437.69	65.713
438.04	64.729
438.39	65.058
438.75	65.877
439.10	63.837
439.45	65.125
439.81	65.260
440.16	67.399
440.51	65.731
440.86	67.251
441.22	64.253
441.57	65.894
441.92	66.369
442.27	66.574
442.63	66.916
442.98	66.341
443.33	64.329
443.68	64.775
444.03	64.729
444.39	65.125
444.74	67.001
445.09	65.646
445.44	65.812
445.79	67.200
446.15	66.189
446.50	64.781
446.85	65.834
447.20	65.902
447.55	67.634
447.91	66.836
448.26	68.127
448.61	67.473
448.96	66.437
449.31	67.052
449.66	66.028
450.02	66.229
450.37	67.220
450.72	66.896
451.07	67.911
451.42	66.105
451.77	64.858
452.12	65.610
452.47	66.452
452.83	67.138
453.18	67.109
453.53	67.446
453.88	68.610
454.23	66.810
454.58	67.632
454.93	67.461
455.28	66.794
455.63	67.514
455.98	66.867
456.34	67.369
456.69	67.789
457.04	67.801
457.39	66.889
457.74	65.719
458.09	66.274
458.44	67.174
458.79	66.050
459.14	66.247
459.49	66.209
459.84	66.103
460.19	65.231
460.54	66.748
460.89	65.909
461.24	66.025
461.59	67.280
461.94	65.975
462.29	67.250
462.64	66.977
462.99	66.148
463.34	67.803
463.69	67.181
464.04	67.010
464.39	65.676
464.74	66.074
465.09	66.001
465.44	66.705
465.79	64.286
466.14	65.792
466.49	64.520
466.84	65.735
467.19	64.581
467.54	64.623
467.89	66.077
468.24	65.389
468.59	66.921
468.94	64.508
469.29	66.361
469.64	65.482
469.99	68.255
470.34	66.007
470.68	67.785
471.03	67.021
471.38	67.404
471.73	66.877
472.08	66.214
472.43	65.638
472.78	65.661
473.13	66.463
473.48	65.277
473.83	65.068
474.17	66.192
474.52	65.795
474.87	64.848
475.22	64.674
475.57	65.048
475.92	65.716
476.27	64.668
476.61	65.625
476.96	63.302
477.31	65.873
477.66	64.326
478.01	65.020
478.36	63.889
478.70	63.622
479.05	65.165
479.40	64.971
479.75	63.869
480.10	63.748
480.45	63.700
480.79	65.055
481.14	64.344
481.49	63.892
481.84	64.382
482.19	63.564
482.53	63.933
482.88	63.198
483.23	63.868
483.58	63.160
483.92	61.859
484.27	60.939
484.62	62.394
484.97	60.738
485.31	59.610
485.66	57.389
486.01	57.356
486.36	56.768
486.70	56.649
487.05	58.544
487.40	58.868
487.75	58.958
488.09	60.321
488.44	60.282
488.79	61.412
489.13	61.538
489.48	60.923
489.83	61.480
490.17	61.933
490.52	62.079
490.87	61.314
491.22	62.225
491.56	62.619
491.91	60.707
492.26	62.227
492.60	62.092
492.95	63.010
493.30	61.700
493.64	63.212
493.99	61.884
494.34	62.136
494.68	61.381
495.03	62.287
495.37	62.512
495.72	62.241
496.07	62.634
496.41	61.085
496.76	61.446
497.11	60.876
497.45	61.718
497.80	62.412
498.14	61.699
498.49	60.640
498.84	60.130
499.18	61.948
499.53	62.202
499.87	59.484
500.22	60.732
500.56	61.271
500.91	60.191
501.26	60.158
501.60	60.403
501.95	61.038
502.29	60.097
502.64	61.052
502.98	61.026
503.33	58.790
503.67	60.000
504.02	60.264
504.36	60.515
504.71	59.596
505.06	59.738
505.40	60.914
505.75	59.794
506.09	60.162
506.44	60.626
506.78	60.459
507.13	60.186
507.47	59.426
507.82	60.203
508.16	59.799
508.51	60.126
508.85	59.027
509.19	59.606
509.54	59.946
509.88	59.493
510.23	59.763
510.57	59.327
510.92	58.582
511.26	59.847
511.61	60.891
511.95	59.342
512.30	60.144
512.64	59.043
512.98	59.461
513.33	60.884
513.67	59.693
514.02	60.870
514.36	61.314
514.70	61.422
515.05	61.516
515.39	60.449
515.74	61.677
516.08	61.745
516.42	60.895
516.77	60.328
517.11	61.009
517.46	60.802
517.80	61.085
518.14	59.829
518.49	59.495
518.83	60.571
519.17	58.824
519.52	59.147
519.86	58.163
520.20	60.207
520.55	59.600
520.89	60.351
521.23	60.355
521.58	60.946
521.92	61.218
522.26	60.507
522.61	61.558
522.95	61.457
523.29	59.403
523.64	59.657
523.98	60.337
524.32	59.858
524.66	59.859
525.01	59.351
525.35	59.041
525.69	61.616
526.04	59.854
526.38	60.117
526.72	59.908
527.06	58.236
527.41	58.047
527.75	59.786
528.09	61.395
528.43	59.487
528.78	58.548
529.12	58.516
529.46	57.830
529.80	56.745
530.15	60.132
530.49	58.855
530.83	59.302
531.17	57.824
531.51	60.397
531.86	59.755
532.20	58.177
532.54	58.679
532.88	59.138
533.22	57.325
533.57	57.864
533.91	57.768
534.25	57.292
534.59	56.511
534.93	56.451
535.27	55.774
535.62	55.930
535.96	57.599
536.30	58.311
536.64	59.338
536.98	56.864
537.32	59.459
537.66	57.714
538.01	58.322
538.35	56.796
538.69	56.591
539.03	55.707
539.37	56.999
539.71	55.283
540.05	55.804
540.39	57.271
540.73	56.416
541.07	57.113
541.42	54.772
541.76	55.953
542.10	54.577
542.44	56.706
542.78	53.476
543.12	55.151
543.46	55.633
543.80	55.725
544.14	54.473
544.48	54.231
544.82	54.614
545.16	56.079
545.50	54.473
545.84	54.108
546.18	55.319
546.52	55.083
546.86	56.003
547.20	56.009
547.54	53.357
547.88	54.144
548.22	52.663
548.56	54.617
548.90	54.178
549.24	53.444
549.58	53.597
549.92	55.182
550.26	55.971
550.60	54.424
550.94	54.518
551.28	55.023
551.62	56.231
551.96	55.940
552.30	54.313
552.64	53.103
552.98	54.360
553.32	53.424
553.66	53.628
554.00	55.036
554.34	53.619
554.68	53.319
555.02	54.390
555.36	53.553
555.69	52.088
556.03	53.747
556.37	53.238
556.71	53.285
557.05	54.512
557.39	52.937
557.73	52.474
558.07	55.430
558.41	53.905
558.75	54.560
559.08	54.137
559.42	54.206
559.76	54.924
560.10	53.364
560.44	51.824
560.78	52.308
561.12	52.327
561.45	52.284
561.79	53.361
562.13	52.732
562.47	52.374
562.81	52.233
563.15	50.846
563.48	51.909
563.82	50.858
564.16	51.741
564.50	50.270
564.84	51.673
565.17	50.034
565.51	52.527
565.85	52.401
566.19	51.260
566.52	50.871
566.86	51.157
567.20	50.498
567.54	50.122
567.88	49.619
568.21	48.303
568.55	48.533
568.89	47.844
569.23	47.665
569.56	46.585
569.90	46.041
570.24	43.841
570.57	44.873
570.91	43.778
571.25	43.407
571.59	41.981
571.92	41.807
572.26	42.331
572.60	42.357
572.93	41.920
573.27	41.755
573.61	41.736
573.95	41.699
574.28	41.128
574.62	40.249
574.96	40.439
575.29	40.459
575.63	39.259
575.97	39.658
576.30	40.371
576.64	40.318
576.98	40.283
577.31	40.133
577.65	40.092
577.98	39.645
578.32	39.562
578.66	39.158
578.99	39.378
579.33	39.470
579.67	39.415
580.00	39.468
580.34	39.726
580.67	39.392
581.01	39.793
581.35	38.200
581.68	38.398
582.02	38.154
582.35	37.902
582.69	38.411
583.02	38.624
583.36	39.058
583.70	40.005
584.03	40.172
584.37	40.119
584.70	40.000
585.04	38.575
585.37	38.845
585.71	38.904
586.04	38.880
586.38	39.504
586.72	39.397
587.05	40.150
587.39	39.474
587.72	39.913
588.06	39.192
588.39	39.163
588.73	39.377
589.06	40.183
589.40	40.512
589.73	40.891
590.07	41.805
590.40	41.447
590.73	41.680
591.07	42.706
591.40	42.743
591.74	42.036
592.07	42.532
592.41	42.756
592.74	40.382
593.08	38.631
593.41	39.671
593.75	38.535
594.08	38.860
594.41	39.774
594.75	40.382
595.08	40.144
595.42	39.713
595.75	40.180
596.09	39.523
596.42	40.761
596.75	40.897
597.09	40.683
597.42	40.876
597.75	40.632
598.09	41.286
598.42	40.253
598.76	39.640
599.09	39.663
599.42	38.727
599.76	38.337
600.09	38.801
600.42	39.272
600.76	39.116
601.09	38.053
601.42	37.916
601.76	38.666
602.09	39.026
602.42	40.438
602.76	39.219
603.09	40.158
603.42	40.176
603.76	39.597
604.09	38.842
604.42	39.467
604.76	40.454
605.09	40.265
605.42	39.955
605.75	38.923
606.09	38.471
606.42	39.324
606.75	38.095
607.09	38.681
607.42	38.370
607.75	37.522
608.08	38.320
608.42	38.968
608.75	41.590
609.08	40.010
609.41	39.797
609.75	40.272
610.08	40.889
610.41	39.130
610.74	39.785
611.07	40.413
611.41	40.944
611.74	40.618
612.07	41.113
612.40	39.825
612.73	41.299
613.07	40.832
613.40	39.880
613.73	40.963
614.06	40.957
614.39	41.230
614.72	38.992
615.06	41.061
615.39	39.520
615.72	40.043
616.05	40.279
616.38	39.202
616.71	40.183
617.05	41.569
617.38	41.735
617.71	41.887
618.04	41.714
618.37	42.371
618.70	42.904
619.03	42.361
619.36	42.185
619.69	42.911
620.03	44.120
620.36	43.348
620.69	42.969
621.02	43.043
621.35	45.062
621.68	45.493
622.01	44.667
622.34	44.134
622.67	42.981
623.00	43.798
623.33	42.454
623.66	42.633
623.99	42.965
624.32	43.954
624.65	40.902
624.99	41.986
625.32	41.774
625.65	43.126
625.98	44.239
626.31	43.724
626.64	45.667
626.97	45.550
627.30	44.133
627.63	43.154
627.96	46.361
628.29	44.958
628.62	45.723
628.95	46.092
629.28	47.984
629.61	45.464
629.94	46.725
630.26	45.455
630.59	45.682
630.92	46.462
631.25	44.513
631.58	48.128
631.91	47.478
632.24	48.853
632.57	48.523
632.90	48.280
633.23	48.824
633.56	49.118
633.89	48.212
634.22	50.370
634.55	50.445
634.88	49.298
635.20	48.077
635.53	51.200
635.86	47.724
636.19	50.065
636.52	48.342
636.85	49.007
637.18	47.296
637.51	45.786
637.83	48.489
638.16	51.569
638.49	49.591
638.82	48.816
639.15	49.661
639.48	49.106
639.81	48.815
640.13	50.938
640.46	48.105
640.79	50.074
641.12	48.301
641.45	50.450
641.77	51.704
642.10	51.501
642.43	52.733
642.76	49.835
643.09	50.727
643.41	47.573
643.74	51.565
644.07	52.217
644.40	52.534
644.73	53.065
645.05	50.336
645.38	54.674
645.71	51.950
646.04	55.476
646.36	51.418
646.69	54.496
647.02	50.662
647.35	52.799
647.67	49.726
648.00	53.358
648.33	51.365
648.66	49.661
648.98	47.906
649.31	50.744
649.64	50.392
649.96	48.136
650.29	50.085
650.62	50.427
650.94	51.111
651.27	49.534
651.60	52.072
651.92	49.650
652.25	49.556
652.58	46.667
652.90	49.057
653.23	48.571
653.56	48.731
653.88	48.110
654.21	46.935
654.54	48.727
654.86	50.424
655.19	46.199
655.52	39.861
655.84	31.085
656.17	33.101
656.49	43.810
656.82	44.651
657.15	34.114
657.47	25.577
657.80	19.206
658.13	19.001
658.45	29.262
658.78	29.378
659.10	29.574
659.43	30.886
659.75	32.708
660.08	33.724
660.41	38.509
660.73	41.989
661.06	46.794
661.38	49.315
661.71	48.665
662.03	52.361
662.36	50.769
662.68	51.770
663.01	53.493
663.33	49.188
663.66	51.860
663.98	51.628
664.31	49.467
664.63	48.848
664.96	48.696
665.28	48.344
665.61	49.784
665.93	51.304
666.26	52.711
666.58	49.217
666.91	49.882
667.23	52.123
667.56	52.370
667.88	52.038
668.21	52.267
668.53	53.664
668.86	51.415
669.18	53.538
669.50	50.605
669.83	49.302
670.15	51.282
670.48	50.239
670.80	50.000
671.13	44.966
671.45	48.402
671.77	49.571
672.10	48.119
672.42	43.820
672.75	45.648
673.07	45.796
673.39	44.954
673.72	43.195
674.04	43.542
674.37	47.881
674.69	48.608
675.01	52.000
675.34	49.099
675.66	47.454
675.98	47.228
676.31	50.688
676.63	50.356
676.95	46.591
677.28	52.000
677.60	53.494
677.92	47.248
678.25	47.484
678.57	47.619
678.89	45.798
679.22	46.532
679.54	45.382
679.86	43.539
680.18	44.854
680.51	42.803
680.83	44.135
681.15	44.400
681.48	47.131
681.80	46.488
682.12	46.371
682.44	42.678
682.77	45.695
683.09	46.453
683.41	44.091
683.73	44.700
684.06	47.124
684.38	45.376
684.70	45.752
685.02	43.776
685.34	40.514
685.67	42.026
685.99	42.676
686.31	40.885
686.63	42.115
686.96	41.445
687.28	40.404
687.60	39.924
687.92	45.051
688.24	40.927
688.56	42.140
688.89	42.634
689.21	46.444
689.53	45.012
689.85	44.186
690.17	44.420
690.49	46.099
690.82	46.845
691.14	44.048
691.46	46.028
691.78	44.369
692.10	41.075
692.42	40.693
692.74	41.880
693.06	45.946
693.39	41.855
693.71	42.308
694.03	41.339
694.35	47.430
694.67	44.192
694.99	43.081
695.31	45.170
695.63	44.500
695.95	43.939
696.27	45.078
696.59	49.167
696.91	38.655
697.23	43.702
697.56	44.059
697.88	44.516
698.20	40.091
698.52	39.765
698.84	39.713
699.16	43.250
699.48	40.852
699.80	43.424
700.12	44.474
700.44	46.779
700.76	43.023
701.08	44.545
701.40	46.084
701.72	50.617
702.04	44.554
702.36	51.839
702.68	43.243
703.00	43.636
703.32	47.801
703.64	40.678
703.96	41.449
704.28	45.706
704.60	46.349
704.91	43.849
705.23	44.850
705.55	47.703
705.87	46.931
706.19	49.630
706.51	44.330
706.83	45.016
707.15	43.302
707.47	42.857
707.79	41.927
708.11	38.000
708.43	40.000
708.74	39.276
709.06	41.408
709.38	44.037
709.70	40.828
710.02	45.541
710.34	44.582
710.66	37.500
710.98	46.358
711.29	47.541
711.61	43.390
711.93	46.580
712.25	52.234
712.57	42.857
712.89	47.015
713.20	44.637
713.52	46.690
713.84	45.051
714.16	43.986
714.48	39.032
714.80	43.590
715.11	39.818
715.43	41.066
715.75	41.667
716.07	37.542
716.39	45.638
716.70	45.387
717.02	41.985
717.34	45.749
717.66	47.788
717.97	45.652
718.29	45.607
718.61	44.488
718.93	39.535
719.24	44.867
719.56	44.980
719.88	41.924
720.20	42.424
720.51	39.464
720.83	42.085
721.15	46.218
721.46	41.935
721.78	44.269
722.10	39.405
722.42	42.324
722.73	41.633
723.05	46.531
723.37	49.153
723.68	49.550
724.00	42.308
724.32	42.667
724.63	42.727
724.95	41.921
725.27	47.005
725.58	42.797
725.90	36.905
726.22	43.629
726.53	42.712
726.85	38.951
727.16	46.038
727.48	39.271
727.80	44.534
728.11	41.525
728.43	41.176
728.74	38.710
729.06	42.000
729.38	46.992
729.69	39.442
730.01	33.846
730.32	42.537
730.64	40.636
730.96	44.151
731.27	35.000
731.59	37.627
731.90	33.439
732.22	41.325
732.53	37.874
732.85	37.234
733.16	40.404
733.48	30.216
733.80	36.957
734.11	34.915
734.43	41.237
734.74	38.485
735.06	35.831
735.37	39.577
735.69	40.404
736.00	32.056
736.32	34.899
736.63	44.014
736.95	36.519
737.26	38.078
737.58	36.242
737.89	36.630
738.21	44.737
738.52	41.564
738.83	41.485
739.15	40.175
739.46	41.732
739.78	35.897
740.09	35.294
740.41	36.957
740.72	38.189
741.04	42.510
741.35	34.468
741.66	44.550
741.98	41.837
742.29	39.109
742.61	39.267
742.92	35.071
743.23	33.796
743.55	40.724
743.86	39.713
744.18	42.105
744.49	40.957
744.80	42.391
745.12	45.989
745.43	42.439
745.74	50.000
746.06	39.512
746.37	43.455
746.68	43.128
747.00	42.021
747.31	45.771
747.62	40.777
747.94	39.234
748.25	36.139
748.56	39.891
748.88	46.073
749.19	47.340
749.50	38.916
749.82	39.151
750.13	34.404
750.44	33.459
750.75	44.776
751.07	35.766
751.38	35.249
751.69	35.686
752.01	37.984
752.32	40.637
752.63	32.806
752.94	30.172
753.26	42.259
753.57	38.462
753.88	38.938
754.19	34.167
754.51	40.496
754.82	30.769
755.13	38.750
755.44	36.290
755.75	35.937
756.07	36.187
756.38	32.453
756.69	32.950
757.00	31.667
757.31	33.660
757.63	28.354
757.94	34.722
758.25	28.219
758.56	29.521
758.87	29.462
759.18	34.579
759.50	30.909
759.81	35.452
760.12	35.806
760.43	29.394
760.74	34.259
761.05	33.846
761.36	30.966
761.67	32.424
761.99	36.395
762.30	30.545
762.61	34.387
762.92	37.104
763.23	38.288
763.54	36.916
763.85	34.746
764.16	32.780
764.47	31.452
764.78	34.799
765.10	36.700
765.41	31.546
765.72	32.698
766.03	28.947
766.34	28.832
766.65	39.442
766.96	33.333
767.27	37.234
767.58	39.655
767.89	45.390
768.20	38.636
768.51	35.714
768.82	34.975
769.13	28.571
769.44	30.901
769.75	35.616
770.06	33.621
770.37	37.500
770.68	31.980
770.99	28.959
771.30	29.902
771.61	35.747
771.92	33.621
772.23	37.438
772.54	36.559
772.85	46.296
773.16	38.764
773.47	42.484
773.78	37.908
774.09	29.940
774.39	40.000
774.70	40.764
775.01	45.517
775.32	33.571
775.63	41.322
775.94	38.931
776.25	40.945
776.56	41.667
776.87	50.000
777.18	40.171
777.48	37.931
777.79	37.391
778.10	30.476
778.41	36.937
778.72	43.651
779.03	30.075
779.34	33.333
779.65	39.726
779.95	34.932
780.26	33.103
780.57	30.081
780.88	37.008
781.19	38.793
781.50	34.109
781.80	34.320
782.11	32.075
782.42	41.538
782.73	32.374
783.04	37.037
783.34	23.611
783.65	24.786
783.96	26.230
784.27	38.621
784.57	35.772
784.88	37.500
785.19	40.000
785.50	41.000
785.81	38.793
786.11	35.345
786.42	35.922
786.73	45.455
787.04	34.694
787.34	31.250
787.65	30.476
787.96	34.513
788.26	48.182
788.57	27.350
788.88	32.813
789.19	35.714
789.49	34.783
789.80	31.633
790.11	37.374
790.41	25.455
790.72	42.391
791.03	38.636
791.33	61.250
791.64	33.750
791.95	24.419
792.25	30.851
792.56	51.685
792.87	43.836
793.17	37.681
793.48	28.000
793.79	35.000
794.09	43.750
794.40	30.189
794.70	37.864
795.01	26.829
795.32	23.077
795.62	26.667
795.93	33.333
796.23	33.019
796.54	25.000
796.85	47.059
797.15	33.803
797.46	50.000
797.76	30.303
798.07	31.395
798.37	13.158
798.68	39.394
798.99	33.333
799.29	45.714
799.60	42.029
799.90	36.000
800.21	29.508
800.51	44.615
800.82	35.593
801.12	30.435
801.43	31.148
801.73	42.857
802.04	34.000
802.34	32.836
802.65	51.923
802.95	10.714
803.26	32.692
803.56	49.020
803.87	39.130
804.17	30.667
804.48	33.333
804.78	33.333
805.09	26.087
805.39	15.556
805.70	42.593
806.00	5.263
806.30	28.169
806.61	22.857
806.91	19.444
807.22	55.263
807.52	38.667
807.83	23.636
808.13	22.222
808.43	38.235
808.74	20.896
809.04	-3.390
809.35	17.308
809.65	32.812
809.95	13.514
810.26	38.636
810.56	31.507
810.86	30.952
811.17	24.000
811.47	26.531
811.77	26.316
812.08	40.909
812.38	28.302
812.69	27.500
812.99	54.545
813.29	63.158
813.59	0.000
813.90	29.545
814.20	2.564
814.50	23.077
814.81	43.396
815.11	8.511
815.41	52.542
815.72	38.095
816.02	52.941
816.32	18.750
816.62	41.463
816.93	51.351
817.23	51.429
817.53	45.833
817.84	32.609
818.14	13.462
818.44	31.579
818.74	19.565
819.04	-2.500
819.35	37.838
819.65	55.882
819.95	25.000
820.25	21.429
820.56	37.500
820.86	20.690
821.16	47.500
821.46	53.191
821.76	30.000
822.07	23.256
822.37	13.514
822.67	-3.125
822.97	50.000
823.27	67.857
823.57	12.000
823.88	-3.704
824.18	35.714
824.48	35.294
824.78	22.581
825.08	39.130
825.38	27.273
825.69	50.000
825.99	36.842
826.29	19.444
826.59	20.000
826.89	9.524
827.19	34.783
827.49	10.000
827.79	31.429
828.09	32.143
828.39	48.485
828.70	43.243
829.00	-3.571
829.30	38.095
829.60	23.333
829.90	18.750
830.20	28.947
830.50	22.222
830.80	52.174
831.10	50.000
831.40	54.545
831.70	45.161
832.00	0.000
832.30	-23.810
832.60	-33.333
832.90	31.034
833.20	30.000
833.50	33.333
833.80	7.407
834.10	50.000
834.40	31.250
834.70	77.778
835.00	15.789
835.30	80.769
835.60	33.333
835.90	32.258
836.20	31.818
836.50	35.714
836.80	-26.923
837.10	14.286
837.40	-133.333
837.70	22.727
838.00	54.545
838.30	43.478
838.60	30.769
838.90	40.909
839.19	7.143
839.49	3.333
839.79	46.154
840.09	-50.000
840.39	39.286
840.69	39.286
840.99	23.077
841.29	-63.158
841.59	-50.000
841.88	-63.636
842.18	70.000
842.48	50.000
842.78	33.333
843.08	29.630
843.38	-70.000
843.68	52.174
843.97	26.667
844.27	-80.000
844.57	-40.000
844.87	22.222
845.17	-38.095
845.47	26.667
845.76	9.524
846.06	11.765
846.36	80.000
846.66	-21.429
846.96	33.333
847.25	-150.000
847.55	100.000
847.85	-75.000
848.15	18.182
848.44	-566.667
848.74	25.000
849.04	40.741
849.34	-27.273
849.63	-133.333
849.93	60.000
850.23	11.111
850.53	60.000
850.82	7.692
851.12	100.000
851.42	13.333
851.71	23.077
852.01	21.429
852.31	-275.000
852.61	-27.273
852.90	0.000
853.20	42.105
853.50	33.333
853.79	13.043
854.09	58.333
854.39	68.421
854.68	-8.333
854.98	6.452
855.28	57.692
855.57	20.000
855.87	16.667
856.17	14.815
856.46	28.571
856.76	-60.000
857.05	77.778
857.35	36.000
857.65	33.333
857.94	-61.538
858.24	20.690
858.53	38.889
858.83	25.926
859.13	36.364
859.42	-4.348
859.72	75.000
860.01	-33.333
860.31	32.000
860.60	52.381
860.90	-166.667
861.20	26.667
861.49	-550.000
861.79	-13.333
862.08	20.000
862.38	100.000
862.67	-180.000
862.97	116.667
863.26	8.333
863.56	72.222
863.85	-433.333
864.15	38.889
864.44	100.000
864.74	-21.429
865.03	250.000
865.33	-120.000
865.62	0.000
865.92	-50.000
866.21	-183.333
866.51	-18.750
866.80	-100.000
867.10	0.000
867.39	41.667
867.69	0.000
867.98	0.000
868.27	-233.333
868.57	-6.667
868.86	61.111
869.16	0.000
869.45	40.000
869.75	-600.000
870.04	0.000
870.33	-42.857
870.63	-9.524
870.92	400.000
871.22	-160.000
871.51	-200.000
871.80	66.667
872.10	566.667
>>>>>End Processed Spectral Data<<<<<
