SpectraSuite Data File
++++++++++++++++++++++++++++++++++++
Date: Fri May 15 21:11:14 PDT 2015
User: schluterlab
Dark Spectrum Present: Yes
Reference Spectrum Present: Yes
Number of Sampled Component Spectra: 1
Spectrometers: USB2E3373
Integration Time (usec): 3000 (USB2E3373)
Spectra Averaged: 3 (USB2E3373)
Boxcar Smoothing: 0 (USB2E3373)
Correct for Electrical Dark: No (USB2E3373)
Strobe/Lamp Enabled: No (USB2E3373)
Correct for Detector Non-linearity: No (USB2E3373)
Correct for Stray Light: No (USB2E3373)
Number of Pixels in Processed Spectrum: 2048
>>>>>Begin Processed Spectral Data<<<<<
178.53	0.000
178.91	0.000
179.29	62.500
179.67	-900.000
180.04	57.143
180.42	25.000
180.80	-300.000
181.18	533.333
181.56	750.000
181.94	300.000
182.31	300.000
182.69	-240.000
183.07	-433.333
183.45	-160.000
183.83	150.000
184.20	-45.455
184.58	144.444
184.96	-100.000
185.34	66.667
185.72	-450.000
186.09	138.462
186.47	0.000
186.85	300.000
187.23	133.333
187.61	-200.000
187.98	-333.333
188.36	33.333
188.74	166.667
189.12	47.059
189.49	5.556
189.87	0.000
190.25	7.143
190.63	100.000
191.00	-66.667
191.38	-31.579
191.76	100.000
192.14	100.000
192.51	-150.000
192.89	-155.556
193.27	-71.429
193.65	216.667
194.02	154.545
194.40	50.000
194.78	-50.000
195.15	58.333
195.53	-87.500
195.91	150.000
196.29	-225.000
196.66	84.615
197.04	-14.286
197.42	-77.778
197.79	-666.667
198.17	-107.692
198.55	1200.000
198.92	-200.000
199.30	100.000
199.68	-20.000
200.05	-200.000
200.43	0.000
200.81	0.000
201.18	-100.000
201.56	1800.000
201.94	-500.000
202.31	133.333
202.69	0.000
203.07	100.000
203.44	100.000
203.82	0.000
204.19	-7.143
204.57	-533.333
204.95	150.000
205.32	0.000
205.70	-42.857
206.08	-125.000
206.45	88.889
206.83	14.286
207.20	-157.143
207.58	800.000
207.96	-233.333
208.33	-120.000
208.71	-25.000
209.08	-116.667
209.46	-300.000
209.84	20.000
210.21	-200.000
210.59	85.714
210.96	-33.333
211.34	-250.000
211.71	46.667
212.09	-71.429
212.46	-1400.000
212.84	0.000
213.22	40.000
213.59	100.000
213.97	0.000
214.34	-9.091
214.72	-100.000
215.09	425.000
215.47	-7.692
215.84	18.182
216.22	-300.000
216.59	0.000
216.97	250.000
217.34	275.000
217.72	60.000
218.09	75.000
218.47	212.500
218.84	-1200.000
219.22	11.111
219.59	-20.000
219.97	100.000
220.34	50.000
220.72	42.857
221.09	-300.000
221.47	-250.000
221.84	-700.000
222.22	-600.000
222.59	27.273
222.97	-58.333
223.34	-100.000
223.72	-78.571
224.09	19.048
224.46	17.857
224.84	533.333
225.21	30.000
225.59	33.333
225.96	-250.000
226.34	175.000
226.71	-114.286
227.08	-50.000
227.46	-62.500
227.83	-350.000
228.21	-66.667
228.58	0.000
228.95	-112.500
229.33	60.000
229.70	43.750
230.08	-150.000
230.45	-185.714
230.82	-28.571
231.20	-33.333
231.57	28.571
231.95	14.286
232.32	-90.000
232.69	-21.429
233.07	133.333
233.44	-40.000
233.81	-190.000
234.19	-33.333
234.56	-41.176
234.93	650.000
235.31	-175.000
235.68	-280.000
236.05	-61.538
236.43	-10.000
236.80	17.647
237.17	9.375
237.55	-50.000
237.92	-25.926
238.29	16.667
238.67	-16.667
239.04	-11.765
239.41	-24.390
239.79	-53.333
240.16	12.195
240.53	-2.632
240.91	-19.565
241.28	0.000
241.65	7.143
242.02	13.699
242.40	-10.000
242.77	-18.644
243.14	-15.152
243.51	-10.000
243.89	5.747
244.26	-9.195
244.63	-4.762
245.00	0.000
245.38	4.124
245.75	-14.607
246.12	-4.310
246.49	-3.306
246.87	3.846
247.24	1.681
247.61	-6.140
247.98	-6.504
248.36	4.375
248.73	1.974
249.10	-3.247
249.47	-2.532
249.84	-1.307
250.22	-1.765
250.59	1.307
250.96	7.042
251.33	2.326
251.70	-1.176
252.08	1.523
252.45	1.485
252.82	-2.010
253.19	3.687
253.56	-3.271
253.94	-1.351
254.31	2.174
254.68	-0.439
255.05	3.543
255.42	-1.310
255.79	2.703
256.16	2.335
256.54	5.970
256.91	5.703
257.28	3.717
257.65	2.247
258.02	1.418
258.39	5.051
258.76	4.762
259.14	5.316
259.51	2.265
259.88	2.749
260.25	4.248
260.62	4.514
260.99	-3.390
261.36	-1.370
261.73	1.899
262.10	3.040
262.47	2.761
262.85	0.000
263.22	-0.615
263.59	3.427
263.96	4.348
264.33	-0.303
264.70	3.274
265.07	1.488
265.44	3.116
265.81	4.802
266.18	1.093
266.55	3.599
266.92	2.850
267.29	2.350
267.66	1.279
268.03	0.785
268.40	-0.522
268.77	5.882
269.14	2.878
269.51	5.141
269.88	0.748
270.25	-0.255
270.62	0.976
270.99	-1.535
271.36	0.489
271.73	5.869
272.10	2.433
272.47	2.128
272.84	2.723
273.21	4.872
273.58	6.988
273.95	3.432
274.32	0.462
274.69	0.679
275.06	2.902
275.43	3.628
275.80	3.091
276.17	1.839
276.54	2.998
276.91	2.632
277.28	1.747
277.65	5.785
278.02	2.979
278.39	1.532
278.76	1.468
279.13	-0.622
279.50	3.992
279.87	5.832
280.23	0.645
280.60	2.729
280.97	4.040
281.34	1.154
281.71	3.901
282.08	0.613
282.45	1.957
282.82	3.089
283.19	3.675
283.56	0.771
283.92	-1.518
284.29	2.692
284.66	2.713
285.03	3.733
285.40	4.159
285.77	1.933
286.14	2.708
286.51	2.768
286.87	3.291
287.24	1.657
287.61	1.235
287.98	2.281
288.35	2.426
288.72	4.028
289.08	1.562
289.45	2.812
289.82	3.671
290.19	2.218
290.56	-1.201
290.93	2.694
291.29	2.773
291.66	2.677
292.03	1.276
292.40	2.581
292.77	1.914
293.13	-0.649
293.50	2.276
293.87	4.427
294.24	3.555
294.60	3.279
294.97	4.464
295.34	2.454
295.71	2.981
296.08	3.587
296.44	0.000
296.81	1.944
297.18	3.043
297.55	3.659
297.91	2.603
298.28	2.770
298.65	3.121
299.02	3.100
299.38	0.137
299.75	1.241
300.12	2.356
300.48	1.054
300.85	3.169
301.22	2.597
301.59	0.658
301.95	4.051
302.32	2.983
302.69	1.493
303.05	3.218
303.42	3.736
303.79	4.439
304.15	2.987
304.52	1.308
304.89	2.105
305.25	3.148
305.62	2.100
305.99	1.754
306.35	1.850
306.72	1.575
307.09	2.166
307.45	3.100
307.82	1.620
308.19	2.671
308.55	2.944
308.92	3.486
309.29	2.235
309.65	2.476
310.02	3.080
310.38	2.415
310.75	3.060
311.12	2.583
311.48	2.545
311.85	3.979
312.22	2.637
312.58	3.609
312.95	2.348
313.31	2.899
313.68	4.084
314.05	3.571
314.41	4.433
314.78	3.608
315.14	4.625
315.51	4.658
315.87	5.328
316.24	5.258
316.61	5.906
316.97	5.853
317.34	4.883
317.70	6.788
318.07	5.288
318.43	6.765
318.80	5.682
319.16	7.129
319.53	8.072
319.89	7.185
320.26	8.603
320.62	9.228
320.99	8.559
321.35	9.455
321.72	9.450
322.08	8.963
322.45	9.543
322.81	10.314
323.18	10.500
323.54	10.232
323.91	12.074
324.27	12.305
324.64	14.045
325.00	13.869
325.37	16.070
325.73	15.413
326.10	17.711
326.46	16.502
326.83	18.548
327.19	18.134
327.56	19.548
327.92	19.982
328.29	19.821
328.65	22.358
329.01	22.426
329.38	22.857
329.74	22.663
330.11	22.892
330.47	23.933
330.84	24.519
331.20	26.331
331.56	24.907
331.93	27.123
332.29	27.223
332.66	26.878
333.02	28.532
333.38	28.048
333.75	30.586
334.11	28.559
334.48	30.009
334.84	29.396
335.20	30.192
335.57	30.553
335.93	29.810
336.29	30.663
336.66	30.881
337.02	30.390
337.38	30.833
337.75	32.182
338.11	31.109
338.47	32.208
338.84	32.810
339.20	33.272
339.56	32.294
339.93	33.124
340.29	33.211
340.65	32.796
341.02	33.333
341.38	33.363
341.74	34.011
342.11	32.236
342.47	34.431
342.83	34.170
343.20	33.188
343.56	33.826
343.92	33.835
344.28	34.330
344.65	33.247
345.01	32.757
345.37	32.801
345.73	33.975
346.10	34.599
346.46	34.146
346.82	33.306
347.19	32.668
347.55	34.002
347.91	34.142
348.27	33.791
348.63	35.349
349.00	34.783
349.36	34.414
349.72	36.567
350.08	34.672
350.45	33.919
350.81	34.468
351.17	33.306
351.53	34.449
351.89	32.700
352.26	32.800
352.62	34.435
352.98	33.815
353.34	32.770
353.70	33.091
354.07	34.516
354.43	33.707
354.79	34.021
355.15	34.286
355.51	34.573
355.87	33.657
356.24	32.708
356.60	32.741
356.96	35.079
357.32	33.866
357.68	33.464
358.04	33.118
358.40	32.556
358.77	34.609
359.13	34.107
359.49	32.897
359.85	33.463
360.21	34.609
360.57	34.200
360.93	34.644
361.29	32.024
361.66	34.404
362.02	33.485
362.38	33.740
362.74	33.308
363.10	33.785
363.46	33.580
363.82	34.560
364.18	34.244
364.54	32.868
364.90	34.695
365.26	33.406
365.62	34.599
365.98	34.018
366.35	34.669
366.71	33.777
367.07	33.817
367.43	33.789
367.79	34.629
368.15	34.602
368.51	33.795
368.87	34.602
369.23	33.430
369.59	33.236
369.95	34.751
370.31	33.382
370.67	33.507
371.03	33.757
371.39	33.844
371.75	34.652
372.11	33.524
372.47	35.281
372.83	34.351
373.19	35.164
373.55	33.357
373.91	35.061
374.27	34.515
374.63	34.243
374.99	33.333
375.35	33.844
375.71	34.476
376.07	34.340
376.42	33.878
376.78	36.040
377.14	35.003
377.50	34.329
377.86	34.404
378.22	34.142
378.58	34.167
378.94	34.279
379.30	33.749
379.66	34.734
380.02	34.396
380.38	32.745
380.74	33.034
381.09	34.417
381.45	33.150
381.81	34.238
382.17	34.645
382.53	33.979
382.89	35.028
383.25	34.163
383.61	34.512
383.97	33.968
384.32	35.022
384.68	33.003
385.04	32.843
385.40	32.981
385.76	34.528
386.12	34.282
386.48	35.249
386.83	33.925
387.19	33.394
387.55	34.253
387.91	33.680
388.27	33.028
388.62	34.110
388.98	33.272
389.34	33.729
389.70	34.680
390.06	33.103
390.42	34.326
390.77	33.028
391.13	32.030
391.49	33.247
391.85	33.138
392.20	32.580
392.56	33.249
392.92	32.061
393.28	33.314
393.64	32.853
393.99	33.480
394.35	32.448
394.71	33.780
395.07	33.564
395.42	32.119
395.78	33.160
396.14	32.913
396.50	33.608
396.85	33.226
397.21	32.519
397.57	33.292
397.92	33.194
398.28	32.931
398.64	32.470
399.00	33.126
399.35	32.280
399.71	32.165
400.07	33.434
400.42	33.048
400.78	32.272
401.14	33.757
401.49	32.579
401.85	33.455
402.21	32.892
402.57	33.250
402.92	32.246
403.28	32.456
403.63	32.850
403.99	32.015
404.35	33.354
404.70	31.548
405.06	32.256
405.42	32.256
405.77	31.435
406.13	31.315
406.49	32.031
406.84	31.601
407.20	32.631
407.55	31.230
407.91	31.484
408.27	31.740
408.62	32.062
408.98	30.437
409.34	31.846
409.69	30.685
410.05	30.911
410.40	31.358
410.76	32.630
411.11	31.000
411.47	31.558
411.83	31.764
412.18	31.982
412.54	30.524
412.89	30.911
413.25	31.829
413.60	30.807
413.96	30.613
414.31	30.976
414.67	30.789
415.03	31.425
415.38	30.352
415.74	30.879
416.09	31.679
416.45	30.925
416.80	31.262
417.16	32.113
417.51	30.979
417.87	31.356
418.22	31.606
418.58	31.438
418.93	31.536
419.29	29.257
419.64	31.497
420.00	31.360
420.35	30.985
420.71	30.923
421.06	30.755
421.42	31.250
421.77	31.792
422.12	31.385
422.48	31.511
422.83	31.729
423.19	31.941
423.54	31.452
423.90	31.920
424.25	32.377
424.61	32.252
424.96	31.998
425.31	33.218
425.67	32.336
426.02	33.157
426.38	32.561
426.73	32.446
427.09	32.785
427.44	32.765
427.79	32.292
428.15	33.131
428.50	31.678
428.85	31.941
429.21	31.409
429.56	32.453
429.92	32.614
430.27	32.130
430.62	31.364
430.98	32.643
431.33	32.965
431.68	32.496
432.04	32.364
432.39	32.345
432.74	31.990
433.10	33.736
433.45	32.437
433.80	32.385
434.16	32.355
434.51	33.226
434.86	33.798
435.22	32.754
435.57	34.685
435.92	33.593
436.28	33.154
436.63	33.657
436.98	32.908
437.34	34.120
437.69	33.393
438.04	33.618
438.39	33.109
438.75	32.665
439.10	34.635
439.45	33.962
439.81	33.945
440.16	34.204
440.51	34.925
440.86	35.287
441.22	35.124
441.57	33.830
441.92	35.677
442.27	34.534
442.63	36.188
442.98	35.325
443.33	34.502
443.68	34.695
444.03	35.370
444.39	36.301
444.74	35.730
445.09	36.748
445.44	35.271
445.79	36.617
446.15	36.344
446.50	35.607
446.85	36.610
447.20	35.558
447.55	37.054
447.91	36.492
448.26	36.198
448.61	37.306
448.96	36.833
449.31	37.225
449.66	36.411
450.02	36.908
450.37	37.463
450.72	36.770
451.07	37.025
451.42	36.954
451.77	36.649
452.12	36.842
452.47	36.703
452.83	36.514
453.18	35.990
453.53	37.800
453.88	37.766
454.23	37.124
454.58	38.098
454.93	37.500
455.28	36.444
455.63	37.260
455.98	39.026
456.34	37.420
456.69	36.912
457.04	38.374
457.39	37.971
457.74	37.606
458.09	37.198
458.44	37.390
458.79	37.255
459.14	38.101
459.49	37.910
459.84	38.748
460.19	38.532
460.54	38.447
460.89	37.557
461.24	38.385
461.59	38.658
461.94	37.736
462.29	39.324
462.64	39.801
462.99	39.743
463.34	37.274
463.69	37.838
464.04	39.044
464.39	37.720
464.74	38.712
465.09	39.676
465.44	39.181
465.79	37.188
466.14	38.883
466.49	38.528
466.84	38.667
467.19	39.424
467.54	38.825
467.89	38.471
468.24	38.564
468.59	40.000
468.94	38.222
469.29	38.492
469.64	38.824
469.99	39.804
470.34	39.590
470.68	40.418
471.03	40.198
471.38	39.943
471.73	39.916
472.08	40.027
472.43	39.463
472.78	39.273
473.13	39.388
473.48	38.958
473.83	38.356
474.17	39.896
474.52	39.502
474.87	40.061
475.22	38.926
475.57	39.752
475.92	39.495
476.27	40.338
476.61	40.104
476.96	39.264
477.31	39.697
477.66	38.989
478.01	39.360
478.36	39.434
478.70	40.620
479.05	40.440
479.40	39.375
479.75	39.364
480.10	39.887
480.45	40.900
480.79	39.879
481.14	39.754
481.49	39.852
481.84	39.334
482.19	39.196
482.53	40.336
482.88	40.239
483.23	39.107
483.58	40.236
483.92	39.109
484.27	39.562
484.62	40.385
484.97	39.055
485.31	38.114
485.66	36.701
486.01	37.498
486.36	37.556
486.70	37.910
487.05	38.084
487.40	38.780
487.75	39.296
488.09	39.710
488.44	38.411
488.79	38.812
489.13	40.425
489.48	39.333
489.83	39.372
490.17	40.135
490.52	40.185
490.87	39.472
491.22	40.783
491.56	40.655
491.91	39.771
492.26	40.933
492.60	40.691
492.95	40.925
493.30	40.205
493.64	41.699
493.99	41.932
494.34	40.534
494.68	40.571
495.03	40.973
495.37	40.579
495.72	40.030
496.07	40.195
496.41	40.142
496.76	40.857
497.11	40.102
497.45	41.098
497.80	42.281
498.14	41.878
498.49	41.188
498.84	39.571
499.18	42.118
499.53	40.873
499.87	40.272
500.22	41.147
500.56	41.654
500.91	41.114
501.26	40.732
501.60	40.482
501.95	41.776
502.29	41.404
502.64	40.927
502.98	42.082
503.33	39.385
503.67	40.916
504.02	41.251
504.36	41.514
504.71	41.162
505.06	40.916
505.40	41.015
505.75	41.598
506.09	40.446
506.44	40.708
506.78	41.071
507.13	41.830
507.47	41.462
507.82	41.239
508.16	41.416
508.51	41.343
508.85	40.973
509.19	41.937
509.54	41.394
509.88	40.669
510.23	42.119
510.57	41.635
510.92	41.738
511.26	42.390
511.61	42.739
511.95	41.534
512.30	42.960
512.64	41.736
512.98	41.101
513.33	41.970
513.67	41.615
514.02	43.364
514.36	43.029
514.70	43.590
515.05	43.184
515.39	41.677
515.74	42.994
516.08	42.499
516.42	43.051
516.77	42.305
517.11	43.145
517.46	43.088
517.80	43.027
518.14	42.560
518.49	42.488
518.83	42.102
519.17	43.117
519.52	40.971
519.86	42.617
520.20	42.953
520.55	43.152
520.89	43.977
521.23	42.875
521.58	42.397
521.92	45.000
522.26	43.136
522.61	43.701
522.95	44.106
523.29	43.011
523.64	44.346
523.98	43.033
524.32	41.817
524.66	43.726
525.01	43.636
525.35	42.450
525.69	43.502
526.04	43.386
526.38	43.969
526.72	42.054
527.06	42.088
527.41	43.404
527.75	43.901
528.09	42.857
528.43	44.700
528.78	42.574
529.12	42.581
529.46	43.470
529.80	42.495
530.15	43.564
530.49	43.569
530.83	43.639
531.17	42.848
531.51	44.596
531.86	43.712
532.20	42.937
532.54	42.546
532.88	43.190
533.22	44.019
533.57	43.381
533.91	42.232
534.25	44.466
534.59	42.463
534.93	40.654
535.27	42.069
535.62	42.126
535.96	41.813
536.30	42.348
536.64	43.349
536.98	41.672
537.32	44.239
537.66	43.058
538.01	42.378
538.35	42.164
538.69	43.342
539.03	41.422
539.37	42.934
539.71	43.490
540.05	43.381
540.39	42.382
540.73	42.887
541.07	43.163
541.42	42.742
541.76	41.913
542.10	42.533
542.44	42.182
542.78	42.051
543.12	41.690
543.46	41.446
543.80	43.928
544.14	41.121
544.48	42.505
544.82	41.763
545.16	43.238
545.50	41.188
545.84	42.493
546.18	43.546
546.52	42.826
546.86	42.416
547.20	42.346
547.54	41.201
547.88	42.120
548.22	40.828
548.56	41.293
548.90	41.981
549.24	41.460
549.58	42.736
549.92	41.959
550.26	43.004
550.60	41.933
550.94	42.569
551.28	42.117
551.62	44.077
551.96	43.083
552.30	41.594
552.64	41.608
552.98	42.616
553.32	42.439
553.66	41.945
554.00	42.336
554.34	43.058
554.68	42.183
555.02	41.815
555.36	43.156
555.69	42.564
556.03	42.113
556.37	40.569
556.71	41.661
557.05	42.506
557.39	42.007
557.73	41.979
558.07	43.665
558.41	43.415
558.75	43.180
559.08	44.129
559.42	43.016
559.76	44.516
560.10	42.737
560.44	43.410
560.78	41.119
561.12	42.384
561.45	42.867
561.79	42.647
562.13	40.738
562.47	42.734
562.81	41.715
563.15	41.961
563.48	41.231
563.82	42.141
564.16	43.106
564.50	41.689
564.84	42.905
565.17	40.443
565.51	43.374
565.85	43.621
566.19	41.512
566.52	43.164
566.86	42.609
567.20	41.345
567.54	41.302
567.88	41.886
568.21	40.781
568.55	39.076
568.89	40.298
569.23	39.624
569.56	39.405
569.90	39.383
570.24	38.556
570.57	38.945
570.91	38.933
571.25	37.751
571.59	37.029
571.92	36.326
572.26	37.077
572.60	37.395
572.93	37.025
573.27	36.897
573.61	37.172
573.95	37.247
574.28	36.944
574.62	36.461
574.96	36.176
575.29	35.386
575.63	35.450
575.97	36.568
576.30	35.704
576.64	35.868
576.98	36.577
577.31	36.545
577.65	36.445
577.98	36.348
578.32	35.808
578.66	34.924
578.99	35.377
579.33	35.623
579.67	35.100
580.00	35.696
580.34	35.871
580.67	36.029
581.01	36.287
581.35	35.444
581.68	35.485
582.02	35.383
582.35	35.469
582.69	35.684
583.02	35.377
583.36	36.125
583.70	36.786
584.03	36.947
584.37	37.408
584.70	36.648
585.04	35.259
585.37	34.914
585.71	36.485
586.04	35.376
586.38	36.116
586.72	36.844
587.05	37.319
587.39	37.210
587.72	37.288
588.06	36.147
588.39	36.884
588.73	36.264
589.06	37.247
589.40	37.746
589.73	38.226
590.07	37.689
590.40	38.351
590.73	38.303
591.07	38.126
591.40	38.602
591.74	37.738
592.07	39.054
592.41	38.472
592.74	37.634
593.08	36.605
593.41	36.310
593.75	36.506
594.08	37.007
594.41	36.499
594.75	37.595
595.08	37.306
595.42	37.541
595.75	38.190
596.09	38.038
596.42	37.619
596.75	39.076
597.09	37.859
597.42	38.799
597.75	38.983
598.09	37.076
598.42	38.267
598.76	36.980
599.09	37.139
599.42	36.908
599.76	36.719
600.09	36.840
600.42	37.149
600.76	36.404
601.09	36.756
601.42	36.780
601.76	36.999
602.09	37.789
602.42	38.206
602.76	38.455
603.09	38.455
603.42	38.420
603.76	37.621
604.09	36.979
604.42	37.817
604.76	38.318
605.09	38.346
605.42	37.923
605.75	36.734
606.09	37.537
606.42	37.615
606.75	37.879
607.09	38.725
607.42	38.370
607.75	37.922
608.08	37.062
608.42	37.460
608.75	37.928
609.08	38.366
609.41	38.782
609.75	37.702
610.08	39.790
610.41	36.715
610.74	38.225
611.07	39.070
611.41	39.855
611.74	39.286
612.07	39.026
612.40	38.621
612.73	39.040
613.07	38.245
613.40	38.895
613.73	39.675
614.06	38.008
614.39	38.579
614.72	39.496
615.06	38.436
615.39	38.264
615.72	37.944
616.05	37.486
616.38	37.835
616.71	39.266
617.05	38.789
617.38	39.032
617.71	38.868
618.04	40.444
618.37	40.479
618.70	39.406
619.03	41.181
619.36	40.232
619.69	41.016
620.03	41.636
620.36	38.627
620.69	40.328
621.02	41.590
621.35	43.402
621.68	42.857
622.01	42.083
622.34	41.022
622.67	41.325
623.00	41.501
623.33	40.091
623.66	40.763
623.99	40.469
624.32	41.597
624.65	39.323
624.99	41.460
625.32	40.637
625.65	40.770
625.98	40.935
626.31	41.812
626.64	40.988
626.97	41.885
627.30	40.630
627.63	41.075
627.96	41.509
628.29	41.628
628.62	42.675
628.95	43.487
629.28	44.456
629.61	43.769
629.94	43.500
630.26	42.688
630.59	44.849
630.92	42.667
631.25	42.462
631.58	43.282
631.91	44.298
632.24	43.578
632.57	43.409
632.90	44.009
633.23	44.235
633.56	46.474
633.89	47.349
634.22	46.173
634.55	45.870
634.88	47.126
635.20	44.231
635.53	46.000
635.86	47.074
636.19	46.960
636.52	45.281
636.85	43.548
637.18	44.528
637.51	46.164
637.83	45.598
638.16	46.930
638.49	43.597
638.82	44.737
639.15	44.912
639.48	46.080
639.81	43.933
640.13	45.022
640.46	45.773
640.79	45.950
641.12	45.790
641.45	45.646
641.77	46.074
642.10	48.499
642.43	46.945
642.76	48.350
643.09	49.919
643.41	46.926
643.74	46.293
644.07	49.754
644.40	48.986
644.73	49.737
645.05	48.658
645.38	50.088
645.71	47.695
646.04	50.808
646.36	48.759
646.69	50.540
647.02	51.607
647.35	47.201
647.67	49.177
648.00	49.627
648.33	46.587
648.66	48.136
648.98	46.399
649.31	47.934
649.64	44.427
649.96	45.381
650.29	47.700
650.62	46.325
650.94	46.667
651.27	46.741
651.60	47.748
651.92	46.154
652.25	46.181
652.58	46.333
652.90	46.312
653.23	44.538
653.56	43.993
653.88	46.392
654.21	46.235
654.54	43.633
654.86	46.520
655.19	42.251
655.52	40.635
655.84	34.134
656.17	36.873
656.49	49.403
656.82	50.750
657.15	39.422
657.47	29.563
657.80	22.214
658.13	21.958
658.45	33.778
658.78	33.465
659.10	33.558
659.43	33.996
659.75	34.682
660.08	36.414
660.41	38.917
660.73	41.160
661.06	44.194
661.38	45.010
661.71	45.380
662.03	50.000
662.36	49.231
662.68	48.451
663.01	50.218
663.33	50.348
663.66	47.674
663.98	49.070
664.31	47.974
664.63	48.387
664.96	45.217
665.28	43.709
665.61	48.918
665.93	45.870
666.26	49.892
666.58	44.295
666.91	48.471
667.23	48.585
667.56	50.474
667.88	51.559
668.21	47.017
668.53	48.700
668.86	47.406
669.18	46.698
669.50	47.215
669.83	46.047
670.15	49.417
670.48	47.847
670.80	48.848
671.13	48.322
671.45	49.543
671.77	46.352
672.10	44.950
672.42	42.509
672.75	44.050
673.07	45.617
673.39	47.339
673.72	41.617
674.04	45.625
674.37	47.246
674.69	45.182
675.01	47.111
675.34	46.622
675.66	48.611
675.98	47.894
676.31	45.872
676.63	47.981
676.95	46.364
677.28	48.235
677.60	50.120
677.92	47.477
678.25	47.046
678.57	43.506
678.89	44.328
679.22	46.756
679.54	43.574
679.86	41.551
680.18	43.689
680.51	40.720
680.83	40.358
681.15	43.200
681.48	47.131
681.80	45.455
682.12	42.944
682.44	46.234
682.77	47.020
683.09	46.453
683.41	44.318
683.73	46.313
684.06	44.690
684.38	43.441
684.70	44.227
685.02	42.116
685.34	43.281
685.67	41.276
685.99	41.410
686.31	40.531
686.63	44.341
686.96	41.825
687.28	40.000
687.60	42.015
687.92	44.444
688.24	43.145
688.56	45.197
688.89	42.188
689.21	44.000
689.53	42.691
689.85	43.023
690.17	45.313
690.49	45.626
690.82	43.447
691.14	42.857
691.46	43.925
691.78	45.495
692.10	42.366
692.42	39.394
692.74	42.521
693.06	43.919
693.39	41.629
693.71	39.593
694.03	40.878
694.35	42.523
694.67	44.192
694.99	43.864
695.31	47.258
695.63	45.500
695.95	41.667
696.27	44.041
696.59	47.500
696.91	42.017
697.23	41.902
697.56	43.317
697.88	41.505
698.20	38.952
698.52	41.882
698.84	42.584
699.16	41.500
699.48	44.862
699.80	44.417
700.12	46.631
700.44	46.779
700.76	41.279
701.08	41.515
701.40	45.482
701.72	46.605
702.04	43.564
702.36	45.819
702.68	42.342
703.00	44.848
703.32	45.161
703.64	41.243
703.96	43.478
704.28	40.798
704.60	46.984
704.91	42.271
705.23	44.518
705.55	46.996
705.87	49.458
706.19	47.407
706.51	45.361
706.83	47.910
707.15	40.498
707.47	43.417
707.79	42.188
708.11	40.500
708.43	39.000
708.74	41.344
709.06	42.535
709.38	49.235
709.70	41.716
710.02	45.860
710.34	42.105
710.66	38.782
710.98	42.715
711.29	44.590
711.61	44.068
711.93	42.671
712.25	42.612
712.57	42.125
712.89	41.045
713.20	42.907
713.52	40.418
713.84	41.638
714.16	43.643
714.48	40.000
714.80	44.231
715.11	46.809
715.43	36.364
715.75	42.333
716.07	37.542
716.39	40.940
716.70	42.435
717.02	40.076
717.34	43.320
717.66	48.230
717.97	42.174
718.29	48.117
718.61	44.882
718.93	35.271
719.24	44.867
719.56	44.578
719.88	40.893
720.20	42.424
720.51	37.931
720.83	40.541
721.15	42.437
721.46	42.339
721.78	43.874
722.10	39.777
722.42	42.739
722.73	40.408
723.05	44.082
723.37	47.034
723.68	50.901
724.00	40.598
724.32	38.222
724.63	42.727
724.95	39.301
725.27	47.926
725.58	47.458
725.90	37.698
726.22	44.788
726.53	43.051
726.85	41.948
727.16	42.264
727.48	41.700
727.80	42.915
728.11	40.678
728.43	39.608
728.74	35.081
729.06	39.600
729.38	48.872
729.69	37.450
730.01	32.308
730.32	41.791
730.64	40.283
730.96	41.887
731.27	34.333
731.59	38.644
731.90	39.172
732.22	41.009
732.53	44.518
732.85	37.943
733.16	39.057
733.48	39.209
733.80	38.768
734.11	34.576
734.43	36.770
734.74	36.667
735.06	36.808
735.37	37.160
735.69	40.741
736.00	39.024
736.32	37.248
736.63	37.324
736.95	40.273
737.26	37.011
737.58	36.577
737.89	35.897
738.21	38.346
738.52	44.033
738.83	41.921
739.15	39.738
739.46	42.126
739.78	37.729
740.09	35.948
740.41	40.942
740.72	33.858
741.04	40.081
741.35	37.021
741.66	44.076
741.98	42.347
742.29	42.574
742.61	41.361
742.92	33.649
743.23	37.037
743.55	40.724
743.86	44.498
744.18	42.105
744.49	38.830
744.80	36.957
745.12	45.455
745.43	36.585
745.74	47.917
746.06	39.512
746.37	41.361
746.68	41.232
747.00	40.957
747.31	42.786
747.62	37.864
747.94	36.364
748.25	34.158
748.56	43.716
748.88	44.503
749.19	43.617
749.50	46.798
749.82	35.377
750.13	44.495
750.44	41.353
750.75	39.552
751.07	39.416
751.38	37.165
751.69	32.549
752.01	35.659
752.32	38.645
752.63	33.202
752.94	37.931
753.26	44.770
753.57	35.294
753.88	40.265
754.19	34.167
754.51	35.537
754.82	34.413
755.13	41.250
755.44	39.919
755.75	37.500
756.07	36.576
756.38	41.132
756.69	32.567
757.00	34.000
757.31	37.582
757.63	36.890
757.94	34.722
758.25	30.959
758.56	31.117
758.87	30.878
759.18	34.891
759.50	36.727
759.81	35.786
760.12	33.871
760.43	29.394
760.74	32.716
761.05	33.538
761.36	34.659
761.67	35.152
761.99	36.054
762.30	31.273
762.61	35.178
762.92	33.937
763.23	35.586
763.54	39.252
763.85	33.051
764.16	35.270
764.47	29.839
764.78	30.769
765.10	36.027
765.41	34.069
765.72	34.603
766.03	29.323
766.34	34.672
766.65	36.255
766.96	33.333
767.27	42.021
767.58	38.506
767.89	31.206
768.20	35.227
768.51	42.857
768.82	34.483
769.13	35.945
769.44	27.039
769.75	32.420
770.06	32.759
770.37	34.135
770.68	37.563
770.99	36.652
771.30	37.745
771.61	34.389
771.92	32.759
772.23	35.961
772.54	38.710
772.85	38.272
773.16	33.708
773.47	49.673
773.78	43.137
774.09	38.922
774.39	38.667
774.70	30.573
775.01	42.759
775.32	36.429
775.63	34.711
775.94	37.405
776.25	41.732
776.56	34.167
776.87	36.538
777.18	23.932
777.48	35.345
777.79	33.913
778.10	40.952
778.41	38.739
778.72	34.921
779.03	33.835
779.34	44.681
779.65	31.507
779.95	28.082
780.26	30.345
780.57	26.829
780.88	31.496
781.19	31.897
781.50	35.659
781.80	28.994
782.11	22.642
782.42	40.000
782.73	28.058
783.04	34.815
783.34	27.778
783.65	23.077
783.96	35.246
784.27	32.414
784.57	34.959
784.88	28.906
785.19	32.000
785.50	59.000
785.81	25.000
786.11	29.310
786.42	28.155
786.73	42.727
787.04	31.633
787.34	19.643
787.65	36.190
787.96	19.469
788.26	32.727
788.57	47.009
788.88	38.281
789.19	26.984
789.49	31.304
789.80	26.531
790.11	32.323
790.41	30.000
790.72	33.696
791.03	31.818
791.33	36.250
791.64	25.000
791.95	23.256
792.25	28.723
792.56	23.596
792.87	30.137
793.17	42.029
793.48	21.333
793.79	35.000
794.09	46.250
794.40	24.528
794.70	29.126
795.01	26.016
795.32	30.769
795.62	21.905
795.93	34.314
796.23	19.811
796.54	29.167
796.85	38.235
797.15	21.127
797.46	26.389
797.76	42.424
798.07	31.395
798.37	17.105
798.68	22.727
798.99	34.568
799.29	18.571
799.60	27.536
799.90	24.000
800.21	42.623
800.51	26.154
800.82	20.339
801.12	34.783
801.43	21.311
801.73	30.159
802.04	14.000
802.34	11.940
802.65	38.462
802.95	26.786
803.26	25.000
803.56	37.255
803.87	15.217
804.17	25.333
804.48	41.270
804.78	25.926
805.09	34.783
805.39	-11.111
805.70	40.741
806.00	-5.263
806.30	33.803
806.61	27.143
806.91	5.556
807.22	43.421
807.52	28.000
807.83	23.636
808.13	13.889
808.43	26.471
808.74	35.821
809.04	5.085
809.35	28.846
809.65	43.750
809.95	-10.811
810.26	27.273
810.56	19.178
810.86	21.429
811.17	26.000
811.47	26.531
811.77	2.632
812.08	6.818
812.38	16.981
812.69	22.500
812.99	30.303
813.29	18.421
813.59	8.571
813.90	36.364
814.20	33.333
814.50	40.385
814.81	24.528
815.11	12.766
815.41	18.644
815.72	14.286
816.02	21.569
816.32	35.417
816.62	4.878
816.93	24.324
817.23	37.143
817.53	35.417
817.84	21.739
818.14	23.077
818.44	5.263
818.74	2.174
819.04	0.000
819.35	43.243
819.65	14.706
819.95	16.667
820.25	30.952
820.56	25.000
820.86	-6.897
821.16	55.000
821.46	42.553
821.76	32.500
822.07	32.558
822.37	16.216
822.67	3.125
822.97	21.429
823.27	-14.286
823.57	52.000
823.88	-40.741
824.18	25.000
824.48	41.176
824.78	22.581
825.08	-4.348
825.38	18.182
825.69	-29.167
825.99	26.316
826.29	19.444
826.59	-33.333
826.89	23.810
827.19	28.261
827.49	27.500
827.79	25.714
828.09	42.857
828.39	-3.030
828.70	45.946
829.00	7.143
829.30	-4.762
829.60	33.333
829.90	21.875
830.20	-13.158
830.50	-14.815
830.80	0.000
831.10	9.091
831.40	60.606
831.70	25.806
832.00	23.810
832.30	-14.286
832.60	-91.667
832.90	34.483
833.20	-10.000
833.50	6.061
833.80	-7.407
834.10	34.615
834.40	12.500
834.70	-66.667
835.00	-36.842
835.30	38.462
835.60	40.000
835.90	25.806
836.20	13.636
836.50	25.000
836.80	-38.462
837.10	21.429
837.40	-100.000
837.70	13.636
838.00	-136.364
838.30	17.391
838.60	-30.769
838.90	50.000
839.19	25.000
839.49	-3.333
839.79	30.769
840.09	-116.667
840.39	32.143
840.69	7.143
840.99	0.000
841.29	-57.895
841.59	-130.000
841.88	18.182
842.18	-50.000
842.48	-6.250
842.78	-26.667
843.08	-11.111
843.38	-100.000
843.68	-13.043
843.97	-40.000
844.27	-20.000
844.57	0.000
844.87	5.556
845.17	-23.810
845.47	53.333
845.76	0.000
846.06	-29.412
846.36	-40.000
846.66	-21.429
846.96	-20.000
847.25	-150.000
847.55	92.857
847.85	87.500
848.15	-18.182
848.44	-300.000
848.74	20.000
849.04	37.037
849.34	0.000
849.63	-16.667
849.93	-60.000
850.23	-61.111
850.53	20.000
850.82	-7.692
851.12	-111.111
851.42	-26.667
851.71	-7.692
852.01	107.143
852.31	-175.000
852.61	-36.364
852.90	-50.000
853.20	-15.789
853.50	25.000
853.79	0.000
854.09	25.000
854.39	26.316
854.68	16.667
854.98	32.258
855.28	-30.769
855.57	25.000
855.87	22.222
856.17	-3.704
856.46	21.429
856.76	-13.333
857.05	-22.222
857.35	12.000
857.65	-27.778
857.94	-7.692
858.24	-6.897
858.53	50.000
858.83	48.148
859.13	45.455
859.42	26.087
859.72	0.000
860.01	-66.667
860.31	16.000
860.60	4.762
860.90	-66.667
861.20	-60.000
861.49	-750.000
861.79	-13.333
862.08	-35.000
862.38	20.000
862.67	-160.000
862.97	-83.333
863.26	-8.333
863.56	0.000
863.85	-466.667
864.15	72.222
864.44	-110.000
864.74	78.571
865.03	475.000
865.33	-260.000
865.62	-50.000
865.92	-108.333
866.21	-50.000
866.51	43.750
866.80	-145.455
867.10	-350.000
867.39	50.000
867.69	0.000
867.98	-46.154
868.27	-166.667
868.57	0.000
868.86	-33.333
869.16	-38.462
869.45	46.667
869.75	-1000.000
870.04	0.000
870.33	-42.857
870.63	0.000
870.92	500.000
871.22	-60.000
871.51	-600.000
871.80	-22.222
872.10	433.333
>>>>>End Processed Spectral Data<<<<<
