SpectraSuite Data File
++++++++++++++++++++++++++++++++++++
Date: Fri May 15 20:55:03 PDT 2015
User: schluterlab
Dark Spectrum Present: Yes
Reference Spectrum Present: Yes
Number of Sampled Component Spectra: 1
Spectrometers: USB2E3373
Integration Time (usec): 3000 (USB2E3373)
Spectra Averaged: 3 (USB2E3373)
Boxcar Smoothing: 0 (USB2E3373)
Correct for Electrical Dark: No (USB2E3373)
Strobe/Lamp Enabled: No (USB2E3373)
Correct for Detector Non-linearity: No (USB2E3373)
Correct for Stray Light: No (USB2E3373)
Number of Pixels in Processed Spectrum: 2048
>>>>>Begin Processed Spectral Data<<<<<
178.53	0.000
178.91	0.000
179.29	87.500
179.67	-300.000
180.04	-42.857
180.42	-25.000
180.80	200.000
181.18	333.333
181.56	-0.000
181.94	800.000
182.31	800.000
182.69	-100.000
183.07	-66.667
183.45	40.000
183.83	50.000
184.20	18.182
184.58	100.000
184.96	25.000
185.34	-100.000
185.72	-700.000
186.09	130.769
186.47	-1200.000
186.85	133.333
187.23	155.556
187.61	-600.000
187.98	-200.000
188.36	166.667
188.74	100.000
189.12	11.765
189.49	38.889
189.87	0.000
190.25	64.286
190.63	200.000
191.00	-100.000
191.38	-42.105
191.76	450.000
192.14	100.000
192.51	-450.000
192.89	-22.222
193.27	-128.571
193.65	200.000
194.02	136.364
194.40	90.000
194.78	-37.500
195.15	-16.667
195.53	-50.000
195.91	375.000
196.29	-25.000
196.66	84.615
197.04	71.429
197.42	22.222
197.79	-533.333
198.17	-69.231
198.55	1600.000
198.92	-100.000
199.30	400.000
199.68	-180.000
200.05	-466.667
200.43	0.000
200.81	133.333
201.18	-66.667
201.56	900.000
201.94	-300.000
202.31	33.333
202.69	-160.000
203.07	-25.000
203.44	-500.000
203.82	0.000
204.19	28.571
204.57	-200.000
204.95	37.500
205.32	-20.000
205.70	71.429
206.08	-250.000
206.45	77.778
206.83	14.286
207.20	-57.143
207.58	600.000
207.96	-200.000
208.33	-60.000
208.71	50.000
209.08	-250.000
209.46	-2200.000
209.84	-180.000
210.21	-1000.000
210.59	71.429
210.96	-16.667
211.34	-50.000
211.71	46.667
212.09	-128.571
212.46	-1600.000
212.84	0.000
213.22	-20.000
213.59	400.000
213.97	7.692
214.34	36.364
214.72	16.667
215.09	175.000
215.47	46.154
215.84	-45.455
216.22	-333.333
216.59	-37.500
216.97	-50.000
217.34	-100.000
217.72	-60.000
218.09	50.000
218.47	100.000
218.84	-900.000
219.22	-100.000
219.59	-160.000
219.97	233.333
220.34	500.000
220.72	-85.714
221.09	-475.000
221.47	300.000
221.84	-750.000
222.22	-600.000
222.59	81.818
222.97	75.000
223.34	-233.333
223.72	-64.286
224.09	-4.762
224.46	10.714
224.84	200.000
225.21	-50.000
225.59	6.667
225.96	-300.000
226.34	300.000
226.71	100.000
227.08	100.000
227.46	-62.500
227.83	-450.000
228.21	66.667
228.58	9.091
228.95	0.000
229.33	80.000
229.70	25.000
230.08	100.000
230.45	-42.857
230.82	-28.571
231.20	-13.333
231.57	64.286
231.95	-28.571
232.32	-130.000
232.69	28.571
233.07	-266.667
233.44	-100.000
233.81	-80.000
234.19	-122.222
234.56	-11.765
234.93	350.000
235.31	25.000
235.68	-60.000
236.05	-23.077
236.43	15.000
236.80	5.882
237.17	34.375
237.55	65.000
237.92	-7.407
238.29	33.333
238.67	-6.667
239.04	29.412
239.41	12.195
239.79	40.000
240.16	31.707
240.53	10.526
240.91	19.565
241.28	30.159
241.65	28.571
242.02	39.726
242.40	26.667
242.77	44.068
243.14	13.636
243.51	33.750
243.89	41.379
244.26	21.839
244.63	32.143
245.00	26.804
245.38	28.866
245.75	28.090
246.12	31.034
246.49	20.661
246.87	32.692
247.24	36.975
247.61	28.070
247.98	21.138
248.36	21.875
248.73	32.895
249.10	24.026
249.47	33.544
249.84	24.837
250.22	27.647
250.59	33.333
250.96	31.455
251.33	27.907
251.70	32.353
252.08	30.964
252.45	33.168
252.82	29.648
253.19	32.258
253.56	25.701
253.94	29.279
254.31	30.000
254.68	31.579
255.05	28.740
255.42	27.074
255.79	33.205
256.16	31.128
256.54	32.090
256.91	33.460
257.28	31.227
257.65	30.712
258.02	30.142
258.39	28.283
258.76	34.799
259.14	32.890
259.51	33.010
259.88	29.210
260.25	30.719
260.62	33.333
260.99	32.203
261.36	31.849
261.73	29.114
262.10	30.395
262.47	30.368
262.85	27.900
263.22	34.769
263.59	32.710
263.96	31.677
264.33	30.606
264.70	32.143
265.07	31.250
265.44	31.445
265.81	31.356
266.18	30.328
266.55	28.278
266.92	31.865
267.29	31.593
267.66	28.645
268.03	34.555
268.40	30.287
268.77	33.155
269.14	31.894
269.51	30.848
269.88	31.671
270.25	29.592
270.62	28.293
270.99	30.946
271.36	29.829
271.73	28.404
272.10	29.927
272.47	30.260
272.84	30.693
273.21	29.002
273.58	31.084
273.95	30.206
274.32	27.714
274.69	28.054
275.06	35.268
275.43	29.705
275.80	30.684
276.17	31.264
276.54	30.407
276.91	30.482
277.28	29.913
277.65	29.545
278.02	30.851
278.39	30.635
278.76	27.673
279.13	28.631
279.50	32.353
279.87	29.590
280.23	28.817
280.60	29.435
280.97	31.919
281.34	28.077
281.71	31.417
282.08	29.448
282.45	29.550
282.82	28.571
283.19	29.787
283.56	29.287
283.92	29.412
284.29	26.731
284.66	29.264
285.03	27.505
285.40	30.246
285.77	28.120
286.14	26.534
286.51	29.336
286.87	26.874
287.24	29.650
287.61	28.924
287.98	28.246
288.35	27.383
288.72	27.846
289.08	26.389
289.45	27.417
289.82	26.573
290.19	24.232
290.56	26.244
290.93	26.263
291.29	23.575
291.66	26.772
292.03	26.954
292.40	27.258
292.77	26.156
293.13	22.890
293.50	22.458
293.87	24.885
294.24	24.420
294.60	22.355
294.97	24.554
295.34	24.540
295.71	23.696
296.08	22.870
296.44	24.040
296.81	22.500
297.18	22.754
297.55	24.932
297.91	22.603
298.28	22.427
298.65	20.760
299.02	22.507
299.38	20.657
299.75	23.724
300.12	20.942
300.48	22.266
300.85	20.913
301.22	21.688
301.59	20.526
301.95	22.405
302.32	24.125
302.69	21.891
303.05	20.545
303.42	21.793
303.79	21.379
304.15	21.744
304.52	19.620
304.89	21.287
305.25	20.218
305.62	19.253
305.99	18.246
306.35	20.809
306.72	19.573
307.09	19.954
307.45	20.896
307.82	20.023
308.19	21.370
308.55	19.629
308.92	21.895
309.29	21.006
309.65	19.699
310.02	20.242
310.38	20.527
310.75	20.984
311.12	21.744
311.48	21.315
311.85	20.000
312.22	20.464
312.58	21.338
312.95	21.238
313.31	20.290
313.68	21.257
314.05	21.327
314.41	21.134
314.78	21.031
315.14	21.994
315.51	21.532
315.87	20.389
316.24	22.952
316.61	21.949
316.97	22.123
317.34	21.484
317.70	22.658
318.07	20.962
318.43	22.157
318.80	21.591
319.16	23.535
319.53	23.077
319.89	23.720
320.26	22.368
320.62	23.270
320.99	22.651
321.35	24.358
321.72	25.026
322.08	25.680
322.45	26.396
322.81	24.067
323.18	25.319
323.54	25.772
323.91	26.485
324.27	27.344
324.64	26.592
325.00	27.281
325.37	27.548
325.73	26.836
326.10	28.338
326.46	27.444
326.83	27.997
327.19	29.991
327.56	29.192
327.92	30.194
328.29	29.196
328.65	28.679
329.01	29.688
329.38	29.677
329.74	28.895
330.11	31.233
330.47	29.406
330.84	28.750
331.20	31.084
331.56	28.611
331.93	31.598
332.29	31.072
332.66	30.588
333.02	30.019
333.38	29.973
333.75	31.319
334.11	29.185
334.48	31.188
334.84	31.593
335.20	31.107
335.57	29.918
335.93	30.985
336.29	31.123
336.66	30.972
337.02	30.390
337.38	29.722
337.75	32.000
338.11	30.568
338.47	32.847
338.84	30.961
339.20	30.256
339.56	30.000
339.93	30.349
340.29	30.917
340.65	31.631
341.02	30.762
341.38	30.796
341.74	31.007
342.11	30.416
342.47	30.961
342.83	31.488
343.20	30.314
343.56	30.870
343.92	31.887
344.28	32.024
344.65	31.261
345.01	32.066
345.37	29.941
345.73	30.377
346.10	32.701
346.46	30.782
346.82	30.851
347.19	31.089
347.55	31.830
347.91	32.039
348.27	30.234
348.63	31.516
349.00	29.779
349.36	31.421
349.72	32.836
350.08	32.541
350.45	31.125
350.81	30.897
351.17	31.433
351.53	32.000
351.89	31.214
352.26	31.680
352.62	31.129
352.98	31.004
353.34	31.159
353.70	33.172
354.07	31.371
354.43	30.745
354.79	30.636
355.15	31.905
355.51	32.516
355.87	32.443
356.24	31.974
356.60	31.932
356.96	32.857
357.32	32.588
357.68	31.040
358.04	32.795
358.40	32.154
358.77	32.855
359.13	32.106
359.49	31.895
359.85	32.215
360.21	32.456
360.57	31.982
360.93	31.921
361.29	31.420
361.66	32.915
362.02	32.045
362.38	33.663
362.74	32.627
363.10	33.559
363.46	31.727
363.82	33.584
364.18	32.030
364.54	32.279
364.90	34.050
365.26	32.897
365.62	34.015
365.98	34.238
366.35	34.013
366.71	33.925
367.07	33.962
367.43	33.501
367.79	34.417
368.15	33.597
368.51	33.940
368.87	33.094
369.23	32.852
369.59	33.455
369.95	34.311
370.31	34.899
370.67	34.627
371.03	33.607
371.39	33.333
371.75	33.626
372.11	34.237
372.47	34.024
372.83	33.783
373.19	35.164
373.55	34.801
373.91	34.413
374.27	34.869
374.63	34.817
374.99	33.972
375.35	34.819
375.71	34.965
376.07	34.129
376.42	35.170
376.78	35.973
377.14	34.868
377.50	34.064
377.86	35.408
378.22	35.801
378.58	35.641
378.94	35.539
379.30	35.184
379.66	36.364
380.02	34.825
380.38	36.458
380.74	35.607
381.09	36.442
381.45	36.636
381.81	35.780
382.17	36.485
382.53	36.727
382.89	38.293
383.25	37.399
383.61	38.171
383.97	37.460
384.32	37.211
384.68	36.966
385.04	36.826
385.40	36.777
385.76	36.541
386.12	39.133
386.48	39.336
386.83	36.906
387.19	37.424
387.55	39.147
387.91	38.142
388.27	37.790
388.62	39.018
388.98	38.735
389.34	39.225
389.70	39.030
390.06	39.018
390.42	37.953
390.77	38.457
391.13	38.335
391.49	38.745
391.85	39.571
392.20	39.360
392.56	39.161
392.92	39.871
393.28	39.741
393.64	38.859
393.99	39.937
394.35	40.038
394.71	41.124
395.07	39.095
395.42	39.648
395.78	41.238
396.14	40.605
396.50	40.900
396.85	41.017
397.21	41.479
397.57	40.752
397.92	40.024
398.28	42.184
398.64	39.819
399.00	40.914
399.35	40.463
399.71	40.092
400.07	41.112
400.42	41.065
400.78	42.070
401.14	41.258
401.49	41.632
401.85	41.926
402.21	41.627
402.57	41.688
402.92	41.844
403.28	43.108
403.63	42.119
403.99	42.538
404.35	42.349
404.70	41.607
405.06	41.657
405.42	41.579
405.77	41.429
406.13	42.724
406.49	42.451
406.84	43.521
407.20	42.806
407.55	42.498
407.91	42.647
408.27	43.021
408.62	43.138
408.98	43.746
409.34	43.556
409.69	43.540
410.05	42.734
410.40	42.840
410.76	43.969
411.11	43.750
411.47	42.932
411.83	43.440
412.18	44.723
412.54	42.946
412.89	43.781
413.25	44.404
413.60	44.099
413.96	43.436
414.31	44.268
414.67	43.874
415.03	45.340
415.38	43.538
415.74	45.407
416.09	44.677
416.45	45.105
416.80	44.679
417.16	47.030
417.51	45.103
417.87	44.068
418.22	45.142
418.58	45.284
418.93	44.263
419.29	45.455
419.64	45.107
420.00	47.355
420.35	45.672
420.71	45.504
421.06	46.225
421.42	46.454
421.77	45.838
422.12	45.743
422.48	46.562
422.83	45.418
423.19	46.332
423.54	44.915
423.90	46.054
424.25	47.130
424.61	47.491
424.96	45.993
425.31	47.371
425.67	47.477
426.02	47.998
426.38	49.029
426.73	48.729
427.09	49.620
427.44	47.353
427.79	46.494
428.15	47.087
428.50	48.274
428.85	47.543
429.21	48.161
429.56	48.571
429.92	46.995
430.27	46.165
430.62	46.681
430.98	48.195
431.33	47.687
431.68	46.991
432.04	49.804
432.39	47.519
432.74	49.008
433.10	49.540
433.45	49.283
433.80	49.158
434.16	48.809
434.51	48.871
434.86	49.710
435.22	49.635
435.57	50.094
435.92	50.000
436.28	50.388
436.63	50.143
436.98	49.305
437.34	50.091
437.69	50.507
438.04	50.199
438.39	50.825
438.75	51.002
439.10	51.669
439.45	51.552
439.81	51.009
440.16	52.078
440.51	50.925
440.86	52.628
441.22	50.566
441.57	51.987
441.92	51.574
442.27	51.663
442.63	52.784
442.98	52.441
443.33	51.753
443.68	51.883
444.03	51.664
444.39	52.189
444.74	52.620
445.09	52.561
445.44	52.479
445.79	53.481
446.15	52.258
446.50	52.413
446.85	52.976
447.20	51.460
447.55	53.683
447.91	53.976
448.26	52.305
448.61	53.138
448.96	53.069
449.31	53.642
449.66	52.787
450.02	53.679
450.37	55.009
450.72	52.635
451.07	55.190
451.42	53.933
451.77	54.129
452.12	53.050
452.47	54.604
452.83	55.830
453.18	54.586
453.53	54.109
453.88	54.584
454.23	54.149
454.58	54.534
454.93	56.443
455.28	54.286
455.63	55.115
455.98	54.360
456.34	55.747
456.69	54.701
457.04	54.442
457.39	54.617
457.74	56.106
458.09	54.444
458.44	54.535
458.79	54.398
459.14	54.348
459.49	54.925
459.84	54.597
460.19	54.794
460.54	56.112
460.89	55.057
461.24	55.466
461.59	55.701
461.94	54.403
462.29	56.514
462.64	56.744
462.99	56.872
463.34	56.815
463.69	55.277
464.04	57.082
464.39	55.670
464.74	55.399
465.09	55.396
465.44	56.376
465.79	55.272
466.14	55.416
466.49	56.642
466.84	56.871
467.19	56.821
467.54	57.024
467.89	56.538
468.24	57.603
468.59	57.714
468.94	56.952
469.29	56.721
469.64	57.211
469.99	58.655
470.34	56.587
470.68	59.210
471.03	58.528
471.38	58.773
471.73	59.314
472.08	56.784
472.43	59.933
472.78	57.231
473.13	58.503
473.48	59.479
473.83	57.970
474.17	58.484
474.52	58.775
474.87	58.061
475.22	58.084
475.57	59.006
475.92	57.652
476.27	58.033
476.61	58.565
476.96	58.059
477.31	58.680
477.66	59.494
478.01	59.068
478.36	58.497
478.70	58.728
479.05	59.560
479.40	59.300
479.75	58.186
480.10	58.116
480.45	58.900
480.79	59.265
481.14	60.041
481.49	58.276
481.84	59.266
482.19	58.232
482.53	58.657
482.88	58.234
483.23	58.205
483.58	59.151
483.92	58.519
484.27	57.521
484.62	58.180
484.97	57.297
485.31	56.792
485.66	53.708
486.01	53.762
486.36	52.846
486.70	54.775
487.05	55.618
487.40	55.610
487.75	56.479
488.09	56.706
488.44	57.084
488.79	58.498
489.13	59.615
489.48	59.855
489.83	59.417
490.17	60.000
490.52	60.231
490.87	59.278
491.22	60.411
491.56	58.586
491.91	60.229
492.26	60.476
492.60	60.125
492.95	60.649
493.30	59.746
493.64	61.739
493.99	60.821
494.34	60.777
494.68	61.286
495.03	60.681
495.37	61.825
495.72	60.323
496.07	61.122
496.41	60.708
496.76	60.387
497.11	59.804
497.45	61.671
497.80	61.907
498.14	61.500
498.49	61.148
498.84	61.228
499.18	62.349
499.53	60.516
499.87	60.506
500.22	62.216
500.56	61.977
500.91	61.496
501.26	60.306
501.60	61.731
501.95	62.882
502.29	61.889
502.64	61.004
502.98	61.223
503.33	60.471
503.67	61.301
504.02	61.681
504.36	61.851
504.71	61.616
505.06	61.751
505.40	62.284
505.75	62.990
506.09	61.987
506.44	64.630
506.78	62.908
507.13	62.461
507.47	61.462
507.82	63.835
508.16	62.969
508.51	64.638
508.85	64.364
509.19	63.225
509.54	63.700
509.88	63.862
510.23	64.067
510.57	64.297
510.92	62.420
511.26	64.812
511.61	64.136
511.95	64.767
512.30	65.854
512.64	64.830
512.98	64.458
513.33	64.689
513.67	64.810
514.02	66.876
514.36	65.829
514.70	66.958
515.05	68.214
515.39	67.414
515.74	67.844
516.08	66.766
516.42	66.961
516.77	67.525
517.11	67.715
517.46	67.983
517.80	67.402
518.14	68.708
518.49	67.067
518.83	68.044
519.17	66.707
519.52	67.910
519.86	66.206
520.20	67.861
520.55	68.293
520.89	70.013
521.23	68.968
521.58	69.401
521.92	70.192
522.26	67.794
522.61	69.286
522.95	70.596
523.29	69.250
523.64	70.013
523.98	69.864
524.32	68.428
524.66	69.718
525.01	70.000
525.35	70.512
525.69	69.630
526.04	69.048
526.38	70.687
526.72	69.915
527.06	70.104
527.41	70.449
527.75	69.705
528.09	69.834
528.43	71.168
528.78	69.241
529.12	70.194
529.46	70.890
529.80	69.474
530.15	69.439
530.49	71.178
530.83	70.178
531.17	69.443
531.51	72.503
531.86	69.409
532.20	70.981
532.54	70.933
532.88	71.047
533.22	70.632
533.57	69.332
533.91	69.386
534.25	71.419
534.59	69.275
534.93	68.030
535.27	67.703
535.62	69.021
535.96	70.254
536.30	69.921
536.64	70.917
536.98	71.359
537.32	72.475
537.66	72.230
538.01	71.399
538.35	70.111
538.69	68.375
539.03	70.267
539.37	70.054
539.71	71.029
540.05	68.703
540.39	71.260
540.73	69.386
541.07	69.890
541.42	70.632
541.76	71.301
542.10	68.754
542.44	69.632
542.78	69.443
543.12	70.261
543.46	71.766
543.80	69.813
544.14	69.092
544.48	68.421
544.82	71.565
545.16	71.448
545.50	70.093
545.84	71.246
546.18	70.922
546.52	70.368
546.86	70.381
547.20	72.246
547.54	69.541
547.88	69.090
548.22	68.508
548.56	69.393
548.90	69.609
549.24	69.835
549.58	69.182
549.92	69.550
550.26	70.110
550.60	71.152
550.94	73.189
551.28	70.943
551.62	73.769
551.96	72.105
552.30	69.956
552.64	69.887
552.98	70.675
553.32	70.542
553.66	70.464
554.00	71.533
554.34	73.412
554.68	71.165
555.02	71.429
555.36	71.728
555.69	70.476
556.03	70.164
556.37	70.178
556.71	72.130
557.05	70.544
557.39	71.078
557.73	71.064
558.07	70.739
558.41	71.363
558.75	74.045
559.08	72.498
559.42	73.651
559.76	72.538
560.10	71.942
560.44	70.439
560.78	69.720
561.12	70.240
561.45	70.836
561.79	70.448
562.13	70.192
562.47	70.072
562.81	70.029
563.15	68.759
563.48	69.943
563.82	70.487
564.16	69.150
564.50	70.135
564.84	68.005
565.17	69.685
565.51	71.107
565.85	70.233
566.19	69.363
566.52	70.375
566.86	69.602
567.20	69.552
567.54	68.491
567.88	68.366
568.21	67.873
568.55	67.011
568.89	65.862
569.23	64.372
569.56	64.142
569.90	62.972
570.24	61.295
570.57	62.545
570.91	61.764
571.25	60.506
571.59	59.358
571.92	58.370
572.26	59.088
572.60	59.659
572.93	58.425
573.27	59.248
573.61	58.234
573.95	58.547
574.28	57.495
574.62	57.386
574.96	56.096
575.29	57.017
575.63	56.284
575.97	57.577
576.30	57.155
576.64	56.715
576.98	57.349
577.31	57.729
577.65	56.904
577.98	56.361
578.32	55.245
578.66	55.126
578.99	55.592
579.33	56.083
579.67	56.472
580.00	56.557
580.34	56.667
580.67	56.553
581.01	57.133
581.35	55.426
581.68	55.107
582.02	54.799
582.35	54.633
582.69	55.610
583.02	55.330
583.36	56.731
583.70	58.178
584.03	58.604
584.37	58.554
584.70	57.418
585.04	56.166
585.37	56.339
585.71	55.690
586.04	56.531
586.38	56.362
586.72	57.762
587.05	57.972
587.39	57.031
587.72	57.299
588.06	57.127
588.39	57.363
588.73	57.540
589.06	58.839
589.40	58.935
589.73	59.803
590.07	60.914
590.40	59.559
590.73	61.367
591.07	61.323
591.40	60.151
591.74	60.950
592.07	61.920
592.41	61.661
592.74	58.980
593.08	57.108
593.41	57.364
593.75	56.395
594.08	57.604
594.41	58.697
594.75	59.046
595.08	58.267
595.42	57.858
595.75	59.444
596.09	58.991
596.42	60.438
596.75	61.057
597.09	60.456
597.42	59.937
597.75	59.780
598.09	59.801
598.42	59.567
598.76	58.644
599.09	58.694
599.42	57.181
599.76	56.659
600.09	57.127
600.42	57.051
600.76	57.318
601.09	57.557
601.42	57.188
601.76	57.840
602.09	58.127
602.42	59.815
602.76	58.107
603.09	58.887
603.42	59.908
603.76	58.468
604.09	58.445
604.42	58.756
604.76	59.057
605.09	59.141
605.42	59.774
605.75	58.450
606.09	59.151
606.42	58.799
606.75	58.745
607.09	57.758
607.42	58.086
607.75	58.748
608.08	57.682
608.42	57.149
608.75	60.867
609.08	59.542
609.41	60.609
609.75	59.577
610.08	59.611
610.41	58.551
610.74	60.166
611.07	62.119
611.41	60.249
611.74	61.087
612.07	59.422
612.40	60.941
612.73	59.944
613.07	60.911
613.40	60.996
613.73	59.877
614.06	60.824
614.39	60.857
614.72	60.392
615.06	60.838
615.39	58.297
615.72	58.934
616.05	58.715
616.38	58.519
616.71	62.446
617.05	61.828
617.38	61.094
617.71	61.761
618.04	62.476
618.37	63.493
618.70	63.234
619.03	63.542
619.36	63.821
619.69	65.277
620.03	65.741
620.36	63.662
620.69	63.383
621.02	64.832
621.35	66.888
621.68	67.942
622.01	65.917
622.34	65.523
622.67	66.246
623.00	64.778
623.33	63.643
623.66	62.378
623.99	63.238
624.32	64.487
624.65	64.436
624.99	65.162
625.32	62.775
625.65	65.200
625.98	66.398
626.31	64.422
626.64	66.031
626.97	66.056
627.30	66.988
627.63	66.118
627.96	68.014
628.29	67.068
628.62	68.633
628.95	68.838
629.28	69.153
629.61	69.591
629.94	68.915
630.26	68.182
630.59	72.008
630.92	69.641
631.25	67.795
631.58	71.145
631.91	69.518
632.24	70.413
632.57	71.023
632.90	71.174
633.23	72.000
633.56	72.544
633.89	72.996
634.22	73.951
634.55	72.935
634.88	74.202
635.20	72.949
635.53	74.133
635.86	71.131
636.19	74.386
636.52	72.449
636.85	70.968
637.18	70.692
637.51	71.572
637.83	73.062
638.16	77.626
638.49	72.207
638.82	71.184
639.15	73.134
639.48	74.691
639.81	72.385
640.13	72.872
640.46	73.907
640.79	74.963
641.12	73.264
641.45	72.372
641.77	72.296
642.10	76.145
642.43	75.241
642.76	77.888
643.09	72.859
643.41	72.492
643.74	76.606
644.07	74.713
644.40	78.209
644.73	77.408
645.05	76.510
645.38	77.249
645.71	77.837
646.04	78.815
646.36	77.837
646.69	78.058
647.02	77.316
647.35	76.679
647.67	75.320
648.00	79.664
648.33	74.403
648.66	72.034
648.98	72.027
649.31	73.223
649.64	70.016
649.96	69.854
650.29	72.232
650.62	70.598
650.94	76.296
651.27	76.164
651.60	76.577
651.92	74.650
652.25	72.114
652.58	70.833
652.90	71.698
653.23	69.748
653.56	69.882
653.88	68.385
654.21	69.177
654.54	70.458
654.86	69.779
655.19	66.667
655.52	58.127
655.84	45.142
656.17	48.105
656.49	64.836
656.82	68.680
657.15	54.128
657.47	41.257
657.80	31.544
658.13	31.696
658.45	49.891
658.78	51.184
659.10	51.122
659.43	52.658
659.75	54.613
660.08	56.414
660.41	61.185
660.73	65.884
661.06	70.711
661.38	74.364
661.71	69.610
662.03	79.614
662.36	73.187
662.68	75.664
663.01	73.144
663.33	76.798
663.66	77.209
663.98	75.581
664.31	73.561
664.63	75.115
664.96	71.522
665.28	73.289
665.61	70.996
665.93	74.783
666.26	75.922
666.58	71.812
666.91	77.882
667.23	78.302
667.56	75.355
667.88	74.820
668.21	73.508
668.53	78.014
668.86	75.472
669.18	72.406
669.50	75.303
669.83	74.186
670.15	74.592
670.48	75.598
670.80	76.037
671.13	69.799
671.45	70.548
671.77	71.674
672.10	67.327
672.42	66.667
672.75	66.607
673.07	67.084
673.39	68.073
673.72	64.103
674.04	67.500
674.37	73.093
674.69	67.880
675.01	69.333
675.34	69.595
675.66	71.065
675.98	71.397
676.31	70.413
676.63	71.496
676.95	69.091
677.28	72.706
677.60	76.386
677.92	69.037
678.25	66.302
678.57	67.965
678.89	67.857
679.22	68.009
679.54	62.249
679.86	62.227
680.18	62.913
680.51	64.394
680.83	65.010
681.15	67.600
681.48	68.238
681.80	66.529
682.12	67.540
682.44	66.109
682.77	67.108
683.09	66.133
683.41	64.545
683.73	67.972
684.06	68.142
684.38	63.011
684.70	70.370
685.02	63.693
685.34	61.067
685.67	60.413
685.99	64.195
686.31	60.000
686.63	62.709
686.96	61.217
687.28	62.424
687.60	59.316
687.92	65.657
688.24	61.089
688.56	63.319
688.89	66.071
689.21	66.667
689.53	64.965
689.85	64.651
690.17	63.170
690.49	65.012
690.82	62.864
691.14	64.048
691.46	64.720
691.78	62.613
692.10	63.441
692.42	62.121
692.74	60.684
693.06	63.063
693.39	61.991
693.71	59.955
694.03	60.508
694.35	61.916
694.67	64.394
694.99	61.880
695.31	66.057
695.63	60.000
695.95	62.879
696.27	65.803
696.59	71.111
696.91	63.025
697.23	61.954
697.56	62.871
697.88	60.000
698.20	58.998
698.52	65.647
698.84	58.134
699.16	57.750
699.48	63.158
699.80	58.065
700.12	61.456
700.44	64.706
700.76	61.047
701.08	65.455
701.40	62.349
701.72	68.210
702.04	65.677
702.36	70.234
702.68	63.363
703.00	62.424
703.32	63.343
703.64	55.367
703.96	61.739
704.28	60.123
704.60	69.841
704.91	60.252
705.23	62.458
705.55	71.731
705.87	67.509
706.19	71.111
706.51	61.168
706.83	63.987
707.15	59.813
707.47	60.504
707.79	57.812
708.11	55.000
708.43	56.000
708.74	57.623
709.06	61.408
709.38	63.303
709.70	59.172
710.02	61.783
710.34	63.777
710.66	56.090
710.98	57.285
711.29	60.656
711.61	59.661
711.93	56.678
712.25	64.261
712.57	65.568
712.89	63.433
713.20	61.246
713.52	64.808
713.84	59.386
714.16	66.323
714.48	55.806
714.80	62.500
715.11	55.927
715.43	56.426
715.75	56.333
716.07	58.472
716.39	63.423
716.70	57.934
717.02	60.687
717.34	58.704
717.66	64.159
717.97	67.826
718.29	64.017
718.61	61.024
718.93	63.178
719.24	60.076
719.56	59.036
719.88	55.670
720.20	59.470
720.51	54.406
720.83	60.232
721.15	60.924
721.46	59.677
721.78	55.336
722.10	53.160
722.42	64.315
722.73	56.735
723.05	62.449
723.37	62.288
723.68	70.721
724.00	61.111
724.32	61.333
724.63	61.364
724.95	52.402
725.27	60.369
725.58	63.136
725.90	55.952
726.22	59.459
726.53	53.559
726.85	54.682
727.16	59.623
727.48	54.656
727.80	57.085
728.11	54.661
728.43	51.373
728.74	48.387
729.06	57.200
729.38	56.767
729.69	57.371
730.01	49.231
730.32	54.478
730.64	52.650
730.96	58.491
731.27	52.667
731.59	51.186
731.90	51.911
732.22	48.580
732.53	53.821
732.85	56.383
733.16	50.505
733.48	52.878
733.80	54.348
734.11	46.780
734.43	52.234
734.74	50.909
735.06	51.140
735.37	48.338
735.69	52.189
736.00	47.038
736.32	49.329
736.63	51.408
736.95	53.242
737.26	54.804
737.58	44.631
737.89	52.747
738.21	51.880
738.52	57.202
738.83	49.782
739.15	54.148
739.46	51.575
739.78	46.886
740.09	46.732
740.41	47.464
740.72	47.244
741.04	50.202
741.35	50.638
741.66	51.659
741.98	56.633
742.29	56.931
742.61	59.686
742.92	47.393
743.23	51.389
743.55	51.131
743.86	54.545
744.18	47.847
744.49	53.723
744.80	54.891
745.12	57.219
745.43	49.756
745.74	55.729
746.06	57.561
746.37	59.162
746.68	59.242
747.00	53.191
747.31	58.209
747.62	51.942
747.94	52.632
748.25	54.455
748.56	55.738
748.88	55.497
749.19	62.766
749.50	54.680
749.82	50.000
750.13	56.881
750.44	47.368
750.75	45.896
751.07	49.270
751.38	47.510
751.69	46.275
752.01	49.225
752.32	49.801
752.63	45.455
752.94	50.431
753.26	52.720
753.57	52.941
753.88	49.558
754.19	45.833
754.51	47.521
754.82	46.559
755.13	55.833
755.44	49.597
755.75	48.828
756.07	52.529
756.38	43.396
756.69	46.360
757.00	40.333
757.31	41.176
757.63	42.073
757.94	43.611
758.25	42.740
758.56	40.957
758.87	41.076
759.18	45.171
759.50	43.273
759.81	43.813
760.12	40.000
760.43	39.091
760.74	42.593
761.05	47.077
761.36	41.761
761.67	46.667
761.99	50.340
762.30	42.909
762.61	44.269
762.92	47.511
763.23	44.595
763.54	46.262
763.85	46.186
764.16	46.888
764.47	43.952
764.78	43.590
765.10	46.465
765.41	39.748
765.72	42.540
766.03	36.090
766.34	36.861
766.65	47.012
766.96	50.000
767.27	52.128
767.58	48.276
767.89	45.390
768.20	43.182
768.51	46.154
768.82	41.379
769.13	46.544
769.44	43.348
769.75	39.269
770.06	47.414
770.37	46.635
770.68	39.594
770.99	43.439
771.30	47.059
771.61	48.416
771.92	46.552
772.23	52.217
772.54	44.624
772.85	50.617
773.16	44.382
773.47	59.477
773.78	51.634
774.09	40.719
774.39	46.667
774.70	43.949
775.01	51.724
775.32	49.286
775.63	42.149
775.94	43.511
776.25	51.181
776.56	40.833
776.87	59.615
777.18	49.573
777.48	50.000
777.79	50.435
778.10	48.571
778.41	41.441
778.72	46.825
779.03	42.857
779.34	47.518
779.65	50.000
779.95	39.041
780.26	48.966
780.57	47.154
780.88	48.819
781.19	43.966
781.50	57.364
781.80	43.195
782.11	35.849
782.42	46.923
782.73	39.568
783.04	46.667
783.34	44.444
783.65	27.350
783.96	44.262
784.27	40.000
784.57	51.220
784.88	50.781
785.19	53.000
785.50	51.000
785.81	49.138
786.11	48.276
786.42	39.806
786.73	55.455
787.04	41.837
787.34	39.286
787.65	38.095
787.96	38.053
788.26	50.000
788.57	43.590
788.88	46.875
789.19	39.683
789.49	42.609
789.80	38.776
790.11	51.515
790.41	45.455
790.72	48.913
791.03	53.409
791.33	56.250
791.64	46.250
791.95	51.163
792.25	46.809
792.56	43.820
792.87	58.904
793.17	34.783
793.48	37.333
793.79	51.250
794.09	48.750
794.40	30.189
794.70	43.689
795.01	33.333
795.32	35.897
795.62	40.000
795.93	39.216
796.23	48.113
796.54	44.792
796.85	48.529
797.15	39.437
797.46	55.556
797.76	66.667
798.07	34.884
798.37	36.842
798.68	42.424
798.99	32.099
799.29	40.000
799.60	40.580
799.90	54.667
800.21	52.459
800.51	46.154
800.82	52.542
801.12	47.826
801.43	47.541
801.73	44.444
802.04	32.000
802.34	40.299
802.65	46.154
802.95	42.857
803.26	32.692
803.56	52.941
803.87	32.609
804.17	38.667
804.48	44.444
804.78	37.037
805.09	63.043
805.39	48.889
805.70	33.333
806.00	10.526
806.30	35.211
806.61	35.714
806.91	41.667
807.22	44.737
807.52	53.333
807.83	43.636
808.13	36.111
808.43	45.588
808.74	35.821
809.04	44.068
809.35	36.538
809.65	23.437
809.95	2.703
810.26	27.273
810.56	32.877
810.86	28.571
811.17	42.000
811.47	42.857
811.77	34.211
812.08	47.727
812.38	67.925
812.69	45.000
812.99	18.182
813.29	55.263
813.59	2.857
813.90	47.727
814.20	35.897
814.50	28.846
814.81	41.509
815.11	36.170
815.41	55.932
815.72	45.238
816.02	66.667
816.32	35.417
816.62	29.268
816.93	56.757
817.23	8.571
817.53	41.667
817.84	32.609
818.14	36.538
818.44	28.947
818.74	41.304
819.04	-17.500
819.35	48.649
819.65	35.294
819.95	19.444
820.25	33.333
820.56	65.000
820.86	3.448
821.16	57.500
821.46	55.319
821.76	45.000
822.07	32.558
822.37	13.514
822.67	34.375
822.97	61.905
823.27	10.714
823.57	64.000
823.88	59.259
824.18	35.714
824.48	11.765
824.78	22.581
825.08	26.087
825.38	57.576
825.69	-16.667
825.99	31.579
826.29	41.667
826.59	33.333
826.89	0.000
827.19	45.652
827.49	35.000
827.79	51.429
828.09	39.286
828.39	36.364
828.70	59.459
829.00	32.143
829.30	4.762
829.60	70.000
829.90	50.000
830.20	13.158
830.50	0.000
830.80	30.435
831.10	63.636
831.40	33.333
831.70	54.839
832.00	61.905
832.30	33.333
832.60	108.333
832.90	20.690
833.20	15.000
833.50	9.091
833.80	0.000
834.10	34.615
834.40	68.750
834.70	-22.222
835.00	-5.263
835.30	57.692
835.60	73.333
835.90	16.129
836.20	9.091
836.50	53.571
836.80	-11.538
837.10	46.429
837.40	-33.333
837.70	36.364
838.00	54.545
838.30	47.826
838.60	-38.462
838.90	50.000
839.19	35.714
839.49	26.667
839.79	-23.077
840.09	-41.667
840.39	60.714
840.69	14.286
840.99	38.462
841.29	-47.368
841.59	-110.000
841.88	-18.182
842.18	-10.000
842.48	43.750
842.78	0.000
843.08	22.222
843.38	-90.000
843.68	91.304
843.97	-26.667
844.27	53.333
844.57	25.000
844.87	33.333
845.17	38.095
845.47	6.667
845.76	9.524
846.06	52.941
846.36	30.000
846.66	-7.143
846.96	53.333
847.25	75.000
847.55	21.429
847.85	-12.500
848.15	27.273
848.44	-66.667
848.74	20.000
849.04	92.593
849.34	36.364
849.63	-116.667
849.93	-40.000
850.23	-33.333
850.53	70.000
850.82	-7.692
851.12	-66.667
851.42	20.000
851.71	0.000
852.01	21.429
852.31	200.000
852.61	18.182
852.90	-30.000
853.20	0.000
853.50	-58.333
853.79	34.783
854.09	54.167
854.39	0.000
854.68	16.667
854.98	38.710
855.28	42.308
855.57	45.000
855.87	72.222
856.17	44.444
856.46	0.000
856.76	-26.667
857.05	88.889
857.35	40.000
857.65	33.333
857.94	-23.077
858.24	13.793
858.53	33.333
858.83	44.444
859.13	50.000
859.42	-4.348
859.72	-125.000
860.01	-133.333
860.31	36.000
860.60	42.857
860.90	-133.333
861.20	-46.667
861.49	-50.000
861.79	-26.667
862.08	30.000
862.38	60.000
862.67	-300.000
862.97	-33.333
863.26	16.667
863.56	83.333
863.85	-600.000
864.15	72.222
864.44	0.000
864.74	100.000
865.03	250.000
865.33	0.000
865.62	83.333
865.92	-25.000
866.21	-116.667
866.51	81.250
866.80	-100.000
867.10	-350.000
867.39	50.000
867.69	0.000
867.98	92.308
868.27	33.333
868.57	13.333
868.86	11.111
869.16	0.000
869.45	26.667
869.75	-1100.000
870.04	0.000
870.33	-85.714
870.63	42.857
870.92	433.333
871.22	-80.000
871.51	-200.000
871.80	-11.111
872.10	700.000
>>>>>End Processed Spectral Data<<<<<
