SpectraSuite Data File
++++++++++++++++++++++++++++++++++++
Date: Fri May 15 20:36:54 PDT 2015
User: schluterlab
Dark Spectrum Present: Yes
Reference Spectrum Present: Yes
Number of Sampled Component Spectra: 1
Spectrometers: USB2E3373
Integration Time (usec): 3000 (USB2E3373)
Spectra Averaged: 3 (USB2E3373)
Boxcar Smoothing: 0 (USB2E3373)
Correct for Electrical Dark: No (USB2E3373)
Strobe/Lamp Enabled: No (USB2E3373)
Correct for Detector Non-linearity: No (USB2E3373)
Correct for Stray Light: No (USB2E3373)
Number of Pixels in Processed Spectrum: 2048
>>>>>Begin Processed Spectral Data<<<<<
178.53	0.000
178.91	0.000
179.29	-12.500
179.67	-150.000
180.04	85.714
180.42	-175.000
180.80	-700.000
181.18	-33.333
181.56	500.000
181.94	-100.000
182.31	1100.000
182.69	-40.000
183.07	-566.667
183.45	-40.000
183.83	116.667
184.20	-90.909
184.58	111.111
184.96	-25.000
185.34	66.667
185.72	0.000
186.09	84.615
186.47	-1300.000
186.85	50.000
187.23	200.000
187.61	100.000
187.98	-200.000
188.36	44.444
188.74	-233.333
189.12	23.529
189.49	5.556
189.87	0.000
190.25	-14.286
190.63	400.000
191.00	-200.000
191.38	-31.579
191.76	50.000
192.14	75.000
192.51	0.000
192.89	-55.556
193.27	-128.571
193.65	83.333
194.02	236.364
194.40	0.000
194.78	-125.000
195.15	-33.333
195.53	-12.500
195.91	350.000
196.29	-200.000
196.66	107.692
197.04	14.286
197.42	-33.333
197.79	-500.000
198.17	-100.000
198.55	800.000
198.92	-400.000
199.30	-300.000
199.68	-40.000
200.05	-66.667
200.43	0.000
200.81	-133.333
201.18	-400.000
201.56	500.000
201.94	-350.000
202.31	-33.333
202.69	-60.000
203.07	225.000
203.44	1300.000
203.82	0.000
204.19	14.286
204.57	-700.000
204.95	-25.000
205.32	40.000
205.70	-57.143
206.08	-75.000
206.45	133.333
206.83	64.286
207.20	-85.714
207.58	400.000
207.96	-100.000
208.33	-10.000
208.71	-75.000
209.08	-83.333
209.46	-200.000
209.84	-260.000
210.21	-1100.000
210.59	-28.571
210.96	16.667
211.34	-25.000
211.71	46.667
212.09	-185.714
212.46	-1800.000
212.84	0.000
213.22	-40.000
213.59	200.000
213.97	84.615
214.34	0.000
214.72	-216.667
215.09	525.000
215.47	0.000
215.84	-27.273
216.22	-133.333
216.59	50.000
216.97	0.000
217.34	-75.000
217.72	-400.000
218.09	25.000
218.47	75.000
218.84	-800.000
219.22	88.889
219.59	-200.000
219.97	433.333
220.34	300.000
220.72	71.429
221.09	-175.000
221.47	-500.000
221.84	-750.000
222.22	-450.000
222.59	63.636
222.97	0.000
223.34	-100.000
223.72	-92.857
224.09	9.524
224.46	28.571
224.84	400.000
225.21	0.000
225.59	20.000
225.96	-300.000
226.34	300.000
226.71	128.571
227.08	-66.667
227.46	125.000
227.83	-350.000
228.21	44.444
228.58	27.273
228.95	75.000
229.33	100.000
229.70	56.250
230.08	25.000
230.45	57.143
230.82	-14.286
231.20	-13.333
231.57	64.286
231.95	14.286
232.32	-90.000
232.69	14.286
233.07	33.333
233.44	-120.000
233.81	10.000
234.19	55.556
234.56	-23.529
234.93	-150.000
235.31	25.000
235.68	20.000
236.05	-23.077
236.43	-40.000
236.80	29.412
237.17	0.000
237.55	-15.000
237.92	51.852
238.29	61.111
238.67	36.667
239.04	8.824
239.41	0.000
239.79	36.667
240.16	43.902
240.53	47.368
240.91	43.478
241.28	26.984
241.65	37.500
242.02	41.096
242.40	35.000
242.77	30.508
243.14	34.848
243.51	28.750
243.89	37.931
244.26	29.885
244.63	23.810
245.00	26.804
245.38	37.113
245.75	40.449
246.12	28.448
246.49	34.711
246.87	39.423
247.24	27.731
247.61	29.825
247.98	31.707
248.36	31.250
248.73	32.895
249.10	32.468
249.47	32.911
249.84	30.719
250.22	33.529
250.59	47.712
250.96	35.211
251.33	38.372
251.70	37.647
252.08	36.041
252.45	37.624
252.82	39.196
253.19	35.484
253.56	35.047
253.94	34.234
254.31	34.783
254.68	40.789
255.05	37.008
255.42	38.865
255.79	33.591
256.16	35.019
256.54	36.194
256.91	34.221
257.28	34.201
257.65	30.712
258.02	34.752
258.39	36.700
258.76	35.897
259.14	37.874
259.51	37.217
259.88	34.364
260.25	34.967
260.62	39.236
260.99	34.237
261.36	36.301
261.73	33.861
262.10	35.258
262.47	37.730
262.85	37.931
263.22	33.846
263.59	35.202
263.96	38.509
264.33	36.970
264.70	34.226
265.07	36.310
265.44	39.943
265.81	36.158
266.18	35.519
266.55	34.190
266.92	35.492
267.29	36.031
267.66	34.271
268.03	38.220
268.40	34.726
268.77	36.631
269.14	34.532
269.51	35.990
269.88	33.666
270.25	31.633
270.62	35.610
270.99	34.015
271.36	33.741
271.73	35.211
272.10	32.847
272.47	34.515
272.84	33.663
273.21	34.571
273.58	34.699
273.95	33.867
274.32	35.335
274.69	33.258
275.06	34.598
275.43	34.240
275.80	32.671
276.17	35.172
276.54	33.833
276.91	33.991
277.28	32.096
277.65	32.231
278.02	33.191
278.39	34.573
278.76	32.495
279.13	32.988
279.50	31.933
279.87	33.477
280.23	33.978
280.60	32.164
280.97	33.737
281.34	30.385
281.71	34.086
282.08	32.515
282.45	28.963
282.82	29.151
283.19	34.429
283.56	32.177
283.92	30.740
284.29	32.308
284.66	31.395
285.03	34.185
285.40	32.136
285.77	30.580
286.14	31.047
286.51	33.948
286.87	30.165
287.24	30.571
287.61	29.806
287.98	32.281
288.35	29.983
288.72	32.399
289.08	29.514
289.45	31.283
289.82	30.944
290.19	29.352
290.56	27.787
290.93	29.461
291.29	26.810
291.66	28.189
292.03	26.156
292.40	28.226
292.77	25.518
293.13	25.487
293.50	28.832
293.87	27.634
294.24	25.811
294.60	25.931
294.97	26.935
295.34	26.687
295.71	26.677
296.08	23.916
296.44	23.471
296.81	25.139
297.18	27.246
297.55	27.371
297.91	25.479
298.28	26.649
298.65	24.016
299.02	24.663
299.38	23.940
299.75	25.793
300.12	22.906
300.48	23.057
300.85	23.954
301.22	26.234
301.59	25.000
301.95	25.063
302.32	25.292
302.69	24.005
303.05	23.144
303.42	24.159
303.79	23.715
304.15	24.253
304.52	23.781
304.89	22.339
305.25	22.881
305.62	22.287
305.99	23.977
306.35	24.162
306.72	21.822
307.09	24.059
307.45	22.847
307.82	22.338
308.19	23.229
308.55	22.465
308.92	25.599
309.29	24.134
309.65	23.789
310.02	24.092
310.38	25.247
310.75	24.153
311.12	23.574
311.48	23.436
311.85	23.874
312.22	23.101
312.58	23.355
312.95	24.013
313.31	24.948
313.68	23.874
314.05	23.878
314.41	24.742
314.78	25.258
315.14	26.927
315.51	26.501
315.87	25.717
316.24	25.784
316.61	27.165
316.97	26.885
317.34	26.563
317.70	26.291
318.07	28.365
318.43	29.608
318.80	27.367
319.16	29.688
319.53	29.535
319.89	28.445
320.26	29.656
320.62	28.686
320.99	29.436
321.35	30.627
321.72	30.841
322.08	32.125
322.45	31.878
322.81	31.238
323.18	31.109
323.54	32.239
323.91	32.327
324.27	33.496
324.64	34.176
325.00	34.398
325.37	35.354
325.73	33.998
326.10	35.876
326.46	38.117
326.83	35.258
327.19	36.704
327.56	36.490
327.92	38.292
328.29	36.161
328.65	37.925
329.01	39.430
329.38	38.618
329.74	37.677
330.11	38.740
330.47	38.961
330.84	37.788
331.20	40.970
331.56	39.352
331.93	40.000
332.29	41.155
332.66	39.005
333.02	40.799
333.38	39.138
333.75	41.026
334.11	40.018
334.48	40.888
334.84	39.560
335.20	40.439
335.57	41.251
335.93	41.012
336.29	40.700
336.66	42.144
337.02	40.149
337.38	39.815
337.75	40.455
338.11	41.118
338.47	41.241
338.84	41.590
339.20	40.037
339.56	40.917
339.93	40.824
340.29	41.927
340.65	42.025
341.02	40.160
341.38	40.177
341.74	39.841
342.11	39.601
342.47	41.904
342.83	40.311
343.20	39.983
343.56	41.391
343.92	40.655
344.28	42.015
344.65	41.192
345.01	41.054
345.37	40.706
345.73	41.423
346.10	41.242
346.46	43.650
346.82	41.080
347.19	40.067
347.55	41.604
347.91	40.939
348.27	41.876
348.63	42.164
349.00	42.412
349.36	41.729
349.72	41.542
350.08	41.885
350.45	42.458
350.81	40.698
351.17	42.101
351.53	40.980
351.89	40.297
352.26	42.880
352.62	41.371
352.98	39.598
353.34	40.902
353.70	41.343
354.07	41.694
354.43	41.633
354.79	42.692
355.15	42.381
355.51	42.405
355.87	43.123
356.24	41.109
356.60	41.552
356.96	44.206
357.32	42.412
357.68	41.673
358.04	41.519
358.40	41.640
358.77	43.062
359.13	42.994
359.49	41.911
359.85	42.902
360.21	42.743
360.57	42.617
360.93	41.755
361.29	41.918
361.66	43.417
362.02	43.030
362.38	43.717
362.74	42.998
363.10	45.222
363.46	43.958
363.82	44.403
364.18	42.952
364.54	43.162
364.90	43.799
365.26	42.868
365.62	44.964
365.98	43.988
366.35	44.355
366.71	43.016
367.07	44.049
367.43	44.357
367.79	43.887
368.15	43.288
368.51	45.229
368.87	44.006
369.23	42.960
369.59	45.554
369.95	44.941
370.31	44.942
370.67	45.299
371.03	45.407
371.39	45.514
371.75	45.495
372.11	44.151
372.47	46.672
372.83	45.990
373.19	45.078
373.55	44.838
373.91	46.796
374.27	47.626
374.63	45.729
374.99	45.603
375.35	44.916
375.71	46.853
376.07	47.542
376.42	46.531
376.78	45.906
377.14	46.649
377.50	47.344
377.86	46.787
378.22	46.394
378.58	48.013
378.94	47.133
379.30	46.413
379.66	47.461
380.02	48.804
380.38	47.657
380.74	48.294
381.09	49.202
381.45	47.156
381.81	47.502
382.17	47.652
382.53	49.532
382.89	49.906
383.25	48.849
383.61	49.512
383.97	48.825
384.32	49.969
384.68	49.102
385.04	49.877
385.40	49.471
385.76	50.881
386.12	50.000
386.48	50.830
386.83	51.110
387.19	50.061
387.55	51.004
387.91	51.467
388.27	50.000
388.62	51.982
388.98	50.767
389.34	49.719
389.70	53.076
390.06	50.535
390.42	52.332
390.77	51.602
391.13	50.441
391.49	52.975
391.85	53.606
392.20	51.224
392.56	52.702
392.92	52.789
393.28	52.830
393.64	51.411
393.99	54.107
394.35	53.637
394.71	54.215
395.07	53.991
395.42	53.916
395.78	54.332
396.14	54.729
396.50	55.612
396.85	53.960
397.21	55.013
397.57	54.232
397.92	53.505
398.28	55.977
398.64	54.518
399.00	54.402
399.35	54.797
399.71	55.141
400.07	56.771
400.42	55.692
400.78	56.399
401.14	57.229
401.49	56.462
401.85	55.637
402.21	56.506
402.57	57.562
402.92	56.085
403.28	56.642
403.63	58.764
403.99	58.929
404.35	58.463
404.70	57.619
405.06	57.756
405.42	57.241
405.77	57.467
406.13	58.091
406.49	57.371
406.84	58.741
407.20	59.723
407.55	59.369
407.91	58.489
408.27	59.656
408.62	59.385
408.98	58.164
409.34	58.550
409.69	58.979
410.05	59.544
410.40	59.074
410.76	61.821
411.11	60.187
411.47	60.552
411.83	60.515
412.18	61.197
412.54	58.926
412.89	59.914
413.25	61.673
413.60	61.304
413.96	60.552
414.31	61.585
414.67	60.744
415.03	61.784
415.38	60.444
415.74	62.410
416.09	62.312
416.45	63.336
416.80	62.393
417.16	63.122
417.51	62.958
417.87	62.256
418.22	65.220
418.58	64.281
418.93	64.639
419.29	62.292
419.64	63.772
420.00	64.924
420.35	62.567
420.71	64.642
421.06	63.720
421.42	65.385
421.77	63.757
422.12	63.678
422.48	64.700
422.83	64.965
423.19	65.632
423.54	64.785
423.90	64.134
424.25	65.901
424.61	67.870
424.96	66.086
425.31	67.591
425.67	67.195
426.02	66.784
426.38	68.378
426.73	68.220
427.09	68.734
427.44	68.412
427.79	68.768
428.15	66.869
428.50	67.838
428.85	67.875
429.21	69.157
429.56	69.057
429.92	67.540
430.27	67.118
430.62	67.852
430.98	68.365
431.33	68.507
431.68	67.609
432.04	70.486
432.39	68.796
432.74	67.108
433.10	69.885
433.45	68.877
433.80	69.588
434.16	69.307
434.51	69.677
434.86	70.267
435.22	69.994
435.57	70.992
435.92	69.760
436.28	70.185
436.63	70.222
436.98	69.467
437.34	71.264
437.69	71.616
438.04	70.655
438.39	70.678
438.75	73.163
439.10	71.251
439.45	72.794
439.81	71.804
440.16	73.753
440.51	71.642
440.86	73.776
441.22	71.267
441.57	71.468
441.92	73.033
442.27	72.395
442.63	70.824
442.98	72.430
443.33	71.007
443.68	71.883
444.03	71.634
444.39	71.963
444.74	73.523
445.09	72.606
445.44	73.333
445.79	73.853
446.15	71.861
446.50	71.159
446.85	72.742
447.20	73.723
447.55	71.931
447.91	73.660
448.26	73.534
448.61	72.769
448.96	75.100
449.31	73.295
449.66	73.461
450.02	74.044
450.37	73.444
450.72	73.081
451.07	74.620
451.42	75.218
451.77	72.212
452.12	72.249
452.47	73.664
452.83	74.382
453.18	74.130
453.53	73.957
453.88	75.896
454.23	74.739
454.58	76.700
454.93	74.678
455.28	72.952
455.63	75.387
455.98	74.925
456.34	75.032
456.69	74.905
457.04	74.858
457.39	75.516
457.74	75.272
458.09	72.984
458.44	74.722
458.79	74.230
459.14	74.657
459.49	75.701
459.84	74.337
460.19	74.575
460.54	74.756
460.89	76.420
461.24	74.099
461.59	73.990
461.94	74.465
462.29	76.297
462.64	76.213
462.99	76.236
463.34	75.522
463.69	73.874
464.04	76.392
464.39	74.106
464.74	74.356
465.09	75.234
465.44	75.361
465.79	73.243
466.14	73.888
466.49	73.663
466.84	75.074
467.19	75.282
467.54	74.330
467.89	75.363
468.24	73.236
468.59	75.746
468.94	74.095
469.29	75.541
469.64	76.828
469.99	77.155
470.34	76.860
470.68	78.001
471.03	77.636
471.38	76.462
471.73	77.171
472.08	75.780
472.43	76.644
472.78	76.148
473.13	77.007
473.48	74.853
473.83	75.218
474.17	77.655
474.52	76.388
474.87	76.182
475.22	76.205
475.57	75.325
475.92	76.687
476.27	76.251
476.61	77.604
476.96	73.787
477.31	76.474
477.66	74.944
478.01	76.418
478.36	74.401
478.70	76.291
479.05	75.934
479.40	76.206
479.75	75.965
480.10	75.986
480.45	75.750
480.79	77.039
481.14	75.922
481.49	75.616
481.84	75.241
482.19	74.556
482.53	75.731
482.88	75.274
483.23	75.048
483.58	75.613
483.92	74.734
484.27	74.840
484.62	75.527
484.97	74.337
485.31	73.049
485.66	69.559
486.01	68.533
486.36	68.570
486.70	69.387
487.05	71.878
487.40	70.631
487.75	72.676
488.09	71.601
488.44	73.281
488.79	74.524
489.13	75.761
489.48	75.118
489.83	75.426
490.17	75.596
490.52	76.074
490.87	75.104
491.22	76.695
491.56	76.044
491.91	76.243
492.26	75.984
492.60	75.624
492.95	77.324
493.30	75.769
493.64	77.259
493.99	76.812
494.34	76.553
494.68	76.667
495.03	74.988
495.37	76.398
495.72	76.477
496.07	77.415
496.41	76.557
496.76	75.910
497.11	76.293
497.45	75.943
497.80	77.750
498.14	76.652
498.49	77.349
498.84	76.946
499.18	77.209
499.53	76.687
499.87	75.243
500.22	77.448
500.56	77.055
500.91	77.058
501.26	75.927
501.60	77.423
501.95	77.681
502.29	76.077
502.64	76.834
502.98	78.885
503.33	76.033
503.67	75.663
504.02	76.735
504.36	78.031
504.71	75.303
505.06	76.850
505.40	77.107
505.75	77.887
506.09	76.280
506.44	77.926
506.78	77.653
507.13	77.456
507.47	76.815
507.82	77.778
508.16	78.764
508.51	78.174
508.85	78.441
509.19	77.701
509.54	78.016
509.88	78.479
510.23	78.913
510.57	77.231
510.92	76.759
511.26	79.542
511.61	78.053
511.95	78.137
512.30	78.880
512.64	78.909
512.98	79.281
513.33	78.288
513.67	78.738
514.02	81.293
514.36	80.343
514.70	80.653
515.05	82.139
515.39	81.287
515.74	81.377
516.08	80.634
516.42	80.506
516.77	80.047
517.11	81.365
517.46	82.047
517.80	80.513
518.14	81.935
518.49	80.889
518.83	81.592
519.17	79.381
519.52	80.166
519.86	79.472
520.20	81.227
520.55	81.488
520.89	81.744
521.23	81.254
521.58	80.694
521.92	82.179
522.26	81.653
522.61	82.403
522.95	84.437
523.29	81.258
523.64	81.957
523.98	82.113
524.32	82.410
524.66	81.754
525.01	83.052
525.35	81.594
525.69	84.781
526.04	82.407
526.38	84.760
526.72	81.622
527.06	81.777
527.41	82.586
527.75	81.099
528.09	82.857
528.43	84.808
528.78	83.366
529.12	81.677
529.46	82.651
529.80	81.507
530.15	82.376
530.49	83.030
530.83	83.516
531.17	82.539
531.51	82.421
531.86	83.413
532.20	83.368
532.54	84.275
532.88	82.409
533.22	82.661
533.57	82.045
533.91	80.940
534.25	82.812
534.59	81.334
534.93	80.113
535.27	78.680
535.62	80.557
535.96	81.409
536.30	82.124
536.64	83.046
536.98	82.927
537.32	82.930
537.66	83.310
538.01	82.657
538.35	81.623
538.69	79.228
539.03	79.836
539.37	79.071
539.71	79.959
540.05	80.923
540.39	81.787
540.73	80.614
541.07	82.044
541.42	80.175
541.76	82.519
542.10	82.175
542.44	81.306
542.78	78.734
543.12	80.632
543.46	81.085
543.80	81.402
544.14	77.904
544.48	79.547
544.82	80.930
545.16	80.191
545.50	79.506
545.84	82.365
546.18	80.780
546.52	81.831
546.86	81.812
547.20	79.542
547.54	79.788
547.88	79.144
548.22	78.764
548.56	80.409
548.90	80.121
549.24	80.510
549.58	78.632
549.92	79.414
550.26	81.612
550.60	82.454
550.94	82.151
551.28	81.685
551.62	81.846
551.96	81.805
552.30	80.556
552.64	79.901
552.98	80.872
553.32	80.456
553.66	80.189
554.00	82.409
554.34	82.496
554.68	80.973
555.02	81.845
555.36	81.601
555.69	80.293
556.03	81.513
556.37	79.288
556.71	78.484
557.05	80.164
557.39	81.636
557.73	80.435
558.07	80.920
558.41	81.317
558.75	81.684
559.08	81.009
559.42	81.190
559.76	83.347
560.10	80.275
560.44	81.534
560.78	79.091
561.12	78.914
561.45	78.918
561.79	79.692
562.13	79.631
562.47	78.921
562.81	80.908
563.15	78.138
563.48	80.198
563.82	79.822
564.16	79.805
564.50	76.689
564.84	78.648
565.17	77.532
565.51	80.055
565.85	80.796
566.19	77.851
566.52	78.418
566.86	78.406
567.20	76.837
567.54	77.616
567.88	77.739
568.21	76.244
568.55	75.978
568.89	74.846
569.23	72.605
569.56	71.979
569.90	70.605
570.24	69.855
570.57	70.509
570.91	70.965
571.25	67.840
571.59	67.362
571.92	66.993
572.26	67.633
572.60	66.233
572.93	66.709
573.27	66.332
573.61	66.468
573.95	65.920
574.28	65.651
574.62	64.683
574.96	64.198
575.29	64.134
575.63	63.799
575.97	64.164
576.30	64.436
576.64	64.106
576.98	65.225
577.31	64.832
577.65	63.922
577.98	64.286
578.32	63.462
578.66	62.368
578.99	63.290
579.33	62.753
579.67	62.932
580.00	63.392
580.34	63.881
580.67	64.095
581.01	63.953
581.35	62.554
581.68	62.921
582.02	61.993
582.35	62.117
582.69	62.349
583.02	62.401
583.36	63.355
583.70	64.304
584.03	64.860
584.37	66.488
584.70	64.725
585.04	62.927
585.37	63.907
585.71	63.194
586.04	62.758
586.38	63.697
586.72	64.964
587.05	64.760
587.39	64.104
587.72	65.801
588.06	64.932
588.39	64.568
588.73	64.866
589.06	64.840
589.40	64.812
589.73	66.959
590.07	66.843
590.40	66.215
590.73	67.339
591.07	68.066
591.40	67.186
591.74	69.412
592.07	68.785
592.41	68.286
592.74	66.985
593.08	64.408
593.41	64.646
593.75	63.919
594.08	64.126
594.41	65.066
594.75	65.382
595.08	65.191
595.42	65.072
595.75	66.654
596.09	66.106
596.42	66.804
596.75	66.963
597.09	66.879
597.42	66.802
597.75	67.384
598.09	65.776
598.42	65.930
598.76	65.251
599.09	65.104
599.42	63.926
599.76	64.673
600.09	64.103
600.42	63.798
600.76	63.113
601.09	63.664
601.42	63.220
601.76	63.994
602.09	65.182
602.42	65.880
602.76	65.874
603.09	66.653
603.42	66.179
603.76	64.677
604.09	64.723
604.42	66.201
604.76	66.044
605.09	65.539
605.42	65.688
605.75	65.849
606.09	65.350
606.42	63.887
606.75	65.238
607.09	64.967
607.42	65.618
607.75	64.076
608.08	63.387
608.42	63.910
608.75	65.880
609.08	66.517
609.41	65.330
609.75	65.121
610.08	66.301
610.41	64.976
610.74	65.675
611.07	67.235
611.41	66.424
611.74	67.591
612.07	66.970
612.40	67.834
612.73	67.966
613.07	66.817
613.40	66.302
613.73	65.193
614.06	67.001
614.39	66.892
614.72	65.490
615.06	65.922
615.39	65.229
615.72	64.855
616.05	66.034
616.38	65.584
616.71	66.606
617.05	68.190
617.38	67.882
617.71	67.736
618.04	66.857
618.37	68.033
618.70	69.109
619.03	69.028
619.36	69.537
619.69	71.266
620.03	70.343
620.36	70.172
620.69	68.808
621.02	69.266
621.35	72.116
621.68	73.299
622.01	72.833
622.34	71.828
622.67	70.505
623.00	71.363
623.33	70.122
623.66	69.708
623.99	69.818
624.32	71.711
624.65	70.677
624.99	70.730
625.32	69.219
625.65	70.856
625.98	71.797
626.31	70.075
626.64	73.050
626.97	73.298
627.30	73.030
627.63	72.010
627.96	73.854
628.29	73.173
628.62	74.238
628.95	76.253
629.28	76.411
629.61	73.978
629.94	76.149
630.26	75.593
630.59	77.732
630.92	74.462
631.25	73.744
631.58	77.313
631.91	75.768
632.24	77.752
632.57	78.295
632.90	78.410
633.23	79.529
633.56	80.730
633.89	78.915
634.22	80.864
634.55	80.813
634.88	81.226
635.20	78.846
635.53	82.000
635.86	78.674
636.19	80.078
636.52	79.974
636.85	77.295
637.18	76.981
637.51	79.371
637.83	80.026
638.16	79.809
638.49	79.428
638.82	79.605
639.15	79.376
639.48	79.367
639.81	80.614
640.13	80.519
640.46	79.446
640.79	81.296
641.12	78.877
641.45	81.682
641.77	81.185
642.10	84.202
642.43	82.476
642.76	85.314
643.09	83.683
643.41	81.715
643.74	84.514
644.07	83.087
644.40	84.797
644.73	86.165
645.05	81.879
645.38	84.480
645.71	86.170
646.04	83.124
646.36	84.929
646.69	85.791
647.02	86.389
647.35	84.701
647.67	85.740
648.00	85.075
648.33	81.911
648.66	81.525
648.98	78.392
649.31	80.661
649.64	77.551
649.96	77.796
650.29	82.283
650.62	81.368
650.94	83.148
651.27	84.730
651.60	82.342
651.92	79.371
652.25	79.041
652.58	78.500
652.90	82.333
653.23	77.143
653.56	77.327
653.88	79.725
654.21	80.911
654.54	77.419
654.86	77.080
655.19	74.561
655.52	65.635
655.84	51.824
656.17	55.820
656.49	74.744
656.82	76.925
657.15	59.419
657.47	44.587
657.80	33.947
658.13	33.661
658.45	52.596
658.78	52.880
659.10	53.395
659.43	55.190
659.75	57.474
660.08	59.448
660.41	65.475
660.73	70.166
661.06	76.950
661.38	81.213
661.71	78.234
662.03	84.120
662.36	83.956
662.68	80.752
663.01	86.463
663.33	84.687
663.66	81.395
663.98	83.488
664.31	81.237
664.63	80.645
664.96	76.739
665.28	80.795
665.61	79.221
665.93	80.435
666.26	83.297
666.58	81.432
666.91	84.706
667.23	81.132
667.56	83.412
667.88	82.734
668.21	84.010
668.53	83.924
668.86	82.075
669.18	80.425
669.50	80.145
669.83	77.674
670.15	80.186
670.48	82.297
670.80	81.797
671.13	81.432
671.45	78.767
671.77	80.901
672.10	75.644
672.42	74.345
672.75	73.535
673.07	72.809
673.39	76.697
673.72	73.373
674.04	75.833
674.37	75.424
674.69	75.589
675.01	77.556
675.34	75.901
675.66	81.713
675.98	77.605
676.31	80.505
676.63	78.860
676.95	77.500
677.28	80.235
677.60	83.373
677.92	77.523
678.25	79.431
678.57	76.190
678.89	75.840
679.22	78.076
679.54	73.695
679.86	70.577
680.18	73.010
680.51	70.265
680.83	70.378
681.15	72.800
681.48	73.361
681.80	72.107
682.12	73.589
682.44	72.803
682.77	75.055
683.09	75.057
683.41	74.545
683.73	73.963
684.06	73.009
684.38	70.108
684.70	76.906
685.02	72.407
685.34	65.810
685.67	68.105
685.99	69.982
686.31	67.611
686.63	66.234
686.96	66.730
687.28	67.273
687.60	68.631
687.92	73.737
688.24	70.565
688.56	70.742
688.89	71.429
689.21	71.111
689.53	76.102
689.85	68.837
690.17	67.857
690.49	71.868
690.82	74.272
691.14	70.952
691.46	73.832
691.78	70.946
692.10	70.753
692.42	67.100
692.74	67.521
693.06	67.568
693.39	67.647
693.71	69.005
694.03	69.284
694.35	68.925
694.67	71.970
694.99	68.668
695.31	74.413
695.63	71.000
695.95	70.455
696.27	73.316
696.59	76.389
696.91	68.627
697.23	67.609
697.56	71.040
697.88	67.527
698.20	68.109
698.52	67.529
698.84	65.072
699.16	66.500
699.48	70.426
699.80	66.253
700.12	68.733
700.44	69.748
700.76	70.640
701.08	70.000
701.40	74.096
701.72	77.160
702.04	74.257
702.36	80.602
702.68	75.676
703.00	67.879
703.32	70.968
703.64	65.537
703.96	70.145
704.28	72.393
704.60	73.651
704.91	65.300
705.23	64.784
705.55	73.852
705.87	77.256
706.19	78.889
706.51	71.134
706.83	68.810
707.15	67.913
707.47	66.667
707.79	64.844
708.11	64.250
708.43	61.500
708.74	64.341
709.06	68.732
709.38	69.419
709.70	66.272
710.02	71.656
710.34	69.350
710.66	67.949
710.98	71.192
711.29	70.820
711.61	65.085
711.93	67.101
712.25	72.165
712.57	67.033
712.89	64.179
713.20	68.166
713.52	67.596
713.84	67.918
714.16	68.385
714.48	65.806
714.80	66.667
715.11	63.830
715.43	63.950
715.75	61.667
716.07	61.794
716.39	65.436
716.70	63.469
717.02	66.412
717.34	72.065
717.66	74.779
717.97	66.087
718.29	70.711
718.61	70.866
718.93	66.279
719.24	67.681
719.56	67.871
719.88	60.481
720.20	66.667
720.51	65.134
720.83	66.409
721.15	66.807
721.46	61.694
721.78	64.032
722.10	62.454
722.42	62.241
722.73	67.755
723.05	70.612
723.37	67.797
723.68	73.874
724.00	67.094
724.32	64.444
724.63	65.455
724.95	67.249
725.27	68.203
725.58	67.797
725.90	65.079
726.22	65.251
726.53	61.356
726.85	60.674
727.16	65.283
727.48	62.348
727.80	67.206
728.11	66.525
728.43	63.529
728.74	58.871
729.06	64.400
729.38	68.797
729.69	68.924
730.01	58.077
730.32	66.791
730.64	58.304
730.96	67.170
731.27	55.667
731.59	58.305
731.90	57.643
732.22	59.621
732.53	62.458
732.85	57.801
733.16	62.290
733.48	52.878
733.80	60.145
734.11	58.305
734.43	59.450
734.74	54.545
735.06	57.329
735.37	55.891
735.69	57.576
736.00	59.582
736.32	57.383
736.63	59.155
736.95	55.631
737.26	56.584
737.58	55.705
737.89	56.777
738.21	62.030
738.52	61.317
738.83	59.825
739.15	57.205
739.46	66.142
739.78	54.579
740.09	54.902
740.41	57.246
740.72	49.213
741.04	60.324
741.35	58.723
741.66	59.716
741.98	58.673
742.29	60.396
742.61	63.351
742.92	53.555
743.23	47.685
743.55	62.443
743.86	60.766
744.18	51.675
744.49	67.021
744.80	66.848
745.12	67.380
745.43	52.195
745.74	67.708
746.06	58.537
746.37	70.681
746.68	61.137
747.00	62.766
747.31	68.159
747.62	62.136
747.94	62.679
748.25	64.851
748.56	68.306
748.88	61.780
749.19	62.766
749.50	64.039
749.82	47.642
750.13	62.844
750.44	56.767
750.75	62.313
751.07	58.394
751.38	52.107
751.69	50.196
752.01	55.814
752.32	56.175
752.63	55.336
752.94	60.776
753.26	63.598
753.57	52.941
753.88	52.655
754.19	49.583
754.51	57.438
754.82	58.704
755.13	57.083
755.44	56.048
755.75	58.984
756.07	57.198
756.38	50.566
756.69	49.808
757.00	51.333
757.31	52.614
757.63	47.256
757.94	44.722
758.25	45.479
758.56	47.606
758.87	44.759
759.18	47.664
759.50	50.182
759.81	53.846
760.12	54.194
760.43	43.333
760.74	52.160
761.05	48.615
761.36	48.580
761.67	48.788
761.99	51.361
762.30	49.455
762.61	54.941
762.92	49.321
763.23	52.703
763.54	53.271
763.85	55.508
764.16	53.112
764.47	49.194
764.78	46.154
765.10	54.882
765.41	47.634
765.72	43.810
766.03	47.368
766.34	45.620
766.65	58.566
766.96	52.020
767.27	55.319
767.58	56.897
767.89	60.993
768.20	58.523
768.51	54.945
768.82	52.709
769.13	50.230
769.44	48.927
769.75	45.205
770.06	52.155
770.37	49.038
770.68	51.269
770.99	50.226
771.30	54.902
771.61	48.869
771.92	51.293
772.23	50.739
772.54	58.065
772.85	50.617
773.16	52.809
773.47	62.092
773.78	56.863
774.09	48.503
774.39	58.000
774.70	56.688
775.01	54.483
775.32	56.429
775.63	50.413
775.94	63.359
776.25	62.992
776.56	50.833
776.87	57.692
777.18	60.684
777.48	55.172
777.79	55.652
778.10	50.476
778.41	64.865
778.72	52.381
779.03	54.887
779.34	51.773
779.65	52.740
779.95	50.000
780.26	46.897
780.57	55.285
780.88	54.331
781.19	54.310
781.50	62.016
781.80	47.929
782.11	42.767
782.42	63.846
782.73	50.360
783.04	45.185
783.34	39.583
783.65	41.026
783.96	50.820
784.27	56.552
784.57	55.285
784.88	51.562
785.19	58.000
785.50	64.000
785.81	59.483
786.11	43.966
786.42	56.311
786.73	68.182
787.04	58.163
787.34	44.643
787.65	60.000
787.96	49.558
788.26	53.636
788.57	43.590
788.88	47.656
789.19	39.683
789.49	53.043
789.80	47.959
790.11	52.525
790.41	54.545
790.72	57.609
791.03	57.955
791.33	65.000
791.64	57.500
791.95	48.837
792.25	53.191
792.56	53.933
792.87	57.534
793.17	56.522
793.48	44.000
793.79	55.000
794.09	48.750
794.40	46.226
794.70	43.689
795.01	39.837
795.32	43.590
795.62	48.571
795.93	60.784
796.23	50.000
796.54	42.708
796.85	66.176
797.15	47.887
797.46	47.222
797.76	53.030
798.07	46.512
798.37	40.789
798.68	51.515
798.99	38.272
799.29	58.571
799.60	53.623
799.90	38.667
800.21	39.344
800.51	47.692
800.82	69.492
801.12	52.174
801.43	63.934
801.73	47.619
802.04	30.000
802.34	47.761
802.65	59.615
802.95	44.643
803.26	61.538
803.56	66.667
803.87	47.826
804.17	44.000
804.48	44.444
804.78	38.889
805.09	56.522
805.39	64.444
805.70	51.852
806.00	29.825
806.30	45.070
806.61	51.429
806.91	34.722
807.22	47.368
807.52	37.333
807.83	52.727
808.13	30.556
808.43	47.059
808.74	37.313
809.04	50.847
809.35	32.692
809.65	37.500
809.95	29.730
810.26	45.455
810.56	28.767
810.86	52.381
811.17	48.000
811.47	46.939
811.77	47.368
812.08	25.000
812.38	20.755
812.69	35.000
812.99	39.394
813.29	60.526
813.59	45.714
813.90	47.727
814.20	20.513
814.50	48.077
814.81	32.075
815.11	25.532
815.41	61.017
815.72	0.000
816.02	43.137
816.32	58.333
816.62	41.463
816.93	8.108
817.23	25.714
817.53	66.667
817.84	26.087
818.14	26.923
818.44	31.579
818.74	47.826
819.04	0.000
819.35	35.135
819.65	82.353
819.95	63.889
820.25	33.333
820.56	62.500
820.86	3.448
821.16	75.000
821.46	51.064
821.76	22.500
822.07	32.558
822.37	16.216
822.67	53.125
822.97	64.286
823.27	46.429
823.57	80.000
823.88	22.222
824.18	42.857
824.48	23.529
824.78	35.484
825.08	52.174
825.38	39.394
825.69	-8.333
825.99	52.632
826.29	55.556
826.59	26.667
826.89	28.571
827.19	41.304
827.49	17.500
827.79	40.000
828.09	50.000
828.39	75.758
828.70	83.784
829.00	57.143
829.30	52.381
829.60	-3.333
829.90	28.125
830.20	15.789
830.50	-18.519
830.80	21.739
831.10	31.818
831.40	39.394
831.70	64.516
832.00	33.333
832.30	9.524
832.60	0.000
832.90	41.379
833.20	40.000
833.50	33.333
833.80	37.037
834.10	50.000
834.40	40.625
834.70	77.778
835.00	31.579
835.30	73.077
835.60	46.667
835.90	48.387
836.20	13.636
836.50	71.429
836.80	19.231
837.10	64.286
837.40	100.000
837.70	31.818
838.00	-27.273
838.30	34.783
838.60	30.769
838.90	50.000
839.19	14.286
839.49	33.333
839.79	0.000
840.09	-8.333
840.39	42.857
840.69	60.714
840.99	-30.769
841.29	21.053
841.59	-20.000
841.88	45.455
842.18	80.000
842.48	75.000
842.78	106.667
843.08	37.037
843.38	-20.000
843.68	56.522
843.97	13.333
844.27	60.000
844.57	75.000
844.87	27.778
845.17	23.810
845.47	-6.667
845.76	-33.333
846.06	5.882
846.36	90.000
846.66	-50.000
846.96	40.000
847.25	-150.000
847.55	42.857
847.85	12.500
848.15	-22.727
848.44	-133.333
848.74	-10.000
849.04	48.148
849.34	-45.455
849.63	-100.000
849.93	0.000
850.23	33.333
850.53	80.000
850.82	-53.846
851.12	33.333
851.42	-13.333
851.71	30.769
852.01	-21.429
852.31	-300.000
852.61	0.000
852.90	-5.000
853.20	5.263
853.50	-66.667
853.79	21.739
854.09	37.500
854.39	0.000
854.68	20.833
854.98	29.032
855.28	38.462
855.57	-15.000
855.87	44.444
856.17	74.074
856.46	35.714
856.76	-20.000
857.05	222.222
857.35	4.000
857.65	116.667
857.94	23.077
858.24	55.172
858.53	27.778
858.83	59.259
859.13	40.909
859.42	8.696
859.72	25.000
860.01	-466.667
860.31	32.000
860.60	0.000
860.90	-266.667
861.20	-46.667
861.49	-250.000
861.79	-13.333
862.08	50.000
862.38	100.000
862.67	-200.000
862.97	-50.000
863.26	50.000
863.56	11.111
863.85	-466.667
864.15	22.222
864.44	10.000
864.74	71.429
865.03	175.000
865.33	-160.000
865.62	-16.667
865.92	16.667
866.21	0.000
866.51	25.000
866.80	-81.818
867.10	-350.000
867.39	50.000
867.69	0.000
867.98	30.769
868.27	-333.333
868.57	26.667
868.86	38.889
869.16	-38.462
869.45	60.000
869.75	-200.000
870.04	0.000
870.33	-28.571
870.63	0.000
870.92	500.000
871.22	-40.000
871.51	200.000
871.80	100.000
872.10	100.000
>>>>>End Processed Spectral Data<<<<<
