SpectraSuite Data File
++++++++++++++++++++++++++++++++++++
Date: Fri May 15 20:38:15 PDT 2015
User: schluterlab
Dark Spectrum Present: Yes
Reference Spectrum Present: Yes
Number of Sampled Component Spectra: 1
Spectrometers: USB2E3373
Integration Time (usec): 3000 (USB2E3373)
Spectra Averaged: 3 (USB2E3373)
Boxcar Smoothing: 0 (USB2E3373)
Correct for Electrical Dark: No (USB2E3373)
Strobe/Lamp Enabled: No (USB2E3373)
Correct for Detector Non-linearity: No (USB2E3373)
Correct for Stray Light: No (USB2E3373)
Number of Pixels in Processed Spectrum: 2048
>>>>>Begin Processed Spectral Data<<<<<
178.53	0.000
178.91	0.000
179.29	-50.000
179.67	-750.000
180.04	-100.000
180.42	125.000
180.80	-1300.000
181.18	300.000
181.56	400.000
181.94	0.000
182.31	800.000
182.69	-60.000
183.07	-200.000
183.45	-220.000
183.83	116.667
184.20	18.182
184.58	88.889
184.96	50.000
185.34	100.000
185.72	-600.000
186.09	53.846
186.47	100.000
186.85	183.333
187.23	166.667
187.61	300.000
187.98	-233.333
188.36	11.111
188.74	-466.667
189.12	-23.529
189.49	38.889
189.87	0.000
190.25	0.000
190.63	100.000
191.00	-233.333
191.38	-10.526
191.76	250.000
192.14	175.000
192.51	-50.000
192.89	22.222
193.27	-71.429
193.65	66.667
194.02	81.818
194.40	40.000
194.78	-137.500
195.15	-8.333
195.53	-62.500
195.91	300.000
196.29	-125.000
196.66	69.231
197.04	200.000
197.42	-77.778
197.79	-500.000
198.17	-76.923
198.55	1800.000
198.92	-233.333
199.30	-200.000
199.68	-220.000
200.05	-466.667
200.43	0.000
200.81	-166.667
201.18	-166.667
201.56	600.000
201.94	-500.000
202.31	-300.000
202.69	-360.000
203.07	275.000
203.44	-200.000
203.82	0.000
204.19	92.857
204.57	-266.667
204.95	112.500
205.32	-40.000
205.70	-42.857
206.08	-250.000
206.45	188.889
206.83	85.714
207.20	-128.571
207.58	1000.000
207.96	333.333
208.33	-140.000
208.71	-25.000
209.08	-116.667
209.46	-300.000
209.84	20.000
210.21	-1900.000
210.59	85.714
210.96	33.333
211.34	-75.000
211.71	6.667
212.09	-42.857
212.46	-1900.000
212.84	0.000
213.22	100.000
213.59	500.000
213.97	30.769
214.34	-54.545
214.72	-100.000
215.09	225.000
215.47	-23.077
215.84	-127.273
216.22	-33.333
216.59	-75.000
216.97	-250.000
217.34	50.000
217.72	-100.000
218.09	-25.000
218.47	87.500
218.84	-600.000
219.22	-33.333
219.59	-80.000
219.97	666.667
220.34	225.000
220.72	57.143
221.09	-250.000
221.47	-150.000
221.84	-700.000
222.22	-850.000
222.59	0.000
222.97	0.000
223.34	-300.000
223.72	-14.286
224.09	-4.762
224.46	7.143
224.84	500.000
225.21	-90.000
225.59	-46.667
225.96	-550.000
226.34	425.000
226.71	-100.000
227.08	-50.000
227.46	-125.000
227.83	-250.000
228.21	-33.333
228.58	63.636
228.95	25.000
229.33	60.000
229.70	31.250
230.08	-62.500
230.45	-85.714
230.82	-42.857
231.20	-113.333
231.57	21.429
231.95	14.286
232.32	-180.000
232.69	50.000
233.07	-33.333
233.44	-40.000
233.81	-50.000
234.19	-44.444
234.56	-23.529
234.93	150.000
235.31	-200.000
235.68	-240.000
236.05	-76.923
236.43	-50.000
236.80	17.647
237.17	3.125
237.55	-65.000
237.92	18.519
238.29	-5.556
238.67	-26.667
239.04	-11.765
239.41	-36.585
239.79	-10.000
240.16	-7.317
240.53	-7.895
240.91	-10.870
241.28	4.762
241.65	8.929
242.02	-4.110
242.40	-3.333
242.77	6.780
243.14	-24.242
243.51	-2.500
243.89	17.241
244.26	-18.391
244.63	-13.095
245.00	0.000
245.38	1.031
245.75	-10.112
246.12	-6.034
246.49	9.091
246.87	4.808
247.24	-6.723
247.61	-10.526
247.98	-2.439
248.36	-0.625
248.73	7.237
249.10	-7.792
249.47	-1.899
249.84	-0.654
250.22	-2.353
250.59	-3.922
250.96	6.103
251.33	-7.558
251.70	-3.529
252.08	1.015
252.45	3.960
252.82	0.000
253.19	3.226
253.56	3.271
253.94	5.405
254.31	0.870
254.68	0.439
255.05	-0.787
255.42	-1.310
255.79	-1.544
256.16	2.335
256.54	3.358
256.91	0.000
257.28	2.974
257.65	0.000
258.02	-1.418
258.39	3.367
258.76	0.000
259.14	-0.664
259.51	-0.324
259.88	0.344
260.25	0.000
260.62	1.389
260.99	-1.356
261.36	-0.342
261.73	-3.797
262.10	1.824
262.47	-2.147
262.85	-1.254
263.22	-1.846
263.59	-0.623
263.96	0.621
264.33	-2.424
264.70	-2.381
265.07	-1.190
265.44	3.966
265.81	0.565
266.18	1.913
266.55	1.799
266.92	-1.813
267.29	1.828
267.66	0.000
268.03	0.785
268.40	-0.522
268.77	3.209
269.14	0.719
269.51	0.257
269.88	-0.249
270.25	-1.276
270.62	0.000
270.99	-0.512
271.36	1.467
271.73	0.469
272.10	0.487
272.47	1.891
272.84	-0.248
273.21	2.320
273.58	0.482
273.95	2.059
274.32	0.924
274.69	-2.036
275.06	1.786
275.43	0.227
275.80	-1.104
276.17	0.230
276.54	-1.285
276.91	0.439
277.28	0.000
277.65	0.826
278.02	1.702
278.39	0.656
278.76	1.468
279.13	-0.207
279.50	2.311
279.87	0.864
280.23	-0.430
280.60	2.144
280.97	2.424
281.34	-0.192
281.71	3.285
282.08	-0.613
282.45	0.978
282.82	1.544
283.19	0.193
283.56	0.578
283.92	-1.518
284.29	-1.731
284.66	-0.581
285.03	2.750
285.40	2.647
285.77	-0.703
286.14	0.361
286.51	3.690
286.87	0.000
287.24	-1.657
287.61	0.705
287.98	2.807
288.35	-0.347
288.72	2.277
289.08	1.042
289.45	0.176
289.82	-0.175
290.19	0.512
290.56	-1.029
290.93	0.000
291.29	0.154
291.66	1.260
292.03	1.435
292.40	1.129
292.77	0.000
293.13	-0.649
293.50	-0.607
293.87	2.443
294.24	0.155
294.60	1.192
294.97	2.232
295.34	1.074
295.71	-0.298
296.08	0.000
296.44	0.569
296.81	1.250
297.18	1.159
297.55	1.762
297.91	0.274
298.28	1.847
298.65	0.543
299.02	1.078
299.38	-0.410
299.75	1.517
300.12	0.131
300.48	-0.264
300.85	1.901
301.22	0.390
301.59	1.053
301.95	2.785
302.32	2.853
302.69	0.249
303.05	1.609
303.42	1.743
303.79	1.285
304.15	1.912
304.52	-0.713
304.89	1.404
305.25	-1.211
305.62	1.867
305.99	1.637
306.35	1.503
306.72	0.112
307.09	0.570
307.45	0.804
307.82	0.463
308.19	0.697
308.55	0.000
308.92	1.743
309.29	-0.112
309.65	0.323
310.02	0.550
310.38	0.659
310.75	2.186
311.12	0.323
311.48	0.954
311.85	0.838
312.22	0.844
312.58	0.955
312.95	0.640
313.31	0.932
313.68	2.094
314.05	2.041
314.41	1.649
314.78	1.856
315.14	2.055
315.51	3.520
315.87	1.947
316.24	4.348
316.61	3.445
316.97	3.373
317.34	4.297
317.70	4.398
318.07	3.269
318.43	4.020
318.80	4.072
319.16	4.492
319.53	5.793
319.89	4.724
320.26	5.972
320.62	6.820
320.99	5.324
321.35	6.680
321.72	7.996
322.08	6.949
322.45	7.513
322.81	8.251
323.18	7.556
323.54	8.398
323.91	8.569
324.27	9.668
324.64	10.300
325.00	10.766
325.37	11.295
325.73	11.423
326.10	10.808
326.46	12.377
326.83	12.423
327.19	12.816
327.56	14.248
327.92	13.556
328.29	12.679
328.65	13.585
329.01	14.430
329.38	14.562
329.74	14.070
330.11	15.014
330.47	14.007
330.84	14.712
331.20	17.395
331.56	15.463
331.93	16.438
332.29	15.490
332.66	15.928
333.02	17.286
333.38	15.215
333.75	17.125
334.11	15.756
334.48	17.226
334.84	18.407
335.20	16.926
335.57	16.228
335.93	18.790
336.29	17.403
336.66	17.075
337.02	16.357
337.38	16.574
337.75	18.545
338.11	17.493
338.47	18.157
338.84	17.930
339.20	18.556
339.56	17.339
339.93	18.532
340.29	17.431
340.65	18.728
341.02	16.933
341.38	17.611
341.74	17.314
342.11	17.244
342.47	19.306
342.83	17.907
343.20	18.118
343.56	18.783
343.92	18.689
344.28	19.385
344.65	17.962
345.01	17.373
345.37	17.410
345.73	19.582
346.10	19.241
346.46	19.176
346.82	19.313
347.19	18.038
347.55	19.215
347.91	18.689
348.27	18.593
348.63	19.506
349.00	19.852
349.36	18.288
349.72	19.983
350.08	18.934
350.45	18.755
350.81	18.272
351.17	17.427
351.53	19.347
351.89	18.415
352.26	18.480
352.62	19.274
352.98	18.876
353.34	19.646
353.70	19.984
354.07	20.000
354.43	20.016
354.79	20.231
355.15	19.603
355.51	20.728
355.87	19.984
356.24	18.271
356.60	19.402
356.96	21.429
357.32	19.888
357.68	19.781
358.04	19.628
358.40	19.293
358.77	20.415
359.13	19.215
359.49	20.108
359.85	20.593
360.21	21.132
360.57	18.898
360.93	21.785
361.29	20.393
361.66	20.455
362.02	20.227
362.38	20.487
362.74	19.985
363.10	20.166
363.46	20.682
363.82	21.488
364.18	20.886
364.54	20.515
364.90	21.577
365.26	20.524
365.62	20.949
365.98	21.041
366.35	21.122
366.71	21.729
367.07	21.045
367.43	20.920
367.79	20.212
368.15	21.680
368.51	21.413
368.87	20.890
369.23	20.144
369.59	21.647
369.95	21.921
370.31	22.543
370.67	22.910
371.03	21.060
371.39	21.298
371.75	21.538
372.11	20.970
372.47	22.041
372.83	21.647
373.19	21.683
373.55	22.094
373.91	21.886
374.27	21.899
374.63	22.182
374.99	21.773
375.35	22.563
375.71	22.797
376.07	22.893
376.42	22.653
376.78	22.483
377.14	22.884
377.50	21.514
377.86	22.088
378.22	22.080
378.58	22.756
378.94	22.117
379.30	22.396
379.66	22.821
380.02	22.808
380.38	21.546
380.74	22.442
381.09	23.865
381.45	22.936
381.81	22.455
382.17	22.589
382.53	22.673
382.89	23.980
383.25	23.460
383.61	23.537
383.97	22.857
384.32	22.952
384.68	23.591
385.04	22.610
385.40	23.273
385.76	24.025
386.12	23.027
386.48	23.883
386.83	22.194
387.19	23.748
387.55	23.463
387.91	24.267
388.27	23.138
388.62	23.663
388.98	23.389
389.34	23.235
389.70	23.617
390.06	22.719
390.42	24.288
390.77	23.349
391.13	23.392
391.49	22.898
391.85	23.652
392.20	24.043
392.56	23.458
392.92	23.077
393.28	24.116
393.64	23.904
393.99	24.326
394.35	22.897
394.71	23.946
395.07	23.382
395.42	23.922
395.78	23.518
396.14	23.581
396.50	23.272
396.85	23.245
397.21	24.123
397.57	23.448
397.92	23.547
398.28	23.506
398.64	21.446
399.00	22.799
399.35	23.138
399.71	23.665
400.07	23.821
400.42	23.929
400.78	24.434
401.14	23.291
401.49	24.300
401.85	23.339
402.21	23.614
402.57	24.188
402.92	22.898
403.28	23.622
403.63	23.077
403.99	23.852
404.35	23.485
404.70	21.905
405.06	22.914
405.42	23.804
405.77	23.765
406.13	22.992
406.49	22.321
406.84	24.511
407.20	23.901
407.55	23.567
407.91	23.128
408.27	23.136
408.62	22.831
408.98	23.105
409.34	22.243
409.69	22.933
410.05	22.845
410.40	22.654
410.76	23.643
411.11	22.750
411.47	23.143
411.83	21.469
412.18	22.587
412.54	22.097
412.89	22.044
413.25	22.563
413.60	22.174
413.96	22.025
414.31	22.866
414.67	22.386
415.03	21.838
415.38	22.715
415.74	22.866
416.09	22.861
416.45	22.282
416.80	21.811
417.16	22.652
417.51	22.385
417.87	21.317
418.22	22.215
418.58	22.809
418.93	23.072
419.29	21.575
419.64	21.841
420.00	23.174
420.35	22.507
420.71	22.418
421.06	21.731
421.42	22.416
421.77	21.965
422.12	21.737
422.48	22.361
422.83	22.680
423.19	21.614
423.54	21.576
423.90	21.614
424.25	22.503
424.61	22.766
424.96	22.125
425.31	22.415
425.67	22.242
426.02	22.438
426.38	22.480
426.73	22.276
427.09	22.089
427.44	21.941
427.79	22.098
428.15	21.966
428.50	21.744
428.85	21.929
429.21	21.675
429.56	22.480
429.92	23.164
430.27	21.303
430.62	21.223
430.98	21.603
431.33	22.450
431.68	21.402
432.04	21.297
432.39	21.734
432.74	20.686
433.10	22.184
433.45	20.968
433.80	22.055
434.16	21.053
434.51	21.129
434.86	21.312
435.22	22.210
435.57	22.333
435.92	22.575
436.28	21.527
436.63	21.563
436.98	21.205
437.34	21.537
437.69	22.540
438.04	21.709
438.39	21.869
438.75	21.919
439.10	21.845
439.45	21.668
439.81	21.651
440.16	21.081
440.51	22.030
440.86	22.477
441.22	21.097
441.57	22.351
441.92	21.668
442.27	21.341
442.63	22.537
442.98	21.827
443.33	21.480
443.68	21.167
444.03	21.361
444.39	21.102
444.74	22.631
445.09	22.327
445.44	22.108
445.79	21.403
446.15	20.705
446.50	20.022
446.85	21.945
447.20	20.751
447.55	21.484
447.91	21.940
448.26	21.855
448.61	21.704
448.96	21.572
449.31	21.850
449.66	21.893
450.02	21.107
450.37	21.340
450.72	21.535
451.07	21.519
451.42	21.161
451.77	21.459
452.12	20.455
452.47	19.768
452.83	21.378
453.18	20.999
453.53	21.365
453.88	20.340
454.23	21.512
454.58	21.788
454.93	21.198
455.28	19.175
455.63	20.645
455.98	20.746
456.34	20.754
456.69	22.046
457.04	21.928
457.39	20.656
457.74	20.314
458.09	20.541
458.44	20.889
458.79	20.168
459.14	20.595
459.49	20.836
459.84	20.643
460.19	20.510
460.54	20.721
460.89	20.000
461.24	20.062
461.59	20.784
461.94	20.063
462.29	20.567
462.64	20.266
462.99	20.718
463.34	20.584
463.69	20.206
464.04	19.189
464.39	20.194
464.74	19.755
465.09	19.588
465.44	19.504
465.79	19.444
466.14	19.669
466.49	18.919
466.84	18.917
467.19	19.962
467.54	19.349
467.89	20.025
468.24	19.830
468.59	20.381
468.94	19.111
469.29	19.934
469.64	19.754
469.99	20.883
470.34	19.113
470.68	19.463
471.03	19.674
471.38	19.116
471.73	19.748
472.08	19.607
472.43	18.523
472.78	18.506
473.13	18.639
473.48	18.111
473.83	17.746
474.17	19.624
474.52	18.826
474.87	18.424
475.22	18.426
475.57	18.295
475.92	17.553
476.27	17.928
476.61	19.444
476.96	18.628
477.31	18.713
477.66	18.876
478.01	17.799
478.36	17.919
478.70	17.890
479.05	18.187
479.40	18.601
479.75	17.675
480.10	17.512
480.45	17.600
480.79	18.328
481.14	18.238
481.49	17.537
481.84	18.050
482.19	17.961
482.53	17.746
482.88	17.470
483.23	16.699
483.58	17.264
483.92	17.038
484.27	16.910
484.62	17.033
484.97	16.957
485.31	16.149
485.66	15.717
486.01	15.832
486.36	16.057
486.70	16.108
487.05	16.395
487.40	16.934
487.75	16.338
488.09	16.007
488.44	16.231
488.79	16.362
489.13	17.027
489.48	16.118
489.83	16.413
490.17	16.270
490.52	15.751
490.87	16.011
491.22	16.667
491.56	16.129
491.91	16.157
492.26	16.383
492.60	16.603
492.95	16.773
493.30	15.681
493.64	16.356
493.99	15.652
494.34	15.777
494.68	15.667
495.03	15.377
495.37	15.751
495.72	15.750
496.07	15.902
496.41	15.425
496.76	15.753
497.11	14.672
497.45	15.800
497.80	16.095
498.14	15.648
498.49	15.185
498.84	15.569
499.18	15.964
499.53	15.526
499.87	14.835
500.22	14.936
500.56	14.826
500.91	14.608
501.26	14.731
501.60	14.019
501.95	14.216
502.29	15.157
502.64	14.720
502.98	14.751
503.33	13.593
503.67	15.277
504.02	15.103
504.36	14.498
504.71	14.444
505.06	14.595
505.40	14.112
505.75	14.794
506.09	13.330
506.44	14.682
506.78	14.388
507.13	14.219
507.47	13.734
507.82	13.301
508.16	13.999
508.51	14.743
508.85	14.861
509.19	12.613
509.54	14.048
509.88	13.107
510.23	14.094
510.57	14.164
510.92	12.580
511.26	13.639
511.61	13.421
511.95	13.863
512.30	13.525
512.64	14.023
512.98	13.869
513.33	13.710
513.67	13.132
514.02	13.558
514.36	13.543
514.70	13.695
515.05	14.571
515.39	12.987
515.74	13.293
516.08	13.389
516.42	13.310
516.77	13.692
517.11	13.175
517.46	14.303
517.80	13.468
518.14	13.411
518.49	12.019
518.83	13.123
519.17	12.129
519.52	12.433
519.86	12.425
520.20	13.366
520.55	12.195
520.89	13.049
521.23	13.173
521.58	13.817
521.92	12.885
522.26	12.622
522.61	11.688
522.95	12.119
523.29	11.881
523.64	13.278
523.98	13.545
524.32	11.598
524.66	13.124
525.01	13.247
525.35	13.480
525.69	12.189
526.04	12.500
526.38	13.878
526.72	12.034
527.06	11.997
527.41	12.731
527.75	11.662
528.09	12.027
528.43	13.234
528.78	12.013
529.12	12.258
529.46	12.021
529.80	12.856
530.15	12.343
530.49	11.717
530.83	12.859
531.17	11.686
531.51	12.244
531.86	11.965
532.20	11.273
532.54	12.117
532.88	12.526
533.22	12.500
533.57	11.664
533.91	10.705
534.25	12.305
534.59	11.482
534.93	12.146
535.27	10.977
535.62	10.758
535.96	11.611
536.30	11.609
536.64	11.647
536.98	10.871
537.32	11.735
537.66	11.851
538.01	12.098
538.35	11.373
538.69	11.718
539.03	10.185
539.37	11.306
539.71	10.975
540.05	10.794
540.39	11.219
540.73	11.088
541.07	11.740
541.42	11.895
541.76	11.562
542.10	11.493
542.44	11.119
542.78	10.255
543.12	10.508
543.46	11.057
543.80	11.312
544.14	9.746
544.48	10.393
544.82	10.390
545.16	11.066
545.50	12.016
545.84	11.190
546.18	9.858
546.52	11.824
546.86	10.640
547.20	11.373
547.54	9.399
547.88	10.666
548.22	9.993
548.56	10.686
548.90	10.377
549.24	9.642
549.58	11.142
549.92	9.650
550.26	9.670
550.60	10.112
550.94	9.933
551.28	10.510
551.62	10.308
551.96	10.526
552.30	10.380
552.64	10.014
552.98	9.986
553.32	10.842
553.66	9.724
554.00	9.197
554.34	10.044
554.68	9.808
555.02	9.747
555.36	9.948
555.69	8.498
556.03	9.636
556.37	9.680
556.71	10.181
557.05	9.321
557.39	9.368
557.73	9.745
558.07	9.879
558.41	9.724
558.75	10.055
559.08	9.141
559.42	9.683
559.76	9.848
560.10	9.480
560.44	8.935
560.78	10.769
561.12	9.379
561.45	10.119
561.79	9.944
562.13	9.439
562.47	9.209
562.81	9.510
563.15	9.732
563.48	10.042
563.82	9.609
564.16	8.426
564.50	9.122
564.84	9.103
565.17	8.853
565.51	9.699
565.85	8.711
566.19	9.615
566.52	8.847
566.86	9.769
567.20	9.838
567.54	8.394
567.88	9.197
568.21	9.333
568.55	7.935
568.89	8.624
569.23	8.474
569.56	8.581
569.90	8.323
570.24	8.411
570.57	8.582
570.91	9.062
571.25	8.057
571.59	7.692
571.92	7.822
572.26	7.790
572.60	8.031
572.93	8.566
573.27	7.680
573.61	7.876
573.95	8.083
574.28	7.548
574.62	7.602
574.96	7.828
575.29	7.799
575.63	7.567
575.97	7.753
576.30	7.703
576.64	7.444
576.98	7.851
577.31	7.619
577.65	8.005
577.98	7.967
578.32	7.633
578.66	7.243
578.99	7.604
579.33	7.544
579.67	7.696
580.00	7.646
580.34	7.811
580.67	7.814
581.01	7.445
581.35	7.623
581.68	7.577
582.02	7.304
582.35	7.335
582.69	7.460
583.02	7.477
583.36	7.665
583.70	7.892
584.03	7.534
584.37	7.933
584.70	7.857
585.04	7.383
585.37	7.199
585.71	7.159
586.04	7.287
586.38	7.415
586.72	7.461
587.05	7.626
587.39	7.772
587.72	7.600
588.06	7.556
588.39	7.719
588.73	7.662
589.06	7.958
589.40	7.501
589.73	7.521
590.07	7.402
590.40	7.972
590.73	8.278
591.07	7.549
591.40	7.747
591.74	7.557
592.07	8.302
592.41	8.127
592.74	7.407
593.08	7.440
593.41	7.512
593.75	7.131
594.08	7.209
594.41	7.642
594.75	7.176
595.08	6.583
595.42	7.471
595.75	6.985
596.09	7.545
596.42	7.110
596.75	8.082
597.09	7.153
597.42	7.543
597.75	7.604
598.09	7.741
598.42	7.040
598.76	7.722
599.09	7.452
599.42	7.275
599.76	7.487
600.09	7.051
600.42	7.089
600.76	6.947
601.09	6.718
601.42	7.246
601.76	7.384
602.09	7.096
602.42	7.877
602.76	7.003
603.09	6.977
603.42	7.316
603.76	6.895
604.09	6.359
604.42	7.657
604.76	7.788
605.09	7.404
605.42	6.862
605.75	7.049
606.09	7.176
606.42	6.964
606.75	7.013
607.09	7.648
607.42	6.735
607.75	6.572
608.08	6.694
608.42	7.857
608.75	7.229
609.08	7.125
609.41	6.853
609.75	7.056
610.08	6.740
610.41	7.198
610.74	7.265
611.07	6.512
611.41	7.317
611.74	8.102
612.07	7.227
612.40	7.604
612.73	7.062
613.07	6.974
613.40	7.549
613.73	5.988
614.06	7.123
614.39	6.937
614.72	7.003
615.06	6.760
615.39	7.424
615.72	6.297
616.05	7.430
616.38	6.553
616.71	6.728
617.05	7.041
617.38	7.605
617.71	7.547
618.04	6.921
618.37	7.377
618.70	7.591
619.03	8.611
619.36	6.657
619.69	8.036
620.03	7.889
620.36	8.369
620.69	6.709
621.02	6.881
621.35	7.552
621.68	8.163
622.01	7.167
622.34	7.502
622.67	7.413
623.00	7.351
623.33	7.393
623.66	6.507
623.99	7.716
624.32	8.137
624.65	6.165
624.99	7.374
625.32	5.838
625.65	7.855
625.98	7.413
626.31	7.066
626.64	6.672
626.97	8.028
627.30	7.793
627.63	7.712
627.96	8.086
628.29	6.938
628.62	7.473
628.95	8.417
629.28	7.056
629.61	7.777
629.94	6.354
630.26	8.004
630.59	7.804
630.92	8.205
631.25	7.179
631.58	6.278
631.91	7.346
632.24	6.766
632.57	7.955
632.90	6.287
633.23	8.706
633.56	6.171
633.89	7.028
634.22	7.407
634.55	6.607
634.88	7.407
635.20	7.308
635.53	7.067
635.86	6.502
636.19	7.374
636.52	7.653
636.85	6.328
637.18	6.792
637.51	7.421
637.83	6.965
638.16	8.322
638.49	7.084
638.82	9.211
639.15	6.649
639.48	7.703
639.81	8.508
640.13	7.071
640.46	7.289
640.79	5.891
641.12	6.056
641.45	8.408
641.77	7.407
642.10	8.373
642.43	6.109
642.76	7.096
643.09	7.593
643.41	7.605
643.74	6.919
644.07	8.210
644.40	7.770
644.73	7.180
645.05	9.396
645.38	7.231
645.71	6.915
646.04	7.002
646.36	7.447
646.69	9.712
647.02	5.671
647.35	6.903
647.67	8.044
648.00	7.649
648.33	8.874
648.66	6.610
648.98	3.350
649.31	5.785
649.64	5.965
649.96	6.321
650.29	8.859
650.62	5.983
650.94	5.556
651.27	7.076
651.60	8.649
651.92	6.469
652.25	4.618
652.58	7.500
652.90	9.091
653.23	6.387
653.56	6.768
653.88	5.842
654.21	5.079
654.54	7.470
654.86	6.452
655.19	5.702
655.52	7.353
655.84	5.312
656.17	6.012
656.49	8.066
656.82	8.688
657.15	6.663
657.47	4.906
657.80	3.758
658.13	3.686
658.45	5.968
658.78	6.061
659.10	5.976
659.43	6.221
659.75	6.315
660.08	6.000
660.41	7.559
660.73	5.801
661.06	7.106
661.38	6.262
661.71	6.571
662.03	9.871
662.36	6.374
662.68	5.088
663.01	8.952
663.33	8.353
663.66	3.023
663.98	4.884
664.31	7.463
664.63	7.143
664.96	5.870
665.28	3.974
665.61	6.494
665.93	7.391
666.26	8.243
666.58	5.369
666.91	6.824
667.23	7.075
667.56	9.242
667.88	5.036
668.21	8.831
668.53	8.511
668.86	9.198
669.18	6.132
669.50	5.569
669.83	5.581
670.15	7.459
670.48	6.459
670.80	5.991
671.13	5.593
671.45	3.881
671.77	7.940
672.10	8.119
672.42	6.180
672.75	7.993
673.07	9.660
673.39	7.523
673.72	5.128
674.04	5.417
674.37	8.475
674.69	6.424
675.01	7.111
675.34	7.207
675.66	8.333
675.98	5.987
676.31	6.422
676.63	7.126
676.95	3.636
677.28	7.765
677.60	6.747
677.92	7.798
678.25	8.096
678.57	5.195
678.89	6.723
679.22	6.264
679.54	5.221
679.86	3.777
680.18	6.019
680.51	6.061
680.83	3.380
681.15	6.600
681.48	8.811
681.80	7.645
682.12	6.452
682.44	4.812
682.77	7.726
683.09	3.890
683.41	5.227
683.73	6.682
684.06	5.531
684.38	7.527
684.70	6.536
685.02	3.942
685.34	5.336
685.67	4.315
685.99	5.425
686.31	7.257
686.63	7.792
686.96	4.373
687.28	2.424
687.60	5.323
687.92	5.253
688.24	6.855
688.56	5.459
688.89	4.018
689.21	7.556
689.53	4.640
689.85	6.047
690.17	3.571
690.49	5.437
690.82	8.495
691.14	5.714
691.46	4.206
691.78	6.982
692.10	4.516
692.42	5.195
692.74	8.761
693.06	6.081
693.39	3.167
693.71	6.335
694.03	6.005
694.35	7.243
694.67	5.303
694.99	4.700
695.31	7.833
695.63	6.500
695.95	1.768
696.27	5.699
696.59	4.722
696.91	3.641
697.23	5.398
697.56	5.446
697.88	7.742
698.20	4.784
698.52	6.824
698.84	6.459
699.16	5.750
699.48	7.769
699.80	4.963
700.12	5.391
700.44	4.482
700.76	4.942
701.08	3.636
701.40	5.723
701.72	8.025
702.04	4.620
702.36	7.358
702.68	6.907
703.00	5.152
703.32	4.985
703.64	3.107
703.96	4.058
704.28	5.828
704.60	5.397
704.91	4.101
705.23	5.648
705.55	10.954
705.87	6.859
706.19	8.148
706.51	9.278
706.83	10.289
707.15	2.804
707.47	8.123
707.79	3.385
708.11	6.750
708.43	6.750
708.74	6.202
709.06	8.169
709.38	3.976
709.70	9.172
710.02	5.096
710.34	8.050
710.66	4.167
710.98	2.318
711.29	2.623
711.61	0.678
711.93	7.818
712.25	10.309
712.57	7.692
712.89	4.104
713.20	6.574
713.52	5.226
713.84	9.215
714.16	2.062
714.48	1.935
714.80	6.731
715.11	5.471
715.43	5.329
715.75	2.667
716.07	4.319
716.39	3.691
716.70	4.428
717.02	3.053
717.34	8.907
717.66	0.442
717.97	3.043
718.29	6.276
718.61	8.661
718.93	1.550
719.24	4.563
719.56	3.614
719.88	8.247
720.20	6.061
720.51	1.533
720.83	3.861
721.15	4.202
721.46	4.032
721.78	1.976
722.10	5.576
722.42	0.000
722.73	2.449
723.05	9.388
723.37	10.593
723.68	8.559
724.00	0.855
724.32	2.222
724.63	-0.455
724.95	6.114
725.27	6.912
725.58	5.085
725.90	2.381
726.22	6.178
726.53	10.847
726.85	4.869
727.16	6.792
727.48	0.000
727.80	5.668
728.11	0.847
728.43	7.451
728.74	1.613
729.06	6.400
729.38	8.271
729.69	0.398
730.01	0.000
730.32	8.582
730.64	8.481
730.96	9.057
731.27	3.667
731.59	1.017
731.90	5.096
732.22	7.886
732.53	7.973
732.85	7.801
733.16	11.111
733.48	-0.719
733.80	6.522
734.11	4.068
734.43	5.842
734.74	4.848
735.06	4.235
735.37	5.740
735.69	6.061
736.00	6.272
736.32	5.034
736.63	3.169
736.95	7.509
737.26	3.559
737.58	3.356
737.89	5.128
738.21	4.887
738.52	4.527
738.83	2.620
739.15	1.747
739.46	9.055
739.78	2.930
740.09	6.209
740.41	3.261
740.72	1.969
741.04	6.073
741.35	6.809
741.66	2.844
741.98	1.020
742.29	3.960
742.61	5.236
742.92	-1.422
743.23	-0.463
743.55	7.240
743.86	7.656
744.18	4.306
744.49	0.532
744.80	7.065
745.12	10.695
745.43	-1.463
745.74	8.333
746.06	7.317
746.37	2.094
746.68	6.161
747.00	-2.660
747.31	4.478
747.62	-1.942
747.94	3.349
748.25	1.980
748.56	3.825
748.88	7.853
749.19	10.106
749.50	0.000
749.82	-1.415
750.13	-3.211
750.44	7.143
750.75	5.224
751.07	8.759
751.38	3.831
751.69	2.353
752.01	6.589
752.32	1.992
752.63	5.929
752.94	0.000
753.26	13.389
753.57	0.000
753.88	1.770
754.19	2.083
754.51	-1.653
754.82	3.239
755.13	7.500
755.44	5.645
755.75	4.687
756.07	3.502
756.38	4.151
756.69	-1.916
757.00	1.333
757.31	0.980
757.63	5.488
757.94	3.611
758.25	4.658
758.56	2.926
758.87	4.533
759.18	4.673
759.50	3.636
759.81	8.027
760.12	3.226
760.43	3.333
760.74	3.704
761.05	-0.923
761.36	5.398
761.67	3.636
761.99	6.463
762.30	5.091
762.61	7.115
762.92	1.357
763.23	3.604
763.54	5.140
763.85	6.356
764.16	2.490
764.47	2.016
764.78	2.564
765.10	6.734
765.41	6.940
765.72	5.714
766.03	0.752
766.34	6.204
766.65	6.773
766.96	3.535
767.27	3.723
767.58	6.322
767.89	-12.057
768.20	3.977
768.51	2.747
768.82	5.911
769.13	-1.382
769.44	5.150
769.75	5.936
770.06	9.052
770.37	6.250
770.68	1.015
770.99	1.810
771.30	6.863
771.61	4.525
771.92	8.621
772.23	8.374
772.54	13.441
772.85	3.704
773.16	11.236
773.47	9.150
773.78	-1.307
774.09	8.383
774.39	6.000
774.70	11.465
775.01	8.966
775.32	5.000
775.63	-0.826
775.94	6.870
776.25	1.575
776.56	3.333
776.87	2.885
777.18	4.274
777.48	1.724
777.79	-8.696
778.10	0.952
778.41	-0.901
778.72	2.381
779.03	0.000
779.34	7.801
779.65	-2.740
779.95	-2.740
780.26	8.966
780.57	-9.756
780.88	-0.787
781.19	-8.621
781.50	7.752
781.80	2.959
782.11	-1.258
782.42	7.692
782.73	3.597
783.04	1.481
783.34	5.556
783.65	-11.111
783.96	-4.098
784.27	5.517
784.57	-6.504
784.88	12.500
785.19	-3.000
785.50	9.000
785.81	5.172
786.11	6.897
786.42	-3.883
786.73	3.636
787.04	-3.061
787.34	-0.893
787.65	4.762
787.96	5.310
788.26	-0.909
788.57	1.709
788.88	3.125
789.19	-1.587
789.49	1.739
789.80	-8.163
790.11	-11.111
790.41	-4.545
790.72	-1.087
791.03	-6.818
791.33	3.750
791.64	-2.500
791.95	-2.326
792.25	6.383
792.56	7.865
792.87	-5.479
793.17	-2.899
793.48	-8.000
793.79	-10.000
794.09	2.500
794.40	-6.604
794.70	0.000
795.01	-0.813
795.32	4.274
795.62	8.571
795.93	1.961
796.23	10.377
796.54	-6.250
796.85	8.824
797.15	0.000
797.46	16.667
797.76	1.515
798.07	-3.488
798.37	-2.632
798.68	-1.515
798.99	13.580
799.29	4.286
799.60	-5.797
799.90	6.667
800.21	-6.557
800.51	6.154
800.82	-6.780
801.12	0.000
801.43	22.951
801.73	9.524
802.04	-16.000
802.34	1.493
802.65	1.923
802.95	-17.857
803.26	-9.615
803.56	13.725
803.87	-32.609
804.17	-6.667
804.48	9.524
804.78	-18.519
805.09	-23.913
805.39	13.333
805.70	-11.111
806.00	-31.579
806.30	9.859
806.61	-5.714
806.91	-9.722
807.22	11.842
807.52	-1.333
807.83	-18.182
808.13	2.778
808.43	0.000
808.74	-7.463
809.04	-20.339
809.35	-13.462
809.65	4.687
809.95	-64.865
810.26	0.000
810.56	-16.438
810.86	-9.524
811.17	2.000
811.47	-6.122
811.77	-21.053
812.08	2.273
812.38	-16.981
812.69	-15.000
812.99	-9.091
813.29	-13.158
813.59	-51.429
813.90	-6.818
814.20	-35.897
814.50	-17.308
814.81	1.887
815.11	-17.021
815.41	11.864
815.72	14.286
816.02	23.529
816.32	12.500
816.62	-17.073
816.93	16.216
817.23	-22.857
817.53	10.417
817.84	-4.348
818.14	-19.231
818.44	-36.842
818.74	17.391
819.04	-20.000
819.35	0.000
819.65	-17.647
819.95	-5.556
820.25	-9.524
820.56	17.500
820.86	-44.828
821.16	10.000
821.46	-2.128
821.76	0.000
822.07	-9.302
822.37	-18.919
822.67	-18.750
822.97	-7.143
823.27	-21.429
823.57	-52.000
823.88	-25.926
824.18	7.143
824.48	0.000
824.78	-35.484
825.08	-30.435
825.38	18.182
825.69	-75.000
825.99	0.000
826.29	2.778
826.59	-100.000
826.89	-47.619
827.19	-2.174
827.49	20.000
827.79	-2.857
828.09	-53.571
828.39	0.000
828.70	8.108
829.00	-35.714
829.30	-38.095
829.60	-26.667
829.90	-9.375
830.20	-21.053
830.50	-14.815
830.80	-65.217
831.10	-36.364
831.40	-9.091
831.70	6.452
832.00	-4.762
832.30	-47.619
832.60	-150.000
832.90	6.897
833.20	-40.000
833.50	48.485
833.80	-25.926
834.10	-7.692
834.40	-18.750
834.70	-88.889
835.00	-21.053
835.30	19.231
835.60	-46.667
835.90	-22.581
836.20	0.000
836.50	0.000
836.80	-26.923
837.10	3.571
837.40	-200.000
837.70	40.909
838.00	-100.000
838.30	-17.391
838.60	7.692
838.90	22.727
839.19	17.857
839.49	-13.333
839.79	-15.385
840.09	-83.333
840.39	46.429
840.69	-10.714
840.99	-65.385
841.29	-52.632
841.59	-100.000
841.88	-81.818
842.18	-10.000
842.48	-43.750
842.78	-20.000
843.08	22.222
843.38	-60.000
843.68	21.739
843.97	26.667
844.27	-120.000
844.57	-25.000
844.87	-5.556
845.17	-33.333
845.47	-26.667
845.76	-71.429
846.06	-17.647
846.36	-30.000
846.66	-21.429
846.96	0.000
847.25	-112.500
847.55	-28.571
847.85	-187.500
848.15	-54.545
848.44	-566.667
848.74	0.000
849.04	-11.111
849.34	-18.182
849.63	-250.000
849.93	-260.000
850.23	11.111
850.53	10.000
850.82	30.769
851.12	-33.333
851.42	-6.667
851.71	-38.462
852.01	-64.286
852.31	-300.000
852.61	-36.364
852.90	-5.000
853.20	-26.316
853.50	-33.333
853.79	13.043
854.09	16.667
854.39	0.000
854.68	-12.500
854.98	9.677
855.28	26.923
855.57	-30.000
855.87	-55.556
856.17	3.704
856.46	-64.286
856.76	-40.000
857.05	-33.333
857.35	4.000
857.65	-5.556
857.94	-46.154
858.24	27.586
858.53	-27.778
858.83	14.815
859.13	-22.727
859.42	-17.391
859.72	-150.000
860.01	-900.000
860.31	0.000
860.60	-9.524
860.90	-100.000
861.20	-100.000
861.49	-500.000
861.79	-20.000
862.08	20.000
862.38	93.333
862.67	-260.000
862.97	-116.667
863.26	-58.333
863.56	38.889
863.85	-600.000
864.15	11.111
864.44	-80.000
864.74	-21.429
865.03	325.000
865.33	-340.000
865.62	50.000
865.92	-50.000
866.21	-216.667
866.51	25.000
866.80	-127.273
867.10	300.000
867.39	16.667
867.69	0.000
867.98	-30.769
868.27	-466.667
868.57	-33.333
868.86	55.556
869.16	-69.231
869.45	-33.333
869.75	-1200.000
870.04	0.000
870.33	-14.286
870.63	71.429
870.92	666.667
871.22	-260.000
871.51	-1300.000
871.80	-44.444
872.10	733.333
>>>>>End Processed Spectral Data<<<<<
