SpectraSuite Data File
++++++++++++++++++++++++++++++++++++
Date: Fri May 15 20:34:06 PDT 2015
User: schluterlab
Dark Spectrum Present: Yes
Reference Spectrum Present: Yes
Number of Sampled Component Spectra: 1
Spectrometers: USB2E3373
Integration Time (usec): 3000 (USB2E3373)
Spectra Averaged: 3 (USB2E3373)
Boxcar Smoothing: 0 (USB2E3373)
Correct for Electrical Dark: No (USB2E3373)
Strobe/Lamp Enabled: No (USB2E3373)
Correct for Detector Non-linearity: No (USB2E3373)
Correct for Stray Light: No (USB2E3373)
Number of Pixels in Processed Spectrum: 2048
>>>>>Begin Processed Spectral Data<<<<<
178.53	0.000
178.91	0.000
179.29	25.000
179.67	-750.000
180.04	42.857
180.42	-150.000
180.80	-500.000
181.18	166.667
181.56	750.000
181.94	300.000
182.31	300.000
182.69	60.000
183.07	-366.667
183.45	-160.000
183.83	266.667
184.20	-90.909
184.58	88.889
184.96	100.000
185.34	66.667
185.72	-400.000
186.09	-0.000
186.47	-400.000
186.85	200.000
187.23	133.333
187.61	-200.000
187.98	-566.667
188.36	-77.778
188.74	-233.333
189.12	11.765
189.49	33.333
189.87	0.000
190.25	64.286
190.63	-400.000
191.00	-100.000
191.38	-15.789
191.76	150.000
192.14	100.000
192.51	0.000
192.89	-133.333
193.27	-171.429
193.65	200.000
194.02	136.364
194.40	-40.000
194.78	-112.500
195.15	-75.000
195.53	-87.500
195.91	425.000
196.29	100.000
196.66	146.154
197.04	42.857
197.42	-33.333
197.79	-466.667
198.17	-92.308
198.55	1300.000
198.92	-266.667
199.30	-100.000
199.68	-160.000
200.05	-266.667
200.43	0.000
200.81	-266.667
201.18	-333.333
201.56	1600.000
201.94	-800.000
202.31	133.333
202.69	-80.000
203.07	300.000
203.44	800.000
203.82	0.000
204.19	42.857
204.57	-366.667
204.95	50.000
205.32	30.000
205.70	-14.286
206.08	-100.000
206.45	177.778
206.83	57.143
207.20	-185.714
207.58	1100.000
207.96	-166.667
208.33	-230.000
208.71	-200.000
209.08	-216.667
209.46	-1300.000
209.84	-140.000
210.21	-600.000
210.59	28.571
210.96	16.667
211.34	-300.000
211.71	20.000
212.09	-142.857
212.46	-1700.000
212.84	0.000
213.22	50.000
213.59	100.000
213.97	-7.692
214.34	81.818
214.72	-16.667
215.09	325.000
215.47	0.000
215.84	-54.545
216.22	-300.000
216.59	-50.000
216.97	-150.000
217.34	-50.000
217.72	-400.000
218.09	-150.000
218.47	337.500
218.84	-200.000
219.22	-122.222
219.59	-60.000
219.97	433.333
220.34	375.000
220.72	128.571
221.09	-200.000
221.47	0.000
221.84	-200.000
222.22	-850.000
222.59	18.182
222.97	25.000
223.34	-400.000
223.72	-57.143
224.09	-28.571
224.46	32.143
224.84	533.333
225.21	20.000
225.59	-46.667
225.96	-550.000
226.34	350.000
226.71	-128.571
227.08	-200.000
227.46	-87.500
227.83	-100.000
228.21	11.111
228.58	27.273
228.95	-37.500
229.33	190.000
229.70	-31.250
230.08	-37.500
230.45	-142.857
230.82	0.000
231.20	-26.667
231.57	64.286
231.95	-28.571
232.32	-60.000
232.69	-21.429
233.07	-266.667
233.44	-460.000
233.81	-70.000
234.19	77.778
234.56	-23.529
234.93	500.000
235.31	-50.000
235.68	-460.000
236.05	-107.692
236.43	-5.000
236.80	-52.941
237.17	40.625
237.55	-25.000
237.92	22.222
238.29	5.556
238.67	16.667
239.04	14.706
239.41	0.000
239.79	30.000
240.16	24.390
240.53	-5.263
240.91	34.783
241.28	15.873
241.65	39.286
242.02	36.986
242.40	33.333
242.77	28.814
243.14	28.788
243.51	20.000
243.89	31.034
244.26	14.943
244.63	30.952
245.00	27.835
245.38	32.990
245.75	21.348
246.12	18.966
246.49	32.231
246.87	26.923
247.24	27.731
247.61	22.807
247.98	33.333
248.36	26.875
248.73	33.553
249.10	29.870
249.47	31.646
249.84	34.641
250.22	37.647
250.59	33.987
250.96	33.333
251.33	33.721
251.70	34.706
252.08	32.995
252.45	34.653
252.82	27.638
253.19	34.101
253.56	30.374
253.94	36.937
254.31	37.826
254.68	40.789
255.05	28.740
255.42	37.991
255.79	35.135
256.16	33.852
256.54	32.463
256.91	35.361
257.28	33.086
257.65	32.959
258.02	31.560
258.39	33.333
258.76	36.264
259.14	37.542
259.51	34.628
259.88	36.082
260.25	36.601
260.62	34.375
260.99	28.814
261.36	32.877
261.73	35.127
262.10	34.043
262.47	32.515
262.85	31.661
263.22	32.923
263.59	39.875
263.96	39.130
264.33	37.576
264.70	33.631
265.07	33.631
265.44	35.411
265.81	33.333
266.18	37.158
266.55	35.219
266.92	34.715
267.29	35.770
267.66	31.458
268.03	38.220
268.40	34.465
268.77	35.561
269.14	35.252
269.51	32.648
269.88	35.661
270.25	32.143
270.62	32.439
270.99	32.481
271.36	35.208
271.73	34.977
272.10	33.820
272.47	35.225
272.84	34.406
273.21	34.803
273.58	33.976
273.95	34.096
274.32	35.104
274.69	31.900
275.06	32.813
275.43	35.828
275.80	35.762
276.17	33.563
276.54	31.906
276.91	35.307
277.28	32.096
277.65	36.777
278.02	32.979
278.39	33.260
278.76	31.866
279.13	29.253
279.50	33.403
279.87	34.125
280.23	32.258
280.60	31.969
280.97	34.343
281.34	32.885
281.71	33.060
282.08	32.720
282.45	33.268
282.82	32.625
283.19	34.236
283.56	32.563
283.92	32.638
284.29	31.923
284.66	30.233
285.03	32.417
285.40	32.892
285.77	28.295
286.14	31.047
286.51	33.948
286.87	29.250
287.24	32.228
287.61	31.570
287.98	30.526
288.35	30.849
288.72	31.874
289.08	28.993
289.45	30.404
289.82	27.972
290.19	28.157
290.56	29.674
290.93	27.441
291.29	26.810
291.66	28.976
292.03	27.592
292.40	29.355
292.77	29.187
293.13	26.136
293.50	27.162
293.87	27.634
294.24	27.975
294.60	27.124
294.97	25.149
295.34	25.000
295.71	25.931
296.08	25.411
296.44	24.040
296.81	26.944
297.18	24.783
297.55	27.778
297.91	24.932
298.28	25.462
298.65	24.423
299.02	23.450
299.38	24.761
299.75	26.207
300.12	22.906
300.48	22.925
300.85	23.447
301.22	22.857
301.59	23.289
301.95	23.038
302.32	24.773
302.69	25.000
303.05	22.896
303.42	23.661
303.79	22.897
304.15	26.284
304.52	22.592
304.89	22.222
305.25	25.424
305.62	21.004
305.99	22.222
306.35	22.659
306.72	23.172
307.09	22.007
307.45	22.962
307.82	21.644
308.19	24.506
308.55	22.792
308.92	22.440
309.29	21.006
309.65	21.744
310.02	22.662
310.38	21.186
310.75	23.716
311.12	23.466
311.48	21.527
311.85	21.990
312.22	22.046
312.58	22.718
312.95	21.558
313.31	22.257
313.68	22.827
314.05	22.653
314.41	23.711
314.78	21.753
315.14	23.535
315.51	24.638
315.87	23.053
316.24	23.660
316.61	22.146
316.97	24.008
317.34	23.340
317.70	22.753
318.07	22.115
318.43	23.039
318.80	23.580
319.16	23.730
319.53	24.217
319.89	24.114
320.26	23.583
320.62	24.072
320.99	24.008
321.35	25.694
321.72	25.441
322.08	25.478
322.45	25.685
322.81	25.540
323.18	26.202
323.54	25.772
323.91	24.732
324.27	25.586
324.64	26.404
325.00	25.639
325.37	26.722
325.73	25.657
326.10	27.248
326.46	26.906
326.83	27.472
327.19	27.376
327.56	28.758
327.92	28.433
328.29	27.500
328.65	28.585
329.01	27.849
329.38	28.387
329.74	28.045
330.11	28.730
330.47	28.108
330.84	28.077
331.20	30.798
331.56	29.815
331.93	29.224
332.29	29.606
332.66	28.959
333.02	30.019
333.38	28.781
333.75	29.121
334.11	27.663
334.48	28.830
334.84	28.846
335.20	28.454
335.57	28.377
335.93	30.081
336.29	29.374
336.66	29.519
337.02	28.810
337.38	29.630
337.75	30.091
338.11	28.945
338.47	30.201
338.84	29.760
339.20	28.976
339.56	30.183
339.93	29.006
340.29	29.908
340.65	30.735
341.02	29.787
341.38	29.381
341.74	29.594
342.11	28.250
342.47	29.893
342.83	30.536
343.20	28.746
343.56	29.130
343.92	30.912
344.28	31.426
344.65	29.275
345.01	29.732
345.37	29.100
345.73	28.870
346.10	29.594
346.46	29.773
346.82	28.478
347.19	27.598
347.55	29.490
347.91	28.883
348.27	28.213
348.63	30.239
349.00	29.943
349.36	29.011
349.72	29.519
350.08	30.984
350.45	30.008
350.81	29.651
351.17	27.687
351.53	30.041
351.89	28.324
352.26	29.040
352.62	29.758
352.98	29.076
353.34	28.422
353.70	29.288
354.07	29.194
354.43	28.983
354.79	29.232
355.15	29.444
355.51	28.877
355.87	30.097
356.24	29.282
356.60	28.860
356.96	29.365
357.32	28.754
357.68	28.538
358.04	28.837
358.40	29.502
358.77	29.585
359.13	28.583
359.49	29.276
359.85	29.407
360.21	29.107
360.57	28.003
360.93	29.955
361.29	28.852
361.66	30.016
362.02	29.697
362.38	30.617
362.74	30.053
363.10	29.345
363.46	29.874
363.82	30.503
364.18	29.225
364.54	28.676
364.90	29.606
365.26	29.330
365.62	31.168
365.98	30.205
366.35	31.100
366.71	30.303
367.07	29.463
367.43	28.828
367.79	30.035
368.15	29.648
368.51	30.080
368.87	29.433
369.23	28.881
369.59	29.082
369.95	30.132
370.31	30.925
370.67	29.254
371.03	29.276
371.39	29.395
371.75	29.744
372.11	29.672
372.47	30.178
372.83	30.447
373.19	29.743
373.55	29.819
373.91	30.382
374.27	30.404
374.63	29.720
374.99	28.652
375.35	30.501
375.71	30.210
376.07	29.494
376.42	30.476
376.78	29.933
377.14	29.993
377.50	30.080
377.86	31.258
378.22	30.121
378.58	30.641
378.94	29.616
379.30	30.131
379.66	32.226
380.02	30.166
380.38	30.797
380.74	29.623
381.09	30.798
381.45	30.765
381.81	29.981
382.17	30.964
382.53	30.668
382.89	30.948
383.25	31.052
383.61	32.195
383.97	30.857
384.32	30.707
384.68	30.774
385.04	31.127
385.40	30.305
385.76	32.138
386.12	31.630
386.48	32.120
386.83	31.135
387.19	31.807
387.55	32.434
387.91	31.907
388.27	31.746
388.62	32.347
388.98	31.430
389.34	32.792
389.70	33.499
390.06	31.403
390.42	31.995
390.77	31.982
391.13	31.084
391.49	31.048
391.85	32.814
392.20	31.827
392.56	32.168
392.92	32.120
393.28	31.545
393.64	32.012
393.99	33.668
394.35	31.942
394.71	32.886
395.07	32.432
395.42	31.633
395.78	32.248
396.14	33.039
396.50	32.974
396.85	32.453
397.21	33.208
397.57	31.411
397.92	32.295
398.28	33.851
398.64	31.747
399.00	33.352
399.35	31.716
399.71	31.936
400.07	33.253
400.42	33.048
400.78	33.803
401.14	32.789
401.49	33.294
401.85	33.333
402.21	33.133
402.57	33.312
402.92	32.371
403.28	33.208
403.63	32.787
403.99	31.952
404.35	33.417
404.70	32.798
405.06	32.844
405.42	32.629
405.77	33.062
406.13	33.120
406.49	33.511
406.84	33.007
407.20	33.654
407.55	32.518
407.91	33.422
408.27	32.823
408.62	33.785
408.98	33.457
409.34	33.457
409.69	33.656
410.05	31.835
410.40	34.074
410.76	34.741
411.11	33.875
411.47	33.991
411.83	32.768
412.18	34.041
412.54	33.958
412.89	32.635
413.25	34.717
413.60	34.224
413.96	33.313
414.31	33.720
414.67	33.547
415.03	34.687
415.38	33.943
415.74	34.463
416.09	35.075
416.45	33.626
416.80	33.972
417.16	34.807
417.51	35.177
417.87	34.615
418.22	34.585
418.58	34.114
418.93	35.110
419.29	33.611
419.64	34.867
420.00	36.524
420.35	34.269
420.71	34.690
421.06	35.175
421.42	34.615
421.77	34.624
422.12	34.960
422.48	35.300
422.83	35.383
423.19	35.045
423.54	34.921
423.90	34.806
424.25	35.821
424.61	36.965
424.96	35.889
425.31	36.511
425.67	37.441
426.02	36.396
426.38	36.569
426.73	36.864
427.09	37.722
427.44	37.412
427.79	37.360
428.15	36.893
428.50	36.766
428.85	36.732
429.21	37.691
429.56	37.844
429.92	37.288
430.27	36.140
430.62	36.226
430.98	37.473
431.33	36.751
431.68	38.619
432.04	37.786
432.39	37.193
432.74	37.282
433.10	38.736
433.45	38.112
433.80	38.363
434.16	37.839
434.51	38.065
434.86	38.792
435.22	38.194
435.57	39.052
435.92	38.683
436.28	39.296
436.63	38.277
436.98	38.470
437.34	39.020
437.69	39.654
438.04	39.145
438.39	38.424
438.75	40.134
439.10	39.898
439.45	40.170
439.81	39.205
440.16	41.271
440.51	41.433
440.86	42.356
441.22	40.441
441.57	41.115
441.92	40.976
442.27	42.129
442.63	41.328
442.98	41.011
443.33	40.957
443.68	41.379
444.03	41.778
444.39	41.220
444.74	42.698
445.09	42.706
445.44	42.450
445.79	42.806
446.15	42.070
446.50	41.986
446.85	43.252
447.20	42.857
447.55	43.248
447.91	43.486
448.26	43.028
448.61	43.696
448.96	44.578
449.31	44.682
449.66	42.799
450.02	44.039
450.37	43.687
450.72	44.215
451.07	44.747
451.42	43.883
451.77	43.038
452.12	43.600
452.47	45.138
452.83	44.170
453.18	44.466
453.53	45.322
453.88	45.294
454.23	44.376
454.58	46.599
454.93	44.523
455.28	44.127
455.63	45.877
455.98	46.061
456.34	45.785
456.69	45.934
457.04	46.818
457.39	45.200
457.74	44.921
458.09	44.732
458.44	45.290
458.79	45.546
459.14	46.167
459.49	46.687
459.84	44.726
460.19	45.267
460.54	46.394
460.89	46.534
461.24	45.714
461.59	45.843
461.94	46.101
462.29	46.743
462.64	45.316
462.99	47.055
463.34	46.732
463.69	46.075
464.04	47.215
464.39	45.118
464.74	46.319
465.09	47.037
465.44	47.952
465.79	45.975
466.14	46.465
466.49	46.406
466.84	46.758
467.19	47.309
467.54	46.871
467.89	47.252
468.24	47.202
468.59	48.127
468.94	48.254
469.29	48.656
469.64	48.530
469.99	49.965
470.34	48.328
470.68	50.112
471.03	48.620
471.38	49.786
471.73	48.669
472.08	48.779
472.43	48.926
472.78	48.321
473.13	48.707
473.48	49.251
473.83	48.194
474.17	49.223
474.52	48.500
474.87	50.121
475.22	49.298
475.57	48.391
475.92	48.766
476.27	50.000
476.61	49.190
476.96	47.462
477.31	49.540
477.66	49.101
478.01	49.467
478.36	49.292
478.70	50.299
479.05	50.659
479.40	50.450
479.75	48.853
480.10	49.053
480.45	49.750
480.79	50.201
481.14	50.154
481.49	48.818
481.84	49.807
482.19	49.579
482.53	49.928
482.88	49.165
483.23	49.376
483.58	50.236
483.92	49.564
484.27	48.724
484.62	49.216
484.97	48.756
485.31	47.977
485.66	45.486
486.01	46.356
486.36	46.286
486.70	47.261
487.05	48.135
487.40	48.914
487.75	47.746
488.09	48.239
488.44	48.968
488.79	49.832
489.13	50.280
489.48	49.850
489.83	50.045
490.17	49.303
490.52	50.300
490.87	49.468
491.22	50.287
491.56	50.617
491.91	50.191
492.26	50.899
492.60	49.616
492.95	51.107
493.30	50.122
493.64	51.424
493.99	50.145
494.34	51.845
494.68	51.000
495.03	50.462
495.37	51.325
495.72	50.833
496.07	51.268
496.41	51.462
496.76	50.622
497.11	50.442
497.45	51.742
497.80	51.917
498.14	51.018
498.49	52.869
498.84	51.048
499.18	52.811
499.53	51.438
499.87	51.605
500.22	53.264
500.56	51.891
500.91	51.958
501.26	51.063
501.60	51.549
501.95	52.547
502.29	51.816
502.64	52.847
502.98	52.738
503.33	51.681
503.67	51.518
504.02	52.590
504.36	53.191
504.71	52.424
505.06	52.441
505.40	52.589
505.75	53.763
506.09	53.016
506.44	53.850
506.78	53.469
507.13	54.137
507.47	53.629
507.82	54.594
508.16	53.988
508.51	54.669
508.85	54.055
509.19	54.870
509.54	53.941
509.88	53.830
510.23	53.577
510.57	54.944
510.92	53.358
511.26	55.210
511.61	55.666
511.95	55.068
512.30	54.823
512.64	55.537
512.98	55.194
513.33	56.407
513.67	56.055
514.02	57.208
514.36	57.257
514.70	56.177
515.05	57.638
515.39	57.025
515.74	58.563
516.08	56.904
516.42	58.186
516.77	58.338
517.11	58.813
517.46	58.707
517.80	56.257
518.14	58.726
518.49	57.752
518.83	58.809
519.17	57.793
519.52	58.259
519.86	57.803
520.20	59.235
520.55	59.537
520.89	58.720
521.23	60.355
521.58	60.000
521.92	59.872
522.26	59.076
522.61	60.909
522.95	61.722
523.29	60.419
523.64	60.737
523.98	61.633
524.32	60.116
524.66	60.179
525.01	62.792
525.35	61.439
525.69	61.347
526.04	59.722
526.38	62.581
526.72	60.301
527.06	60.246
527.41	60.224
527.75	59.853
528.09	60.864
528.43	61.512
528.78	61.188
529.12	60.710
529.46	60.624
529.80	60.481
530.15	62.376
530.49	61.145
530.83	62.859
531.17	62.122
531.51	61.560
531.86	61.387
532.20	61.587
532.54	61.743
532.88	62.286
533.22	61.223
533.57	62.058
533.91	60.770
534.25	61.328
534.59	58.627
534.93	59.975
535.27	59.454
535.62	59.559
535.96	61.383
536.30	60.752
536.64	61.130
536.98	61.533
537.32	62.660
537.66	62.342
538.01	61.469
538.35	60.333
538.69	59.387
539.03	59.604
539.37	59.623
539.71	61.895
540.05	60.217
540.39	60.596
540.73	60.321
541.07	61.602
541.42	60.820
541.76	61.803
542.10	61.528
542.44	60.737
542.78	58.981
543.12	60.508
543.46	60.987
543.80	62.110
544.14	58.344
544.48	59.960
544.82	60.560
545.16	60.519
545.50	61.215
545.84	61.402
546.18	62.553
546.52	61.067
546.86	60.963
547.20	60.658
547.54	59.859
547.88	60.054
548.22	59.566
548.56	59.433
548.90	60.175
549.24	59.986
549.58	61.142
549.92	59.328
550.26	60.293
550.60	60.818
550.94	61.016
551.28	62.906
551.62	62.769
551.96	61.278
552.30	60.307
552.64	59.591
552.98	59.494
553.32	60.128
553.66	60.377
554.00	61.460
554.34	60.561
554.68	60.324
555.02	60.938
555.36	60.509
555.69	60.073
556.03	60.457
556.37	58.719
556.71	59.856
557.05	60.850
557.39	59.108
557.73	60.945
558.07	61.237
558.41	62.021
558.75	62.432
559.08	62.175
559.42	60.794
559.76	63.171
560.10	60.398
560.44	59.643
560.78	59.441
561.12	60.226
561.45	60.155
561.79	60.294
562.13	60.256
562.47	60.216
562.81	59.150
563.15	59.168
563.48	59.618
563.82	59.094
564.16	58.357
564.50	58.311
564.84	58.635
565.17	57.545
565.51	62.842
565.85	60.837
566.19	59.350
566.52	59.987
566.86	59.254
567.20	56.787
567.54	59.185
567.88	58.817
568.21	58.484
568.55	55.978
568.89	56.674
569.23	55.753
569.56	54.510
569.90	54.040
570.24	53.331
570.57	54.545
570.91	53.433
571.25	52.154
571.59	51.043
571.92	50.163
572.26	52.234
572.60	51.597
572.93	51.616
573.27	51.003
573.61	51.044
573.95	51.147
574.28	49.815
574.62	49.708
574.96	49.863
575.29	49.621
575.63	48.873
575.97	49.661
576.30	50.661
576.64	49.166
576.98	49.858
577.31	50.061
577.65	49.794
577.98	48.626
578.32	48.947
578.66	48.227
578.99	49.041
579.33	48.738
579.67	48.675
580.00	49.899
580.34	49.005
580.67	49.184
581.01	49.688
581.35	48.643
581.68	48.298
582.02	48.064
582.35	48.134
582.69	48.169
583.02	48.900
583.36	48.521
583.70	49.585
584.03	49.708
584.37	50.339
584.70	49.615
585.04	48.420
585.37	48.624
585.71	48.655
586.04	48.865
586.38	49.080
586.72	49.699
587.05	49.596
587.39	49.902
587.72	49.836
588.06	49.211
588.39	49.530
588.73	50.061
589.06	50.718
589.40	50.363
589.73	51.004
590.07	50.529
590.40	50.503
590.73	52.142
591.07	51.569
591.40	51.247
591.74	52.081
592.07	52.134
592.41	50.839
592.74	49.861
593.08	48.306
593.41	49.292
593.75	48.577
594.08	48.541
594.41	49.054
594.75	49.389
595.08	50.132
595.42	49.356
595.75	50.544
596.09	50.195
596.42	50.186
596.75	50.355
597.09	50.205
597.42	50.768
597.75	50.939
598.09	50.385
598.42	50.451
598.76	49.936
599.09	48.317
599.42	47.518
599.76	48.269
600.09	48.228
600.42	48.370
600.76	48.774
601.09	48.473
601.42	47.904
601.76	48.948
602.09	49.587
602.42	50.548
602.76	49.406
603.09	49.875
603.42	50.878
603.76	48.427
604.09	48.603
604.42	49.450
604.76	51.179
605.09	49.817
605.42	49.255
605.75	49.124
606.09	48.450
606.42	48.415
606.75	48.398
607.09	48.308
607.42	48.028
607.75	48.623
608.08	48.203
608.42	47.967
608.75	50.458
609.08	50.673
609.41	50.660
609.75	49.496
610.08	49.576
610.41	49.034
610.74	48.610
611.07	49.561
611.41	50.234
611.74	51.706
612.07	48.662
612.40	50.711
612.73	50.678
613.07	49.944
613.40	49.945
613.73	49.692
614.06	49.471
614.39	50.141
614.72	48.739
615.06	49.162
615.39	48.362
615.72	49.785
616.05	48.045
616.38	48.946
616.71	50.275
617.05	50.463
617.38	50.283
617.71	50.629
618.04	50.667
618.37	49.748
618.70	49.175
619.03	51.458
619.36	50.434
619.69	51.933
620.03	51.351
620.36	51.288
620.69	50.178
621.02	51.223
621.35	54.274
621.68	52.891
622.01	53.583
622.34	51.157
622.67	51.893
623.00	50.689
623.33	51.372
623.66	50.187
623.99	49.470
624.32	51.711
624.65	49.474
624.99	50.339
625.32	49.507
625.65	52.789
625.98	51.652
626.31	51.288
626.64	51.560
626.97	53.229
627.30	53.853
627.63	51.560
627.96	53.729
628.29	53.562
628.62	55.556
628.95	52.605
629.28	52.923
629.61	55.533
629.94	54.350
630.26	53.063
630.59	55.671
630.92	53.949
631.25	50.769
631.58	55.727
631.91	54.934
632.24	54.817
632.57	55.341
632.90	57.058
633.23	56.118
633.56	57.053
633.89	57.830
634.22	56.049
634.55	56.163
634.88	54.917
635.20	55.897
635.53	57.867
635.86	55.137
636.19	56.921
636.52	53.061
636.85	54.094
637.18	54.340
637.51	55.975
637.83	54.534
638.16	56.344
638.49	53.406
638.82	56.447
639.15	53.460
639.48	55.708
639.81	56.206
640.13	56.421
640.46	57.289
640.79	55.670
641.12	55.687
641.45	57.808
641.77	56.444
642.10	58.768
642.43	58.360
642.76	61.551
643.09	56.866
643.41	57.120
643.74	55.684
644.07	57.800
644.40	57.770
644.73	60.946
645.05	54.698
645.38	58.554
645.71	58.333
646.04	58.707
646.36	58.688
646.69	55.935
647.02	59.735
647.35	57.276
647.67	57.587
648.00	59.328
648.33	56.655
648.66	56.102
648.98	54.606
649.31	55.537
649.64	53.846
649.96	52.512
650.29	54.855
650.62	56.581
650.94	55.370
651.27	55.680
651.60	57.838
651.92	54.895
652.25	54.707
652.58	54.500
652.90	55.403
653.23	53.109
653.56	52.961
653.88	55.498
654.21	53.415
654.54	53.311
654.86	52.122
655.19	50.585
655.52	46.827
655.84	38.537
656.17	41.676
656.49	56.062
656.82	58.620
657.15	45.199
657.47	34.495
657.80	25.716
658.13	25.127
658.45	39.706
658.78	40.107
659.10	40.011
659.43	40.615
659.75	42.378
660.08	44.138
660.41	46.987
660.73	49.448
661.06	54.766
661.38	53.229
661.71	50.103
662.03	57.082
662.36	55.604
662.68	57.301
663.01	58.079
663.33	56.148
663.66	58.140
663.98	52.558
664.31	55.437
664.63	54.147
664.96	49.348
665.28	58.499
665.61	57.143
665.93	56.522
666.26	57.267
666.58	54.810
666.91	55.765
667.23	56.368
667.56	57.346
667.88	53.717
668.21	54.893
668.53	58.156
668.86	57.075
669.18	54.481
669.50	53.027
669.83	53.023
670.15	54.079
670.48	55.502
670.80	54.608
671.13	51.454
671.45	53.653
671.77	55.365
672.10	50.495
672.42	49.625
672.75	49.734
673.07	51.521
673.39	51.743
673.72	47.140
674.04	51.250
674.37	50.847
674.69	51.606
675.01	50.889
675.34	50.676
675.66	55.324
675.98	52.993
676.31	57.339
676.63	51.306
676.95	52.727
677.28	53.176
677.60	56.867
677.92	52.982
678.25	53.392
678.57	51.299
678.89	49.370
679.22	51.678
679.54	50.000
679.86	49.503
680.18	49.320
680.51	49.432
680.83	48.708
681.15	47.600
681.48	50.000
681.80	52.479
682.12	47.984
682.44	48.117
682.77	52.318
683.09	48.284
683.41	49.773
683.73	52.304
684.06	50.221
684.38	45.806
684.70	51.852
685.02	50.207
685.34	47.233
685.67	48.218
685.99	49.005
686.31	47.434
686.63	47.866
686.96	48.479
687.28	45.455
687.60	46.008
687.92	48.889
688.24	47.984
688.56	51.528
688.89	49.554
689.21	49.111
689.53	51.972
689.85	49.535
690.17	49.330
690.49	47.991
690.82	50.485
691.14	49.524
691.46	51.168
691.78	47.973
692.10	50.538
692.42	46.320
692.74	46.581
693.06	50.000
693.39	45.023
693.71	47.059
694.03	46.189
694.35	44.626
694.67	46.465
694.99	46.475
695.31	51.958
695.63	46.750
695.95	46.970
696.27	49.482
696.59	50.000
696.91	45.938
697.23	44.473
697.56	46.287
697.88	44.946
698.20	43.508
698.52	48.235
698.84	47.368
699.16	45.000
699.48	48.872
699.80	45.906
700.12	47.439
700.44	53.501
700.76	47.965
701.08	42.424
701.40	49.096
701.72	50.926
702.04	52.475
702.36	49.498
702.68	47.147
703.00	47.273
703.32	46.041
703.64	43.503
703.96	43.188
704.28	47.546
704.60	46.349
704.91	45.110
705.23	48.173
705.55	51.590
705.87	51.625
706.19	55.556
706.51	47.079
706.83	47.910
707.15	48.598
707.47	43.978
707.79	43.229
708.11	45.750
708.43	42.000
708.74	43.411
709.06	44.789
709.38	47.706
709.70	46.154
710.02	45.541
710.34	46.440
710.66	42.949
710.98	43.709
711.29	47.541
711.61	48.136
711.93	48.860
712.25	49.828
712.57	47.253
712.89	44.030
713.20	48.789
713.52	49.129
713.84	47.099
714.16	45.704
714.48	38.710
714.80	46.154
715.11	42.553
715.43	41.066
715.75	40.333
716.07	40.864
716.39	44.966
716.70	42.066
717.02	45.420
717.34	46.964
717.66	48.230
717.97	43.913
718.29	39.331
718.61	44.094
718.93	44.186
719.24	47.529
719.56	48.193
719.88	43.643
720.20	42.803
720.51	39.080
720.83	36.680
721.15	51.261
721.46	44.355
721.78	42.688
722.10	44.238
722.42	43.154
722.73	42.857
723.05	48.163
723.37	49.576
723.68	47.748
724.00	43.590
724.32	44.444
724.63	44.091
724.95	46.288
725.27	42.857
725.58	44.492
725.90	42.460
726.22	43.243
726.53	44.746
726.85	42.322
727.16	46.038
727.48	41.296
727.80	42.510
728.11	48.305
728.43	41.961
728.74	38.710
729.06	43.600
729.38	44.361
729.69	34.661
730.01	41.154
730.32	44.403
730.64	42.756
730.96	43.396
731.27	38.333
731.59	40.000
731.90	38.535
732.22	42.271
732.53	41.860
732.85	44.326
733.16	45.118
733.48	37.410
733.80	37.319
734.11	40.339
734.43	40.206
734.74	37.273
735.06	40.391
735.37	42.900
735.69	41.414
736.00	33.101
736.32	38.926
736.63	40.141
736.95	37.543
737.26	38.790
737.58	35.570
737.89	36.630
738.21	36.466
738.52	44.444
738.83	41.048
739.15	40.611
739.46	43.307
739.78	32.601
740.09	36.275
740.41	37.681
740.72	40.157
741.04	42.105
741.35	38.723
741.66	39.336
741.98	52.041
742.29	39.604
742.61	43.979
742.92	34.123
743.23	41.204
743.55	40.724
743.86	33.971
744.18	35.885
744.49	35.106
744.80	44.565
745.12	50.802
745.43	33.659
745.74	43.229
746.06	43.902
746.37	42.408
746.68	39.810
747.00	35.638
747.31	43.284
747.62	42.233
747.94	38.278
748.25	35.149
748.56	44.262
748.88	38.743
749.19	46.277
749.50	41.872
749.82	36.792
750.13	39.908
750.44	41.729
750.75	38.806
751.07	45.620
751.38	38.314
751.69	34.510
752.01	41.085
752.32	39.044
752.63	37.154
752.94	43.103
753.26	42.678
753.57	39.367
753.88	38.938
754.19	34.167
754.51	33.471
754.82	41.296
755.13	42.500
755.44	41.129
755.75	40.625
756.07	39.300
756.38	39.623
756.69	35.249
757.00	34.333
757.31	35.294
757.63	31.098
757.94	32.500
758.25	31.781
758.56	35.372
758.87	32.295
759.18	29.595
759.50	34.545
759.81	34.783
760.12	36.129
760.43	34.848
760.74	36.728
761.05	32.923
761.36	34.659
761.67	37.879
761.99	34.354
762.30	36.364
762.61	40.711
762.92	38.009
763.23	34.685
763.54	33.178
763.85	33.051
764.16	33.195
764.47	35.484
764.78	32.967
765.10	39.057
765.41	34.069
765.72	33.333
766.03	32.707
766.34	34.307
766.65	38.247
766.96	37.374
767.27	39.894
767.58	29.885
767.89	33.333
768.20	40.909
768.51	29.121
768.82	33.990
769.13	34.101
769.44	33.476
769.75	34.247
770.06	34.052
770.37	41.346
770.68	39.086
770.99	33.937
771.30	38.725
771.61	38.462
771.92	45.259
772.23	40.394
772.54	41.398
772.85	39.506
773.16	34.270
773.47	45.752
773.78	37.908
774.09	36.527
774.39	34.667
774.70	38.217
775.01	28.966
775.32	40.000
775.63	32.231
775.94	37.405
776.25	30.709
776.56	35.000
776.87	40.385
777.18	24.786
777.48	33.621
777.79	32.174
778.10	29.524
778.41	38.739
778.72	40.476
779.03	33.083
779.34	40.426
779.65	32.877
779.95	39.041
780.26	33.103
780.57	29.268
780.88	33.071
781.19	36.207
781.50	43.411
781.80	30.178
782.11	28.302
782.42	38.462
782.73	37.410
783.04	34.074
783.34	29.167
783.65	31.624
783.96	31.967
784.27	40.000
784.57	29.268
784.88	32.031
785.19	43.000
785.50	39.000
785.81	31.034
786.11	29.310
786.42	25.243
786.73	31.818
787.04	29.592
787.34	21.429
787.65	27.619
787.96	30.088
788.26	33.636
788.57	34.188
788.88	34.375
789.19	37.302
789.49	35.652
789.80	29.592
790.11	31.313
790.41	30.000
790.72	36.957
791.03	34.091
791.33	42.500
791.64	37.500
791.95	33.721
792.25	31.915
792.56	37.079
792.87	31.507
793.17	37.681
793.48	24.000
793.79	40.000
794.09	43.750
794.40	29.245
794.70	18.447
795.01	38.211
795.32	29.060
795.62	20.000
795.93	41.176
796.23	32.075
796.54	23.958
796.85	33.824
797.15	30.986
797.46	45.833
797.76	39.394
798.07	30.233
798.37	14.474
798.68	19.697
798.99	27.160
799.29	34.286
799.60	17.391
799.90	45.333
800.21	24.590
800.51	16.923
800.82	35.593
801.12	28.986
801.43	16.393
801.73	28.571
802.04	32.000
802.34	23.881
802.65	36.538
802.95	14.286
803.26	36.538
803.56	66.667
803.87	30.435
804.17	18.667
804.48	26.984
804.78	27.778
805.09	34.783
805.39	22.222
805.70	29.630
806.00	24.561
806.30	33.803
806.61	35.714
806.91	16.667
807.22	42.105
807.52	32.000
807.83	16.364
808.13	31.944
808.43	41.176
808.74	38.806
809.04	25.424
809.35	17.308
809.65	4.687
809.95	16.216
810.26	25.000
810.56	21.918
810.86	38.095
811.17	20.000
811.47	28.571
811.77	7.895
812.08	11.364
812.38	22.642
812.69	22.500
812.99	15.152
813.29	21.053
813.59	8.571
813.90	11.364
814.20	5.128
814.50	46.154
814.81	37.736
815.11	-12.766
815.41	44.068
815.72	47.619
816.02	37.255
816.32	33.333
816.62	39.024
816.93	37.838
817.23	8.571
817.53	35.417
817.84	13.043
818.14	26.923
818.44	5.263
818.74	-2.174
819.04	5.000
819.35	29.730
819.65	17.647
819.95	5.556
820.25	21.429
820.56	37.500
820.86	-51.724
821.16	60.000
821.46	21.277
821.76	20.000
822.07	25.581
822.37	-24.324
822.67	28.125
822.97	30.952
823.27	-3.571
823.57	-20.000
823.88	14.815
824.18	17.857
824.48	2.941
824.78	3.226
825.08	-13.043
825.38	6.061
825.69	-16.667
825.99	23.684
826.29	38.889
826.59	33.333
826.89	-19.048
827.19	19.565
827.49	17.500
827.79	42.857
828.09	14.286
828.39	24.242
828.70	43.243
829.00	0.000
829.30	-9.524
829.60	6.667
829.90	40.625
830.20	2.632
830.50	-22.222
830.80	-47.826
831.10	-9.091
831.40	45.455
831.70	45.161
832.00	28.571
832.30	-14.286
832.60	-83.333
832.90	6.897
833.20	35.000
833.50	30.303
833.80	-14.815
834.10	23.077
834.40	12.500
834.70	55.556
835.00	-5.263
835.30	76.923
835.60	26.667
835.90	6.452
836.20	0.000
836.50	10.714
836.80	-30.769
837.10	32.143
837.40	200.000
837.70	27.273
838.00	-9.091
838.30	34.783
838.60	23.077
838.90	4.545
839.19	32.143
839.49	23.333
839.79	-7.692
840.09	-91.667
840.39	46.429
840.69	-3.571
840.99	-15.385
841.29	-84.211
841.59	-110.000
841.88	9.091
842.18	-60.000
842.48	12.500
842.78	-46.667
843.08	-3.704
843.38	-10.000
843.68	13.043
843.97	6.667
844.27	-80.000
844.57	10.000
844.87	33.333
845.17	-42.857
845.47	60.000
845.76	23.810
846.06	23.529
846.36	-80.000
846.66	7.143
846.96	6.667
847.25	-50.000
847.55	42.857
847.85	-175.000
848.15	-45.455
848.44	-500.000
848.74	-5.000
849.04	18.519
849.34	-27.273
849.63	-200.000
849.93	-240.000
850.23	-33.333
850.53	0.000
850.82	-38.462
851.12	133.333
851.42	-46.667
851.71	-19.231
852.01	-50.000
852.31	-50.000
852.61	-81.818
852.90	-35.000
853.20	42.105
853.50	-50.000
853.79	26.087
854.09	33.333
854.39	-47.368
854.68	0.000
854.98	32.258
855.28	38.462
855.57	15.000
855.87	-22.222
856.17	40.741
856.46	-50.000
856.76	20.000
857.05	122.222
857.35	40.000
857.65	-5.556
857.94	30.769
858.24	58.621
858.53	0.000
858.83	-14.815
859.13	59.091
859.42	-21.739
859.72	-50.000
860.01	-100.000
860.31	12.000
860.60	4.762
860.90	-233.333
861.20	-13.333
861.49	-900.000
861.79	-73.333
862.08	-50.000
862.38	66.667
862.67	-420.000
862.97	-16.667
863.26	0.000
863.56	72.222
863.85	-300.000
864.15	16.667
864.44	-80.000
864.74	-64.286
865.03	275.000
865.33	-120.000
865.62	-33.333
865.92	-8.333
866.21	-200.000
866.51	-68.750
866.80	-54.545
867.10	-500.000
867.39	-8.333
867.69	0.000
867.98	38.462
868.27	100.000
868.57	-40.000
868.86	-11.111
869.16	-92.308
869.45	26.667
869.75	-1200.000
870.04	0.000
870.33	-200.000
870.63	38.095
870.92	333.333
871.22	-400.000
871.51	-100.000
871.80	66.667
872.10	433.333
>>>>>End Processed Spectral Data<<<<<
