SpectraSuite Data File
++++++++++++++++++++++++++++++++++++
Date: Fri May 15 20:38:21 PDT 2015
User: schluterlab
Dark Spectrum Present: Yes
Reference Spectrum Present: Yes
Number of Sampled Component Spectra: 1
Spectrometers: USB2E3373
Integration Time (usec): 3000 (USB2E3373)
Spectra Averaged: 3 (USB2E3373)
Boxcar Smoothing: 0 (USB2E3373)
Correct for Electrical Dark: No (USB2E3373)
Strobe/Lamp Enabled: No (USB2E3373)
Correct for Detector Non-linearity: No (USB2E3373)
Correct for Stray Light: No (USB2E3373)
Number of Pixels in Processed Spectrum: 2048
>>>>>Begin Processed Spectral Data<<<<<
178.53	0.000
178.91	0.000
179.29	50.000
179.67	-450.000
180.04	14.286
180.42	50.000
180.80	-1100.000
181.18	466.667
181.56	600.000
181.94	-100.000
182.31	600.000
182.69	-20.000
183.07	200.000
183.45	-220.000
183.83	216.667
184.20	36.364
184.58	133.333
184.96	25.000
185.34	300.000
185.72	-300.000
186.09	84.615
186.47	-100.000
186.85	183.333
187.23	144.444
187.61	400.000
187.98	-166.667
188.36	-11.111
188.74	0.000
189.12	47.059
189.49	22.222
189.87	0.000
190.25	57.143
190.63	200.000
191.00	-166.667
191.38	5.263
191.76	150.000
192.14	200.000
192.51	-350.000
192.89	11.111
193.27	-128.571
193.65	116.667
194.02	63.636
194.40	80.000
194.78	-187.500
195.15	33.333
195.53	-62.500
195.91	125.000
196.29	-25.000
196.66	76.923
197.04	100.000
197.42	-33.333
197.79	-333.333
198.17	-130.769
198.55	1400.000
198.92	-233.333
199.30	400.000
199.68	-40.000
200.05	-300.000
200.43	0.000
200.81	-200.000
201.18	0.000
201.56	1000.000
201.94	-400.000
202.31	-233.333
202.69	-140.000
203.07	25.000
203.44	500.000
203.82	0.000
204.19	-21.429
204.57	-500.000
204.95	175.000
205.32	-50.000
205.70	-14.286
206.08	-200.000
206.45	33.333
206.83	57.143
207.20	-185.714
207.58	400.000
207.96	-33.333
208.33	-90.000
208.71	75.000
209.08	-116.667
209.46	-400.000
209.84	-20.000
210.21	-1000.000
210.59	-71.429
210.96	-50.000
211.34	-75.000
211.71	66.667
212.09	-42.857
212.46	-1000.000
212.84	0.000
213.22	50.000
213.59	650.000
213.97	100.000
214.34	27.273
214.72	-83.333
215.09	400.000
215.47	-61.538
215.84	-45.455
216.22	-266.667
216.59	0.000
216.97	150.000
217.34	-125.000
217.72	-60.000
218.09	-12.500
218.47	162.500
218.84	-300.000
219.22	-66.667
219.59	-140.000
219.97	133.333
220.34	150.000
220.72	-114.286
221.09	-50.000
221.47	100.000
221.84	-300.000
222.22	-300.000
222.59	81.818
222.97	41.667
223.34	-300.000
223.72	-14.286
224.09	-23.810
224.46	14.286
224.84	300.000
225.21	30.000
225.59	-60.000
225.96	-150.000
226.34	325.000
226.71	-85.714
227.08	-116.667
227.46	0.000
227.83	-550.000
228.21	22.222
228.58	-27.273
228.95	12.500
229.33	70.000
229.70	0.000
230.08	-137.500
230.45	-185.714
230.82	42.857
231.20	33.333
231.57	35.714
231.95	57.143
232.32	-90.000
232.69	14.286
233.07	66.667
233.44	-140.000
233.81	-90.000
234.19	44.444
234.56	-23.529
234.93	450.000
235.31	100.000
235.68	-60.000
236.05	-7.692
236.43	-5.000
236.80	17.647
237.17	40.625
237.55	45.000
237.92	11.111
238.29	27.778
238.67	6.667
239.04	14.706
239.41	4.878
239.79	16.667
240.16	31.707
240.53	31.579
240.91	17.391
241.28	47.619
241.65	39.286
242.02	35.616
242.40	45.000
242.77	50.847
243.14	24.242
243.51	22.500
243.89	42.529
244.26	28.736
244.63	44.048
245.00	43.299
245.38	48.454
245.75	23.596
246.12	33.621
246.49	42.149
246.87	45.192
247.24	47.059
247.61	32.456
247.98	43.089
248.36	34.375
248.73	34.868
249.10	47.403
249.47	39.241
249.84	45.098
250.22	41.176
250.59	37.908
250.96	41.315
251.33	45.930
251.70	44.118
252.08	39.086
252.45	38.119
252.82	42.211
253.19	43.318
253.56	44.393
253.94	44.144
254.31	40.000
254.68	45.614
255.05	41.339
255.42	48.472
255.79	47.104
256.16	46.693
256.54	45.896
256.91	38.783
257.28	44.981
257.65	43.071
258.02	43.617
258.39	44.108
258.76	47.985
259.14	46.179
259.51	44.660
259.88	47.423
260.25	46.732
260.62	52.083
260.99	44.068
261.36	42.466
261.73	48.101
262.10	41.337
262.47	45.706
262.85	42.633
263.22	45.538
263.59	47.664
263.96	45.031
264.33	45.758
264.70	43.452
265.07	47.619
265.44	49.292
265.81	42.090
266.18	47.268
266.55	43.445
266.92	45.596
267.29	44.125
267.66	44.757
268.03	43.455
268.40	43.342
268.77	46.791
269.14	44.844
269.51	44.216
269.88	43.392
270.25	44.388
270.62	42.439
270.99	44.757
271.36	41.565
271.73	42.958
272.10	46.715
272.47	45.626
272.84	46.782
273.21	45.476
273.58	44.337
273.95	45.309
274.32	43.418
274.69	43.213
275.06	45.312
275.43	43.084
275.80	44.150
276.17	45.977
276.54	42.827
276.91	46.272
277.28	42.576
277.65	45.248
278.02	40.213
278.39	45.952
278.76	43.816
279.13	39.004
279.50	46.218
279.87	43.413
280.23	41.075
280.60	42.885
280.97	44.242
281.34	42.692
281.71	45.585
282.08	40.286
282.45	41.487
282.82	41.892
283.19	43.714
283.56	41.233
283.92	41.935
284.29	38.654
284.66	39.341
285.03	40.668
285.40	42.722
285.77	40.422
286.14	40.614
286.51	43.727
286.87	41.316
287.24	43.094
287.61	39.506
287.98	41.404
288.35	38.995
288.72	41.856
289.08	40.625
289.45	39.367
289.82	40.734
290.19	40.102
290.56	38.765
290.93	37.710
291.29	36.364
291.66	36.378
292.03	36.045
292.40	37.097
292.77	35.407
293.13	33.604
293.50	35.053
293.87	36.183
294.24	34.312
294.60	36.811
294.97	34.375
295.34	35.276
295.71	35.022
296.08	32.436
296.44	33.570
296.81	33.056
297.18	35.507
297.55	33.198
297.91	32.192
298.28	33.113
298.65	30.936
299.02	31.941
299.38	30.643
299.75	31.034
300.12	32.592
300.48	31.489
300.85	31.432
301.22	31.429
301.59	30.921
301.95	32.785
302.32	30.869
302.69	29.975
303.05	30.446
303.42	31.880
303.79	30.491
304.15	29.869
304.52	30.559
304.89	27.719
305.25	29.177
305.62	28.005
305.99	29.006
306.35	29.133
306.72	28.234
307.09	30.103
307.45	29.162
307.82	29.745
308.19	28.339
308.55	29.444
308.92	28.431
309.29	28.603
309.65	28.956
310.02	28.053
310.38	30.626
310.75	29.290
311.12	29.279
311.48	28.314
311.85	27.225
312.22	30.169
312.58	29.087
312.95	28.709
313.31	28.778
313.68	28.796
314.05	30.918
314.41	31.546
314.78	29.691
315.14	31.449
315.51	29.710
315.87	30.430
316.24	31.749
316.61	30.709
316.97	31.151
317.34	30.469
317.70	31.549
318.07	31.923
318.43	33.039
318.80	30.587
319.16	33.594
319.53	32.858
319.89	32.382
320.26	34.008
320.62	35.406
320.99	34.447
321.35	35.252
321.72	35.618
322.08	37.160
322.45	35.330
322.81	35.855
323.18	35.819
323.54	37.645
323.91	37.585
324.27	37.793
324.64	38.670
325.00	39.142
325.37	40.588
325.73	38.622
326.10	40.418
326.46	40.538
326.83	39.895
327.19	41.064
327.56	41.182
327.92	41.373
328.29	40.893
328.65	41.509
329.01	41.360
329.38	40.829
329.74	42.021
330.11	42.910
330.47	41.651
330.84	43.173
331.20	45.437
331.56	42.685
331.93	43.562
332.29	43.630
332.66	42.715
333.02	44.145
333.38	42.530
333.75	43.223
334.11	41.898
334.48	43.790
334.84	44.505
335.20	45.197
335.57	44.062
335.93	43.993
336.29	44.107
336.66	42.688
337.02	43.959
337.38	42.870
337.75	43.818
338.11	46.078
338.47	44.708
338.84	44.917
339.20	44.973
339.56	43.303
339.93	45.121
340.29	45.963
340.65	45.520
341.02	44.238
341.38	44.513
341.74	43.286
342.11	43.588
342.47	44.484
342.83	43.858
343.20	45.209
343.56	44.783
343.92	44.996
344.28	44.321
344.65	46.114
345.01	45.462
345.37	43.566
345.73	44.937
346.10	46.764
346.46	44.575
346.82	44.599
347.19	43.724
347.55	45.865
347.91	46.683
348.27	43.735
348.63	45.400
349.00	45.119
349.36	46.467
349.72	45.274
350.08	45.082
350.45	44.054
350.81	45.349
351.17	45.195
351.53	46.122
351.89	44.922
352.26	45.760
352.62	46.048
352.98	44.418
353.34	45.491
353.70	47.977
354.07	44.758
354.43	46.918
354.79	46.573
355.15	45.873
355.51	45.491
355.87	46.845
356.24	45.840
356.60	44.947
356.96	46.032
357.32	46.406
357.68	45.582
358.04	46.365
358.40	46.704
358.77	45.853
359.13	46.357
359.49	46.225
359.85	46.646
360.21	47.129
360.57	46.060
360.93	46.067
361.29	44.864
361.66	47.335
362.02	46.894
362.38	47.525
362.74	47.313
363.10	48.232
363.46	46.331
363.82	49.512
364.18	47.528
364.54	47.868
364.90	47.025
365.26	47.453
365.62	48.248
365.98	48.974
366.35	48.580
366.71	48.780
367.07	48.403
367.43	47.592
367.79	48.339
368.15	48.887
368.51	48.580
368.87	48.744
369.23	46.859
369.59	49.198
369.95	49.633
370.31	49.133
370.67	49.776
371.03	47.946
371.39	49.818
371.75	48.498
372.11	48.431
372.47	50.074
372.83	48.545
373.19	47.932
373.55	48.592
373.91	48.236
374.27	49.610
374.63	50.538
374.99	49.220
375.35	49.721
375.71	50.280
376.07	49.228
376.42	50.952
376.78	49.799
377.14	49.425
377.50	50.066
377.86	49.398
378.22	50.032
378.58	50.128
378.94	48.897
379.30	50.156
379.66	49.781
380.02	50.092
380.38	49.361
380.74	49.791
381.09	50.982
381.45	49.908
381.81	49.846
382.17	50.761
382.53	50.031
382.89	51.475
383.25	51.027
383.61	50.305
383.97	50.794
384.32	50.219
384.68	50.217
385.04	50.245
385.40	49.969
385.76	52.138
386.12	51.940
386.48	50.958
386.83	51.110
387.19	50.733
387.55	51.129
387.91	50.489
388.27	50.672
388.62	51.353
388.98	50.522
389.34	50.968
389.70	51.212
390.06	50.157
390.42	50.842
390.77	51.079
391.13	49.937
391.49	51.746
391.85	52.632
392.20	50.094
392.56	49.968
392.92	51.791
393.28	51.297
393.64	50.931
393.99	53.417
394.35	51.739
394.71	51.149
395.07	48.837
395.42	52.338
395.78	52.443
396.14	51.198
396.50	51.237
396.85	50.934
397.21	50.439
397.57	50.470
397.92	51.528
398.28	50.690
398.64	51.506
399.00	51.185
399.35	50.564
399.71	50.603
400.07	52.177
400.42	50.367
400.78	52.541
401.14	50.635
401.49	51.340
401.85	51.920
402.21	50.964
402.57	51.062
402.92	49.875
403.28	51.504
403.63	50.000
403.99	49.554
404.35	50.406
404.70	48.929
405.06	50.705
405.42	49.782
405.77	50.610
406.13	50.582
406.49	51.214
406.84	51.467
407.20	50.572
407.55	50.805
407.91	50.668
408.27	50.096
408.62	50.154
408.98	50.955
409.34	50.991
409.69	50.840
410.05	50.123
410.40	49.198
410.76	49.940
411.11	51.000
411.47	50.493
411.83	49.718
412.18	51.094
412.54	48.752
412.89	49.384
413.25	51.203
413.60	50.621
413.96	49.632
414.31	49.512
414.67	49.006
415.03	50.399
415.38	49.608
415.74	50.684
416.09	50.229
416.45	49.156
416.80	48.711
417.16	51.312
417.51	49.434
417.87	49.609
418.22	50.518
418.58	50.435
418.93	50.658
419.29	48.592
419.64	51.005
420.00	50.882
420.35	49.552
420.71	49.028
421.06	49.478
421.42	49.459
421.77	49.827
422.12	48.241
422.48	48.674
422.83	48.434
423.19	49.718
423.54	49.853
423.90	48.057
424.25	48.680
424.61	49.755
424.96	47.967
425.31	50.318
425.67	50.117
426.02	49.588
426.38	50.031
426.73	50.182
427.09	50.063
427.44	50.353
427.79	48.969
428.15	49.272
428.50	48.879
428.85	48.219
429.21	49.576
429.56	48.571
429.92	46.841
430.27	47.669
430.62	48.197
430.98	48.248
431.33	48.318
431.68	47.410
432.04	49.022
432.39	46.891
432.74	46.903
433.10	48.678
433.45	49.223
433.80	47.475
434.16	47.812
434.51	48.065
434.86	48.722
435.22	48.065
435.57	49.407
435.92	47.545
436.28	46.810
436.63	48.488
436.98	47.393
437.34	47.550
437.69	48.062
438.04	48.832
438.39	46.610
438.75	49.362
439.10	47.312
439.45	48.996
439.81	48.746
440.16	49.406
440.51	47.761
440.86	50.211
441.22	49.321
441.57	48.068
441.92	48.531
442.27	49.279
442.63	47.430
442.98	48.535
443.33	47.078
443.68	47.639
444.03	48.187
444.39	47.467
444.74	48.606
445.09	48.385
445.44	47.692
445.79	49.768
446.15	47.797
446.50	47.310
446.85	48.672
447.20	48.071
447.55	47.824
447.91	47.490
448.26	49.175
448.61	48.014
448.96	48.480
449.31	48.266
449.66	47.619
450.02	48.374
450.37	48.192
450.72	48.855
451.07	47.975
451.42	47.566
451.77	46.534
452.12	47.608
452.47	47.778
452.83	47.821
453.18	46.553
453.53	47.598
453.88	47.602
454.23	46.773
454.58	49.055
454.93	47.809
455.28	45.905
455.63	47.737
455.98	47.925
456.34	46.935
456.69	48.285
457.04	47.700
457.39	47.388
457.74	46.977
458.09	46.851
458.44	47.162
458.79	46.891
459.14	46.224
459.49	47.104
459.84	47.152
460.19	46.238
460.54	46.699
460.89	46.591
461.24	46.708
461.59	45.368
461.94	46.478
462.29	47.286
462.64	46.977
462.99	46.513
463.34	46.453
463.69	45.495
464.04	46.005
464.39	45.058
464.74	46.196
465.09	45.664
465.44	45.470
465.79	44.671
466.14	46.579
466.49	45.486
466.84	46.579
467.19	45.620
467.54	44.891
467.89	46.304
468.24	44.830
468.59	44.889
468.94	43.873
469.29	45.443
469.64	46.070
469.99	47.162
470.34	44.027
470.68	46.532
471.03	44.657
471.38	45.078
471.73	45.028
472.08	44.980
472.43	44.430
472.78	44.003
473.13	45.102
473.48	44.430
473.83	43.773
474.17	45.013
474.52	45.118
474.87	44.606
475.22	44.417
475.57	44.043
475.92	44.487
476.27	44.529
476.61	44.387
476.96	42.777
477.31	44.348
477.66	43.371
478.01	43.739
478.36	43.682
478.70	44.426
479.05	44.176
479.40	43.826
479.75	43.379
480.10	43.830
480.45	43.750
480.79	43.706
481.14	45.287
481.49	43.300
481.84	44.112
482.19	42.610
482.53	43.453
482.88	42.959
483.23	42.850
483.58	42.972
483.92	43.175
484.27	41.933
484.62	42.582
484.97	42.579
485.31	42.197
485.66	41.940
486.01	42.801
486.36	42.247
486.70	42.090
487.05	42.573
487.40	41.055
487.75	41.718
488.09	40.822
488.44	40.818
488.79	41.539
489.13	41.827
489.48	41.599
489.83	41.659
490.17	41.393
490.52	42.079
490.87	40.167
491.22	43.075
491.56	40.655
491.91	41.348
492.26	41.663
492.60	41.219
492.95	42.105
493.30	40.791
493.64	41.896
493.99	41.063
494.34	41.359
494.68	40.857
495.03	40.341
495.37	41.119
495.72	41.545
496.07	40.195
496.41	41.179
496.76	41.179
497.11	39.870
497.45	40.191
497.80	40.616
498.14	40.189
498.49	40.630
498.84	40.719
499.18	40.663
499.53	40.972
499.87	39.397
500.22	40.455
500.56	40.545
500.91	39.859
501.26	40.237
501.60	39.646
501.95	40.078
502.29	40.872
502.64	40.492
502.98	40.849
503.33	38.857
503.67	40.482
504.02	39.443
504.36	40.178
504.71	39.444
505.06	39.155
505.40	39.543
505.75	39.948
506.09	38.976
506.44	39.938
506.78	40.357
507.13	39.814
507.47	38.799
507.82	38.355
508.16	38.933
508.51	40.609
508.85	39.246
509.19	38.691
509.54	39.946
509.88	39.860
510.23	39.537
510.57	40.406
510.92	38.593
511.26	39.989
511.61	39.439
511.95	39.397
512.30	39.690
512.64	38.787
512.98	39.753
513.33	39.843
513.67	39.454
514.02	40.561
514.36	40.057
514.70	39.452
515.05	39.013
515.39	39.374
515.74	39.760
516.08	39.271
516.42	40.459
516.77	39.672
517.11	38.872
517.46	39.677
517.80	38.617
518.14	39.008
518.49	39.002
518.83	38.396
519.17	38.690
519.52	37.951
519.86	38.595
520.20	39.247
520.55	39.149
520.89	38.645
521.23	38.379
521.58	39.180
521.92	39.295
522.26	38.452
522.61	39.805
522.95	40.397
523.29	37.929
523.64	39.708
523.98	40.376
524.32	38.595
524.66	39.181
525.01	38.506
525.35	39.209
525.69	38.451
526.04	38.228
526.38	39.883
526.72	37.345
527.06	38.781
527.41	37.467
527.75	38.539
528.09	38.538
528.43	38.420
528.78	36.964
529.12	37.742
529.46	38.337
529.80	37.619
530.15	39.340
530.49	37.508
530.83	38.030
531.17	37.005
531.51	39.330
531.86	38.545
532.20	36.882
532.54	37.509
532.88	38.193
533.22	38.239
533.57	37.942
533.91	38.512
534.25	38.346
534.59	38.422
534.93	36.627
535.27	36.739
535.62	37.330
535.96	37.247
536.30	38.061
536.64	38.525
536.98	36.516
537.32	37.198
537.66	39.481
538.01	38.322
538.35	37.101
538.69	37.617
539.03	35.680
539.37	37.685
539.71	37.491
540.05	36.999
540.39	37.327
540.73	37.657
541.07	37.500
541.42	37.231
541.76	36.407
542.10	37.577
542.44	37.804
542.78	35.926
543.12	36.126
543.46	37.413
543.80	37.196
544.14	34.846
544.48	36.576
544.82	37.321
545.16	37.500
545.50	36.582
545.84	37.394
546.18	36.950
546.52	36.842
546.86	36.017
547.20	38.269
547.54	36.678
547.88	36.481
548.22	35.766
548.56	35.224
548.90	36.388
549.24	35.950
549.58	35.684
549.92	34.882
550.26	36.703
550.60	37.323
550.94	36.370
551.28	35.781
551.62	36.923
551.96	37.519
552.30	36.111
552.64	36.107
552.98	36.568
553.32	35.235
553.66	35.849
554.00	35.620
554.34	36.337
554.68	35.103
555.02	36.905
555.36	35.602
555.69	36.117
556.03	34.832
556.37	35.445
556.71	35.018
557.05	35.496
557.39	34.647
557.73	34.558
558.07	35.294
558.41	35.299
558.75	34.373
559.08	34.594
559.42	35.000
559.76	36.429
560.10	35.092
560.44	35.666
560.78	35.874
561.12	36.530
561.45	36.191
561.79	36.275
562.13	35.131
562.47	35.468
562.81	35.159
563.15	35.543
563.48	35.219
563.82	35.484
564.16	34.749
564.50	34.932
564.84	35.877
565.17	34.943
565.51	36.749
565.85	35.528
566.19	35.080
566.52	35.322
566.86	35.283
567.20	34.496
567.54	35.341
567.88	34.915
568.21	34.955
568.55	35.000
568.89	35.575
569.23	35.676
569.56	35.245
569.90	35.810
570.24	34.983
570.57	35.309
570.91	35.343
571.25	34.758
571.59	34.787
571.92	34.163
572.26	34.088
572.60	33.984
572.93	34.233
573.27	33.918
573.61	34.696
573.95	34.762
574.28	34.243
574.62	33.867
574.96	33.732
575.29	33.922
575.63	33.169
575.97	32.638
576.30	33.989
576.64	33.272
576.98	33.977
577.31	33.694
577.65	34.794
577.98	34.172
578.32	34.140
578.66	33.290
578.99	33.294
579.33	33.350
579.67	32.803
580.00	33.392
580.34	33.806
580.67	33.259
581.01	33.934
581.35	33.958
581.68	33.832
582.02	33.602
582.35	33.965
582.69	34.223
583.02	33.988
583.36	33.073
583.70	33.567
584.03	33.723
584.37	34.133
584.70	33.874
585.04	32.953
585.37	33.342
585.71	33.745
586.04	33.661
586.38	32.862
586.72	33.372
587.05	33.738
587.39	33.799
587.72	34.254
588.06	33.213
588.39	32.982
588.73	33.364
589.06	33.366
589.40	33.011
589.73	33.333
590.07	33.573
590.40	33.475
590.73	34.843
591.07	33.291
591.40	33.215
591.74	33.439
592.07	33.581
592.41	34.055
592.74	34.289
593.08	33.322
593.41	33.542
593.75	33.497
594.08	31.995
594.41	32.242
594.75	33.015
595.08	34.166
595.42	33.530
595.75	33.496
596.09	32.447
596.42	32.782
596.75	32.948
597.09	33.576
597.42	33.153
597.75	33.669
598.09	32.458
598.42	32.762
598.76	33.119
599.09	32.652
599.42	32.929
599.76	32.769
600.09	33.258
600.42	32.714
600.76	32.504
601.09	32.099
601.42	31.962
601.76	32.870
602.09	33.663
602.42	33.488
602.76	32.598
603.09	32.350
603.42	33.654
603.76	32.460
604.09	33.050
604.42	32.572
604.76	32.354
605.09	31.993
605.42	33.318
605.75	32.137
606.09	32.909
606.42	32.235
606.75	32.381
607.09	32.484
607.42	32.654
607.75	31.750
608.08	31.851
608.42	32.115
608.75	32.819
609.08	32.885
609.41	32.386
609.75	32.812
610.08	33.100
610.41	31.691
610.74	32.131
611.07	33.178
611.41	32.745
611.74	33.635
612.07	32.869
612.40	31.783
612.73	32.147
613.07	31.946
613.40	32.604
613.73	31.505
614.06	31.664
614.39	32.995
614.72	31.709
615.06	32.402
615.39	32.151
615.72	32.024
616.05	31.955
616.38	31.225
616.71	31.560
617.05	31.810
617.38	31.427
617.71	30.503
618.04	32.635
618.37	33.102
618.70	32.937
619.03	32.986
619.36	31.187
619.69	33.965
620.03	32.432
620.36	31.974
620.69	31.763
621.02	31.269
621.35	31.452
621.68	32.993
622.01	32.667
622.34	30.966
622.67	33.754
623.00	32.542
623.33	32.241
623.66	31.114
623.99	32.602
624.32	31.939
624.65	31.278
624.99	31.828
625.32	31.463
625.65	32.286
625.98	31.910
626.31	31.006
626.64	32.149
626.97	32.461
627.30	32.137
627.63	32.669
627.96	31.806
628.29	31.915
628.62	31.563
628.95	31.363
629.28	31.754
629.61	32.502
629.94	32.942
630.26	30.632
630.59	31.217
630.92	30.667
631.25	31.179
631.58	31.388
631.91	29.934
632.24	31.537
632.57	31.136
632.90	30.842
633.23	31.647
633.56	31.990
633.89	31.319
634.22	30.988
634.55	32.274
634.88	30.907
635.20	29.359
635.53	32.933
635.86	30.299
636.19	31.953
636.52	32.526
636.85	30.645
637.18	31.069
637.51	29.937
637.83	30.355
638.16	32.742
638.49	30.245
638.82	32.368
639.15	30.801
639.48	30.399
639.81	31.381
640.13	33.622
640.46	31.195
640.79	31.370
641.12	30.871
641.45	30.030
641.77	30.519
642.10	31.912
642.43	30.868
642.76	29.538
643.09	32.472
643.41	29.773
643.74	31.466
644.07	31.199
644.40	32.432
644.73	32.049
645.05	30.201
645.38	33.686
645.71	30.674
646.04	29.803
646.36	31.915
646.69	32.914
647.02	30.813
647.35	30.597
647.67	32.907
648.00	31.903
648.33	30.034
648.66	30.508
648.98	27.973
649.31	30.909
649.64	29.984
649.96	30.308
650.29	32.368
650.62	29.573
650.94	28.333
651.27	27.933
651.60	29.369
651.92	28.322
652.25	30.373
652.58	32.167
652.90	30.703
653.23	30.588
653.56	29.442
653.88	28.522
654.21	30.298
654.54	31.579
654.86	33.277
655.19	29.094
655.52	32.043
655.84	32.148
656.17	35.979
656.49	48.431
656.82	48.816
657.15	36.261
657.47	26.420
657.80	19.615
658.13	18.821
658.45	28.267
658.78	28.124
659.10	26.796
659.43	26.799
659.75	27.183
660.08	26.483
660.41	28.090
660.73	28.039
661.06	29.289
661.38	27.006
661.71	27.721
662.03	31.116
662.36	31.648
662.68	30.088
663.01	29.913
663.33	29.002
663.66	30.465
663.98	29.070
664.31	27.079
664.63	28.111
664.96	25.870
665.28	23.400
665.61	29.870
665.93	27.391
666.26	28.416
666.58	25.951
666.91	28.941
667.23	28.538
667.56	29.621
667.88	29.496
668.21	30.072
668.53	30.260
668.86	30.896
669.18	27.830
669.50	26.392
669.83	28.605
670.15	30.070
670.48	28.708
670.80	32.028
671.13	28.188
671.45	23.516
671.77	30.687
672.10	29.109
672.42	28.277
672.75	28.597
673.07	29.696
673.39	28.991
673.72	27.219
674.04	27.083
674.37	29.873
674.69	26.981
675.01	30.444
675.34	28.153
675.66	28.935
675.98	30.820
676.31	25.917
676.63	26.841
676.95	26.136
677.28	30.353
677.60	31.084
677.92	25.917
678.25	29.540
678.57	27.922
678.89	28.571
679.22	28.188
679.54	27.108
679.86	27.833
680.18	29.320
680.51	28.788
680.83	26.044
681.15	31.200
681.48	29.713
681.80	32.025
682.12	27.218
682.44	26.987
682.77	31.347
683.09	30.206
683.41	26.591
683.73	29.032
684.06	27.655
684.38	26.667
684.70	30.719
685.02	31.743
685.34	27.075
685.67	28.330
685.99	30.741
686.31	28.319
686.63	28.015
686.96	27.376
687.28	27.071
687.60	28.707
687.92	29.697
688.24	27.621
688.56	29.039
688.89	29.018
689.21	27.778
689.53	26.682
689.85	28.372
690.17	28.795
690.49	29.787
690.82	28.883
691.14	27.143
691.46	26.869
691.78	28.378
692.10	30.108
692.42	26.840
692.74	25.855
693.06	29.730
693.39	27.149
693.71	28.281
694.03	27.714
694.35	27.804
694.67	26.768
694.99	28.198
695.31	29.243
695.63	29.250
695.95	29.293
696.27	26.943
696.59	29.444
696.91	26.331
697.23	26.221
697.56	29.950
697.88	29.247
698.20	30.524
698.52	28.471
698.84	27.273
699.16	25.250
699.48	29.323
699.80	29.777
700.12	29.111
700.44	28.291
700.76	27.616
701.08	27.576
701.40	25.301
701.72	31.790
702.04	29.703
702.36	28.428
702.68	28.829
703.00	26.667
703.32	28.446
703.64	24.859
703.96	29.275
704.28	26.380
704.60	23.810
704.91	25.552
705.23	26.246
705.55	30.742
705.87	27.076
706.19	25.926
706.51	27.148
706.83	27.653
707.15	25.545
707.47	30.812
707.79	27.865
708.11	27.250
708.43	27.250
708.74	28.165
709.06	29.577
709.38	28.440
709.70	26.036
710.02	30.892
710.34	28.173
710.66	22.436
710.98	22.185
711.29	28.525
711.61	27.797
711.93	31.270
712.25	26.804
712.57	27.106
712.89	27.239
713.20	29.066
713.52	28.571
713.84	27.986
714.16	23.024
714.48	23.871
714.80	31.410
715.11	27.964
715.43	24.765
715.75	26.333
716.07	26.246
716.39	25.839
716.70	23.247
717.02	26.718
717.34	26.316
717.66	23.894
717.97	27.826
718.29	29.707
718.61	25.591
718.93	22.481
719.24	30.798
719.56	25.301
719.88	25.430
720.20	25.000
720.51	25.287
720.83	27.027
721.15	27.311
721.46	26.210
721.78	21.344
722.10	25.651
722.42	25.726
722.73	24.898
723.05	24.898
723.37	28.814
723.68	31.081
724.00	27.778
724.32	25.778
724.63	24.091
724.95	27.074
725.27	27.189
725.58	30.508
725.90	21.429
726.22	27.413
726.53	28.814
726.85	28.090
727.16	30.943
727.48	25.101
727.80	30.364
728.11	24.576
728.43	29.804
728.74	28.629
729.06	26.800
729.38	28.195
729.69	27.888
730.01	19.231
730.32	26.866
730.64	28.975
730.96	29.057
731.27	30.000
731.59	28.475
731.90	26.752
732.22	30.915
732.53	31.229
732.85	27.660
733.16	28.283
733.48	24.101
733.80	25.725
734.11	26.780
734.43	27.148
734.74	27.576
735.06	27.036
735.37	28.097
735.69	26.936
736.00	27.526
736.32	29.866
736.63	26.408
736.95	25.256
737.26	24.199
737.58	25.168
737.89	22.711
738.21	24.812
738.52	26.749
738.83	27.074
739.15	24.891
739.46	30.315
739.78	21.978
740.09	28.105
740.41	24.275
740.72	24.409
741.04	24.291
741.35	22.128
741.66	23.697
741.98	29.082
742.29	23.267
742.61	23.560
742.92	18.483
743.23	17.130
743.55	30.317
743.86	27.751
744.18	24.880
744.49	20.213
744.80	22.826
745.12	34.759
745.43	20.488
745.74	29.167
746.06	29.268
746.37	25.654
746.68	29.384
747.00	22.872
747.31	28.358
747.62	24.272
747.94	26.316
748.25	22.772
748.56	27.869
748.88	25.131
749.19	31.915
749.50	29.064
749.82	16.038
750.13	24.771
750.44	28.947
750.75	25.746
751.07	29.197
751.38	26.054
751.69	23.922
752.01	25.581
752.32	26.693
752.63	22.925
752.94	25.431
753.26	34.310
753.57	25.792
753.88	36.283
754.19	26.667
754.51	23.140
754.82	23.482
755.13	32.917
755.44	25.403
755.75	31.641
756.07	30.739
756.38	26.415
756.69	26.820
757.00	25.667
757.31	26.144
757.63	27.744
757.94	25.833
758.25	27.123
758.56	26.064
758.87	22.380
759.18	24.611
759.50	25.455
759.81	26.756
760.12	27.419
760.43	26.061
760.74	27.469
761.05	27.077
761.36	25.568
761.67	27.273
761.99	31.293
762.30	22.182
762.61	27.668
762.92	22.624
763.23	22.072
763.54	24.299
763.85	27.966
764.16	25.311
764.47	20.161
764.78	28.571
765.10	29.630
765.41	30.915
765.72	26.667
766.03	22.556
766.34	24.088
766.65	22.709
766.96	27.273
767.27	27.660
767.58	24.138
767.89	17.021
768.20	18.750
768.51	21.978
768.82	23.645
769.13	21.659
769.44	22.318
769.75	24.658
770.06	24.138
770.37	27.404
770.68	24.365
770.99	26.697
771.30	28.431
771.61	26.697
771.92	31.897
772.23	29.557
772.54	26.882
772.85	20.370
773.16	24.719
773.47	32.026
773.78	30.719
774.09	21.557
774.39	22.667
774.70	31.847
775.01	30.345
775.32	19.286
775.63	28.099
775.94	27.481
776.25	23.622
776.56	20.833
776.87	23.077
777.18	23.077
777.48	22.414
777.79	27.826
778.10	7.619
778.41	22.523
778.72	21.429
779.03	28.571
779.34	21.277
779.65	25.342
779.95	29.452
780.26	29.655
780.57	13.008
780.88	25.197
781.19	22.414
781.50	25.581
781.80	25.444
782.11	22.642
782.42	26.923
782.73	26.619
783.04	24.444
783.34	25.694
783.65	18.803
783.96	27.869
784.27	24.138
784.57	23.577
784.88	25.000
785.19	27.000
785.50	28.000
785.81	17.241
786.11	21.552
786.42	25.243
786.73	30.909
787.04	20.408
787.34	19.643
787.65	20.952
787.96	22.124
788.26	20.000
788.57	32.479
788.88	28.125
789.19	18.254
789.49	26.087
789.80	28.571
790.11	23.232
790.41	16.364
790.72	18.478
791.03	18.182
791.33	21.250
791.64	26.250
791.95	25.581
792.25	29.787
792.56	20.225
792.87	15.068
793.17	18.841
793.48	13.333
793.79	17.500
794.09	30.000
794.40	15.094
794.70	23.301
795.01	22.764
795.32	23.077
795.62	6.667
795.93	24.510
796.23	18.868
796.54	26.042
796.85	30.882
797.15	19.718
797.46	30.556
797.76	40.909
798.07	17.442
798.37	26.316
798.68	18.182
798.99	17.284
799.29	18.571
799.60	24.638
799.90	17.333
800.21	19.672
800.51	33.846
800.82	25.424
801.12	10.145
801.43	32.787
801.73	17.460
802.04	6.000
802.34	5.970
802.65	34.615
802.95	1.786
803.26	11.538
803.56	21.569
803.87	17.391
804.17	28.000
804.48	28.571
804.78	11.111
805.09	15.217
805.39	6.667
805.70	42.593
806.00	-1.754
806.30	2.817
806.61	30.000
806.91	5.556
807.22	34.211
807.52	33.333
807.83	1.818
808.13	37.500
808.43	44.118
808.74	23.881
809.04	15.254
809.35	7.692
809.65	15.625
809.95	21.622
810.26	4.545
810.56	15.068
810.86	-9.524
811.17	6.000
811.47	26.531
811.77	-5.263
812.08	15.909
812.38	9.434
812.69	27.500
812.99	-9.091
813.29	21.053
813.59	11.429
813.90	18.182
814.20	-7.692
814.50	13.462
814.81	28.302
815.11	-8.511
815.41	25.424
815.72	0.000
816.02	21.569
816.32	41.667
816.62	21.951
816.93	5.405
817.23	20.000
817.53	22.917
817.84	-2.174
818.14	19.231
818.44	7.895
818.74	19.565
819.04	-7.500
819.35	2.703
819.65	-14.706
819.95	2.778
820.25	30.952
820.56	30.000
820.86	-41.379
821.16	15.000
821.46	21.277
821.76	10.000
822.07	13.953
822.37	2.703
822.67	-18.750
822.97	19.048
823.27	17.857
823.57	-12.000
823.88	14.815
824.18	-28.571
824.48	0.000
824.78	3.226
825.08	-21.739
825.38	12.121
825.69	-41.667
825.99	7.895
826.29	16.667
826.59	-60.000
826.89	-28.571
827.19	28.261
827.49	35.000
827.79	45.714
828.09	39.286
828.39	24.242
828.70	43.243
829.00	25.000
829.30	14.286
829.60	3.333
829.90	18.750
830.20	44.737
830.50	-40.741
830.80	-30.435
831.10	13.636
831.40	24.242
831.70	67.742
832.00	47.619
832.30	-23.810
832.60	-50.000
832.90	-3.448
833.20	-10.000
833.50	15.152
833.80	0.000
834.10	-7.692
834.40	-6.250
834.70	-133.333
835.00	-10.526
835.30	42.308
835.60	26.667
835.90	12.903
836.20	36.364
836.50	21.429
836.80	-26.923
837.10	-10.714
837.40	-600.000
837.70	13.636
838.00	-27.273
838.30	26.087
838.60	-30.769
838.90	54.545
839.19	-25.000
839.49	30.000
839.79	23.077
840.09	-41.667
840.39	14.286
840.69	32.143
840.99	-7.692
841.29	-68.421
841.59	-130.000
841.88	9.091
842.18	-10.000
842.48	56.250
842.78	13.333
843.08	0.000
843.38	-110.000
843.68	13.043
843.97	40.000
844.27	-40.000
844.57	10.000
844.87	-33.333
845.17	4.762
845.47	-6.667
845.76	9.524
846.06	41.176
846.36	10.000
846.66	-71.429
846.96	-6.667
847.25	-225.000
847.55	-50.000
847.85	-50.000
848.15	-27.273
848.44	-500.000
848.74	15.000
849.04	-18.519
849.34	54.545
849.63	-283.333
849.93	-180.000
850.23	-72.222
850.53	0.000
850.82	7.692
851.12	-111.111
851.42	0.000
851.71	-7.692
852.01	0.000
852.31	-150.000
852.61	-9.091
852.90	20.000
853.20	-15.789
853.50	-16.667
853.79	-21.739
854.09	20.833
854.39	36.842
854.68	-16.667
854.98	41.935
855.28	46.154
855.57	10.000
855.87	22.222
856.17	55.556
856.46	-28.571
856.76	-40.000
857.05	44.444
857.35	32.000
857.65	-44.444
857.94	-7.692
858.24	13.793
858.53	55.556
858.83	25.926
859.13	-18.182
859.42	-8.696
859.72	-25.000
860.01	-466.667
860.31	-8.000
860.60	-23.810
860.90	-66.667
861.20	-40.000
861.49	-450.000
861.79	-46.667
862.08	35.000
862.38	126.667
862.67	-140.000
862.97	-16.667
863.26	33.333
863.56	16.667
863.85	-533.333
864.15	0.000
864.44	50.000
864.74	50.000
865.03	300.000
865.33	-80.000
865.62	-66.667
865.92	-66.667
866.21	-66.667
866.51	6.250
866.80	-100.000
867.10	200.000
867.39	50.000
867.69	0.000
867.98	38.462
868.27	-266.667
868.57	0.000
868.86	44.444
869.16	-61.538
869.45	33.333
869.75	-1600.000
870.04	0.000
870.33	-100.000
870.63	14.286
870.92	666.667
871.22	-220.000
871.51	-800.000
871.80	144.444
872.10	533.333
>>>>>End Processed Spectral Data<<<<<
