SpectraSuite Data File
++++++++++++++++++++++++++++++++++++
Date: Fri May 15 20:27:20 PDT 2015
User: schluterlab
Dark Spectrum Present: Yes
Reference Spectrum Present: Yes
Number of Sampled Component Spectra: 1
Spectrometers: USB2E3373
Integration Time (usec): 3000 (USB2E3373)
Spectra Averaged: 3 (USB2E3373)
Boxcar Smoothing: 0 (USB2E3373)
Correct for Electrical Dark: No (USB2E3373)
Strobe/Lamp Enabled: No (USB2E3373)
Correct for Detector Non-linearity: No (USB2E3373)
Correct for Stray Light: No (USB2E3373)
Number of Pixels in Processed Spectrum: 2048
>>>>>Begin Processed Spectral Data<<<<<
178.53	0.000
178.91	0.000
179.29	87.500
179.67	-600.000
180.04	57.143
180.42	-50.000
180.80	100.000
181.18	-100.000
181.56	350.000
181.94	-300.000
182.31	-900.000
182.69	140.000
183.07	-66.667
183.45	-80.000
183.83	33.333
184.20	27.273
184.58	122.222
184.96	-75.000
185.34	-0.000
185.72	150.000
186.09	69.231
186.47	-900.000
186.85	250.000
187.23	122.222
187.61	-100.000
187.98	-66.667
188.36	22.222
188.74	-233.333
189.12	29.412
189.49	55.556
189.87	0.000
190.25	64.286
190.63	450.000
191.00	0.000
191.38	-5.263
191.76	700.000
192.14	225.000
192.51	150.000
192.89	33.333
193.27	14.286
193.65	183.333
194.02	127.273
194.40	140.000
194.78	-75.000
195.15	25.000
195.53	-62.500
195.91	225.000
196.29	-50.000
196.66	69.231
197.04	100.000
197.42	0.000
197.79	-433.333
198.17	-69.231
198.55	700.000
198.92	33.333
199.30	300.000
199.68	-100.000
200.05	-366.667
200.43	0.000
200.81	0.000
201.18	-100.000
201.56	400.000
201.94	150.000
202.31	-100.000
202.69	-100.000
203.07	-50.000
203.44	-100.000
203.82	0.000
204.19	50.000
204.57	-300.000
204.95	125.000
205.32	110.000
205.70	57.143
206.08	-50.000
206.45	211.111
206.83	121.429
207.20	0.000
207.58	900.000
207.96	-66.667
208.33	-160.000
208.71	50.000
209.08	-233.333
209.46	-1100.000
209.84	-60.000
210.21	-300.000
210.59	14.286
210.96	16.667
211.34	-225.000
211.71	66.667
212.09	-157.143
212.46	-700.000
212.84	0.000
213.22	80.000
213.59	-150.000
213.97	100.000
214.34	36.364
214.72	-66.667
215.09	175.000
215.47	30.769
215.84	-36.364
216.22	233.333
216.59	37.500
216.97	500.000
217.34	150.000
217.72	80.000
218.09	125.000
218.47	100.000
218.84	100.000
219.22	33.333
219.59	-120.000
219.97	-66.667
220.34	-0.000
220.72	71.429
221.09	-100.000
221.47	500.000
221.84	-200.000
222.22	-700.000
222.59	54.545
222.97	66.667
223.34	-200.000
223.72	21.429
224.09	38.095
224.46	-14.286
224.84	566.667
225.21	-40.000
225.59	93.333
225.96	-300.000
226.34	-25.000
226.71	114.286
227.08	116.667
227.46	150.000
227.83	200.000
228.21	122.222
228.58	90.909
228.95	87.500
229.33	30.000
229.70	68.750
230.08	0.000
230.45	-71.429
230.82	57.143
231.20	-20.000
231.57	92.857
231.95	185.714
232.32	-50.000
232.69	-7.143
233.07	233.333
233.44	0.000
233.81	30.000
234.19	111.111
234.56	70.588
234.93	250.000
235.31	75.000
235.68	-60.000
236.05	92.308
236.43	5.000
236.80	47.059
237.17	68.750
237.55	15.000
237.92	40.741
238.29	52.778
238.67	76.667
239.04	76.471
239.41	26.829
239.79	70.000
240.16	78.049
240.53	60.526
240.91	58.696
241.28	57.143
241.65	62.500
242.02	76.712
242.40	65.000
242.77	76.271
243.14	56.061
243.51	77.500
243.89	81.609
244.26	71.264
244.63	77.381
245.00	69.072
245.38	80.412
245.75	89.888
246.12	68.966
246.49	76.860
246.87	85.577
247.24	78.151
247.61	72.807
247.98	78.049
248.36	76.875
248.73	77.632
249.10	85.714
249.47	86.076
249.84	92.157
250.22	94.118
250.59	92.157
250.96	76.526
251.33	86.628
251.70	92.941
252.08	78.680
252.45	81.683
252.82	86.935
253.19	79.724
253.56	80.841
253.94	89.189
254.31	78.696
254.68	93.421
255.05	78.346
255.42	89.520
255.79	88.417
256.16	89.494
256.54	85.448
256.91	81.749
257.28	78.067
257.65	85.768
258.02	85.816
258.39	83.165
258.76	82.784
259.14	86.379
259.51	81.877
259.88	88.316
260.25	80.392
260.62	96.875
260.99	84.407
261.36	85.616
261.73	87.025
262.10	87.234
262.47	83.742
262.85	84.326
263.22	87.385
263.59	86.916
263.96	87.578
264.33	90.303
264.70	85.417
265.07	87.500
265.44	88.952
265.81	86.723
266.18	86.885
266.55	88.689
266.92	84.715
267.29	88.251
267.66	81.586
268.03	87.435
268.40	86.684
268.77	91.979
269.14	85.132
269.51	87.661
269.88	88.279
270.25	84.949
270.62	81.707
270.99	89.514
271.36	83.130
271.73	83.568
272.10	87.591
272.47	91.017
272.84	86.634
273.21	83.759
273.58	85.542
273.95	81.465
274.32	85.219
274.69	78.959
275.06	86.161
275.43	80.952
275.80	86.534
276.17	84.138
276.54	76.874
276.91	85.088
277.28	82.751
277.65	80.785
278.02	79.787
278.39	84.245
278.76	87.212
279.13	79.668
279.50	82.773
279.87	80.346
280.23	83.226
280.60	79.922
280.97	81.010
281.34	77.308
281.71	82.546
282.08	80.368
282.45	78.278
282.82	78.764
283.19	82.205
283.56	79.383
283.92	81.214
284.29	78.269
284.66	81.202
285.03	81.925
285.40	77.505
285.77	76.098
286.14	78.700
286.51	81.734
286.87	76.234
287.24	81.584
287.61	79.012
287.98	77.193
288.35	77.123
288.72	78.109
289.08	76.042
289.45	76.450
289.82	74.301
290.19	76.109
290.56	76.844
290.93	75.253
291.29	70.108
291.66	72.913
292.03	72.887
292.40	74.516
292.77	70.335
293.13	68.994
293.50	70.106
293.87	71.603
294.24	69.397
294.60	69.896
294.97	67.857
295.34	70.245
295.71	67.958
296.08	67.713
296.44	66.999
296.81	65.694
297.18	66.957
297.55	68.293
297.91	65.753
298.28	64.116
298.65	63.229
299.02	63.612
299.38	63.201
299.75	65.517
300.12	63.089
300.48	64.559
300.85	63.118
301.22	62.208
301.59	60.132
301.95	64.177
302.32	64.851
302.69	62.562
303.05	60.272
303.42	62.267
303.79	63.902
304.15	62.843
304.52	61.831
304.89	59.883
305.25	62.470
305.62	60.327
305.99	60.819
306.35	62.312
306.72	60.292
307.09	59.863
307.45	63.261
307.82	62.500
308.19	64.808
308.55	62.159
308.92	64.270
309.29	62.235
309.65	61.572
310.02	63.036
310.38	60.044
310.75	66.448
311.12	62.971
311.48	62.036
311.85	63.455
312.22	62.658
312.58	62.951
312.95	61.580
313.31	63.251
313.68	64.188
314.05	63.571
314.41	63.711
314.78	63.505
315.14	65.262
315.51	64.389
315.87	63.525
316.24	65.015
316.61	64.567
316.97	62.897
317.34	62.402
317.70	64.436
318.07	63.558
318.43	67.157
318.80	65.341
319.16	66.406
319.53	66.002
319.89	65.354
320.26	66.093
320.62	68.606
320.99	66.388
321.35	65.982
321.72	66.563
322.08	66.264
322.45	68.325
322.81	67.583
323.18	66.830
323.54	67.375
323.91	68.452
324.27	68.457
324.64	68.539
325.00	67.245
325.37	69.605
325.73	67.815
326.10	71.299
326.46	68.700
326.83	70.691
327.19	70.793
327.56	70.808
327.92	69.982
328.29	69.464
328.65	71.321
329.01	70.037
329.38	69.032
329.74	71.388
330.11	70.065
330.47	68.367
330.84	68.750
331.20	71.198
331.56	67.222
331.93	68.767
332.29	69.844
332.66	67.964
333.02	67.658
333.38	70.577
333.75	70.238
334.11	67.234
334.48	67.906
334.84	68.315
335.20	67.429
335.57	66.818
335.93	68.293
336.29	68.324
336.66	67.666
337.02	66.636
337.38	66.667
337.75	68.545
338.11	67.628
338.47	67.245
338.84	67.375
339.20	66.179
339.56	67.431
339.93	66.607
340.29	68.440
340.65	64.606
341.02	65.248
341.38	66.460
341.74	65.106
342.11	63.605
342.47	66.014
342.83	66.609
343.20	65.244
343.56	64.957
343.92	64.659
344.28	63.450
344.65	63.644
345.01	63.959
345.37	62.658
345.73	63.682
346.10	64.107
346.46	62.237
346.82	61.866
347.19	62.095
347.55	62.991
347.91	61.489
348.27	61.924
348.63	62.692
349.00	61.772
349.36	62.427
349.72	62.355
350.08	60.984
350.45	60.654
350.81	61.960
351.17	59.528
351.53	60.816
351.89	60.446
352.26	60.800
352.62	60.806
352.98	59.357
353.34	59.179
353.70	59.709
354.07	59.516
354.43	59.167
354.79	59.538
355.15	60.635
355.51	59.415
355.87	58.333
356.24	58.972
356.60	59.499
356.96	58.968
357.32	57.188
357.68	56.294
358.04	59.693
358.40	58.280
358.77	59.091
359.13	58.127
359.49	56.009
359.85	57.332
360.21	57.815
360.57	57.230
360.93	57.489
361.29	56.798
361.66	57.759
362.02	57.727
362.38	57.959
362.74	57.381
363.10	59.443
363.46	59.303
363.82	58.452
364.18	55.129
364.54	56.029
364.90	56.989
365.26	56.186
365.62	57.883
365.98	58.284
366.35	58.631
366.71	58.241
367.07	58.128
367.43	57.009
367.79	57.032
368.15	55.276
368.51	57.465
368.87	55.061
369.23	56.173
369.59	57.799
369.95	56.745
370.31	58.237
370.67	57.463
371.03	56.161
371.39	56.455
371.75	56.703
372.11	56.348
372.47	56.065
372.83	56.494
373.19	55.136
373.55	55.740
373.91	56.156
374.27	57.406
374.63	57.574
374.99	56.525
375.35	55.989
375.71	56.503
376.07	57.303
376.42	55.714
376.78	57.114
377.14	55.450
377.50	55.976
377.86	57.162
378.22	57.626
378.58	57.244
378.94	56.837
379.30	55.770
379.66	57.304
380.02	56.898
380.38	55.447
380.74	56.852
381.09	57.117
381.45	56.575
381.81	57.064
382.17	57.170
382.53	57.152
382.89	58.255
383.25	57.250
383.61	57.622
383.97	57.524
384.32	55.972
384.68	56.471
385.04	57.414
385.40	56.938
385.76	59.623
386.12	58.473
386.48	58.301
386.83	57.578
387.19	57.326
387.55	58.532
387.91	57.702
388.27	55.861
388.62	58.339
388.98	57.029
389.34	58.276
389.70	59.354
390.06	56.765
390.42	56.865
390.77	58.273
391.13	57.188
391.49	58.279
391.85	58.804
392.20	58.569
392.56	57.915
392.92	58.250
393.28	58.432
393.64	57.538
393.99	58.746
394.35	59.013
394.71	59.579
395.07	57.448
395.42	57.620
395.78	58.632
396.14	58.197
396.50	60.241
396.85	59.176
397.21	59.712
397.57	58.997
397.92	58.538
398.28	59.828
398.64	59.157
399.00	59.368
399.35	58.296
399.71	58.530
400.07	60.157
400.42	58.813
400.78	59.829
401.14	59.649
401.49	58.904
401.85	57.952
402.21	58.614
402.57	59.000
402.92	58.908
403.28	59.837
403.63	60.151
403.99	58.673
404.35	60.212
404.70	58.512
405.06	59.107
405.42	58.546
405.77	58.164
406.13	59.255
406.49	59.207
406.84	59.597
407.20	60.144
407.55	59.498
407.91	59.759
408.27	59.401
408.62	59.631
408.98	59.088
409.34	60.471
409.69	60.401
410.05	59.113
410.40	60.802
410.76	59.952
411.11	59.812
411.47	61.275
411.83	60.201
412.18	62.355
412.54	59.363
412.89	58.621
413.25	60.409
413.60	60.062
413.96	59.571
414.31	60.000
414.67	59.589
415.03	60.985
415.38	57.702
415.74	60.456
416.09	61.267
416.45	61.175
416.80	61.071
417.16	62.224
417.51	62.692
417.87	60.756
418.22	61.140
418.58	62.007
418.93	60.940
419.29	60.179
419.64	60.402
420.00	62.028
420.35	59.582
420.71	62.576
421.06	61.633
421.42	61.659
421.77	61.329
422.12	60.556
422.48	60.422
422.83	61.021
423.19	61.343
423.54	61.905
423.90	61.661
424.25	63.720
424.61	62.791
424.96	62.950
425.31	63.720
425.67	63.732
426.02	64.311
426.38	65.122
426.73	64.165
427.09	64.937
427.44	63.882
427.79	62.699
428.15	64.078
428.50	63.537
428.85	62.776
429.21	63.045
429.56	63.720
429.92	62.763
430.27	62.105
430.62	63.095
430.98	63.694
431.33	63.828
431.68	64.364
432.04	64.058
432.39	63.320
432.74	63.500
433.10	65.402
433.45	64.277
433.80	65.177
434.16	64.654
434.51	65.645
434.86	65.041
435.22	64.330
435.57	65.066
435.92	64.910
436.28	64.818
436.63	65.088
436.98	64.368
437.34	64.852
437.69	66.369
438.04	66.439
438.39	65.608
438.75	67.335
439.10	65.139
439.45	67.559
439.81	65.994
440.16	67.043
440.51	66.687
440.86	67.069
441.22	66.176
441.57	66.998
441.92	65.897
442.27	66.907
442.63	67.238
442.98	67.662
443.33	66.166
443.68	67.109
444.03	67.760
444.39	66.995
444.74	67.893
445.09	68.040
445.44	68.490
445.79	68.953
446.15	67.786
446.50	67.332
446.85	68.969
447.20	67.205
447.55	67.467
447.91	67.795
448.26	69.152
448.61	67.761
448.96	69.248
449.31	69.191
449.66	68.583
450.02	69.082
450.37	69.235
450.72	68.614
451.07	70.633
451.42	68.102
451.77	67.571
452.12	69.438
452.47	69.543
452.83	69.258
453.18	70.525
453.53	70.228
453.88	70.370
454.23	70.805
454.58	71.411
454.93	71.456
455.28	68.508
455.63	71.234
455.98	70.174
456.34	71.328
456.69	70.902
457.04	71.014
457.39	70.656
457.74	71.221
458.09	68.864
458.44	71.036
458.79	71.317
459.14	70.824
459.49	72.239
459.84	69.600
460.19	71.845
460.54	71.271
460.89	72.841
461.24	72.795
461.59	74.050
461.94	71.006
462.29	73.341
462.64	72.757
462.99	72.309
463.34	73.018
463.69	72.329
464.04	72.518
464.39	73.620
464.74	71.840
465.09	73.862
465.44	72.302
465.79	71.599
466.14	72.007
466.49	73.145
466.84	72.397
467.19	72.028
467.54	72.286
467.89	73.721
468.24	73.662
468.59	74.921
468.94	73.905
469.29	73.770
469.64	74.299
469.99	76.454
470.34	73.242
470.68	76.286
471.03	75.584
471.38	75.392
471.73	74.020
472.08	74.559
472.43	76.443
472.78	74.983
473.13	76.667
473.48	74.593
473.83	74.097
474.17	76.231
474.52	74.282
474.87	74.667
475.22	76.388
475.57	73.800
475.92	74.547
476.27	75.378
476.61	77.488
476.96	75.460
477.31	76.528
477.66	73.933
478.01	75.126
478.36	75.763
478.70	76.455
479.05	76.374
479.40	75.570
479.75	74.922
480.10	74.245
480.45	75.950
480.79	76.687
481.14	77.818
481.49	75.123
481.84	77.558
482.19	75.912
482.53	77.506
482.88	76.659
483.23	76.200
483.58	76.462
483.92	77.057
484.27	75.798
484.62	76.244
484.97	76.161
485.31	74.566
485.66	73.240
486.01	73.365
486.36	72.809
486.70	73.550
487.05	74.693
487.40	74.690
487.75	74.423
488.09	75.865
488.44	75.378
488.79	75.943
489.13	77.123
489.48	76.999
489.83	77.175
490.17	77.978
490.52	78.522
490.87	77.464
491.22	78.701
491.56	77.182
491.91	77.151
492.26	78.512
492.60	77.495
492.95	77.865
493.30	78.505
493.64	79.175
493.99	79.034
494.34	78.932
494.68	79.095
495.03	79.027
495.37	78.999
495.72	79.303
496.07	78.878
496.41	79.057
496.76	78.766
497.11	77.876
497.45	79.141
497.80	80.272
498.14	77.745
498.49	79.431
498.84	79.591
499.18	80.321
499.53	79.018
499.87	78.745
500.22	78.833
500.56	80.837
500.91	80.371
501.26	78.596
501.60	79.734
501.95	80.107
502.29	78.838
502.64	80.936
502.98	79.280
503.33	77.137
503.67	78.843
504.02	80.401
504.36	79.416
504.71	80.202
505.06	79.014
505.40	80.660
505.75	81.907
506.09	79.169
506.44	82.495
506.78	80.204
507.13	80.662
507.47	78.799
507.82	81.357
508.16	80.930
508.51	81.270
508.85	80.638
509.19	81.107
509.54	81.823
509.88	81.446
510.23	80.742
510.57	80.385
510.92	79.104
511.26	82.106
511.61	82.563
511.95	81.753
512.30	81.818
512.64	81.803
512.98	81.583
513.33	82.149
513.67	81.353
514.02	82.666
514.36	82.857
514.70	82.867
515.05	83.549
515.39	82.881
515.74	84.731
516.08	82.726
516.42	84.688
516.77	81.978
517.11	83.620
517.46	83.603
517.80	83.194
518.14	84.446
518.49	82.993
518.83	84.083
519.17	83.323
519.52	83.600
519.86	83.433
520.20	84.872
520.55	85.241
520.89	83.563
521.23	83.851
521.58	83.849
521.92	84.167
522.26	83.735
522.61	85.260
522.95	86.623
523.29	84.562
523.64	84.625
523.98	85.483
524.32	84.278
524.66	84.635
525.01	85.130
525.35	84.057
525.69	86.801
526.04	85.251
526.38	85.733
526.72	84.500
527.06	84.630
527.41	83.113
527.75	84.584
528.09	83.787
528.43	86.631
528.78	86.601
529.12	85.161
529.46	85.315
529.80	83.534
530.15	86.403
530.49	85.253
530.83	85.910
531.17	83.479
531.51	87.141
531.86	86.336
532.20	85.804
532.54	85.500
532.88	85.079
533.22	84.341
533.57	84.076
533.91	84.073
534.25	86.458
534.59	83.387
534.93	83.071
535.27	83.566
535.62	83.863
535.96	83.301
536.30	83.707
536.64	85.458
536.98	84.808
537.32	86.060
537.66	85.273
538.01	86.993
538.35	83.911
538.69	84.154
539.03	83.049
539.37	82.773
539.71	83.367
540.05	82.349
540.39	83.934
540.73	84.031
541.07	84.876
541.42	85.215
541.76	83.895
542.10	84.102
542.44	84.781
542.78	83.345
543.12	84.684
543.46	83.380
543.80	84.525
544.14	82.777
544.48	83.544
544.82	83.595
545.16	84.221
545.50	81.642
545.84	84.773
546.18	83.972
546.52	84.787
546.86	83.968
547.20	83.834
547.54	80.141
547.88	81.929
548.22	80.408
548.56	81.266
548.90	82.884
549.24	80.579
549.58	83.498
549.92	82.345
550.26	83.004
550.60	85.056
550.94	82.823
551.28	83.539
551.62	84.923
551.96	84.060
552.30	83.845
552.64	81.735
552.98	82.278
553.32	82.810
553.66	82.729
554.00	85.036
554.34	83.678
554.68	83.260
555.02	83.557
555.36	83.695
555.69	83.004
556.03	81.370
556.37	82.989
556.71	82.599
557.05	83.371
557.39	82.974
557.73	83.508
558.07	84.465
558.41	84.074
558.75	83.320
559.08	84.791
559.42	85.079
559.76	84.708
560.10	83.486
560.44	81.981
560.78	80.629
561.12	82.087
561.45	81.307
561.79	83.964
562.13	81.405
562.47	80.647
562.81	81.988
563.15	82.370
563.48	81.047
563.82	81.949
564.16	81.267
564.50	79.932
564.84	81.191
565.17	81.087
565.51	82.650
565.85	82.030
566.19	82.029
566.52	81.903
566.86	80.656
567.20	78.829
567.54	80.839
567.88	81.664
568.21	79.581
568.55	78.533
568.89	77.567
569.23	77.805
569.56	76.576
569.90	76.492
570.24	74.284
570.57	76.109
570.91	74.381
571.25	73.528
571.59	71.971
571.92	71.496
572.26	72.766
572.60	72.000
572.93	71.698
573.27	71.630
573.61	72.315
573.95	72.010
574.28	71.451
574.62	71.320
574.96	69.983
575.29	70.697
575.63	68.878
575.97	71.022
576.30	70.565
576.64	69.510
576.98	71.042
577.31	71.541
577.65	69.794
577.98	69.780
578.32	68.634
578.66	67.655
578.99	69.209
579.33	68.673
579.67	68.812
580.00	69.367
580.34	69.627
580.67	69.065
581.01	68.324
581.35	68.174
581.68	67.841
582.02	67.921
582.35	67.354
582.69	68.329
583.02	68.596
583.36	68.370
583.70	70.353
584.03	69.725
584.37	71.062
584.70	69.863
585.04	67.798
585.37	67.715
585.71	68.823
586.04	68.180
586.38	68.232
586.72	69.182
587.05	69.151
587.39	68.549
587.72	69.929
588.06	69.001
588.39	68.100
588.73	68.559
589.06	69.896
589.40	69.098
589.73	70.135
590.07	70.582
590.40	70.511
590.73	71.952
591.07	70.102
591.40	70.793
591.74	71.041
592.07	71.660
592.41	70.671
592.74	69.096
593.08	67.028
593.41	67.611
593.75	67.484
594.08	66.186
594.41	67.358
594.75	68.664
595.08	68.521
595.42	68.863
595.75	69.057
596.09	69.468
596.42	68.871
596.75	68.739
597.09	69.112
597.42	68.970
597.75	69.400
598.09	68.221
598.42	69.404
598.76	66.795
599.09	66.987
599.42	65.252
599.76	66.065
600.09	66.478
600.42	65.618
600.76	65.305
601.09	65.840
601.42	66.392
601.76	67.209
602.09	66.460
602.42	68.366
602.76	67.742
603.09	67.359
603.42	68.687
603.76	67.218
604.09	66.788
604.42	66.540
604.76	67.735
605.09	67.413
605.42	67.404
605.75	66.462
606.09	66.837
606.42	65.763
606.75	65.714
607.09	66.242
607.42	66.194
607.75	65.986
608.08	64.780
608.42	65.327
608.75	68.145
609.08	67.414
609.41	67.208
609.75	66.734
610.08	67.000
610.41	65.749
610.74	65.578
611.07	67.494
611.41	67.514
611.74	67.804
612.07	67.184
612.40	66.849
612.73	68.136
613.07	66.760
613.40	66.521
613.73	66.256
614.06	65.832
614.39	66.949
614.72	66.106
615.06	66.201
615.39	64.574
615.72	65.985
616.05	66.145
616.38	64.330
616.71	66.177
617.05	66.337
617.38	66.876
617.71	68.365
618.04	68.762
618.37	66.835
618.70	67.789
619.03	68.472
619.36	68.596
619.69	68.840
620.03	70.562
620.36	67.525
620.69	66.881
621.02	69.266
621.35	68.963
621.68	71.259
622.01	69.250
622.34	70.391
622.67	68.218
623.00	68.989
623.33	67.912
623.66	67.539
623.99	67.549
624.32	67.529
624.65	67.218
624.99	68.096
625.32	66.945
625.65	69.285
625.98	68.815
626.31	68.994
626.64	68.804
626.97	70.419
627.30	70.490
627.63	67.591
627.96	69.811
628.29	70.028
628.62	70.010
628.95	71.643
629.28	71.472
629.61	71.486
629.94	70.186
630.26	68.577
630.59	72.425
630.92	71.385
631.25	69.026
631.58	72.357
631.91	71.162
632.24	70.757
632.57	71.136
632.90	72.716
633.23	72.588
633.56	74.181
633.89	72.873
634.22	73.704
634.55	74.460
634.88	73.563
635.20	73.590
635.53	74.133
635.86	75.033
636.19	73.480
636.52	72.321
636.85	72.457
637.18	70.692
637.51	71.824
637.83	72.405
638.16	74.079
638.49	72.616
638.82	72.895
639.15	72.592
639.48	73.590
639.81	71.548
640.13	72.150
640.46	72.157
640.79	72.165
641.12	72.674
641.45	71.471
641.77	70.370
642.10	73.934
642.43	73.633
642.76	75.743
643.09	74.798
643.41	72.977
643.74	70.511
644.07	73.235
644.40	75.000
644.73	76.532
645.05	71.644
645.38	75.485
645.71	69.326
646.04	75.943
646.36	72.518
646.69	76.978
647.02	77.316
647.35	75.187
647.67	73.492
648.00	74.813
648.33	71.672
648.66	71.525
648.98	69.179
649.31	71.240
649.64	69.074
649.96	68.558
650.29	71.039
650.62	69.744
650.94	72.407
651.27	73.371
651.60	72.072
651.92	72.552
652.25	73.535
652.58	68.667
652.90	72.041
653.23	68.908
653.56	65.482
653.88	66.838
654.21	65.499
654.54	68.421
654.86	67.063
655.19	65.789
655.52	60.294
655.84	50.947
656.17	54.977
656.49	73.755
656.82	76.048
657.15	58.848
657.47	44.604
657.80	33.546
658.13	33.006
658.45	51.701
658.78	52.322
659.10	53.086
659.43	53.743
659.75	55.895
660.08	56.552
660.41	60.674
660.73	64.365
661.06	68.458
661.38	71.233
661.71	65.708
662.03	71.888
662.36	71.209
662.68	71.460
663.01	73.362
663.33	73.782
663.66	69.767
663.98	67.442
664.31	69.083
664.63	67.972
664.96	65.652
665.28	67.329
665.61	67.100
665.93	69.348
666.26	70.716
666.58	66.890
666.91	66.588
667.23	72.170
667.56	72.986
667.88	71.223
668.21	70.644
668.53	69.740
668.86	70.519
669.18	66.509
669.50	65.375
669.83	65.814
670.15	67.832
670.48	70.335
670.80	67.972
671.13	65.548
671.45	66.667
671.77	65.451
672.10	63.762
672.42	62.360
672.75	61.989
673.07	64.401
673.39	64.037
673.72	60.355
674.04	63.958
674.37	66.102
674.69	63.383
675.01	64.444
675.34	65.090
675.66	66.898
675.98	63.415
676.31	66.055
676.63	66.271
676.95	62.273
677.28	68.000
677.60	68.675
677.92	67.202
678.25	64.551
678.57	63.636
678.89	62.395
679.22	63.311
679.54	61.647
679.86	57.058
680.18	59.612
680.51	61.364
680.83	61.034
681.15	57.800
681.48	64.549
681.80	60.950
682.12	58.871
682.44	60.251
682.77	67.108
683.09	62.243
683.41	57.955
683.73	60.829
684.06	61.062
684.38	60.645
684.70	61.656
685.02	59.336
685.34	55.138
685.67	57.411
685.99	55.515
686.31	57.168
686.63	55.473
686.96	57.224
687.28	55.556
687.60	55.703
687.92	57.172
688.24	60.081
688.56	60.262
688.89	60.045
689.21	59.111
689.53	60.789
689.85	58.605
690.17	58.929
690.49	60.757
690.82	58.738
691.14	56.905
691.46	58.411
691.78	57.432
692.10	59.355
692.42	58.225
692.74	57.051
693.06	58.108
693.39	53.394
693.71	57.240
694.03	56.120
694.35	59.112
694.67	63.131
694.99	56.397
695.31	60.313
695.63	56.000
695.95	57.576
696.27	58.031
696.59	58.889
696.91	59.944
697.23	52.185
697.56	56.188
697.88	53.333
698.20	52.620
698.52	57.176
698.84	54.067
699.16	52.750
699.48	56.391
699.80	54.591
700.12	55.256
700.44	59.664
700.76	53.198
701.08	58.182
701.40	56.325
701.72	61.420
702.04	60.066
702.36	61.538
702.68	57.057
703.00	56.061
703.32	56.598
703.64	52.825
703.96	58.841
704.28	58.896
704.60	57.460
704.91	52.681
705.23	59.136
705.55	64.311
705.87	59.567
706.19	60.370
706.51	54.983
706.83	54.341
707.15	52.336
707.47	54.622
707.79	54.427
708.11	51.750
708.43	49.000
708.74	54.264
709.06	58.028
709.38	58.410
709.70	54.734
710.02	52.866
710.34	55.418
710.66	52.885
710.98	55.960
711.29	54.098
711.61	54.576
711.93	55.049
712.25	61.168
712.57	56.044
712.89	55.970
713.20	56.055
713.52	51.220
713.84	50.512
714.16	52.921
714.48	54.194
714.80	54.487
715.11	53.191
715.43	49.530
715.75	51.000
716.07	50.831
716.39	53.356
716.70	52.768
717.02	58.779
717.34	55.870
717.66	57.965
717.97	52.174
718.29	56.904
718.61	53.937
718.93	54.264
719.24	52.471
719.56	53.815
719.88	49.828
720.20	55.682
720.51	44.444
720.83	53.668
721.15	55.462
721.46	56.452
721.78	54.941
722.10	50.186
722.42	54.357
722.73	53.469
723.05	59.184
723.37	56.780
723.68	56.757
724.00	49.573
724.32	50.667
724.63	55.000
724.95	53.275
725.27	55.300
725.58	55.085
725.90	50.000
726.22	49.421
726.53	50.169
726.85	47.940
727.16	53.585
727.48	48.178
727.80	47.368
728.11	48.305
728.43	53.333
728.74	43.548
729.06	48.000
729.38	51.504
729.69	47.410
730.01	48.846
730.32	50.746
730.64	46.996
730.96	51.698
731.27	46.000
731.59	44.407
731.90	45.860
732.22	48.580
732.53	51.827
732.85	46.099
733.16	44.108
733.48	40.647
733.80	48.551
734.11	48.814
734.43	50.515
734.74	46.667
735.06	44.300
735.37	46.828
735.69	48.148
736.00	49.129
736.32	47.315
736.63	50.704
736.95	41.638
737.26	42.349
737.58	44.966
737.89	46.520
738.21	49.624
738.52	53.086
738.83	47.162
739.15	44.541
739.46	43.701
739.78	45.055
740.09	43.137
740.41	44.203
740.72	40.157
741.04	47.773
741.35	42.553
741.66	46.919
741.98	47.959
742.29	46.535
742.61	49.215
742.92	45.498
743.23	47.222
743.55	42.534
743.86	42.584
744.18	48.804
744.49	48.936
744.80	50.543
745.12	54.011
745.43	43.415
745.74	51.042
746.06	49.756
746.37	47.120
746.68	48.341
747.00	44.681
747.31	50.746
747.62	48.544
747.94	49.761
748.25	44.554
748.56	53.552
748.88	53.403
749.19	55.851
749.50	46.798
749.82	39.151
750.13	45.413
750.44	45.865
750.75	45.896
751.07	47.080
751.38	43.678
751.69	46.275
752.01	46.124
752.32	41.833
752.63	44.664
752.94	45.690
753.26	53.556
753.57	44.796
753.88	46.903
754.19	41.667
754.51	42.975
754.82	34.413
755.13	50.417
755.44	43.548
755.75	40.625
756.07	43.580
756.38	43.396
756.69	38.697
757.00	39.333
757.31	42.484
757.63	35.671
757.94	41.111
758.25	38.630
758.56	38.830
758.87	37.394
759.18	41.433
759.50	41.091
759.81	41.472
760.12	44.839
760.43	38.788
760.74	39.815
761.05	38.769
761.36	41.477
761.67	37.576
761.99	40.816
762.30	40.000
762.61	45.059
762.92	45.701
763.23	36.036
763.54	41.121
763.85	39.831
764.16	34.440
764.47	39.113
764.78	34.066
765.10	44.781
765.41	37.855
765.72	39.683
766.03	34.962
766.34	37.226
766.65	42.231
766.96	43.939
767.27	37.234
767.58	40.805
767.89	46.099
768.20	40.909
768.51	38.462
768.82	48.768
769.13	39.631
769.44	33.476
769.75	37.900
770.06	38.793
770.37	37.019
770.68	34.010
770.99	39.819
771.30	44.118
771.61	36.199
771.92	41.379
772.23	39.409
772.54	47.312
772.85	43.210
773.16	44.382
773.47	56.209
773.78	50.980
774.09	39.521
774.39	48.000
774.70	43.949
775.01	47.586
775.32	43.571
775.63	38.017
775.94	48.092
776.25	44.094
776.56	38.333
776.87	39.423
777.18	41.880
777.48	45.690
777.79	37.391
778.10	43.810
778.41	40.541
778.72	46.825
779.03	42.857
779.34	33.333
779.65	44.521
779.95	36.986
780.26	38.621
780.57	33.333
780.88	33.071
781.19	43.966
781.50	37.209
781.80	36.095
782.11	32.704
782.42	42.308
782.73	43.885
783.04	35.556
783.34	33.333
783.65	23.077
783.96	36.066
784.27	36.552
784.57	35.772
784.88	42.969
785.19	47.000
785.50	49.000
785.81	41.379
786.11	35.345
786.42	35.922
786.73	36.364
787.04	35.714
787.34	40.179
787.65	34.286
787.96	46.903
788.26	47.273
788.57	48.718
788.88	42.969
789.19	32.540
789.49	42.609
789.80	43.878
790.11	31.313
790.41	33.636
790.72	31.522
791.03	34.091
791.33	52.500
791.64	42.500
791.95	36.047
792.25	35.106
792.56	47.191
792.87	28.767
793.17	39.130
793.48	32.000
793.79	32.500
794.09	33.750
794.40	38.679
794.70	36.893
795.01	32.520
795.32	25.641
795.62	42.857
795.93	39.216
796.23	42.453
796.54	34.375
796.85	30.882
797.15	38.028
797.46	58.333
797.76	50.000
798.07	27.907
798.37	31.579
798.68	33.333
798.99	48.148
799.29	40.000
799.60	43.478
799.90	45.333
800.21	44.262
800.51	32.308
800.82	64.407
801.12	37.681
801.43	44.262
801.73	41.270
802.04	42.000
802.34	41.791
802.65	55.769
802.95	30.357
803.26	19.231
803.56	39.216
803.87	21.739
804.17	22.667
804.48	44.444
804.78	46.296
805.09	19.565
805.39	44.444
805.70	46.296
806.00	21.053
806.30	42.254
806.61	34.286
806.91	16.667
807.22	38.158
807.52	34.667
807.83	41.818
808.13	38.889
808.43	39.706
808.74	40.299
809.04	44.068
809.35	19.231
809.65	35.938
809.95	37.838
810.26	29.545
810.56	23.288
810.86	30.952
811.17	26.000
811.47	42.857
811.77	28.947
812.08	13.636
812.38	41.509
812.69	25.000
812.99	21.212
813.29	42.105
813.59	25.714
813.90	38.636
814.20	17.949
814.50	19.231
814.81	45.283
815.11	29.787
815.41	54.237
815.72	28.571
816.02	50.980
816.32	22.917
816.62	14.634
816.93	29.730
817.23	17.143
817.53	52.083
817.84	-4.348
818.14	36.538
818.44	26.316
818.74	32.609
819.04	27.500
819.35	35.135
819.65	26.471
819.95	-2.778
820.25	42.857
820.56	32.500
820.86	-6.897
821.16	50.000
821.46	10.638
821.76	47.500
822.07	11.628
822.37	-13.514
822.67	50.000
822.97	71.429
823.27	10.714
823.57	56.000
823.88	33.333
824.18	14.286
824.48	26.471
824.78	32.258
825.08	21.739
825.38	45.455
825.69	0.000
825.99	36.842
826.29	30.556
826.59	46.667
826.89	-4.762
827.19	39.130
827.49	17.500
827.79	28.571
828.09	3.571
828.39	51.515
828.70	59.459
829.00	-3.571
829.30	38.095
829.60	30.000
829.90	12.500
830.20	31.579
830.50	14.815
830.80	0.000
831.10	18.182
831.40	69.697
831.70	32.258
832.00	95.238
832.30	0.000
832.60	108.333
832.90	31.034
833.20	20.000
833.50	30.303
833.80	3.704
834.10	46.154
834.40	34.375
834.70	-77.778
835.00	73.684
835.30	123.077
835.60	33.333
835.90	38.710
836.20	27.273
836.50	35.714
836.80	3.846
837.10	17.857
837.40	-266.667
837.70	36.364
838.00	-9.091
838.30	47.826
838.60	7.692
838.90	72.727
839.19	3.571
839.49	6.667
839.79	38.462
840.09	-50.000
840.39	75.000
840.69	17.857
840.99	26.923
841.29	-21.053
841.59	-150.000
841.88	109.091
842.18	40.000
842.48	81.250
842.78	13.333
843.08	44.444
843.38	-80.000
843.68	43.478
843.97	33.333
844.27	-53.333
844.57	35.000
844.87	11.111
845.17	4.762
845.47	73.333
845.76	19.048
846.06	23.529
846.36	40.000
846.66	50.000
846.96	26.667
847.25	0.000
847.55	28.571
847.85	-62.500
848.15	4.545
848.44	-300.000
848.74	15.000
849.04	55.556
849.34	90.909
849.63	66.667
849.93	60.000
850.23	11.111
850.53	10.000
850.82	-30.769
851.12	11.111
851.42	40.000
851.71	19.231
852.01	50.000
852.31	-250.000
852.61	9.091
852.90	20.000
853.20	36.842
853.50	-8.333
853.79	21.739
854.09	87.500
854.39	21.053
854.68	37.500
854.98	19.355
855.28	65.385
855.57	15.000
855.87	11.111
856.17	55.556
856.46	71.429
856.76	6.667
857.05	133.333
857.35	24.000
857.65	44.444
857.94	15.385
858.24	27.586
858.53	5.556
858.83	18.519
859.13	54.545
859.42	39.130
859.72	0.000
860.01	-33.333
860.31	36.000
860.60	9.524
860.90	-166.667
861.20	26.667
861.49	-600.000
861.79	6.667
862.08	50.000
862.38	106.667
862.67	-40.000
862.97	-133.333
863.26	-16.667
863.56	61.111
863.85	-200.000
864.15	22.222
864.44	20.000
864.74	50.000
865.03	150.000
865.33	-200.000
865.62	16.667
865.92	50.000
866.21	-166.667
866.51	31.250
866.80	-127.273
867.10	-300.000
867.39	116.667
867.69	0.000
867.98	-7.692
868.27	-133.333
868.57	6.667
868.86	55.556
869.16	46.154
869.45	20.000
869.75	-1000.000
870.04	0.000
870.33	57.143
870.63	90.476
870.92	366.667
871.22	-80.000
871.51	-800.000
871.80	-11.111
872.10	100.000
>>>>>End Processed Spectral Data<<<<<
