SpectraSuite Data File
++++++++++++++++++++++++++++++++++++
Date: Fri May 15 20:42:29 PDT 2015
User: schluterlab
Dark Spectrum Present: Yes
Reference Spectrum Present: Yes
Number of Sampled Component Spectra: 1
Spectrometers: USB2E3373
Integration Time (usec): 3000 (USB2E3373)
Spectra Averaged: 3 (USB2E3373)
Boxcar Smoothing: 0 (USB2E3373)
Correct for Electrical Dark: No (USB2E3373)
Strobe/Lamp Enabled: No (USB2E3373)
Correct for Detector Non-linearity: No (USB2E3373)
Correct for Stray Light: No (USB2E3373)
Number of Pixels in Processed Spectrum: 2048
>>>>>Begin Processed Spectral Data<<<<<
178.53	0.000
178.91	0.000
179.29	25.000
179.67	-200.000
180.04	42.857
180.42	-75.000
180.80	-100.000
181.18	133.333
181.56	-50.000
181.94	-200.000
182.31	600.000
182.69	-120.000
183.07	-33.333
183.45	-120.000
183.83	50.000
184.20	9.091
184.58	122.222
184.96	-150.000
185.34	100.000
185.72	-650.000
186.09	23.077
186.47	-900.000
186.85	66.667
187.23	144.444
187.61	200.000
187.98	-333.333
188.36	0.000
188.74	-266.667
189.12	52.941
189.49	38.889
189.87	0.000
190.25	28.571
190.63	800.000
191.00	-66.667
191.38	47.368
191.76	100.000
192.14	-75.000
192.51	250.000
192.89	-77.778
193.27	-42.857
193.65	66.667
194.02	200.000
194.40	10.000
194.78	-100.000
195.15	16.667
195.53	-75.000
195.91	225.000
196.29	-275.000
196.66	61.538
197.04	-14.286
197.42	-11.111
197.79	-600.000
198.17	-76.923
198.55	1800.000
198.92	-200.000
199.30	100.000
199.68	-40.000
200.05	-166.667
200.43	0.000
200.81	100.000
201.18	-166.667
201.56	1000.000
201.94	50.000
202.31	200.000
202.69	-60.000
203.07	225.000
203.44	300.000
203.82	0.000
204.19	100.000
204.57	-300.000
204.95	87.500
205.32	-10.000
205.70	0.000
206.08	0.000
206.45	144.444
206.83	92.857
207.20	-142.857
207.58	600.000
207.96	-466.667
208.33	-90.000
208.71	25.000
209.08	-150.000
209.46	-600.000
209.84	-220.000
210.21	-1100.000
210.59	14.286
210.96	16.667
211.34	-200.000
211.71	66.667
212.09	14.286
212.46	-1000.000
212.84	0.000
213.22	-10.000
213.59	750.000
213.97	23.077
214.34	-18.182
214.72	-16.667
215.09	100.000
215.47	-7.692
215.84	9.091
216.22	-400.000
216.59	112.500
216.97	400.000
217.34	25.000
217.72	-380.000
218.09	37.500
218.47	62.500
218.84	-1300.000
219.22	-100.000
219.59	20.000
219.97	333.333
220.34	350.000
220.72	-14.286
221.09	200.000
221.47	-250.000
221.84	-500.000
222.22	-850.000
222.59	63.636
222.97	8.333
223.34	-66.667
223.72	21.429
224.09	-28.571
224.46	17.857
224.84	300.000
225.21	80.000
225.59	20.000
225.96	0.000
226.34	350.000
226.71	-171.429
227.08	33.333
227.46	37.500
227.83	-650.000
228.21	33.333
228.58	-45.455
228.95	-25.000
229.33	30.000
229.70	62.500
230.08	-37.500
230.45	-128.571
230.82	28.571
231.20	-40.000
231.57	64.286
231.95	57.143
232.32	-110.000
232.69	100.000
233.07	100.000
233.44	100.000
233.81	-80.000
234.19	-22.222
234.56	17.647
234.93	150.000
235.31	150.000
235.68	20.000
236.05	15.385
236.43	20.000
236.80	35.294
237.17	-9.375
237.55	20.000
237.92	-14.815
238.29	13.889
238.67	53.333
239.04	11.765
239.41	21.951
239.79	33.333
240.16	9.756
240.53	18.421
240.91	8.696
241.28	20.635
241.65	32.143
242.02	26.027
242.40	15.000
242.77	16.949
243.14	12.121
243.51	33.750
243.89	32.184
244.26	22.989
244.63	27.381
245.00	19.588
245.38	35.052
245.75	19.101
246.12	22.414
246.49	22.314
246.87	21.154
247.24	26.050
247.61	14.035
247.98	15.447
248.36	21.875
248.73	28.947
249.10	20.779
249.47	21.519
249.84	26.797
250.22	24.118
250.59	24.183
250.96	29.108
251.33	23.256
251.70	27.647
252.08	27.411
252.45	24.752
252.82	22.613
253.19	29.954
253.56	21.495
253.94	27.027
254.31	24.348
254.68	31.579
255.05	25.197
255.42	25.328
255.79	25.483
256.16	22.957
256.54	30.970
256.91	21.673
257.28	24.164
257.65	25.843
258.02	23.404
258.39	28.283
258.76	31.136
259.14	25.914
259.51	22.654
259.88	24.742
260.25	23.529
260.62	24.306
260.99	22.712
261.36	24.315
261.73	22.785
262.10	27.356
262.47	22.086
262.85	24.765
263.22	24.308
263.59	24.611
263.96	27.019
264.33	31.818
264.70	23.214
265.07	25.893
265.44	26.912
265.81	25.141
266.18	26.776
266.55	28.021
266.92	25.648
267.29	24.543
267.66	22.506
268.03	23.037
268.40	26.371
268.77	25.134
269.14	26.619
269.51	24.679
269.88	26.434
270.25	22.704
270.62	24.634
270.99	25.064
271.36	21.027
271.73	24.178
272.10	22.871
272.47	24.823
272.84	20.050
273.21	24.826
273.58	20.000
273.95	21.739
274.32	20.554
274.69	21.719
275.06	25.446
275.43	23.129
275.80	24.724
276.17	25.057
276.54	23.983
276.91	25.000
277.28	22.271
277.65	23.967
278.02	22.128
278.39	22.319
278.76	21.803
279.13	21.369
279.50	25.630
279.87	24.190
280.23	21.935
280.60	24.756
280.97	24.040
281.34	20.769
281.71	24.025
282.08	23.108
282.45	21.918
282.82	22.201
283.19	21.470
283.56	23.699
283.92	21.442
284.29	22.115
284.66	21.318
285.03	21.611
285.40	23.062
285.77	19.684
286.14	22.022
286.51	24.170
286.87	19.927
287.24	21.915
287.61	19.753
287.98	22.807
288.35	20.104
288.72	21.716
289.08	22.743
289.45	21.617
289.82	19.580
290.19	20.990
290.56	20.069
290.93	21.212
291.29	17.720
291.66	19.685
292.03	22.169
292.40	20.161
292.77	18.022
293.13	15.422
293.50	19.575
293.87	20.000
294.24	18.856
294.60	18.927
294.97	18.452
295.34	19.632
295.71	18.778
296.08	18.087
296.44	16.927
296.81	19.444
297.18	17.681
297.55	18.970
297.91	20.137
298.28	17.546
298.65	19.132
299.02	18.464
299.38	15.458
299.75	17.379
300.12	18.063
300.48	17.787
300.85	17.871
301.22	17.273
301.59	18.158
301.95	18.481
302.32	18.158
302.69	17.413
303.05	18.441
303.42	18.057
303.79	17.173
304.15	17.324
304.52	17.717
304.89	17.310
305.25	17.918
305.62	16.103
305.99	16.608
306.35	18.382
306.72	17.773
307.09	17.674
307.45	17.681
307.82	16.898
308.19	17.886
308.55	17.666
308.92	17.756
309.29	18.771
309.65	17.438
310.02	18.592
310.38	18.771
310.75	18.798
311.12	18.730
311.48	19.088
311.85	18.220
312.22	19.304
312.58	18.471
312.95	18.997
313.31	18.427
313.68	19.476
314.05	20.510
314.41	21.546
314.78	19.794
315.14	22.405
315.51	21.118
315.87	21.107
316.24	22.144
316.61	22.539
316.97	23.016
317.34	21.582
317.70	23.040
318.07	22.692
318.43	22.941
318.80	23.485
319.16	23.828
319.53	24.691
319.89	24.508
320.26	23.785
320.62	24.674
320.99	24.426
321.35	24.255
321.72	25.337
322.08	25.680
322.45	25.888
322.81	25.737
323.18	26.006
323.54	25.386
323.91	25.511
324.27	26.562
324.64	27.622
325.00	27.828
325.37	29.385
325.73	27.924
326.10	28.247
326.46	28.700
326.83	29.134
327.19	29.381
327.56	29.800
327.92	29.754
328.29	30.804
328.65	30.943
329.01	30.974
329.38	31.336
329.74	30.500
330.11	30.120
330.47	30.705
330.84	30.192
331.20	32.985
331.56	30.833
331.93	31.689
332.29	32.722
332.66	32.127
333.02	31.970
333.38	30.614
333.75	32.326
334.11	30.170
334.48	32.004
334.84	31.960
335.20	32.662
335.57	31.822
335.93	31.436
336.29	32.413
336.66	32.062
337.02	32.435
337.38	31.019
337.75	31.545
338.11	31.109
338.47	31.752
338.84	33.087
339.20	31.901
339.56	31.743
339.93	31.513
340.29	30.826
340.65	31.810
341.02	32.004
341.38	31.681
341.74	32.332
342.11	31.109
342.47	32.651
342.83	32.180
343.20	31.010
343.56	31.826
343.92	32.241
344.28	31.853
344.65	30.138
345.01	31.634
345.37	30.866
345.73	31.046
346.10	31.320
346.46	31.455
346.82	29.869
347.19	30.923
347.55	31.579
347.91	31.553
348.27	30.639
348.63	30.409
349.00	31.091
349.36	29.177
349.72	31.343
350.08	31.557
350.45	30.806
350.81	31.561
351.17	30.375
351.53	31.265
351.89	31.627
352.26	31.280
352.62	31.613
352.98	30.602
353.34	29.871
353.70	31.958
354.07	30.887
354.43	30.745
354.79	30.306
355.15	30.714
355.51	31.566
355.87	29.531
356.24	30.424
356.60	31.043
356.96	30.952
357.32	29.712
357.68	29.242
358.04	30.856
358.40	30.949
358.77	32.057
359.13	30.024
359.49	30.971
359.85	31.045
360.21	30.383
360.57	31.523
360.93	30.408
361.29	30.740
361.66	31.583
362.02	31.439
362.38	31.302
362.74	31.113
363.10	30.474
363.46	30.912
363.82	31.330
364.18	31.365
364.54	30.588
364.90	31.685
365.26	30.786
365.62	31.314
365.98	31.525
366.35	32.629
366.71	32.446
367.07	32.729
367.43	31.776
367.79	31.166
368.15	30.797
368.51	31.755
368.87	31.228
369.23	31.119
369.59	32.143
369.95	32.038
370.31	32.153
370.67	32.687
371.03	31.217
371.39	31.875
371.75	31.868
372.11	32.454
372.47	33.654
372.83	32.647
373.19	31.812
373.55	32.780
373.91	32.973
374.27	32.034
374.63	32.448
374.99	32.411
375.35	32.521
375.71	33.077
376.07	33.006
376.42	32.925
376.78	33.691
377.14	32.092
377.50	33.267
377.86	32.798
378.22	33.376
378.58	33.269
378.94	33.144
379.30	32.876
379.66	33.730
380.02	33.538
380.38	32.745
380.74	32.675
381.09	34.847
381.45	32.661
381.81	34.238
382.17	32.487
382.53	32.979
382.89	34.087
383.25	34.474
383.61	34.329
383.97	33.016
384.32	33.771
384.68	34.056
385.04	34.988
385.40	34.661
385.76	35.409
386.12	35.511
386.48	35.377
386.83	34.623
387.19	35.104
387.55	35.634
387.91	35.086
388.27	35.409
388.62	34.991
388.98	35.236
389.34	34.603
389.70	35.799
390.06	34.424
390.42	35.233
390.77	36.364
391.13	35.309
391.49	36.028
391.85	36.582
392.20	36.284
392.56	35.474
392.92	35.760
393.28	36.616
393.64	35.556
393.99	36.301
394.35	36.749
394.71	36.973
395.07	35.324
395.42	35.701
395.78	36.417
396.14	37.011
396.50	36.652
396.85	37.476
397.21	36.905
397.57	36.113
397.92	35.770
398.28	37.644
398.64	36.807
399.00	36.738
399.35	36.738
399.71	37.507
400.07	37.969
400.42	36.597
400.78	38.212
401.14	37.750
401.49	37.641
401.85	38.147
402.21	39.337
402.57	38.188
402.92	38.080
403.28	38.095
403.63	37.579
403.99	37.755
404.35	39.038
404.70	36.726
405.06	37.955
405.42	37.974
405.77	38.292
406.13	38.824
406.49	38.247
406.84	39.120
407.20	39.374
407.55	37.798
407.91	38.503
408.27	38.305
408.62	39.569
408.98	38.879
409.34	39.219
409.69	39.147
410.05	39.101
410.40	38.580
410.76	39.505
411.11	39.312
411.47	39.908
411.83	38.481
412.18	39.575
412.54	39.763
412.89	38.855
413.25	40.072
413.60	38.447
413.96	39.018
414.31	39.817
414.67	39.192
415.03	39.148
415.38	38.381
415.74	40.326
416.09	40.562
416.45	39.838
416.80	39.921
417.16	40.953
417.51	40.107
417.87	40.417
418.22	40.933
418.58	40.067
418.93	42.382
419.29	41.101
419.64	41.672
420.00	43.010
420.35	42.328
420.71	41.130
421.06	42.357
421.42	41.587
421.77	42.370
422.12	41.884
422.48	42.231
422.83	42.169
423.19	43.002
423.54	42.446
423.90	42.403
424.25	42.595
424.61	43.696
424.96	42.741
425.31	43.905
425.67	42.606
426.02	44.641
426.38	43.456
426.73	43.341
427.09	46.456
427.44	44.647
427.79	44.726
428.15	45.449
428.50	43.247
428.85	43.059
429.21	44.595
429.56	45.445
429.92	44.530
430.27	43.559
430.62	44.171
430.98	45.011
431.33	45.058
431.68	44.165
432.04	45.500
432.39	44.894
432.74	45.821
433.10	46.322
433.45	45.818
433.80	45.212
434.16	45.374
434.51	45.430
434.86	46.864
435.22	46.831
435.57	47.598
435.92	46.407
436.28	45.379
436.63	46.834
436.98	45.713
437.34	46.219
437.69	48.301
438.04	46.952
438.39	46.915
438.75	47.237
439.10	47.595
439.45	47.352
439.81	46.728
440.16	49.406
440.51	48.418
440.86	50.272
441.22	47.285
441.57	47.958
441.92	48.846
442.27	48.670
442.63	48.555
442.98	49.339
443.33	47.635
443.68	47.851
444.03	48.932
444.39	49.434
444.74	50.111
445.09	49.610
445.44	49.345
445.79	49.613
446.15	48.513
446.50	48.697
446.85	49.522
447.20	49.009
447.55	50.391
447.91	50.141
448.26	49.459
448.61	50.835
448.96	49.857
449.31	50.983
449.66	50.697
450.02	50.257
450.37	50.504
450.72	50.515
451.07	51.076
451.42	51.810
451.77	50.693
452.12	50.060
452.47	50.741
452.83	51.708
453.18	50.474
453.53	50.442
453.88	51.609
454.23	51.137
454.58	52.834
454.93	51.869
455.28	51.619
455.63	52.325
455.98	51.894
456.34	53.193
456.69	52.351
457.04	52.300
457.39	51.154
457.74	52.842
458.09	51.265
458.44	51.726
458.79	52.661
459.14	52.460
459.49	53.015
459.84	52.735
460.19	51.517
460.54	52.934
460.89	52.898
461.24	53.230
461.59	53.266
461.94	51.950
462.29	52.593
462.64	53.953
462.99	54.096
463.34	52.503
463.69	54.311
464.04	54.722
464.39	54.700
464.74	53.006
465.09	54.273
465.44	54.530
465.79	52.098
466.14	53.193
466.49	53.594
466.84	53.837
467.19	55.382
467.54	53.001
467.89	56.033
468.24	54.988
468.59	56.000
468.94	53.651
469.29	55.869
469.64	55.844
469.99	57.533
470.34	55.222
470.68	57.047
471.03	57.749
471.38	57.775
471.73	58.123
472.08	56.784
472.43	57.450
472.78	58.328
473.13	57.483
473.48	56.287
473.83	57.098
474.17	57.060
474.52	56.222
474.87	57.697
475.22	57.657
475.57	56.352
475.92	56.884
476.27	57.392
476.61	58.565
476.96	56.888
477.31	56.787
477.66	57.753
478.01	58.843
478.36	58.388
478.70	58.238
479.05	57.912
479.40	58.029
479.75	57.195
480.10	58.065
480.45	56.850
480.79	59.617
481.14	58.863
481.49	57.143
481.84	57.819
482.19	57.764
482.53	58.273
482.88	57.470
483.23	57.390
483.58	58.868
483.92	58.132
484.27	58.204
484.62	57.822
484.97	57.380
485.31	56.214
485.66	53.627
486.01	52.229
486.36	51.694
486.70	52.577
487.05	53.451
487.40	54.317
487.75	54.789
488.09	55.377
488.44	56.568
488.79	57.303
489.13	58.694
489.48	57.717
489.83	59.103
490.17	59.685
490.52	60.231
490.87	59.648
491.22	60.172
491.56	60.484
491.91	59.799
492.26	61.303
492.60	60.557
492.95	62.273
493.30	59.941
493.64	61.493
493.99	61.594
494.34	60.825
494.68	61.810
495.03	61.119
495.37	61.678
495.72	62.140
496.07	62.488
496.41	60.613
496.76	61.723
497.11	60.503
497.45	61.002
497.80	64.279
498.14	62.146
498.49	63.281
498.84	62.525
499.18	63.052
499.53	63.790
499.87	61.965
500.22	62.364
500.56	62.834
500.91	62.349
501.26	62.679
501.60	62.764
501.95	62.979
502.29	63.196
502.64	63.851
502.98	63.986
503.33	62.008
503.67	62.940
504.02	62.903
504.36	62.642
504.71	63.434
505.06	62.909
505.40	64.061
505.75	64.433
506.09	63.254
506.44	64.682
506.78	64.898
507.13	64.219
507.47	64.021
507.82	64.850
508.16	64.395
508.51	66.055
508.85	64.521
509.19	65.886
509.54	65.201
509.88	64.617
510.23	66.111
510.57	65.526
510.92	65.245
511.26	66.339
511.61	66.612
511.95	65.644
512.30	67.239
512.64	68.781
512.98	67.434
513.33	68.719
513.67	69.244
514.02	67.277
514.36	68.571
514.70	69.347
515.05	69.683
515.39	68.890
515.74	70.299
516.08	70.950
516.42	70.436
516.77	69.982
517.11	71.217
517.46	70.437
517.80	70.918
518.14	71.402
518.49	70.673
518.83	71.689
519.17	71.013
519.52	70.574
519.86	71.489
520.20	71.507
520.55	70.982
520.89	71.895
521.23	71.754
521.58	72.366
521.92	72.692
522.26	72.869
522.61	73.442
522.95	74.238
523.29	72.490
523.64	72.681
523.98	75.373
524.32	74.807
524.66	73.880
525.01	74.156
525.35	73.947
525.69	74.276
526.04	74.008
526.38	75.162
526.72	73.905
527.06	73.217
527.41	74.011
527.75	74.263
528.09	73.090
528.43	74.544
528.78	74.191
529.12	73.871
529.46	74.269
529.80	73.274
530.15	75.776
530.49	74.882
530.83	76.129
531.17	74.748
531.51	75.581
531.86	75.323
532.20	76.131
532.54	75.085
532.88	74.949
533.22	75.067
533.57	72.477
533.91	72.193
534.25	75.130
534.59	74.407
534.93	72.939
535.27	72.843
535.62	74.076
535.96	73.451
536.30	74.011
536.64	74.569
536.98	74.216
537.32	77.383
537.66	76.438
538.01	75.105
538.35	75.243
538.69	73.901
539.03	72.932
539.37	74.428
539.71	73.688
540.05	74.406
540.39	73.823
540.73	75.523
541.07	76.657
541.42	73.723
541.76	75.155
542.10	75.224
542.44	75.956
542.78	73.365
543.12	73.901
543.46	74.409
543.80	75.573
544.14	72.230
544.48	73.751
544.82	74.026
545.16	75.546
545.50	73.164
545.84	74.858
546.18	75.816
546.52	76.136
546.86	75.054
547.20	75.680
547.54	73.216
547.88	74.864
548.22	74.096
548.56	72.296
548.90	73.383
549.24	72.039
549.58	76.023
549.92	74.410
550.26	75.238
550.60	78.439
550.94	76.848
551.28	75.657
551.62	77.769
551.96	75.940
552.30	74.854
552.64	73.766
552.98	74.895
553.32	74.608
553.66	75.327
554.00	75.839
554.34	77.622
554.68	74.631
555.02	77.455
555.36	77.412
555.69	76.850
556.03	74.732
556.37	75.445
556.71	74.440
557.05	76.734
557.39	76.729
557.73	77.136
558.07	77.451
558.41	78.178
558.75	76.072
559.08	77.305
559.42	79.206
559.76	78.783
560.10	75.841
560.44	76.322
560.78	73.077
561.12	74.542
561.45	75.966
561.79	74.300
562.13	76.011
562.47	75.468
562.81	75.072
563.15	74.542
563.48	74.540
563.82	75.086
564.16	75.696
564.50	74.054
564.84	72.825
565.17	73.642
565.51	75.273
565.85	74.074
566.19	73.342
566.52	75.201
566.86	73.715
567.20	71.357
567.54	71.229
567.88	71.705
568.21	70.871
568.55	68.261
568.89	68.789
569.23	68.127
569.56	66.156
569.90	65.692
570.24	62.486
570.57	63.782
570.91	62.008
571.25	60.967
571.59	60.916
571.92	59.437
572.26	59.934
572.60	60.341
572.93	59.962
573.27	59.624
573.61	59.875
573.95	59.858
574.28	58.713
574.62	57.590
574.96	57.866
575.29	57.572
575.63	56.491
575.97	57.604
576.30	58.757
576.64	57.377
576.98	58.147
577.31	58.442
577.65	56.995
577.98	56.572
578.32	55.620
578.66	55.319
578.99	56.715
579.33	56.633
579.67	56.321
580.00	57.342
580.34	56.891
580.67	56.207
581.01	57.445
581.35	55.426
581.68	54.969
582.02	55.588
582.35	55.265
582.69	55.688
583.02	55.181
583.36	56.470
583.70	57.866
584.03	58.326
584.37	58.752
584.70	57.143
585.04	55.984
585.37	56.069
585.71	55.270
586.04	56.808
586.38	57.269
586.72	58.307
587.05	58.463
587.39	58.037
587.72	58.775
588.06	57.957
588.39	58.189
588.73	57.845
589.06	59.295
589.40	59.765
589.73	60.058
590.07	60.574
590.40	60.604
590.73	61.326
591.07	62.214
591.40	62.912
591.74	63.032
592.07	63.312
592.41	62.588
592.74	59.538
593.08	58.645
593.41	58.550
593.75	57.998
594.08	57.741
594.41	58.006
594.75	58.702
595.08	59.743
595.42	58.778
595.75	60.759
596.09	59.656
596.42	59.363
596.75	62.922
597.09	60.957
597.42	61.743
597.75	62.162
598.09	60.480
598.42	61.011
598.76	60.232
599.09	59.175
599.42	56.915
599.76	57.750
600.09	58.522
600.42	58.795
600.76	57.838
601.09	57.443
601.42	57.383
601.76	58.515
602.09	59.571
602.42	59.393
602.76	60.187
603.09	60.091
603.42	61.455
603.76	58.589
604.09	59.417
604.42	60.702
604.76	61.104
605.09	60.146
605.42	60.451
605.75	61.121
606.09	59.236
606.42	59.508
606.75	59.481
607.09	59.077
607.42	59.548
607.75	59.503
608.08	59.344
608.42	59.708
608.75	61.831
609.08	61.584
609.41	61.675
609.75	61.240
610.08	61.608
610.41	59.662
610.74	60.215
611.07	62.171
611.41	62.481
611.74	62.473
612.07	60.974
612.40	62.309
612.73	62.994
613.07	64.173
613.40	62.254
613.73	63.514
614.06	61.714
614.39	64.129
614.72	61.681
615.06	62.849
615.39	60.535
615.72	61.787
616.05	61.955
616.38	61.197
616.71	62.997
617.05	64.917
617.38	63.608
617.71	64.654
618.04	64.444
618.37	64.754
618.70	65.611
619.03	67.153
619.36	66.570
619.69	67.779
620.03	66.983
620.36	66.237
620.69	67.380
621.02	68.196
621.35	71.867
621.68	71.259
622.01	70.250
622.34	68.875
622.67	69.085
623.00	68.453
623.33	67.607
623.66	66.717
623.99	67.398
624.32	67.300
624.65	66.767
624.99	67.720
625.32	66.187
625.65	69.364
625.98	69.944
626.31	70.989
626.64	70.884
626.97	70.855
627.30	70.841
627.63	69.324
627.96	71.788
628.29	74.561
628.62	74.631
628.95	74.048
629.28	75.101
629.61	73.679
629.94	72.043
630.26	74.111
630.59	76.899
630.92	74.872
631.25	73.744
631.58	76.872
631.91	75.877
632.24	77.752
632.57	76.136
632.90	77.936
633.23	78.706
633.56	78.715
633.89	80.641
634.22	81.111
634.55	82.338
634.88	80.204
635.20	81.538
635.53	81.867
635.86	80.624
636.19	80.595
636.52	79.337
636.85	80.149
637.18	76.604
637.51	78.239
637.83	79.369
638.16	81.446
638.49	79.428
638.82	81.316
639.15	79.919
639.48	82.669
639.81	82.008
640.13	82.684
640.46	81.924
640.79	78.645
641.12	81.832
641.45	79.129
641.77	79.407
642.10	82.306
642.43	84.566
642.76	85.314
643.09	84.168
643.41	83.981
643.74	83.196
644.07	85.878
644.40	84.628
644.73	87.916
645.05	82.886
645.38	85.891
645.71	86.348
646.04	88.330
646.36	86.170
646.69	88.309
647.02	93.195
647.35	87.873
647.67	85.923
648.00	90.299
648.33	83.788
648.66	84.407
648.98	79.564
649.31	80.165
649.64	78.493
649.96	77.958
650.29	84.157
650.62	83.077
650.94	87.037
651.27	87.523
651.60	86.126
651.92	82.692
652.25	81.705
652.58	78.167
652.90	84.220
653.23	78.487
653.56	80.203
653.88	79.725
654.21	79.159
654.54	80.306
654.86	79.457
655.19	74.708
655.52	62.074
655.84	46.882
656.17	49.093
656.49	65.732
656.82	67.010
657.15	51.436
657.47	39.102
657.80	29.252
658.13	29.404
658.45	45.653
658.78	46.609
659.10	46.829
659.43	48.029
659.75	51.455
660.08	54.345
660.41	61.491
660.73	68.646
661.06	77.990
661.38	77.886
661.71	80.493
662.03	87.554
662.36	82.637
662.68	86.283
663.01	86.026
663.33	87.935
663.66	83.721
663.98	87.442
664.31	82.303
664.63	83.641
664.96	79.130
665.28	82.340
665.61	83.550
665.93	83.696
666.26	83.948
666.58	83.221
666.91	84.000
667.23	87.028
667.56	88.863
667.88	84.652
668.21	84.487
668.53	86.998
668.86	83.726
669.18	83.491
669.50	88.378
669.83	85.581
670.15	83.683
670.48	84.211
670.80	83.641
671.13	78.747
671.45	79.452
671.77	82.618
672.10	77.426
672.42	75.094
672.75	74.778
673.07	73.703
673.39	75.229
673.72	74.951
674.04	76.250
674.37	77.542
674.69	78.158
675.01	79.111
675.34	79.955
675.66	81.713
675.98	78.271
676.31	80.734
676.63	82.898
676.95	79.091
677.28	80.000
677.60	81.687
677.92	77.523
678.25	78.775
678.57	74.459
678.89	77.101
679.22	79.418
679.54	73.494
679.86	71.173
680.18	70.680
680.51	73.485
680.83	73.360
681.15	74.200
681.48	77.049
681.80	74.174
682.12	71.371
682.44	71.757
682.77	73.068
683.09	71.854
683.41	74.545
683.73	78.571
684.06	74.779
684.38	71.613
684.70	74.074
685.02	71.992
685.34	70.158
685.67	67.917
685.99	66.908
686.31	66.726
686.63	68.089
686.96	65.779
687.28	64.646
687.60	66.920
687.92	71.313
688.24	68.952
688.56	71.179
688.89	74.330
689.21	72.222
689.53	72.854
689.85	71.163
690.17	72.768
690.49	70.213
690.82	72.816
691.14	69.762
691.46	69.159
691.78	72.072
692.10	68.387
692.42	66.017
692.74	70.299
693.06	70.721
693.39	66.516
693.71	65.611
694.03	67.898
694.35	68.458
694.67	71.717
694.99	71.018
695.31	73.890
695.63	70.500
695.95	68.687
696.27	71.762
696.59	73.889
696.91	71.989
697.23	71.979
697.56	71.782
697.88	65.376
698.20	68.793
698.52	65.412
698.84	66.029
699.16	67.750
699.48	67.669
699.80	67.246
700.12	71.698
700.44	71.709
700.76	72.965
701.08	74.848
701.40	71.687
701.72	74.383
702.04	74.917
702.36	81.271
702.68	72.372
703.00	71.515
703.32	71.261
703.64	65.537
703.96	68.986
704.28	70.859
704.60	78.730
704.91	70.347
705.23	71.096
705.55	80.212
705.87	75.451
706.19	76.667
706.51	74.570
706.83	70.740
707.15	71.028
707.47	69.468
707.79	66.406
708.11	63.250
708.43	63.500
708.74	62.274
709.06	69.577
709.38	71.254
709.70	70.414
710.02	70.701
710.34	69.659
710.66	63.782
710.98	69.868
711.29	69.836
711.61	70.169
711.93	66.450
712.25	72.165
712.57	72.894
712.89	73.881
713.20	72.664
713.52	67.944
713.84	66.212
714.16	67.010
714.48	68.710
714.80	65.705
715.11	62.918
715.43	64.890
715.75	65.333
716.07	64.784
716.39	68.456
716.70	66.790
717.02	67.557
717.34	69.231
717.66	76.549
717.97	69.130
718.29	65.690
718.61	72.047
718.93	73.256
719.24	71.863
719.56	72.691
719.88	68.729
720.20	70.455
720.51	62.069
720.83	68.726
721.15	71.008
721.46	70.161
721.78	62.055
722.10	59.851
722.42	68.465
722.73	67.347
723.05	71.429
723.37	73.729
723.68	76.577
724.00	67.949
724.32	67.111
724.63	76.818
724.95	66.376
725.27	72.350
725.58	65.678
725.90	62.302
726.22	59.459
726.53	59.322
726.85	60.300
727.16	64.528
727.48	60.729
727.80	67.206
728.11	65.254
728.43	62.353
728.74	60.484
729.06	62.000
729.38	63.910
729.69	61.355
730.01	63.077
730.32	60.075
730.64	58.657
730.96	60.377
731.27	54.333
731.59	60.000
731.90	52.229
732.22	57.729
732.53	58.804
732.85	56.738
733.16	57.912
733.48	51.079
733.80	60.507
734.11	54.576
734.43	58.419
734.74	53.333
735.06	57.003
735.37	54.683
735.69	58.249
736.00	57.840
736.32	54.362
736.63	55.282
736.95	57.338
737.26	56.940
737.58	50.336
737.89	60.806
738.21	61.278
738.52	62.551
738.83	58.079
739.15	58.079
739.46	56.693
739.78	54.945
740.09	51.634
740.41	53.623
740.72	55.906
741.04	61.134
741.35	59.574
741.66	59.242
741.98	62.755
742.29	61.881
742.61	69.110
742.92	58.294
743.23	55.556
743.55	61.538
743.86	62.679
744.18	60.287
744.49	63.830
744.80	63.043
745.12	73.262
745.43	60.488
745.74	63.542
746.06	68.293
746.37	62.827
746.68	62.085
747.00	64.362
747.31	62.189
747.62	57.282
747.94	65.072
748.25	62.871
748.56	62.842
748.88	61.257
749.19	60.106
749.50	65.025
749.82	53.302
750.13	57.798
750.44	59.774
750.75	55.224
751.07	52.555
751.38	54.789
751.69	52.157
752.01	53.101
752.32	54.582
752.63	54.941
752.94	55.603
753.26	62.343
753.57	56.109
753.88	60.619
754.19	53.333
754.51	48.760
754.82	55.466
755.13	58.750
755.44	52.823
755.75	49.609
756.07	53.307
756.38	51.698
756.69	50.192
757.00	49.667
757.31	50.980
757.63	47.866
757.94	44.722
758.25	45.753
758.56	45.479
758.87	46.459
759.18	48.910
759.50	46.545
759.81	49.164
760.12	48.387
760.43	45.758
760.74	50.309
761.05	47.077
761.36	43.750
761.67	50.000
761.99	47.279
762.30	44.000
762.61	49.407
762.92	47.964
763.23	53.153
763.54	47.664
763.85	52.119
764.16	44.398
764.47	47.581
764.78	48.352
765.10	46.128
765.41	47.003
765.72	42.540
766.03	42.857
766.34	44.526
766.65	50.199
766.96	51.515
767.27	46.809
767.58	46.552
767.89	60.993
768.20	50.568
768.51	56.044
768.82	51.232
769.13	47.005
769.44	51.502
769.75	47.032
770.06	44.397
770.37	47.115
770.68	50.254
770.99	46.154
771.30	56.863
771.61	46.606
771.92	46.983
772.23	47.783
772.54	48.387
772.85	53.086
773.16	41.573
773.47	56.863
773.78	58.170
774.09	52.096
774.39	42.667
774.70	51.592
775.01	53.103
775.32	45.000
775.63	47.107
775.94	52.672
776.25	45.669
776.56	48.333
776.87	63.462
777.18	42.735
777.48	58.621
777.79	44.348
778.10	59.048
778.41	44.144
778.72	49.206
779.03	54.887
779.34	54.610
779.65	56.849
779.95	45.890
780.26	47.586
780.57	39.837
780.88	53.543
781.19	50.000
781.50	43.411
781.80	49.112
782.11	40.252
782.42	48.462
782.73	56.835
783.04	41.481
783.34	43.056
783.65	45.299
783.96	50.000
784.27	49.655
784.57	45.528
784.88	44.531
785.19	62.000
785.50	67.000
785.81	50.000
786.11	52.586
786.42	46.602
786.73	58.182
787.04	62.245
787.34	33.929
787.65	43.810
787.96	43.363
788.26	42.727
788.57	41.026
788.88	52.344
789.19	38.889
789.49	40.000
789.80	44.898
790.11	50.505
790.41	34.545
790.72	47.826
791.03	47.727
791.33	63.750
791.64	47.500
791.95	48.837
792.25	44.681
792.56	64.045
792.87	50.685
793.17	55.072
793.48	60.000
793.79	42.500
794.09	53.750
794.40	35.849
794.70	34.951
795.01	37.398
795.32	38.462
795.62	42.857
795.93	39.216
796.23	45.283
796.54	42.708
796.85	58.824
797.15	42.254
797.46	61.111
797.76	68.182
798.07	47.674
798.37	35.526
798.68	50.000
798.99	37.037
799.29	44.286
799.60	34.783
799.90	68.000
800.21	57.377
800.51	32.308
800.82	50.847
801.12	59.420
801.43	37.705
801.73	57.143
802.04	40.000
802.34	41.791
802.65	57.692
802.95	37.500
803.26	50.000
803.56	47.059
803.87	23.913
804.17	44.000
804.48	52.381
804.78	50.000
805.09	39.130
805.39	33.333
805.70	51.852
806.00	24.561
806.30	33.803
806.61	38.571
806.91	27.778
807.22	56.579
807.52	38.667
807.83	40.000
808.13	44.444
808.43	39.706
808.74	46.269
809.04	37.288
809.35	48.077
809.65	46.875
809.95	37.838
810.26	40.909
810.56	38.356
810.86	42.857
811.17	46.000
811.47	48.980
811.77	26.316
812.08	54.545
812.38	47.170
812.69	27.500
812.99	75.758
813.29	63.158
813.59	45.714
813.90	65.909
814.20	38.462
814.50	34.615
814.81	54.717
815.11	29.787
815.41	40.678
815.72	23.810
816.02	41.176
816.32	39.583
816.62	34.146
816.93	56.757
817.23	51.429
817.53	29.167
817.84	41.304
818.14	40.385
818.44	26.316
818.74	56.522
819.04	10.000
819.35	54.054
819.65	61.765
819.95	30.556
820.25	30.952
820.56	52.500
820.86	20.690
821.16	72.500
821.46	34.043
821.76	67.500
822.07	39.535
822.37	5.405
822.67	59.375
822.97	59.524
823.27	53.571
823.57	48.000
823.88	0.000
824.18	64.286
824.48	11.765
824.78	35.484
825.08	43.478
825.38	39.394
825.69	33.333
825.99	31.579
826.29	19.444
826.59	66.667
826.89	-4.762
827.19	15.217
827.49	47.500
827.79	62.857
828.09	32.143
828.39	48.485
828.70	45.946
829.00	28.571
829.30	80.952
829.60	30.000
829.90	53.125
830.20	47.368
830.50	0.000
830.80	26.087
831.10	109.091
831.40	54.545
831.70	58.065
832.00	57.143
832.30	14.286
832.60	58.333
832.90	24.138
833.20	20.000
833.50	36.364
833.80	22.222
834.10	38.462
834.40	50.000
834.70	11.111
835.00	-21.053
835.30	76.923
835.60	60.000
835.90	32.258
836.20	40.909
836.50	32.143
836.80	-7.692
837.10	39.286
837.40	-133.333
837.70	31.818
838.00	9.091
838.30	30.435
838.60	0.000
838.90	40.909
839.19	35.714
839.49	30.000
839.79	53.846
840.09	-33.333
840.39	60.714
840.69	82.143
840.99	19.231
841.29	31.579
841.59	-10.000
841.88	163.636
842.18	120.000
842.48	56.250
842.78	33.333
843.08	33.333
843.38	-90.000
843.68	26.087
843.97	46.667
844.27	-33.333
844.57	50.000
844.87	16.667
845.17	-19.048
845.47	6.667
845.76	4.762
846.06	23.529
846.36	70.000
846.66	28.571
846.96	26.667
847.25	-112.500
847.55	92.857
847.85	-62.500
848.15	18.182
848.44	-333.333
848.74	25.000
849.04	29.630
849.34	0.000
849.63	100.000
849.93	-120.000
850.23	44.444
850.53	-10.000
850.82	23.077
851.12	33.333
851.42	-26.667
851.71	26.923
852.01	28.571
852.31	-225.000
852.61	27.273
852.90	5.000
853.20	42.105
853.50	-58.333
853.79	73.913
854.09	41.667
854.39	-5.263
854.68	4.167
854.98	48.387
855.28	50.000
855.57	25.000
855.87	-22.222
856.17	25.926
856.46	92.857
856.76	33.333
857.05	100.000
857.35	12.000
857.65	-11.111
857.94	-30.769
858.24	10.345
858.53	44.444
858.83	33.333
859.13	-4.545
859.42	-13.043
859.72	-275.000
860.01	-266.667
860.31	20.000
860.60	57.143
860.90	-166.667
861.20	20.000
861.49	-200.000
861.79	-13.333
862.08	40.000
862.38	20.000
862.67	-180.000
862.97	-166.667
863.26	116.667
863.56	50.000
863.85	-233.333
864.15	16.667
864.44	-60.000
864.74	92.857
865.03	-0.000
865.33	0.000
865.62	166.667
865.92	50.000
866.21	-116.667
866.51	81.250
866.80	-81.818
867.10	-100.000
867.39	116.667
867.69	0.000
867.98	-7.692
868.27	0.000
868.57	66.667
868.86	-61.111
869.16	38.462
869.45	33.333
869.75	-700.000
870.04	0.000
870.33	14.286
870.63	85.714
870.92	533.333
871.22	-40.000
871.51	700.000
871.80	77.778
872.10	400.000
>>>>>End Processed Spectral Data<<<<<
