SpectraSuite Data File
++++++++++++++++++++++++++++++++++++
Date: Fri May 15 21:03:01 PDT 2015
User: schluterlab
Dark Spectrum Present: Yes
Reference Spectrum Present: Yes
Number of Sampled Component Spectra: 1
Spectrometers: USB2E3373
Integration Time (usec): 3000 (USB2E3373)
Spectra Averaged: 3 (USB2E3373)
Boxcar Smoothing: 0 (USB2E3373)
Correct for Electrical Dark: No (USB2E3373)
Strobe/Lamp Enabled: No (USB2E3373)
Correct for Detector Non-linearity: No (USB2E3373)
Correct for Stray Light: No (USB2E3373)
Number of Pixels in Processed Spectrum: 2048
>>>>>Begin Processed Spectral Data<<<<<
178.53	0.000
178.91	0.000
179.29	-25.000
179.67	-550.000
180.04	28.571
180.42	25.000
180.80	-1600.000
181.18	533.333
181.56	950.000
181.94	-50.000
182.31	300.000
182.69	-240.000
183.07	-633.333
183.45	-160.000
183.83	183.333
184.20	-9.091
184.58	100.000
184.96	100.000
185.34	66.667
185.72	-500.000
186.09	123.077
186.47	-300.000
186.85	233.333
187.23	200.000
187.61	-100.000
187.98	-66.667
188.36	33.333
188.74	-233.333
189.12	-35.294
189.49	22.222
189.87	0.000
190.25	0.000
190.63	200.000
191.00	-300.000
191.38	5.263
191.76	400.000
192.14	175.000
192.51	250.000
192.89	-77.778
193.27	-128.571
193.65	150.000
194.02	190.909
194.40	0.000
194.78	-262.500
195.15	-75.000
195.53	-50.000
195.91	400.000
196.29	-25.000
196.66	53.846
197.04	228.571
197.42	-33.333
197.79	-400.000
198.17	-192.308
198.55	800.000
198.92	-233.333
199.30	-1300.000
199.68	-220.000
200.05	-200.000
200.43	0.000
200.81	266.667
201.18	0.000
201.56	1400.000
201.94	-450.000
202.31	33.333
202.69	-240.000
203.07	75.000
203.44	-400.000
203.82	0.000
204.19	-14.286
204.57	-666.667
204.95	125.000
205.32	50.000
205.70	-142.857
206.08	-150.000
206.45	122.222
206.83	50.000
207.20	-114.286
207.58	500.000
207.96	-500.000
208.33	-80.000
208.71	-50.000
209.08	-266.667
209.46	-600.000
209.84	80.000
210.21	-600.000
210.59	57.143
210.96	50.000
211.34	-200.000
211.71	53.333
212.09	42.857
212.46	-1600.000
212.84	0.000
213.22	60.000
213.59	350.000
213.97	30.769
214.34	63.636
214.72	66.667
215.09	525.000
215.47	0.000
215.84	-63.636
216.22	-400.000
216.59	-50.000
216.97	-400.000
217.34	-475.000
217.72	-440.000
218.09	25.000
218.47	250.000
218.84	-1100.000
219.22	-100.000
219.59	-100.000
219.97	233.333
220.34	225.000
220.72	-128.571
221.09	-225.000
221.47	100.000
221.84	-850.000
222.22	-950.000
222.59	-36.364
222.97	0.000
223.34	-533.333
223.72	-71.429
224.09	-23.810
224.46	7.143
224.84	666.667
225.21	-150.000
225.59	20.000
225.96	-400.000
226.34	425.000
226.71	-214.286
227.08	-166.667
227.46	-87.500
227.83	-650.000
228.21	44.444
228.58	36.364
228.95	-75.000
229.33	180.000
229.70	-43.750
230.08	-162.500
230.45	-185.714
230.82	-14.286
231.20	-66.667
231.57	0.000
231.95	-157.143
232.32	-190.000
232.69	-21.429
233.07	-366.667
233.44	-200.000
233.81	-150.000
234.19	0.000
234.56	-23.529
234.93	200.000
235.31	-100.000
235.68	-200.000
236.05	-107.692
236.43	5.000
236.80	5.882
237.17	21.875
237.55	10.000
237.92	-18.519
238.29	30.556
238.67	-13.333
239.04	-11.765
239.41	-21.951
239.79	6.667
240.16	17.073
240.53	-21.053
240.91	-17.391
241.28	6.349
241.65	33.929
242.02	19.178
242.40	23.333
242.77	20.339
243.14	-1.515
243.51	1.250
243.89	20.690
244.26	9.195
244.63	19.048
245.00	12.371
245.38	13.402
245.75	11.236
246.12	18.103
246.49	22.314
246.87	9.615
247.24	16.807
247.61	8.772
247.98	14.634
248.36	13.750
248.73	23.684
249.10	18.831
249.47	20.253
249.84	22.222
250.22	24.706
250.59	21.569
250.96	22.066
251.33	15.698
251.70	27.647
252.08	20.305
252.45	19.802
252.82	18.593
253.19	22.120
253.56	20.561
253.94	22.523
254.31	20.435
254.68	24.123
255.05	18.110
255.42	18.341
255.79	19.691
256.16	20.233
256.54	24.627
256.91	20.913
257.28	24.907
257.65	21.348
258.02	17.021
258.39	18.855
258.76	24.176
259.14	22.591
259.51	22.006
259.88	21.649
260.25	21.569
260.62	22.917
260.99	18.644
261.36	21.918
261.73	17.405
262.10	26.140
262.47	21.166
262.85	21.317
263.22	20.615
263.59	20.249
263.96	25.466
264.33	22.727
264.70	21.429
265.07	25.298
265.44	23.513
265.81	20.904
266.18	25.956
266.55	23.907
266.92	24.352
267.29	21.932
267.66	24.297
268.03	21.466
268.40	23.238
268.77	22.995
269.14	21.583
269.51	24.679
269.88	20.200
270.25	18.878
270.62	22.195
270.99	18.159
271.36	22.983
271.73	21.362
272.10	22.871
272.47	23.404
272.84	19.802
273.21	21.810
273.58	20.723
273.95	23.112
274.32	19.630
274.69	19.457
275.06	21.429
275.43	20.635
275.80	18.985
276.17	18.851
276.54	20.771
276.91	21.053
277.28	23.144
277.65	19.215
278.02	22.553
278.39	19.475
278.76	21.384
279.13	18.050
279.50	20.798
279.87	20.950
280.23	19.355
280.60	21.637
280.97	20.606
281.34	19.808
281.71	22.587
282.08	22.086
282.45	21.135
282.82	20.270
283.19	20.116
283.56	18.882
283.92	20.873
284.29	19.038
284.66	20.736
285.03	20.236
285.40	20.227
285.77	18.453
286.14	19.495
286.51	19.373
286.87	20.293
287.24	21.547
287.61	19.048
287.98	21.053
288.35	19.931
288.72	19.965
289.08	19.792
289.45	20.035
289.82	19.580
290.19	18.771
290.56	20.240
290.93	17.508
291.29	16.641
291.66	20.472
292.03	17.384
292.40	16.935
292.77	16.746
293.13	14.935
293.50	16.844
293.87	14.962
294.24	18.393
294.60	17.139
294.97	17.262
295.34	16.718
295.71	16.841
296.08	15.994
296.44	15.363
296.81	15.278
297.18	16.667
297.55	17.480
297.91	16.164
298.28	17.810
298.65	14.654
299.02	16.846
299.38	12.038
299.75	14.207
300.12	15.969
300.48	13.439
300.85	16.223
301.22	14.935
301.59	15.789
301.95	15.823
302.32	16.342
302.69	15.672
303.05	15.099
303.42	14.321
303.79	14.486
304.15	15.054
304.52	13.555
304.89	12.865
305.25	14.407
305.62	14.002
305.99	13.918
306.35	13.526
306.72	13.836
307.09	15.051
307.45	14.925
307.82	13.310
308.19	13.473
308.55	13.195
308.92	14.815
309.29	13.296
309.65	14.639
310.02	13.861
310.38	14.490
310.75	14.426
311.12	15.393
311.48	13.998
311.85	15.393
312.22	13.819
312.58	14.331
312.95	12.700
313.31	12.836
313.68	14.031
314.05	13.878
314.41	15.258
314.78	12.577
315.14	13.052
315.51	13.561
315.87	13.422
316.24	15.976
316.61	14.764
316.97	15.774
317.34	14.258
317.70	15.296
318.07	14.423
318.43	15.098
318.80	14.583
319.16	15.430
319.53	16.904
319.89	15.453
320.26	15.587
320.62	16.349
320.99	16.910
321.35	16.033
321.72	17.342
322.08	17.925
322.45	17.766
322.81	19.155
323.18	18.253
323.54	18.822
323.91	18.014
324.27	19.141
324.64	20.037
325.00	21.259
325.37	21.855
325.73	20.218
326.10	21.617
326.46	21.883
326.83	23.272
327.19	22.581
327.56	24.500
327.92	24.912
328.29	24.554
328.65	25.283
329.01	25.551
329.38	26.452
329.74	27.479
330.11	26.877
330.47	25.696
330.84	25.962
331.20	28.992
331.56	28.148
331.93	28.767
332.29	28.873
332.66	28.054
333.02	29.368
333.38	27.131
333.75	30.403
334.11	29.633
334.48	29.646
334.84	29.762
335.20	29.369
335.57	28.830
335.93	30.262
336.29	29.374
336.66	29.882
337.02	29.182
337.38	29.167
337.75	30.909
338.11	31.380
338.47	30.839
338.84	30.314
339.20	30.804
339.56	30.275
339.93	30.260
340.29	31.193
340.65	31.093
341.02	31.826
341.38	30.796
341.74	31.095
342.11	29.549
342.47	32.740
342.83	31.142
343.20	30.662
343.56	32.000
343.92	31.709
344.28	32.195
344.65	31.520
345.01	31.979
345.37	32.044
345.73	31.967
346.10	31.838
346.46	32.380
346.82	31.915
347.19	31.172
347.55	32.414
347.91	31.958
348.27	31.285
348.63	32.112
349.00	31.091
349.36	32.668
349.72	33.582
350.08	32.869
350.45	31.923
350.81	31.894
351.17	32.003
351.53	32.653
351.89	32.287
352.26	30.720
352.62	31.855
352.98	32.048
353.34	32.126
353.70	32.929
354.07	31.855
354.43	33.066
354.79	32.948
355.15	33.810
355.51	32.991
355.87	33.172
356.24	31.811
356.60	32.821
356.96	33.095
357.32	32.268
357.68	32.760
358.04	33.683
358.40	32.717
358.77	33.732
359.13	32.746
359.49	31.587
359.85	33.541
360.21	32.775
360.57	32.517
360.93	33.585
361.29	33.082
361.66	33.856
362.02	33.561
362.38	33.359
362.74	35.125
363.10	35.139
363.46	34.322
363.82	35.462
364.18	34.244
364.54	33.603
364.90	34.910
365.26	35.153
365.62	34.234
365.98	34.824
366.35	35.907
366.71	36.142
367.07	35.994
367.43	34.148
367.79	35.618
368.15	35.248
368.51	35.543
368.87	35.032
369.23	35.090
369.59	36.297
369.95	36.950
370.31	35.405
370.67	35.746
371.03	36.893
371.39	35.303
371.75	35.824
372.11	35.663
372.47	37.056
372.83	37.899
373.19	36.519
373.55	36.245
373.91	36.285
374.27	38.271
374.63	38.119
374.99	36.241
375.35	37.047
375.71	38.392
376.07	38.764
376.42	36.531
376.78	38.523
377.14	38.253
377.50	38.645
377.86	37.684
378.22	39.183
378.58	38.269
378.94	39.256
379.30	38.927
379.66	40.439
380.02	39.301
380.38	39.197
380.74	40.036
381.09	41.288
381.45	39.450
381.81	39.667
382.17	39.023
382.53	39.975
382.89	40.866
383.25	41.195
383.61	40.854
383.97	40.571
384.32	41.276
384.68	40.867
385.04	40.196
385.40	41.879
385.76	42.830
386.12	42.755
386.48	43.806
386.83	41.091
387.19	42.857
387.55	42.974
387.91	42.726
388.27	42.247
388.62	43.361
388.98	42.357
389.34	43.535
389.70	43.381
390.06	42.354
390.42	44.430
390.77	43.492
391.13	43.317
391.49	44.631
391.85	45.939
392.20	44.319
392.56	45.010
392.92	44.275
393.28	45.637
393.64	44.925
393.99	45.893
394.35	46.300
394.71	46.552
395.07	45.569
395.42	44.869
395.78	46.580
396.14	46.154
396.50	48.066
396.85	47.135
397.21	47.682
397.57	46.458
397.92	46.135
398.28	47.069
398.64	46.145
399.00	47.686
399.35	45.767
399.71	48.018
400.07	48.005
400.42	47.552
400.78	48.867
401.14	47.973
401.49	48.779
401.85	47.654
402.21	48.855
402.57	49.687
402.92	47.679
403.28	49.624
403.63	48.361
403.99	48.980
404.35	49.032
404.70	48.750
405.06	48.942
405.42	48.104
405.77	47.937
406.13	49.593
406.49	49.497
406.84	49.756
407.20	50.030
407.55	50.741
407.91	50.535
408.27	50.159
408.62	50.585
408.98	49.476
409.34	51.053
409.69	49.483
410.05	49.692
410.40	50.864
410.76	50.483
411.11	51.188
411.47	51.545
411.83	51.287
412.18	52.381
412.54	49.688
412.89	50.677
413.25	51.384
413.60	52.609
413.96	51.166
414.31	51.890
414.67	51.764
415.03	51.864
415.38	51.828
415.74	52.769
416.09	52.057
416.45	52.262
416.80	53.073
417.16	54.282
417.51	53.231
417.87	51.369
418.22	53.238
418.58	52.910
418.93	54.107
419.29	51.729
419.64	53.402
420.00	54.660
420.35	53.493
420.71	54.739
421.06	52.670
421.42	54.026
421.77	54.335
422.12	54.313
422.48	54.683
422.83	54.118
423.19	55.023
423.54	53.851
423.90	54.240
424.25	56.257
424.61	56.120
424.96	56.039
425.31	56.326
425.67	56.338
426.02	57.008
426.38	57.608
426.73	57.203
427.09	56.962
427.44	57.294
427.79	55.745
428.15	56.129
428.50	57.056
428.85	55.651
429.21	57.329
429.56	58.221
429.92	56.446
430.27	56.090
430.62	56.613
430.98	57.059
431.33	57.203
431.68	57.091
432.04	57.686
432.39	56.988
432.74	56.825
433.10	57.816
433.45	58.662
433.80	58.445
434.16	58.006
434.51	58.387
434.86	57.782
435.22	59.563
435.57	59.326
435.92	59.281
436.28	59.213
436.63	59.384
436.98	59.676
437.34	59.226
437.69	60.763
438.04	59.715
438.39	59.866
438.75	59.927
439.10	59.083
439.45	61.960
439.81	59.755
440.16	61.223
440.51	61.134
440.86	63.142
441.22	60.294
441.57	61.976
441.92	61.910
442.27	62.029
442.63	61.831
442.98	62.206
443.33	61.603
443.68	61.645
444.03	61.600
444.39	61.092
444.74	63.489
445.09	63.864
445.44	63.134
445.79	64.363
446.15	63.216
446.50	62.119
446.85	63.603
447.20	64.234
447.55	63.728
447.91	64.129
448.26	64.428
448.61	64.306
448.96	64.429
449.31	63.815
449.66	62.834
450.02	63.833
450.37	65.857
450.72	63.459
451.07	64.684
451.42	64.981
451.77	63.532
452.12	62.321
452.47	64.070
452.83	64.075
453.18	64.769
453.53	65.487
453.88	64.784
454.23	64.413
454.58	65.554
454.93	63.982
455.28	63.492
455.63	65.468
455.98	65.544
456.34	64.943
456.69	65.693
457.04	65.091
457.39	65.492
457.74	65.236
458.09	64.567
458.44	65.535
458.79	65.210
459.14	66.133
459.49	65.254
459.84	65.313
460.19	66.687
460.54	66.381
460.89	66.023
461.24	66.460
461.59	65.261
461.94	65.346
462.29	67.008
462.64	66.512
462.99	66.554
463.34	65.508
463.69	65.187
464.04	66.344
464.39	66.040
464.74	65.521
465.09	65.377
465.44	66.301
465.79	65.136
466.14	64.310
466.49	66.302
466.84	66.627
467.19	65.832
467.54	65.964
467.89	66.582
468.24	66.302
468.59	68.635
468.94	65.079
469.29	67.803
469.64	65.345
469.99	67.484
470.34	66.894
470.68	67.040
471.03	67.799
471.38	68.331
471.73	67.647
472.08	66.214
472.43	67.852
472.78	66.278
473.13	68.095
473.48	67.101
473.83	66.002
474.17	68.070
474.52	67.581
474.87	67.212
475.22	67.297
475.57	66.064
475.92	67.471
476.27	66.822
476.61	66.840
476.96	65.644
477.31	67.117
477.66	67.472
478.01	68.782
478.36	66.340
478.70	66.939
479.05	68.132
479.40	67.674
479.75	65.433
480.10	66.206
480.45	67.100
480.79	68.127
481.14	68.545
481.49	67.980
481.84	67.616
482.19	66.885
482.53	68.969
482.88	67.160
483.23	66.987
483.58	66.887
483.92	66.747
484.27	66.727
484.62	66.472
484.97	67.081
485.31	65.210
485.66	62.466
486.01	62.797
486.36	62.561
486.70	64.486
487.05	66.451
487.40	65.615
487.75	65.944
488.09	66.316
488.44	67.160
488.79	65.895
489.13	67.548
489.48	66.567
489.83	67.623
490.17	66.517
490.52	68.360
490.87	65.248
491.22	67.335
491.56	66.841
491.91	66.539
492.26	68.984
492.60	66.891
492.95	68.716
493.30	66.536
493.64	68.811
493.99	67.778
494.34	67.864
494.68	68.238
495.03	67.835
495.37	68.057
495.72	68.248
496.07	68.293
496.41	67.453
496.76	67.388
497.11	67.583
497.45	68.449
497.80	68.920
498.14	67.263
498.49	68.766
498.84	67.914
499.18	69.177
499.53	68.651
499.87	67.996
500.22	67.458
500.56	69.138
500.91	68.725
501.26	68.413
501.60	68.962
501.95	68.802
502.29	69.153
502.64	69.691
502.98	68.969
503.33	67.579
503.67	68.096
504.02	69.453
504.36	68.580
504.71	68.384
505.06	67.841
505.40	68.122
505.75	70.052
506.09	66.903
506.44	69.969
506.78	69.082
507.13	69.235
507.47	68.773
507.82	69.017
508.16	69.361
508.51	69.045
508.85	69.021
509.19	69.239
509.54	69.759
509.88	68.986
510.23	70.845
510.57	69.909
510.92	69.243
511.26	69.449
511.61	70.572
511.95	68.932
512.30	70.732
512.64	70.673
512.98	70.971
513.33	70.677
513.67	70.097
514.02	71.911
514.36	71.543
514.70	72.844
515.05	73.149
515.39	73.022
515.74	73.772
516.08	71.429
516.42	72.320
516.77	72.616
517.11	73.412
517.46	73.309
517.80	72.229
518.14	72.627
518.49	72.716
518.83	72.783
519.17	71.740
519.52	72.351
519.86	72.389
520.20	74.058
520.55	72.608
520.89	72.208
521.23	73.781
521.58	74.006
521.92	73.462
522.26	73.520
522.61	73.247
522.95	73.709
523.29	72.681
523.64	74.651
523.98	75.762
524.32	72.552
524.66	73.496
525.01	73.442
525.35	74.530
525.69	74.343
526.04	75.066
526.38	76.005
526.72	74.101
527.06	73.281
527.41	74.011
527.75	74.330
528.09	74.950
528.43	75.219
528.78	75.380
529.12	74.968
529.46	74.139
529.80	74.161
530.15	75.314
530.49	75.421
530.83	75.445
531.17	74.748
531.51	75.171
531.86	72.876
532.20	75.296
532.54	74.677
532.88	75.633
533.22	74.664
533.57	73.460
533.91	73.238
534.25	74.479
534.59	72.996
534.93	70.988
535.27	71.637
535.62	72.780
535.96	74.494
536.30	75.000
536.64	74.638
536.98	73.240
537.32	74.467
537.66	76.087
538.01	74.755
538.35	74.827
538.69	73.635
539.03	73.753
539.37	72.678
539.71	72.393
540.05	72.777
540.39	73.546
540.73	74.547
541.07	74.102
541.42	72.849
541.76	73.365
542.10	73.778
542.44	75.400
542.78	72.402
543.12	75.069
543.46	73.713
543.80	73.282
544.14	71.963
544.48	72.152
544.82	74.299
545.16	74.112
545.50	72.096
545.84	73.300
546.18	75.532
546.52	74.189
546.86	72.969
547.20	72.246
547.54	72.509
547.88	73.845
548.22	71.335
548.56	71.834
548.90	73.248
549.24	71.419
549.58	72.849
549.92	71.694
550.26	72.454
550.60	74.275
550.94	74.608
551.28	72.875
551.62	74.308
551.96	73.233
552.30	72.734
552.64	71.932
552.98	72.363
553.32	72.111
553.66	71.626
554.00	72.774
554.34	74.003
554.68	71.681
555.02	72.247
555.36	74.420
555.69	71.209
556.03	71.663
556.37	71.886
556.71	72.058
557.05	73.751
557.39	70.855
557.73	71.889
558.07	73.152
558.41	73.507
558.75	73.344
559.08	72.892
559.42	73.016
559.76	74.219
560.10	73.012
560.44	72.450
560.78	70.000
561.12	72.779
561.45	73.226
561.79	71.919
562.13	71.753
562.47	73.022
562.81	70.749
563.15	70.592
563.48	69.448
563.82	72.478
564.16	72.075
564.50	69.527
564.84	70.415
565.17	71.831
565.51	73.019
565.85	71.331
566.19	70.623
566.52	72.520
566.86	70.758
567.20	69.614
567.54	70.985
567.88	70.533
568.21	70.419
568.55	69.565
568.89	68.480
569.23	68.657
569.56	68.214
569.90	67.763
570.24	65.389
570.57	66.727
570.91	67.863
571.25	64.979
571.59	64.808
571.92	63.496
572.26	65.097
572.60	64.868
572.93	64.857
573.27	64.451
573.61	64.827
573.95	64.200
574.28	63.321
574.62	63.412
574.96	62.503
575.29	63.226
575.63	62.166
575.97	63.242
576.30	63.874
576.64	61.801
576.98	64.530
577.31	63.234
577.65	63.028
577.98	61.708
578.32	61.251
578.66	61.272
578.99	62.237
579.33	62.228
579.67	62.200
580.00	62.937
580.34	62.338
580.67	61.795
581.01	62.656
581.35	61.649
581.68	61.700
582.02	60.745
582.35	61.876
582.69	61.862
583.02	62.209
583.36	62.101
583.70	63.110
584.03	64.999
584.37	64.399
584.70	63.077
585.04	61.684
585.37	61.720
585.71	61.886
586.04	61.876
586.38	62.363
586.72	62.755
587.05	63.345
587.39	62.455
587.72	62.931
588.06	62.303
588.39	62.432
588.73	62.851
589.06	64.253
589.40	63.394
589.73	63.746
590.07	63.935
590.40	64.087
590.73	65.568
591.07	64.419
591.40	65.583
591.74	64.118
592.07	65.584
592.41	64.885
592.74	63.321
593.08	60.217
593.41	61.450
593.75	62.120
594.08	61.483
594.41	61.572
594.75	62.786
595.08	63.526
595.42	63.673
595.75	63.312
596.09	63.487
596.42	64.076
596.75	64.254
597.09	63.872
597.42	63.640
597.75	64.453
598.09	62.155
598.42	62.951
598.76	60.918
599.09	61.298
599.42	60.629
599.76	60.835
600.09	60.973
600.42	61.031
600.76	59.733
601.09	61.069
601.42	60.517
601.76	60.421
602.09	62.129
602.42	62.511
602.76	62.224
603.09	61.919
603.42	63.085
603.76	60.887
604.09	62.211
604.42	61.591
604.76	63.596
605.09	62.020
605.42	61.580
605.75	61.909
606.09	61.146
606.42	60.259
606.75	59.913
607.09	60.484
607.42	60.656
607.75	59.725
608.08	59.973
608.42	59.616
608.75	62.795
609.08	61.684
609.41	61.472
609.75	61.290
610.08	61.008
610.41	59.758
610.74	61.482
611.07	61.240
611.41	62.429
611.74	62.154
612.07	60.011
612.40	62.746
612.73	61.356
613.07	60.855
613.40	62.691
613.73	61.108
614.06	61.046
614.39	61.929
614.72	59.608
615.06	61.341
615.39	58.843
615.72	59.634
616.05	60.950
616.38	60.513
616.71	61.957
617.05	61.581
617.38	61.345
617.71	61.761
618.04	62.540
618.37	62.295
618.70	61.716
619.03	63.194
619.36	62.012
619.69	62.775
620.03	63.039
620.36	62.589
620.69	62.099
621.02	62.003
621.35	65.228
621.68	63.435
622.01	61.667
622.34	63.049
622.67	62.697
623.00	62.175
623.33	62.348
623.66	62.154
623.99	60.136
624.32	63.574
624.65	61.955
624.99	62.980
625.32	62.320
625.65	62.529
625.98	64.464
626.31	61.762
626.64	63.172
626.97	63.525
627.30	62.785
627.63	63.258
627.96	64.151
628.29	63.922
628.62	62.439
628.95	63.026
629.28	64.516
629.61	63.908
629.94	63.539
630.26	62.549
630.59	65.765
630.92	65.436
631.25	62.256
631.58	64.097
631.91	63.487
632.24	64.564
632.57	65.341
632.90	63.345
633.23	65.529
633.56	66.877
633.89	67.324
634.22	66.914
634.55	66.201
634.88	65.517
635.20	63.846
635.53	65.600
635.86	64.889
636.19	65.589
636.52	66.582
636.85	64.268
637.18	64.277
637.51	64.403
637.83	63.863
638.16	64.939
638.49	66.076
638.82	65.132
639.15	65.265
639.48	64.649
639.81	67.364
640.13	66.089
640.46	65.889
640.79	62.445
641.12	63.220
641.45	64.865
641.77	63.704
642.10	65.245
642.43	62.540
642.76	67.492
643.09	65.267
643.41	64.887
643.74	64.415
644.07	64.532
644.40	66.554
644.73	62.697
645.05	64.262
645.38	65.256
645.71	66.844
646.04	68.043
646.36	66.489
646.69	66.367
647.02	65.595
647.35	65.672
647.67	64.717
648.00	67.910
648.33	64.505
648.66	62.203
648.98	63.149
649.31	63.306
649.64	62.323
649.96	61.102
650.29	64.906
650.62	62.051
650.94	63.333
651.27	65.922
651.60	65.045
651.92	63.112
652.25	63.055
652.58	61.667
652.90	65.180
653.23	62.017
653.56	63.283
653.88	63.230
654.21	59.720
654.54	61.800
654.86	60.441
655.19	59.649
655.52	57.817
655.84	49.145
656.17	53.121
656.49	70.984
656.82	73.714
657.15	57.033
657.47	43.855
657.80	33.197
658.13	32.763
658.45	50.925
658.78	51.463
659.10	51.431
659.43	52.658
659.75	53.675
660.08	54.552
660.41	56.282
660.73	58.702
661.06	62.045
661.38	61.840
661.71	58.932
662.03	63.948
662.36	62.857
662.68	60.841
663.01	62.009
663.33	61.021
663.66	63.256
663.98	58.140
664.31	61.407
664.63	62.673
664.96	57.391
665.28	58.720
665.61	59.091
665.93	59.348
666.26	60.087
666.58	59.508
666.91	62.588
667.23	64.623
667.56	61.137
667.88	61.391
668.21	63.723
668.53	60.993
668.86	59.670
669.18	62.972
669.50	60.048
669.83	60.930
670.15	60.373
670.48	61.005
670.80	57.604
671.13	58.389
671.45	56.164
671.77	60.515
672.10	57.228
672.42	55.243
672.75	57.016
673.07	57.603
673.39	57.798
673.72	54.241
674.04	57.917
674.37	58.898
674.69	55.675
675.01	60.667
675.34	59.234
675.66	60.417
675.98	57.206
676.31	58.486
676.63	58.670
676.95	57.045
677.28	59.294
677.60	61.928
677.92	57.569
678.25	59.737
678.57	56.277
678.89	55.882
679.22	59.284
679.54	55.020
679.86	54.076
680.18	54.369
680.51	57.197
680.83	54.274
681.15	55.000
681.48	58.402
681.80	56.405
682.12	52.823
682.44	55.858
682.77	54.967
683.09	56.293
683.41	55.682
683.73	55.760
684.06	53.982
684.38	50.108
684.70	55.338
685.02	52.905
685.34	52.569
685.67	54.221
685.99	50.814
686.31	51.150
686.63	50.835
686.96	50.000
687.28	50.909
687.60	50.000
687.92	54.343
688.24	50.202
688.56	52.402
688.89	57.366
689.21	56.000
689.53	54.292
689.85	51.395
690.17	50.893
690.49	53.428
690.82	53.398
691.14	50.476
691.46	53.271
691.78	52.252
692.10	52.258
692.42	53.896
692.74	49.786
693.06	48.649
693.39	50.000
693.71	50.226
694.03	54.042
694.35	53.271
694.67	51.010
694.99	51.697
695.31	50.131
695.63	51.250
695.95	51.010
696.27	48.964
696.59	52.778
696.91	48.179
697.23	45.758
697.56	51.733
697.88	54.194
698.20	49.203
698.52	52.471
698.84	50.957
699.16	48.750
699.48	48.120
699.80	47.891
700.12	51.482
700.44	51.541
700.76	45.349
701.08	49.091
701.40	49.096
701.72	55.556
702.04	55.116
702.36	53.846
702.68	50.450
703.00	53.030
703.32	48.680
703.64	44.068
703.96	47.246
704.28	55.828
704.60	48.889
704.91	45.110
705.23	56.146
705.55	48.763
705.87	55.235
706.19	50.000
706.51	50.515
706.83	49.518
707.15	45.171
707.47	51.821
707.79	46.615
708.11	49.250
708.43	48.250
708.74	48.062
709.06	51.268
709.38	51.070
709.70	49.704
710.02	49.363
710.34	51.393
710.66	47.436
710.98	47.020
711.29	48.197
711.61	51.186
711.93	48.534
712.25	51.546
712.57	47.985
712.89	51.866
713.20	52.595
713.52	49.826
713.84	50.171
714.16	50.172
714.48	45.484
714.80	50.641
715.11	44.073
715.43	43.887
715.75	42.667
716.07	46.179
716.39	47.651
716.70	46.125
717.02	42.366
717.34	48.583
717.66	50.000
717.97	48.696
718.29	46.025
718.61	44.882
718.93	45.349
719.24	45.627
719.56	44.980
719.88	43.986
720.20	45.455
720.51	42.529
720.83	44.402
721.15	44.958
721.46	43.145
721.78	43.478
722.10	44.610
722.42	44.398
722.73	44.898
723.05	50.204
723.37	44.068
723.68	46.396
724.00	50.000
724.32	44.000
724.63	44.545
724.95	41.921
725.27	44.240
725.58	45.763
725.90	43.254
726.22	43.629
726.53	42.373
726.85	43.820
727.16	47.925
727.48	40.891
727.80	43.320
728.11	42.373
728.43	31.373
728.74	39.516
729.06	47.200
729.38	43.609
729.69	40.637
730.01	38.846
730.32	42.164
730.64	44.170
730.96	43.774
731.27	43.333
731.59	43.390
731.90	39.490
732.22	41.956
732.53	45.183
732.85	40.426
733.16	44.444
733.48	38.849
733.80	38.043
734.11	38.644
734.43	42.612
734.74	40.606
735.06	41.042
735.37	39.577
735.69	41.414
736.00	40.767
736.32	38.591
736.63	42.254
736.95	43.686
737.26	42.349
737.58	39.262
737.89	42.491
738.21	39.098
738.52	41.564
738.83	38.865
739.15	45.415
739.46	41.339
739.78	37.363
740.09	36.928
740.41	39.855
740.72	37.008
741.04	43.725
741.35	35.745
741.66	41.706
741.98	40.816
742.29	41.089
742.61	37.173
742.92	30.332
743.23	38.426
743.55	41.629
743.86	33.493
744.18	42.105
744.49	38.830
744.80	39.130
745.12	49.198
745.43	36.585
745.74	44.271
746.06	39.024
746.37	43.979
746.68	43.602
747.00	37.766
747.31	41.791
747.62	40.291
747.94	41.627
748.25	37.129
748.56	48.087
748.88	44.503
749.19	43.085
749.50	41.872
749.82	35.849
750.13	34.862
750.44	42.857
750.75	37.313
751.07	39.781
751.38	38.314
751.69	40.000
752.01	41.085
752.32	39.044
752.63	38.340
752.94	34.483
753.26	40.167
753.57	35.294
753.88	38.053
754.19	37.083
754.51	34.298
754.82	34.818
755.13	35.833
755.44	37.500
755.75	37.500
756.07	36.187
756.38	34.717
756.69	36.398
757.00	36.333
757.31	35.948
757.63	35.671
757.94	35.278
758.25	32.603
758.56	32.713
758.87	31.728
759.18	37.695
759.50	33.818
759.81	33.445
760.12	34.194
760.43	35.152
760.74	32.407
761.05	36.308
761.36	34.375
761.67	36.970
761.99	35.714
762.30	31.636
762.61	33.992
762.92	35.747
763.23	36.937
763.54	31.308
763.85	35.593
764.16	35.270
764.47	32.661
764.78	39.194
765.10	37.037
765.41	33.123
765.72	34.286
766.03	30.827
766.34	34.307
766.65	38.645
766.96	39.899
767.27	38.298
767.58	36.782
767.89	31.206
768.20	31.818
768.51	37.912
768.82	34.483
769.13	27.650
769.44	33.476
769.75	30.137
770.06	36.207
770.37	34.615
770.68	32.487
770.99	31.674
771.30	38.725
771.61	32.579
771.92	34.914
772.23	33.498
772.54	40.323
772.85	34.568
773.16	34.270
773.47	43.137
773.78	38.562
774.09	33.533
774.39	32.667
774.70	41.401
775.01	44.138
775.32	33.571
775.63	26.446
775.94	29.771
776.25	32.283
776.56	35.000
776.87	25.000
777.18	27.350
777.48	26.724
777.79	36.522
778.10	35.238
778.41	30.631
778.72	25.397
779.03	36.090
779.34	39.716
779.65	37.671
779.95	32.192
780.26	29.655
780.57	30.081
780.88	35.433
781.19	36.207
781.50	35.659
781.80	30.178
782.11	30.818
782.42	40.000
782.73	31.655
783.04	25.185
783.34	29.167
783.65	19.658
783.96	27.049
784.27	28.966
784.57	29.268
784.88	33.594
785.19	42.000
785.50	30.000
785.81	29.310
786.11	28.448
786.42	30.097
786.73	44.545
787.04	36.735
787.34	30.357
787.65	34.286
787.96	30.088
788.26	36.364
788.57	25.641
788.88	35.156
789.19	17.460
789.49	20.870
789.80	20.408
790.11	29.293
790.41	22.727
790.72	22.826
791.03	37.500
791.33	43.750
791.64	20.000
791.95	15.116
792.25	25.532
792.56	29.213
792.87	16.438
793.17	31.884
793.48	17.333
793.79	18.750
794.09	35.000
794.40	22.642
794.70	14.563
795.01	25.203
795.32	29.915
795.62	23.810
795.93	26.471
796.23	32.075
796.54	34.375
796.85	23.529
797.15	8.451
797.46	30.556
797.76	25.758
798.07	33.721
798.37	26.316
798.68	28.788
798.99	27.160
799.29	27.143
799.60	37.681
799.90	30.667
800.21	29.508
800.51	15.385
800.82	25.424
801.12	30.435
801.43	29.508
801.73	25.397
802.04	34.000
802.34	29.851
802.65	32.692
802.95	16.071
803.26	25.000
803.56	17.647
803.87	17.391
804.17	36.000
804.48	39.683
804.78	16.667
805.09	23.913
805.39	6.667
805.70	18.519
806.00	12.281
806.30	19.718
806.61	25.714
806.91	20.833
807.22	34.211
807.52	24.000
807.83	10.909
808.13	25.000
808.43	27.941
808.74	19.403
809.04	16.949
809.35	7.692
809.65	29.688
809.95	2.703
810.26	2.273
810.56	21.918
810.86	14.286
811.17	24.000
811.47	38.776
811.77	0.000
812.08	13.636
812.38	28.302
812.69	20.000
812.99	-9.091
813.29	21.053
813.59	-8.571
813.90	11.364
814.20	2.564
814.50	25.000
814.81	22.642
815.11	19.149
815.41	35.593
815.72	30.952
816.02	19.608
816.32	4.167
816.62	21.951
816.93	13.514
817.23	25.714
817.53	31.250
817.84	4.348
818.14	25.000
818.44	2.632
818.74	19.565
819.04	-15.000
819.35	10.811
819.65	-20.588
819.95	8.333
820.25	9.524
820.56	10.000
820.86	-13.793
821.16	45.000
821.46	21.277
821.76	32.500
822.07	23.256
822.37	-10.811
822.67	-12.500
822.97	42.857
823.27	-14.286
823.57	-16.000
823.88	0.000
824.18	-14.286
824.48	41.176
824.78	3.226
825.08	-8.696
825.38	18.182
825.69	4.167
825.99	-18.421
826.29	8.333
826.59	-13.333
826.89	-33.333
827.19	8.696
827.49	15.000
827.79	8.571
828.09	10.714
828.39	6.061
828.70	45.946
829.00	32.143
829.30	-42.857
829.60	20.000
829.90	0.000
830.20	-18.421
830.50	-14.815
830.80	21.739
831.10	0.000
831.40	42.424
831.70	35.484
832.00	38.095
832.30	-28.571
832.60	-50.000
832.90	17.241
833.20	-30.000
833.50	36.364
833.80	22.222
834.10	0.000
834.40	37.500
834.70	-22.222
835.00	21.053
835.30	34.615
835.60	13.333
835.90	19.355
836.20	27.273
836.50	0.000
836.80	-23.077
837.10	17.857
837.40	-266.667
837.70	-27.273
838.00	-72.727
838.30	34.783
838.60	30.769
838.90	4.545
839.19	25.000
839.49	33.333
839.79	-61.538
840.09	-58.333
840.39	25.000
840.69	3.571
840.99	-34.615
841.29	0.000
841.59	-50.000
841.88	-27.273
842.18	0.000
842.48	12.500
842.78	-13.333
843.08	22.222
843.38	-90.000
843.68	-17.391
843.97	-46.667
844.27	-93.333
844.57	-35.000
844.87	-50.000
845.17	19.048
845.47	33.333
845.76	-19.048
846.06	17.647
846.36	-50.000
846.66	-35.714
846.96	-13.333
847.25	-50.000
847.55	-21.429
847.85	-112.500
848.15	-36.364
848.44	-600.000
848.74	0.000
849.04	25.926
849.34	-72.727
849.63	-216.667
849.93	-240.000
850.23	0.000
850.53	0.000
850.82	-61.538
851.12	-22.222
851.42	33.333
851.71	-19.231
852.01	-7.143
852.31	-275.000
852.61	-63.636
852.90	-20.000
853.20	-10.526
853.50	-25.000
853.79	17.391
854.09	-4.167
854.39	-5.263
854.68	4.167
854.98	19.355
855.28	19.231
855.57	0.000
855.87	5.556
856.17	7.407
856.46	35.714
856.76	-33.333
857.05	-22.222
857.35	12.000
857.65	16.667
857.94	-130.769
858.24	34.483
858.53	-5.556
858.83	25.926
859.13	18.182
859.42	-17.391
859.72	-125.000
860.01	-566.667
860.31	8.000
860.60	-14.286
860.90	-466.667
861.20	-20.000
861.49	-700.000
861.79	-20.000
862.08	-5.000
862.38	40.000
862.67	-360.000
862.97	-116.667
863.26	-16.667
863.56	22.222
863.85	-366.667
864.15	5.556
864.44	0.000
864.74	21.429
865.03	425.000
865.33	-220.000
865.62	-166.667
865.92	-33.333
866.21	-183.333
866.51	-12.500
866.80	-118.182
867.10	-300.000
867.39	66.667
867.69	0.000
867.98	0.000
868.27	-300.000
868.57	-26.667
868.86	16.667
869.16	-61.538
869.45	-40.000
869.75	-800.000
870.04	0.000
870.33	-157.143
870.63	19.048
870.92	400.000
871.22	-200.000
871.51	-1600.000
871.80	-77.778
872.10	833.333
>>>>>End Processed Spectral Data<<<<<
