SpectraSuite Data File
++++++++++++++++++++++++++++++++++++
Date: Fri May 15 20:51:14 PDT 2015
User: schluterlab
Dark Spectrum Present: Yes
Reference Spectrum Present: Yes
Number of Sampled Component Spectra: 1
Spectrometers: USB2E3373
Integration Time (usec): 3000 (USB2E3373)
Spectra Averaged: 3 (USB2E3373)
Boxcar Smoothing: 0 (USB2E3373)
Correct for Electrical Dark: No (USB2E3373)
Strobe/Lamp Enabled: No (USB2E3373)
Correct for Detector Non-linearity: No (USB2E3373)
Correct for Stray Light: No (USB2E3373)
Number of Pixels in Processed Spectrum: 2048
>>>>>Begin Processed Spectral Data<<<<<
178.53	0.000
178.91	0.000
179.29	187.500
179.67	-300.000
180.04	85.714
180.42	50.000
180.80	-200.000
181.18	-100.000
181.56	250.000
181.94	200.000
182.31	300.000
182.69	160.000
183.07	-333.333
183.45	-240.000
183.83	233.333
184.20	-27.273
184.58	200.000
184.96	75.000
185.34	266.667
185.72	-550.000
186.09	100.000
186.47	0.000
186.85	166.667
187.23	111.111
187.61	300.000
187.98	-233.333
188.36	0.000
188.74	-166.667
189.12	-5.882
189.49	11.111
189.87	0.000
190.25	57.143
190.63	-150.000
191.00	-266.667
191.38	-21.053
191.76	-150.000
192.14	75.000
192.51	-250.000
192.89	44.444
193.27	-28.571
193.65	216.667
194.02	181.818
194.40	0.000
194.78	-162.500
195.15	-58.333
195.53	-150.000
195.91	325.000
196.29	-125.000
196.66	115.385
197.04	-14.286
197.42	-22.222
197.79	-333.333
198.17	-100.000
198.55	1200.000
198.92	-233.333
199.30	-100.000
199.68	-80.000
200.05	-533.333
200.43	0.000
200.81	-33.333
201.18	-66.667
201.56	700.000
201.94	-150.000
202.31	200.000
202.69	-140.000
203.07	450.000
203.44	-1200.000
203.82	0.000
204.19	-7.143
204.57	-533.333
204.95	87.500
205.32	-50.000
205.70	0.000
206.08	-25.000
206.45	122.222
206.83	35.714
207.20	-142.857
207.58	1100.000
207.96	-166.667
208.33	-110.000
208.71	-75.000
209.08	-50.000
209.46	-700.000
209.84	-220.000
210.21	-1100.000
210.59	-114.286
210.96	-83.333
211.34	-50.000
211.71	40.000
212.09	-57.143
212.46	-1500.000
212.84	0.000
213.22	40.000
213.59	250.000
213.97	38.462
214.34	-45.455
214.72	-166.667
215.09	375.000
215.47	-61.538
215.84	-145.455
216.22	-300.000
216.59	-75.000
216.97	-150.000
217.34	75.000
217.72	-60.000
218.09	0.000
218.47	75.000
218.84	-300.000
219.22	-77.778
219.59	-400.000
219.97	100.000
220.34	125.000
220.72	28.571
221.09	-200.000
221.47	-300.000
221.84	-850.000
222.22	-450.000
222.59	63.636
222.97	33.333
223.34	166.667
223.72	-7.143
224.09	4.762
224.46	21.429
224.84	500.000
225.21	10.000
225.59	-40.000
225.96	-450.000
226.34	400.000
226.71	-71.429
227.08	50.000
227.46	-12.500
227.83	-400.000
228.21	-44.444
228.58	18.182
228.95	-50.000
229.33	130.000
229.70	-18.750
230.08	-237.500
230.45	-42.857
230.82	-28.571
231.20	-26.667
231.57	42.857
231.95	100.000
232.32	-70.000
232.69	35.714
233.07	-100.000
233.44	-60.000
233.81	-100.000
234.19	55.556
234.56	-64.706
234.93	650.000
235.31	100.000
235.68	-200.000
236.05	-15.385
236.43	-5.000
236.80	-29.412
237.17	15.625
237.55	20.000
237.92	-14.815
238.29	0.000
238.67	10.000
239.04	11.765
239.41	-53.659
239.79	6.667
240.16	34.146
240.53	-7.895
240.91	17.391
241.28	30.159
241.65	35.714
242.02	19.178
242.40	40.000
242.77	37.288
243.14	18.182
243.51	26.250
243.89	33.333
244.26	11.494
244.63	33.333
245.00	27.835
245.38	31.959
245.75	14.607
246.12	12.069
246.49	25.620
246.87	37.500
247.24	30.252
247.61	22.807
247.98	21.138
248.36	25.625
248.73	23.684
249.10	25.974
249.47	24.051
249.84	23.529
250.22	24.706
250.59	29.412
250.96	26.761
251.33	17.442
251.70	32.353
252.08	25.888
252.45	21.287
252.82	24.623
253.19	27.189
253.56	20.093
253.94	28.378
254.31	23.043
254.68	25.000
255.05	27.165
255.42	27.511
255.79	26.641
256.16	25.681
256.54	26.866
256.91	26.616
257.28	23.792
257.65	23.221
258.02	25.177
258.39	26.263
258.76	33.333
259.14	28.904
259.51	24.919
259.88	27.835
260.25	26.471
260.62	30.556
260.99	24.068
261.36	26.712
261.73	24.051
262.10	27.052
262.47	24.233
262.85	22.884
263.22	28.000
263.59	27.414
263.96	28.261
264.33	27.576
264.70	26.190
265.07	25.893
265.44	27.762
265.81	26.836
266.18	26.503
266.55	26.478
266.92	26.684
267.29	28.982
267.66	26.087
268.03	25.916
268.40	24.021
268.77	29.144
269.14	27.578
269.51	28.535
269.88	27.930
270.25	23.724
270.62	23.415
270.99	27.366
271.36	25.917
271.73	28.404
272.10	28.954
272.47	25.296
272.84	25.495
273.21	27.842
273.58	27.229
273.95	26.316
274.32	26.328
274.69	23.303
275.06	27.009
275.43	26.984
275.80	25.607
276.17	28.046
276.54	25.696
276.91	26.754
277.28	23.362
277.65	27.479
278.02	23.830
278.39	26.696
278.76	25.577
279.13	23.651
279.50	27.941
279.87	25.918
280.23	24.946
280.60	25.341
280.97	26.869
281.34	23.077
281.71	27.515
282.08	24.335
282.45	22.309
282.82	24.903
283.19	26.499
283.56	25.626
283.92	23.150
284.29	24.808
284.66	24.806
285.03	23.183
285.40	23.062
285.77	23.199
286.14	24.729
286.51	26.199
286.87	22.303
287.24	25.414
287.61	21.517
287.98	24.211
288.35	23.224
288.72	22.942
289.08	23.264
289.45	23.902
289.82	21.678
290.19	21.502
290.56	20.412
290.93	24.242
291.29	20.801
291.66	22.835
292.03	21.691
292.40	20.806
292.77	21.372
293.13	19.805
293.50	21.700
293.87	20.763
294.24	21.329
294.60	21.759
294.97	19.940
295.34	21.012
295.71	19.970
296.08	20.478
296.44	19.630
296.81	19.444
297.18	20.725
297.55	21.003
297.91	19.726
298.28	20.053
298.65	19.132
299.02	18.194
299.38	16.142
299.75	17.379
300.12	19.241
300.48	18.314
300.85	18.124
301.22	18.312
301.59	15.789
301.95	19.367
302.32	19.844
302.69	18.532
303.05	19.431
303.42	17.808
303.79	17.991
304.15	17.324
304.52	15.458
304.89	18.012
305.25	16.586
305.62	16.453
305.99	16.140
306.35	17.225
306.72	16.985
307.09	16.762
307.45	16.762
307.82	17.824
308.19	17.189
308.55	16.903
308.92	17.320
309.29	15.642
309.65	16.792
310.02	17.382
310.38	17.124
310.75	17.705
311.12	15.716
311.48	16.649
311.85	15.393
312.22	16.139
312.58	16.667
312.95	15.582
313.31	17.288
313.68	17.382
314.05	15.612
314.41	15.979
314.78	16.804
315.14	15.930
315.51	16.563
315.87	15.984
316.24	17.897
316.61	16.043
316.97	16.171
317.34	17.188
317.70	15.010
318.07	16.058
318.43	16.373
318.80	15.625
319.16	16.699
319.53	16.334
319.89	16.831
320.26	15.385
320.62	16.650
320.99	16.597
321.35	16.033
321.72	15.472
322.08	18.328
322.45	15.939
322.81	15.521
323.18	15.996
323.54	16.409
323.91	16.943
324.27	16.992
324.64	17.135
325.00	16.606
325.37	19.100
325.73	16.772
326.10	17.530
326.46	17.758
326.83	17.235
327.19	16.565
327.56	16.594
327.92	17.165
328.29	15.357
328.65	16.981
329.01	16.360
329.38	17.880
329.74	16.714
330.11	16.589
330.47	17.161
330.84	16.538
331.20	17.300
331.56	17.222
331.93	17.534
332.29	16.040
332.66	17.647
333.02	16.636
333.38	15.674
333.75	17.399
334.11	16.741
334.48	17.135
334.84	17.216
335.20	16.560
335.57	16.410
335.93	17.073
336.29	16.943
336.66	16.258
337.02	16.450
337.38	15.926
337.75	16.455
338.11	16.772
338.47	16.697
338.84	17.098
339.20	16.819
339.56	17.339
339.93	17.010
340.29	16.972
340.65	17.563
341.02	16.578
341.38	16.460
341.74	15.018
342.11	15.425
342.47	15.569
342.83	16.609
343.20	15.854
343.56	16.522
343.92	15.943
344.28	17.421
344.65	16.235
345.01	15.817
345.37	15.559
345.73	16.402
346.10	15.617
346.46	15.559
346.82	16.121
347.19	15.212
347.55	15.372
347.91	16.262
348.27	15.764
348.63	15.758
349.00	15.669
349.36	15.378
349.72	15.755
350.08	15.082
350.45	16.361
350.81	15.947
351.17	16.694
351.53	16.000
351.89	14.616
352.26	14.800
352.62	15.323
352.98	16.466
353.34	14.895
353.70	16.343
354.07	15.484
354.43	14.492
354.79	15.359
355.15	16.111
355.51	16.772
355.87	14.563
356.24	15.334
356.60	14.470
356.96	15.476
357.32	15.895
357.68	15.168
358.04	14.459
358.40	15.836
358.77	16.108
359.13	15.773
359.49	15.254
359.85	15.211
360.21	14.274
360.57	14.384
360.93	15.582
361.29	14.728
361.66	14.577
362.02	15.530
362.38	14.623
362.74	14.913
363.10	15.651
363.46	14.974
363.82	16.304
364.18	14.539
364.54	13.971
364.90	14.265
365.26	14.410
365.62	15.912
365.98	14.370
366.35	15.222
366.71	14.265
367.07	15.965
367.43	14.594
367.79	14.134
368.15	14.358
368.51	15.076
368.87	13.927
369.23	14.801
369.59	13.848
369.95	14.809
370.31	14.234
370.67	14.552
371.03	13.219
371.39	14.369
371.75	14.212
372.11	14.907
372.47	14.941
372.83	14.407
373.19	14.979
373.55	13.863
373.91	13.967
374.27	14.529
374.63	13.927
374.99	14.113
375.35	14.067
375.71	14.196
376.07	14.256
376.42	14.422
376.78	14.430
377.14	14.895
377.50	13.546
377.86	14.458
378.22	15.252
378.58	14.295
378.94	13.485
379.30	13.537
379.66	13.918
380.02	13.857
380.38	12.964
380.74	14.004
381.09	14.908
381.45	13.945
381.81	13.819
382.17	14.404
382.53	13.991
382.89	14.250
383.25	14.063
383.61	13.902
383.97	13.651
384.32	13.258
384.68	13.251
385.04	13.419
385.40	13.006
385.76	14.906
386.12	13.842
386.48	13.602
386.83	13.887
387.19	14.164
387.55	14.241
387.91	13.570
388.27	14.347
388.62	13.593
388.98	14.303
389.34	14.428
389.70	14.232
390.06	13.090
390.42	13.601
390.77	13.146
391.13	14.061
391.49	13.066
391.85	13.710
392.20	14.438
392.56	13.160
392.92	13.975
393.28	13.561
393.64	13.574
393.99	14.107
394.35	13.536
394.71	12.324
395.07	13.388
395.42	12.629
395.78	13.616
396.14	13.556
396.50	14.458
396.85	13.780
397.21	13.847
397.57	14.483
397.92	12.882
398.28	14.195
398.64	13.133
399.00	14.334
399.35	13.488
399.71	13.441
400.07	13.603
400.42	13.770
400.78	13.288
401.14	13.733
401.49	14.116
401.85	13.528
402.21	13.976
402.57	14.312
402.92	13.363
403.28	13.784
403.63	12.989
403.99	12.819
404.35	13.741
404.70	14.048
405.06	13.220
405.42	13.860
405.77	13.306
406.13	13.737
406.49	13.321
406.84	13.631
407.20	13.727
407.55	13.007
407.91	12.634
408.27	13.448
408.62	14.277
408.98	14.048
409.34	14.064
409.69	13.049
410.05	13.608
410.40	13.395
410.76	13.932
411.11	14.250
411.47	13.478
411.83	12.994
412.18	13.514
412.54	14.419
412.89	13.054
413.25	13.057
413.60	13.665
413.96	13.006
414.31	13.476
414.67	13.214
415.03	13.116
415.38	12.141
415.74	12.899
416.09	13.782
416.45	13.234
416.80	14.408
417.16	14.779
417.51	13.724
417.87	12.842
418.22	13.666
418.58	13.579
418.93	13.793
419.29	11.524
419.64	13.351
420.00	14.673
420.35	13.313
420.71	13.548
421.06	13.751
421.42	13.822
421.77	13.988
422.12	13.678
422.48	13.373
422.83	13.283
423.19	13.826
423.54	12.816
423.90	13.899
424.25	13.949
424.61	13.403
424.96	14.111
425.31	13.865
425.67	13.263
426.02	14.782
426.38	13.776
426.73	14.225
427.09	13.734
427.44	14.529
427.79	14.319
428.15	14.199
428.50	13.507
428.85	13.084
429.21	13.978
429.56	14.394
429.92	13.405
430.27	13.885
430.62	12.964
430.98	13.004
431.33	14.038
431.68	13.553
432.04	13.751
432.39	13.805
432.74	13.470
433.10	14.253
433.45	13.142
433.80	13.813
434.16	12.964
434.51	13.280
434.86	14.344
435.22	13.853
435.57	13.038
435.92	13.353
436.28	13.357
436.63	13.406
436.98	13.557
437.34	13.672
437.69	14.132
438.04	14.530
438.39	13.256
438.75	13.479
439.10	13.469
439.45	14.486
439.81	13.578
440.16	14.371
440.51	14.209
440.86	14.562
441.22	13.914
441.57	13.687
441.92	14.848
442.27	13.415
442.63	14.775
442.98	13.268
443.33	13.968
443.68	13.475
444.03	14.555
444.39	13.035
444.74	13.935
445.09	14.198
445.44	13.789
445.79	14.028
446.15	14.482
446.50	13.089
446.85	13.815
447.20	13.921
447.55	14.397
447.91	13.931
448.26	14.684
448.61	13.817
448.96	13.884
449.31	12.832
449.66	14.053
450.02	13.976
450.37	13.989
450.72	14.490
451.07	13.608
451.42	13.670
451.77	14.647
452.12	13.397
452.47	13.136
452.83	14.664
453.18	13.915
453.53	13.401
453.88	13.661
454.23	13.768
454.58	13.791
454.93	13.982
455.28	13.079
455.63	13.763
455.98	14.191
456.34	14.687
456.69	13.787
457.04	14.556
457.39	13.791
457.74	14.148
458.09	13.537
458.44	13.926
458.79	13.894
459.14	14.989
459.49	14.627
459.84	14.382
460.19	13.653
460.54	14.731
460.89	13.920
461.24	13.478
461.59	14.489
461.94	13.522
462.29	14.536
462.64	13.355
462.99	13.676
463.34	14.465
463.69	13.900
464.04	14.286
464.39	14.008
464.74	13.742
465.09	14.847
465.44	14.945
465.79	14.286
466.14	14.139
466.49	13.399
466.84	14.337
467.19	14.768
467.54	13.602
467.89	13.329
468.24	13.139
468.59	14.857
468.94	13.905
469.29	15.082
469.64	13.602
469.99	14.156
470.34	13.038
470.68	13.945
471.03	14.367
471.38	15.121
471.73	13.866
472.08	13.636
472.43	13.356
472.78	12.954
473.13	14.014
473.48	14.919
473.83	13.948
474.17	14.637
474.52	13.848
474.87	14.242
475.22	14.582
475.57	13.665
475.92	14.262
476.27	13.679
476.61	14.236
476.96	13.664
477.31	14.602
477.66	13.258
478.01	14.206
478.36	14.052
478.70	14.192
479.05	14.945
479.40	14.096
479.75	13.660
480.10	13.057
480.45	13.800
480.79	13.746
481.14	14.549
481.49	13.547
481.84	13.900
482.19	13.658
482.53	13.285
482.88	14.415
483.23	14.395
483.58	13.726
483.92	13.601
484.27	13.491
484.62	14.254
484.97	13.101
485.31	13.620
485.66	14.105
486.01	14.437
486.36	14.255
486.70	14.108
487.05	14.072
487.40	13.650
487.75	13.042
488.09	13.226
488.44	12.930
488.79	13.298
489.13	13.101
489.48	13.211
489.83	13.812
490.17	13.124
490.52	12.702
490.87	13.281
491.22	14.518
491.56	13.805
491.91	13.671
492.26	14.098
492.60	14.539
492.95	14.019
493.30	14.216
493.64	13.900
493.99	13.671
494.34	13.350
494.68	13.571
495.03	13.382
495.37	13.886
495.72	14.235
496.07	14.098
496.41	13.868
496.76	14.141
497.11	13.740
497.45	14.845
497.80	13.824
498.14	13.761
498.49	12.900
498.84	14.122
499.18	13.404
499.53	14.683
499.87	13.327
500.22	13.996
500.56	13.817
500.91	14.056
501.26	13.445
501.60	13.330
501.95	13.197
502.29	13.414
502.64	14.044
502.98	12.975
503.33	13.160
503.67	13.735
504.02	14.174
504.36	14.300
504.71	13.535
505.06	14.041
505.40	13.096
505.75	13.763
506.09	13.938
506.44	14.117
506.78	14.388
507.13	13.702
507.47	13.055
507.82	12.821
508.16	12.837
508.51	14.218
508.85	14.233
509.19	13.145
509.54	14.477
509.88	13.376
510.23	13.609
510.57	14.057
510.92	13.166
511.26	12.984
511.61	13.531
511.95	13.534
512.30	13.248
512.64	14.190
512.98	14.093
513.33	13.878
513.67	13.360
514.02	14.302
514.36	14.114
514.70	14.277
515.05	14.747
515.39	13.577
515.74	14.072
516.08	14.405
516.42	14.016
516.77	14.453
517.11	13.947
517.46	14.423
517.80	13.945
518.14	12.982
518.49	13.762
518.83	13.426
519.17	13.159
519.52	12.611
519.86	12.845
520.20	13.670
520.55	13.133
520.89	12.861
521.23	13.553
521.58	14.132
521.92	14.295
522.26	14.118
522.61	13.377
522.95	14.570
523.29	13.977
523.64	13.342
523.98	14.193
524.32	13.144
524.66	13.828
525.01	14.026
525.35	14.064
525.69	12.997
526.04	13.823
526.38	15.629
526.72	13.473
527.06	13.813
527.41	14.446
527.75	13.070
528.09	13.621
528.43	14.382
528.78	13.399
529.12	13.484
529.46	13.190
529.80	13.616
530.15	14.455
530.49	13.603
530.83	13.611
531.17	14.171
531.51	13.748
531.86	13.120
532.20	13.292
532.54	13.819
532.88	13.758
533.22	14.516
533.57	13.893
533.91	13.251
534.25	14.388
534.59	14.304
534.93	13.216
535.27	12.881
535.62	12.962
535.96	14.090
536.30	14.314
536.64	13.853
536.98	14.286
537.32	13.869
537.66	14.586
538.01	14.056
538.35	13.315
538.69	14.115
539.03	14.217
539.37	14.266
539.71	12.883
540.05	14.053
540.39	14.543
540.73	13.877
541.07	13.122
541.42	14.180
541.76	13.833
542.10	13.765
542.44	14.038
542.78	13.145
543.12	13.942
543.46	13.630
543.80	14.157
544.14	13.151
544.48	13.924
544.82	13.876
545.16	14.276
545.50	14.152
545.84	14.023
546.18	14.610
546.52	13.627
546.86	13.515
547.20	14.306
547.54	13.004
547.88	14.334
548.22	13.938
548.56	12.929
548.90	15.027
549.24	14.050
549.58	15.162
549.92	13.939
550.26	13.187
550.60	12.937
550.94	13.592
551.28	14.451
551.62	13.615
551.96	13.609
552.30	14.035
552.64	13.893
552.98	14.135
553.32	14.123
553.66	12.264
554.00	12.993
554.34	14.919
554.68	13.496
555.02	14.062
555.36	13.837
555.69	13.187
556.03	13.562
556.37	13.025
556.71	13.718
557.05	13.423
557.39	13.309
557.73	13.193
558.07	14.555
558.41	12.864
558.75	12.860
559.08	13.239
559.42	13.492
559.76	13.291
560.10	13.914
560.44	13.328
560.78	13.566
561.12	13.963
561.45	14.476
561.79	13.796
562.13	14.407
562.47	13.237
562.81	14.697
563.15	14.739
563.48	14.144
563.82	12.766
564.16	13.440
564.50	13.581
564.84	13.922
565.17	14.017
565.51	14.413
565.85	13.512
566.19	14.257
566.52	14.276
566.86	14.203
567.20	13.014
567.54	13.929
567.88	14.470
568.21	14.253
568.55	14.130
568.89	14.630
569.23	14.636
569.56	13.835
569.90	14.495
570.24	13.844
570.57	14.109
570.91	14.012
571.25	14.041
571.59	13.796
571.92	13.985
572.26	13.647
572.60	14.016
572.93	14.057
573.27	13.793
573.61	13.932
573.95	13.763
574.28	13.957
574.62	13.959
574.96	13.837
575.29	13.680
575.63	13.294
575.97	13.554
576.30	13.101
576.64	13.616
576.98	13.848
577.31	13.689
577.65	14.174
577.98	13.905
578.32	13.702
578.66	13.260
578.99	13.407
579.33	13.590
579.67	13.323
580.00	13.519
580.34	13.507
580.67	13.576
581.01	13.569
581.35	13.997
581.68	13.934
582.02	14.058
582.35	13.686
582.69	14.024
583.02	13.480
583.36	13.627
583.70	13.655
584.03	13.595
584.37	14.032
584.70	13.709
585.04	13.187
585.37	13.833
585.71	13.848
586.04	13.515
586.38	13.337
586.72	13.773
587.05	13.894
587.39	14.062
587.72	14.297
588.06	14.254
588.39	13.757
588.73	13.400
589.06	13.699
589.40	13.654
589.73	14.275
590.07	14.086
590.40	13.700
590.73	14.250
591.07	13.868
591.40	13.669
591.74	13.982
592.07	13.173
592.41	14.178
592.74	13.978
593.08	13.482
593.41	13.871
593.75	13.412
594.08	13.423
594.41	13.792
594.75	13.473
595.08	13.583
595.42	13.397
595.75	14.007
596.09	13.331
596.42	13.518
596.75	13.721
597.09	13.303
597.42	13.550
597.75	13.376
598.09	13.671
598.42	12.635
598.76	13.943
599.09	13.542
599.42	13.642
599.76	14.033
600.09	13.989
600.42	13.836
600.76	13.150
601.09	13.588
601.42	13.239
601.76	13.418
602.09	13.366
602.42	14.027
602.76	13.413
603.09	13.995
603.42	13.963
603.76	13.145
604.09	13.730
604.42	13.959
604.76	13.262
605.09	13.300
605.42	14.041
605.75	13.310
606.09	14.055
606.42	13.261
606.75	14.026
607.09	13.802
607.42	13.248
607.75	13.588
608.08	13.432
608.42	13.568
608.75	13.831
609.08	14.051
609.41	13.655
609.75	13.004
610.08	14.029
610.41	13.285
610.74	13.067
611.07	12.920
611.41	13.960
611.74	14.232
612.07	12.901
612.40	13.348
612.73	13.277
613.07	13.217
613.40	13.403
613.73	13.206
614.06	13.411
614.39	13.085
614.72	12.885
615.06	13.408
615.39	13.155
615.72	13.025
616.05	13.799
616.38	12.251
616.71	12.844
617.05	13.403
617.38	13.891
617.71	13.836
618.04	13.524
618.37	13.808
618.70	13.201
619.03	14.653
619.36	12.590
619.69	13.950
620.03	13.514
620.36	13.805
620.69	12.848
621.02	13.532
621.35	13.195
621.68	13.265
622.01	14.500
622.34	13.887
622.67	14.117
623.00	13.859
623.33	13.186
623.66	14.286
623.99	13.238
624.32	13.840
624.65	12.782
624.99	14.748
625.32	12.813
625.65	15.004
625.98	14.746
626.31	12.469
626.64	14.385
626.97	15.445
627.30	14.361
627.63	13.692
627.96	12.938
628.29	13.228
628.62	14.061
628.95	13.627
629.28	14.012
629.61	13.559
629.94	14.565
630.26	13.241
630.59	13.944
630.92	13.231
631.25	13.026
631.58	13.436
631.91	12.171
632.24	12.041
632.57	14.318
632.90	13.167
633.23	13.765
633.56	13.602
633.89	11.097
634.22	14.074
634.55	13.850
634.88	13.282
635.20	13.333
635.53	14.000
635.86	13.004
636.19	13.325
636.52	13.393
636.85	13.648
637.18	13.711
637.51	14.969
637.83	13.272
638.16	14.598
638.49	11.308
638.82	13.158
639.15	14.383
639.48	13.205
639.81	12.413
640.13	13.276
640.46	14.577
640.79	10.457
641.12	14.032
641.45	13.063
641.77	13.481
642.10	14.218
642.43	12.540
642.76	12.871
643.09	14.540
643.41	13.269
643.74	12.356
644.07	13.629
644.40	14.358
644.73	12.785
645.05	14.933
645.38	13.757
645.71	13.121
646.04	14.542
646.36	13.830
646.69	14.029
647.02	12.476
647.35	12.873
647.67	13.711
648.00	14.552
648.33	13.652
648.66	13.220
648.98	11.223
649.31	11.240
649.64	11.617
649.96	12.642
650.29	13.288
650.62	14.701
650.94	11.852
651.27	10.987
651.60	14.414
651.92	14.510
652.25	11.723
652.58	12.333
652.90	12.693
653.23	13.277
653.56	12.014
653.88	12.371
654.21	9.632
654.54	13.413
654.86	13.243
655.19	11.111
655.52	15.480
655.84	15.643
656.17	16.980
656.49	22.706
656.82	22.453
657.15	16.427
657.47	11.856
657.80	8.674
658.13	8.270
658.45	11.737
658.78	11.519
659.10	11.308
659.43	11.356
659.75	11.445
660.08	10.966
660.41	11.747
660.73	12.431
661.06	11.958
661.38	11.350
661.71	10.883
662.03	13.090
662.36	12.527
662.68	12.611
663.01	16.376
663.33	11.369
663.66	9.767
663.98	9.767
664.31	14.712
664.63	10.599
664.96	10.652
665.28	11.921
665.61	12.121
665.93	13.913
666.26	15.184
666.58	9.843
666.91	10.588
667.23	12.028
667.56	13.033
667.88	11.990
668.21	12.172
668.53	13.712
668.86	13.679
669.18	11.792
669.50	12.591
669.83	11.860
670.15	12.354
670.48	11.244
670.80	14.516
671.13	13.199
671.45	10.959
671.77	13.948
672.10	12.673
672.42	12.734
672.75	13.321
673.07	15.564
673.39	12.477
673.72	10.454
674.04	11.667
674.37	14.619
674.69	13.062
675.01	15.333
675.34	14.189
675.66	13.426
675.98	12.417
676.31	13.761
676.63	12.114
676.95	12.045
677.28	13.176
677.60	13.976
677.92	11.927
678.25	13.567
678.57	11.472
678.89	11.975
679.22	13.423
679.54	12.048
679.86	12.525
680.18	14.175
680.51	14.962
680.83	11.928
681.15	11.400
681.48	12.910
681.80	12.603
682.12	14.113
682.44	12.134
682.77	13.687
683.09	13.272
683.41	12.955
683.73	14.055
684.06	10.841
684.38	10.323
684.70	13.725
685.02	12.033
685.34	11.858
685.67	14.447
685.99	12.839
686.31	15.929
686.63	11.874
686.96	11.597
687.28	11.919
687.60	14.829
687.92	12.727
688.24	12.702
688.56	12.664
688.89	11.830
689.21	14.667
689.53	11.601
689.85	11.163
690.17	14.955
690.49	13.475
690.82	12.864
691.14	11.429
691.46	12.617
691.78	12.838
692.10	13.548
692.42	14.286
692.74	12.821
693.06	12.613
693.39	11.991
693.71	12.443
694.03	10.624
694.35	11.215
694.67	14.141
694.99	10.705
695.31	12.794
695.63	11.750
695.95	12.374
696.27	12.694
696.59	12.500
696.91	11.204
697.23	12.082
697.56	10.644
697.88	14.409
698.20	12.301
698.52	12.706
698.84	11.962
699.16	9.750
699.48	12.782
699.80	10.422
700.12	11.590
700.44	9.804
700.76	11.628
701.08	8.788
701.40	10.241
701.72	16.975
702.04	14.191
702.36	10.033
702.68	14.414
703.00	12.424
703.32	10.557
703.64	8.757
703.96	12.174
704.28	9.509
704.60	12.698
704.91	10.410
705.23	11.960
705.55	14.488
705.87	12.635
706.19	12.593
706.51	10.653
706.83	16.399
707.15	13.707
707.47	13.725
707.79	11.719
708.11	14.250
708.43	13.250
708.74	11.111
709.06	13.521
709.38	11.009
709.70	11.538
710.02	12.739
710.34	18.266
710.66	10.256
710.98	7.947
711.29	14.426
711.61	13.220
711.93	16.287
712.25	15.808
712.57	12.454
712.89	10.448
713.20	14.879
713.52	10.453
713.84	13.993
714.16	14.089
714.48	11.613
714.80	12.500
715.11	12.462
715.43	8.777
715.75	4.667
716.07	9.635
716.39	10.403
716.70	7.749
717.02	11.069
717.34	10.526
717.66	7.965
717.97	9.130
718.29	10.460
718.61	9.449
718.93	13.566
719.24	9.506
719.56	8.434
719.88	12.371
720.20	11.364
720.51	7.280
720.83	13.514
721.15	11.765
721.46	11.694
721.78	7.115
722.10	16.357
722.42	4.979
722.73	13.061
723.05	18.367
723.37	13.983
723.68	14.414
724.00	14.530
724.32	8.444
724.63	11.364
724.95	10.044
725.27	9.677
725.58	13.559
725.90	13.095
726.22	11.583
726.53	15.593
726.85	8.989
727.16	17.736
727.48	6.883
727.80	15.385
728.11	13.983
728.43	7.843
728.74	4.032
729.06	13.200
729.38	17.669
729.69	11.155
730.01	6.154
730.32	11.940
730.64	17.314
730.96	12.453
731.27	16.000
731.59	8.475
731.90	10.191
732.22	10.726
732.53	13.953
732.85	9.929
733.16	14.478
733.48	9.712
733.80	10.507
734.11	15.254
734.43	10.997
734.74	12.424
735.06	9.772
735.37	13.293
735.69	12.121
736.00	10.801
736.32	13.423
736.63	11.268
736.95	12.628
737.26	11.032
737.58	11.745
737.89	15.385
738.21	9.774
738.52	13.580
738.83	11.790
739.15	9.607
739.46	14.567
739.78	13.187
740.09	12.418
740.41	10.145
740.72	8.268
741.04	15.385
741.35	7.234
741.66	9.953
741.98	13.265
742.29	8.911
742.61	7.330
742.92	7.109
743.23	8.796
743.55	13.122
743.86	9.091
744.18	7.656
744.49	3.723
744.80	7.609
745.12	15.508
745.43	8.293
745.74	15.104
746.06	10.732
746.37	11.518
746.68	19.431
747.00	4.787
747.31	16.418
747.62	4.854
747.94	8.612
748.25	4.950
748.56	14.208
748.88	6.806
749.19	11.702
749.50	10.837
749.82	8.962
750.13	8.716
750.44	13.158
750.75	11.567
751.07	18.248
751.38	10.728
751.69	10.588
752.01	17.054
752.32	14.343
752.63	13.043
752.94	5.603
753.26	15.900
753.57	12.670
753.88	7.080
754.19	11.667
754.51	4.959
754.82	11.741
755.13	12.083
755.44	13.710
755.75	15.234
756.07	14.786
756.38	9.811
756.69	9.195
757.00	14.000
757.31	15.686
757.63	9.451
757.94	11.111
758.25	9.863
758.56	13.564
758.87	9.915
759.18	14.330
759.50	9.455
759.81	14.381
760.12	14.516
760.43	11.515
760.74	12.963
761.05	11.692
761.36	14.205
761.67	14.848
761.99	13.946
762.30	13.455
762.61	9.881
762.92	8.597
763.23	10.360
763.54	5.607
763.85	8.475
764.16	11.618
764.47	9.274
764.78	9.524
765.10	16.498
765.41	11.041
765.72	12.381
766.03	9.774
766.34	11.314
766.65	15.139
766.96	10.101
767.27	7.979
767.58	4.023
767.89	4.255
768.20	12.500
768.51	9.890
768.82	12.808
769.13	4.147
769.44	14.592
769.75	10.046
770.06	11.207
770.37	11.058
770.68	8.629
770.99	9.502
771.30	12.745
771.61	11.312
771.92	15.948
772.23	12.808
772.54	11.828
772.85	6.790
773.16	11.236
773.47	15.686
773.78	11.765
774.09	17.365
774.39	7.333
774.70	12.739
775.01	13.103
775.32	10.714
775.63	4.132
775.94	14.504
776.25	13.386
776.56	12.500
776.87	2.885
777.18	9.402
777.48	9.483
777.79	7.826
778.10	1.905
778.41	6.306
778.72	15.079
779.03	14.286
779.34	10.638
779.65	10.274
779.95	9.589
780.26	13.793
780.57	5.691
780.88	7.087
781.19	7.759
781.50	12.403
781.80	7.692
782.11	6.289
782.42	11.538
782.73	2.878
783.04	8.889
783.34	10.417
783.65	-1.709
783.96	9.016
784.27	22.759
784.57	8.130
784.88	14.062
785.19	19.000
785.50	18.000
785.81	15.517
786.11	6.034
786.42	4.854
786.73	19.091
787.04	9.184
787.34	9.821
787.65	8.571
787.96	5.310
788.26	7.273
788.57	10.256
788.88	17.188
789.19	5.556
789.49	7.826
789.80	8.163
790.11	6.061
790.41	10.909
790.72	25.000
791.03	18.182
791.33	15.000
791.64	-1.250
791.95	13.953
792.25	9.574
792.56	8.989
792.87	-12.329
793.17	-1.449
793.48	-2.667
793.79	3.750
794.09	18.750
794.40	9.434
794.70	7.767
795.01	6.504
795.32	6.838
795.62	6.667
795.93	6.863
796.23	16.038
796.54	7.292
796.85	27.941
797.15	-4.225
797.46	15.278
797.76	9.091
798.07	5.814
798.37	-1.316
798.68	6.061
798.99	13.580
799.29	5.714
799.60	8.696
799.90	0.000
800.21	0.000
800.51	12.308
800.82	13.559
801.12	15.942
801.43	-1.639
801.73	7.937
802.04	6.000
802.34	4.478
802.65	17.308
802.95	1.786
803.26	26.923
803.56	11.765
803.87	-21.739
804.17	12.000
804.48	28.571
804.78	7.407
805.09	-10.870
805.39	17.778
805.70	-3.704
806.00	-3.509
806.30	14.085
806.61	21.429
806.91	-8.333
807.22	13.158
807.52	16.000
807.83	-10.909
808.13	4.167
808.43	16.176
808.74	10.448
809.04	3.390
809.35	-19.231
809.65	-4.687
809.95	-13.514
810.26	-15.909
810.56	8.219
810.86	-23.810
811.17	-10.000
811.47	26.531
811.77	-28.947
812.08	-2.273
812.38	-1.887
812.69	17.500
812.99	-21.212
813.29	-15.789
813.59	-25.714
813.90	-2.273
814.20	-28.205
814.50	21.154
814.81	1.887
815.11	-12.766
815.41	8.475
815.72	-2.381
816.02	5.882
816.32	-4.167
816.62	-2.439
816.93	-5.405
817.23	-14.286
817.53	6.250
817.84	-26.087
818.14	-3.846
818.44	-31.579
818.74	10.870
819.04	-5.000
819.35	0.000
819.65	0.000
819.95	-30.556
820.25	-19.048
820.56	10.000
820.86	-41.379
821.16	-10.000
821.46	17.021
821.76	-5.000
822.07	6.977
822.37	-37.838
822.67	-34.375
822.97	4.762
823.27	-46.429
823.57	-40.000
823.88	-25.926
824.18	3.571
824.48	-44.118
824.78	-22.581
825.08	-34.783
825.38	-15.152
825.69	-33.333
825.99	-2.632
826.29	11.111
826.59	-53.333
826.89	-57.143
827.19	15.217
827.49	-15.000
827.79	22.857
828.09	10.714
828.39	24.242
828.70	24.324
829.00	-46.429
829.30	-4.762
829.60	-3.333
829.90	9.375
830.20	18.421
830.50	-33.333
830.80	-26.087
831.10	-13.636
831.40	0.000
831.70	19.355
832.00	-38.095
832.30	-9.524
832.60	-33.333
832.90	0.000
833.20	-45.000
833.50	18.182
833.80	0.000
834.10	-30.769
834.40	6.250
834.70	-111.111
835.00	-36.842
835.30	53.846
835.60	-6.667
835.90	12.903
836.20	-18.182
836.50	25.000
836.80	-11.538
837.10	7.143
837.40	-466.667
837.70	0.000
838.00	-118.182
838.30	-13.043
838.60	-38.462
838.90	40.909
839.19	-28.571
839.49	0.000
839.79	-38.462
840.09	-108.333
840.39	0.000
840.69	-35.714
840.99	-23.077
841.29	-68.421
841.59	-150.000
841.88	27.273
842.18	-20.000
842.48	56.250
842.78	-33.333
843.08	7.407
843.38	-100.000
843.68	-8.696
843.97	20.000
844.27	-113.333
844.57	-20.000
844.87	0.000
845.17	-28.571
845.47	40.000
845.76	-52.381
846.06	35.294
846.36	-50.000
846.66	-50.000
846.96	-6.667
847.25	-212.500
847.55	50.000
847.85	-75.000
848.15	-45.455
848.44	-333.333
848.74	-30.000
849.04	25.926
849.34	-118.182
849.63	-133.333
849.93	-300.000
850.23	-38.889
850.53	0.000
850.82	-38.462
851.12	-77.778
851.42	0.000
851.71	7.692
852.01	-35.714
852.31	-325.000
852.61	-63.636
852.90	0.000
853.20	0.000
853.50	-33.333
853.79	-13.043
854.09	16.667
854.39	15.789
854.68	-8.333
854.98	29.032
855.28	-15.385
855.57	0.000
855.87	-55.556
856.17	-33.333
856.46	-14.286
856.76	-46.667
857.05	77.778
857.35	8.000
857.65	5.556
857.94	-38.462
858.24	17.241
858.53	22.222
858.83	33.333
859.13	0.000
859.42	-17.391
859.72	-25.000
860.01	-333.333
860.31	-16.000
860.60	-14.286
860.90	-333.333
861.20	-113.333
861.49	-250.000
861.79	-66.667
862.08	-10.000
862.38	66.667
862.67	-140.000
862.97	-133.333
863.26	16.667
863.56	50.000
863.85	-200.000
864.15	33.333
864.44	-50.000
864.74	0.000
865.03	225.000
865.33	-80.000
865.62	-16.667
865.92	-50.000
866.21	-116.667
866.51	-25.000
866.80	-9.091
867.10	-600.000
867.39	-16.667
867.69	0.000
867.98	46.154
868.27	-333.333
868.57	-33.333
868.86	-11.111
869.16	-69.231
869.45	40.000
869.75	-1300.000
870.04	0.000
870.33	-85.714
870.63	-9.524
870.92	800.000
871.22	-280.000
871.51	-200.000
871.80	11.111
872.10	266.667
>>>>>End Processed Spectral Data<<<<<
