SpectraSuite Data File
++++++++++++++++++++++++++++++++++++
Date: Fri May 15 20:36:36 PDT 2015
User: schluterlab
Dark Spectrum Present: Yes
Reference Spectrum Present: Yes
Number of Sampled Component Spectra: 1
Spectrometers: USB2E3373
Integration Time (usec): 3000 (USB2E3373)
Spectra Averaged: 3 (USB2E3373)
Boxcar Smoothing: 0 (USB2E3373)
Correct for Electrical Dark: No (USB2E3373)
Strobe/Lamp Enabled: No (USB2E3373)
Correct for Detector Non-linearity: No (USB2E3373)
Correct for Stray Light: No (USB2E3373)
Number of Pixels in Processed Spectrum: 2048
>>>>>Begin Processed Spectral Data<<<<<
178.53	0.000
178.91	0.000
179.29	-12.500
179.67	-700.000
180.04	-42.857
180.42	125.000
180.80	300.000
181.18	-33.333
181.56	650.000
181.94	0.000
182.31	200.000
182.69	-160.000
183.07	-333.333
183.45	-220.000
183.83	100.000
184.20	-27.273
184.58	-0.000
184.96	-50.000
185.34	166.667
185.72	0.000
186.09	100.000
186.47	-700.000
186.85	133.333
187.23	44.444
187.61	-400.000
187.98	-200.000
188.36	11.111
188.74	-600.000
189.12	-11.765
189.49	-22.222
189.87	0.000
190.25	28.571
190.63	-350.000
191.00	-200.000
191.38	-5.263
191.76	0.000
192.14	50.000
192.51	-150.000
192.89	-44.444
193.27	-128.571
193.65	350.000
194.02	163.636
194.40	80.000
194.78	-162.500
195.15	-8.333
195.53	-87.500
195.91	425.000
196.29	-225.000
196.66	69.231
197.04	28.571
197.42	-11.111
197.79	-733.333
198.17	-84.615
198.55	1500.000
198.92	66.667
199.30	-700.000
199.68	-140.000
200.05	-266.667
200.43	0.000
200.81	-200.000
201.18	-100.000
201.56	1800.000
201.94	-200.000
202.31	100.000
202.69	-140.000
203.07	300.000
203.44	200.000
203.82	0.000
204.19	-57.143
204.57	-600.000
204.95	162.500
205.32	-80.000
205.70	-57.143
206.08	175.000
206.45	111.111
206.83	7.143
207.20	-185.714
207.58	700.000
207.96	-300.000
208.33	-100.000
208.71	-250.000
209.08	-183.333
209.46	-800.000
209.84	80.000
210.21	-400.000
210.59	-100.000
210.96	-100.000
211.34	-150.000
211.71	20.000
212.09	-85.714
212.46	-1200.000
212.84	0.000
213.22	0.000
213.59	550.000
213.97	23.077
214.34	-27.273
214.72	-150.000
215.09	525.000
215.47	-46.154
215.84	-9.091
216.22	-133.333
216.59	-112.500
216.97	0.000
217.34	0.000
217.72	-380.000
218.09	25.000
218.47	237.500
218.84	-800.000
219.22	-122.222
219.59	-80.000
219.97	633.333
220.34	100.000
220.72	57.143
221.09	-175.000
221.47	100.000
221.84	-450.000
222.22	-950.000
222.59	36.364
222.97	75.000
223.34	-233.333
223.72	-57.143
224.09	9.524
224.46	3.571
224.84	566.667
225.21	-40.000
225.59	33.333
225.96	-300.000
226.34	675.000
226.71	-214.286
227.08	-216.667
227.46	-75.000
227.83	-300.000
228.21	-55.556
228.58	18.182
228.95	-50.000
229.33	150.000
229.70	18.750
230.08	-125.000
230.45	-185.714
230.82	57.143
231.20	0.000
231.57	14.286
231.95	28.571
232.32	-100.000
232.69	71.429
233.07	-200.000
233.44	-280.000
233.81	-90.000
234.19	100.000
234.56	41.176
234.93	50.000
235.31	50.000
235.68	-280.000
236.05	0.000
236.43	20.000
236.80	5.882
237.17	25.000
237.55	40.000
237.92	51.852
238.29	27.778
238.67	40.000
239.04	17.647
239.41	4.878
239.79	-16.667
240.16	51.220
240.53	23.684
240.91	28.261
241.28	25.397
241.65	33.929
242.02	34.247
242.40	33.333
242.77	32.203
243.14	18.182
243.51	17.500
243.89	32.184
244.26	33.333
244.63	26.190
245.00	13.402
245.38	36.082
245.75	33.708
246.12	32.759
246.49	31.405
246.87	38.462
247.24	36.134
247.61	22.807
247.98	33.333
248.36	34.375
248.73	34.211
249.10	36.364
249.47	32.911
249.84	31.373
250.22	35.294
250.59	38.562
250.96	35.211
251.33	29.070
251.70	35.294
252.08	36.041
252.45	36.634
252.82	30.151
253.19	35.023
253.56	36.916
253.94	42.342
254.31	33.043
254.68	38.596
255.05	35.039
255.42	39.301
255.79	33.977
256.16	34.241
256.54	36.194
256.91	39.924
257.28	36.059
257.65	34.457
258.02	38.652
258.39	38.721
258.76	35.165
259.14	36.877
259.51	38.835
259.88	31.959
260.25	37.582
260.62	42.014
260.99	35.932
261.36	35.959
261.73	38.608
262.10	35.866
262.47	39.571
262.85	36.991
263.22	36.308
263.59	37.383
263.96	39.441
264.33	35.455
264.70	34.226
265.07	36.310
265.44	37.677
265.81	39.548
266.18	34.973
266.55	38.046
266.92	36.269
267.29	38.381
267.66	37.340
268.03	39.267
268.40	36.815
268.77	39.037
269.14	38.129
269.51	37.789
269.88	35.661
270.25	36.735
270.62	33.902
270.99	35.038
271.36	32.274
271.73	35.446
272.10	34.307
272.47	38.061
272.84	37.129
273.21	34.339
273.58	37.590
273.95	35.927
274.32	35.566
274.69	33.484
275.06	34.598
275.43	36.054
275.80	37.528
276.17	36.552
276.54	34.261
276.91	37.061
277.28	35.371
277.65	33.884
278.02	31.915
278.39	35.230
278.76	33.753
279.13	34.855
279.50	37.395
279.87	34.989
280.23	34.194
280.60	34.503
280.97	35.556
281.34	31.923
281.71	36.550
282.08	33.947
282.45	30.920
282.82	34.363
283.19	35.203
283.56	33.719
283.92	34.915
284.29	35.769
284.66	33.527
285.03	30.452
285.40	33.459
285.77	32.689
286.14	35.560
286.51	36.347
286.87	32.358
287.24	33.702
287.61	31.393
287.98	34.737
288.35	32.062
288.72	31.699
289.08	30.729
289.45	32.513
289.82	31.993
290.19	31.570
290.56	30.875
290.93	32.997
291.29	28.814
291.66	30.394
292.03	28.868
292.40	28.710
292.77	28.708
293.13	22.565
293.50	27.618
293.87	29.466
294.24	28.594
294.60	26.826
294.97	28.423
295.34	27.914
295.71	27.124
296.08	26.457
296.44	24.751
296.81	25.972
297.18	26.667
297.55	26.965
297.91	27.397
298.28	27.573
298.65	24.966
299.02	24.663
299.38	23.393
299.75	24.690
300.12	24.346
300.48	24.374
300.85	24.081
301.22	23.506
301.59	23.289
301.95	24.557
302.32	24.384
302.69	24.005
303.05	24.134
303.42	24.035
303.79	22.780
304.15	24.970
304.52	23.543
304.89	22.339
305.25	23.123
305.62	21.704
305.99	22.105
306.35	23.237
306.72	21.710
307.09	24.743
307.45	22.732
307.82	22.569
308.19	23.577
308.55	22.683
308.92	23.529
309.29	20.670
309.65	21.636
310.02	22.992
310.38	22.393
310.75	23.497
311.12	23.036
311.48	21.739
311.85	21.885
312.22	21.519
312.58	22.293
312.95	19.744
313.31	20.911
313.68	21.675
314.05	22.449
314.41	21.959
314.78	21.649
315.14	21.686
315.51	21.222
315.87	21.516
316.24	22.649
316.61	22.539
316.97	21.627
317.34	21.777
317.70	21.319
318.07	20.865
318.43	21.765
318.80	21.591
319.16	23.340
319.53	21.652
319.89	21.358
320.26	22.470
320.62	22.267
320.99	21.190
321.35	20.349
321.72	22.638
322.08	22.155
322.45	21.726
322.81	21.218
323.18	21.688
323.54	21.815
323.91	21.714
324.27	21.387
324.64	22.004
325.00	22.354
325.37	22.039
325.73	20.671
326.10	22.343
326.46	21.794
326.83	21.785
327.19	21.534
327.56	22.328
327.92	21.743
328.29	21.429
328.65	21.981
329.01	20.864
329.38	23.226
329.74	21.435
330.11	22.614
330.47	21.336
330.84	21.250
331.20	22.529
331.56	21.574
331.93	22.740
332.29	22.273
332.66	20.271
333.02	21.468
333.38	20.440
333.75	21.703
334.11	21.665
334.48	22.393
334.84	21.795
335.20	21.317
335.57	21.578
335.93	21.590
336.29	20.810
336.66	21.253
337.02	20.911
337.38	20.000
337.75	20.636
338.11	21.190
338.47	22.172
338.84	22.274
339.20	20.567
339.56	20.000
339.93	21.038
340.29	20.826
340.65	21.595
341.02	21.277
341.38	21.504
341.74	21.113
342.11	19.671
342.47	20.107
342.83	22.145
343.20	19.861
343.56	20.087
343.92	21.523
344.28	21.435
344.65	21.244
345.01	20.830
345.37	19.933
345.73	22.259
346.10	20.535
346.46	20.942
346.82	19.476
347.19	19.784
347.55	19.799
347.91	20.793
348.27	19.968
348.63	20.869
349.00	20.098
349.36	19.950
349.72	20.232
350.08	20.410
350.45	20.431
350.81	19.767
351.17	19.544
351.53	21.388
351.89	19.488
352.26	20.400
352.62	20.645
352.98	18.876
353.34	18.921
353.70	19.660
354.07	19.597
354.43	18.975
354.79	18.745
355.15	20.397
355.51	20.016
355.87	19.741
356.24	18.597
356.60	18.593
356.96	20.159
357.32	19.010
357.68	18.921
358.04	20.113
358.40	19.293
358.77	19.936
359.13	18.975
359.49	19.260
359.85	18.331
360.21	18.740
360.57	20.046
360.93	19.818
361.29	17.598
361.66	19.122
362.02	19.318
362.38	18.812
362.74	18.849
363.10	18.811
363.46	19.125
363.82	20.135
364.18	19.779
364.54	19.044
364.90	18.566
365.26	17.758
365.62	18.978
365.98	19.575
366.35	19.082
366.71	18.404
367.07	19.086
367.43	18.188
367.79	18.940
368.15	19.742
368.51	18.063
368.87	18.019
369.23	18.267
369.59	17.784
369.95	19.135
370.31	19.436
370.67	18.284
371.03	17.326
371.39	18.527
371.75	18.168
372.11	18.188
372.47	18.047
372.83	18.240
373.19	18.331
373.55	17.545
373.91	18.215
374.27	18.710
374.63	18.665
374.99	17.660
375.35	18.315
375.71	18.042
376.07	18.329
376.42	18.912
376.78	18.993
377.14	18.483
377.50	18.260
377.86	18.340
378.22	17.805
378.58	18.013
378.94	17.643
379.30	18.590
379.66	18.119
380.02	17.781
380.38	16.920
380.74	18.253
381.09	18.344
381.45	17.737
381.81	17.890
382.17	18.147
382.53	16.927
382.89	18.393
383.25	17.548
383.61	18.780
383.97	17.016
384.32	17.699
384.68	17.957
385.04	16.912
385.40	17.486
385.76	17.610
386.12	17.206
386.48	18.966
386.83	17.375
387.19	17.216
387.55	17.754
387.91	17.971
388.27	17.338
388.62	17.621
388.98	17.188
389.34	18.364
389.70	18.272
390.06	17.873
390.42	17.487
390.77	17.528
391.13	16.646
391.49	17.076
391.85	17.219
392.20	17.891
392.56	17.737
392.92	17.322
393.28	16.981
393.64	16.997
393.99	18.746
394.35	16.319
394.71	18.263
395.07	16.845
395.42	16.758
395.78	17.329
396.14	17.907
396.50	17.565
396.85	17.064
397.21	17.669
397.57	17.053
397.92	17.376
398.28	17.471
398.64	16.687
399.00	17.720
399.35	16.930
399.71	17.002
400.07	16.929
400.42	17.503
400.78	17.942
401.14	17.483
401.49	17.094
401.85	16.941
402.21	18.072
402.57	17.813
402.92	16.248
403.28	17.043
403.63	17.339
403.99	17.156
404.35	17.364
404.70	17.262
405.06	17.156
405.42	17.899
405.77	16.676
406.13	17.346
406.49	16.578
406.84	16.870
407.20	17.580
407.55	16.098
407.91	16.310
408.27	17.145
408.62	17.415
408.98	16.636
409.34	17.720
409.69	17.119
410.05	16.502
410.40	16.728
410.76	16.948
411.11	16.813
411.47	18.212
411.83	16.321
412.18	17.246
412.54	16.854
412.89	16.379
413.25	17.088
413.60	17.453
413.96	16.135
414.31	17.439
414.67	16.421
415.03	17.111
415.38	16.580
415.74	18.176
416.09	17.505
416.45	18.096
416.80	17.449
417.16	16.989
417.51	16.922
417.87	16.558
418.22	17.163
418.58	17.057
418.93	16.928
419.29	15.877
419.64	16.397
420.00	17.380
420.35	17.254
420.71	16.829
421.06	17.311
421.42	16.887
421.77	16.590
422.12	16.856
422.48	16.892
422.83	17.111
423.19	16.986
423.54	17.225
423.90	16.667
424.25	16.820
424.61	17.319
424.96	16.318
425.31	16.984
425.67	17.195
426.02	17.138
426.38	17.220
426.73	17.494
427.09	17.911
427.44	17.706
427.79	17.560
428.15	17.840
428.50	16.596
428.85	16.523
429.21	17.487
429.56	17.736
429.92	18.233
430.27	17.644
430.62	16.675
430.98	16.614
431.33	17.192
431.68	16.954
432.04	17.049
432.39	17.056
432.74	17.078
433.10	17.989
433.45	17.622
433.80	17.121
434.16	16.454
434.51	17.258
434.86	17.247
435.22	16.994
435.57	17.155
435.92	16.467
436.28	16.041
436.63	17.855
436.98	16.570
437.34	17.423
437.69	17.829
438.04	16.923
438.39	16.616
438.75	17.061
439.10	17.714
439.45	17.529
439.81	16.881
440.16	16.983
440.51	17.015
440.86	17.644
441.22	17.364
441.57	16.611
441.92	17.419
442.27	17.794
442.63	17.934
442.98	17.346
443.33	17.474
443.68	17.294
444.03	17.983
444.39	17.659
444.74	17.336
445.09	17.261
445.44	17.550
445.79	18.773
446.15	17.291
446.50	17.748
446.85	17.535
447.20	17.049
447.55	17.801
447.91	17.428
448.26	17.928
448.61	18.192
448.96	17.441
449.31	18.266
449.66	17.538
450.02	18.083
450.37	17.131
450.72	17.755
451.07	17.342
451.42	17.541
451.77	17.300
452.12	17.524
452.47	18.158
452.83	18.728
453.18	16.382
453.53	18.205
453.88	17.790
454.23	17.763
454.58	17.569
454.93	18.041
455.28	16.444
455.63	18.103
455.98	18.340
456.34	18.263
456.69	17.408
457.04	18.841
457.39	17.740
457.74	17.956
458.09	17.599
458.44	18.139
458.79	17.871
459.14	17.849
459.49	18.149
459.84	18.556
460.19	17.961
460.54	18.032
460.89	17.841
461.24	17.578
461.59	17.637
461.94	17.421
462.29	19.240
462.64	18.140
462.99	17.874
463.34	17.107
463.69	17.696
464.04	17.736
464.39	17.829
464.74	17.791
465.09	18.216
465.44	18.061
465.79	17.120
466.14	17.503
466.49	17.884
466.84	18.144
467.19	18.398
467.54	17.625
467.89	17.246
468.24	17.214
468.59	18.222
468.94	17.968
469.29	17.508
469.64	18.797
469.99	19.271
470.34	17.133
470.68	18.717
471.03	17.834
471.38	17.689
471.73	17.647
472.08	17.707
472.43	16.644
472.78	17.409
473.13	17.415
473.48	17.980
473.83	17.497
474.17	18.459
474.52	17.167
474.87	17.697
475.22	17.633
475.57	18.295
475.92	18.157
476.27	18.219
476.61	18.576
476.96	17.847
477.31	17.956
477.66	17.978
478.01	17.687
478.36	17.974
478.70	18.325
479.05	18.187
479.40	18.707
479.75	17.779
480.10	17.768
480.45	17.900
480.79	18.681
481.14	18.648
481.49	17.488
481.84	17.954
482.19	18.148
482.53	17.698
482.88	18.186
483.23	18.282
483.58	17.783
483.92	17.667
484.27	17.639
484.62	17.974
484.97	17.910
485.31	17.630
485.66	17.786
486.01	18.110
486.36	17.827
486.70	18.144
487.05	18.785
487.40	18.226
487.75	18.310
488.09	18.541
488.44	18.329
488.79	18.155
489.13	18.830
489.48	18.170
489.83	17.668
490.17	17.798
490.52	17.875
490.87	17.538
491.22	17.717
491.56	17.600
491.91	18.117
492.26	18.182
492.60	17.706
492.95	18.396
493.30	17.636
493.64	17.878
493.99	18.357
494.34	17.913
494.68	17.524
495.03	17.226
495.37	17.861
495.72	17.819
496.07	17.073
496.41	17.972
496.76	17.918
497.11	17.559
497.45	18.329
497.80	18.315
498.14	18.132
498.49	17.979
498.84	17.515
499.18	18.223
499.53	18.800
499.87	17.315
500.22	17.557
500.56	17.448
500.91	18.022
501.26	17.301
501.60	17.413
501.95	17.952
502.29	17.579
502.64	18.678
502.98	18.599
503.33	17.483
503.67	17.349
504.02	17.791
504.36	18.456
504.71	18.030
505.06	17.614
505.40	17.817
505.75	17.577
506.09	18.348
506.44	18.018
506.78	18.367
507.13	17.890
507.47	17.076
507.82	17.415
508.16	18.119
508.51	18.101
508.85	18.367
509.19	17.669
509.54	17.480
509.88	18.015
510.23	17.321
510.57	17.958
510.92	17.804
511.26	17.458
511.61	18.152
511.95	18.740
512.30	18.071
512.64	17.974
512.98	17.855
513.33	18.243
513.67	17.681
514.02	19.451
514.36	18.286
514.70	18.473
515.05	17.450
515.39	17.178
515.74	18.024
516.08	17.693
516.42	18.080
516.77	19.075
517.11	18.160
517.46	17.834
517.80	18.296
518.14	17.636
518.49	18.209
518.83	18.104
519.17	17.404
519.52	17.525
519.86	17.047
520.20	18.894
520.55	17.824
520.89	17.817
521.23	17.226
521.58	18.360
521.92	17.500
522.26	17.697
522.61	17.273
522.95	18.212
523.29	17.344
523.64	18.361
523.98	17.693
524.32	16.753
524.66	17.734
525.01	18.377
525.35	18.859
525.69	18.249
526.04	17.923
526.38	19.001
526.72	16.808
527.06	17.575
527.41	18.074
527.75	17.292
528.09	17.741
528.43	19.446
528.78	17.756
529.12	17.806
529.46	17.349
529.80	18.303
530.15	17.888
530.49	17.374
530.83	18.399
531.17	18.334
531.51	18.331
531.86	17.811
532.20	17.119
532.54	18.856
532.88	19.028
533.22	17.944
533.57	18.611
533.91	18.407
534.25	19.141
534.59	18.024
534.93	17.118
535.27	17.830
535.62	18.665
535.96	18.982
536.30	18.668
536.64	18.884
536.98	18.328
537.32	19.417
537.66	18.724
538.01	17.413
538.35	17.545
538.69	17.976
539.03	17.703
539.37	18.977
539.71	18.678
540.05	19.009
540.39	18.767
540.73	18.410
541.07	18.301
541.42	19.019
541.76	18.858
542.10	17.688
542.44	19.249
542.78	17.068
543.12	18.269
543.46	18.498
543.80	18.737
544.14	17.557
544.48	19.054
544.82	18.113
545.16	19.057
545.50	18.425
545.84	18.130
546.18	20.213
546.52	18.962
546.86	18.116
547.20	18.026
547.54	17.880
547.88	18.750
548.22	18.014
548.56	18.272
548.90	18.935
549.24	17.906
549.58	19.252
549.92	18.656
550.26	19.194
550.60	18.662
550.94	17.849
551.28	19.088
551.62	18.077
551.96	17.444
552.30	18.348
552.64	18.054
552.98	17.862
553.32	18.117
553.66	18.360
554.00	18.978
554.34	18.981
554.68	18.879
555.02	18.452
555.36	18.624
555.69	17.363
556.03	17.773
556.37	18.078
556.71	18.556
557.05	18.121
557.39	17.918
557.73	18.066
558.07	18.627
558.41	18.760
558.75	19.564
559.08	19.070
559.42	17.937
559.76	17.534
560.10	19.113
560.44	18.168
560.78	18.741
561.12	19.111
561.45	18.552
561.79	19.818
562.13	18.382
562.47	18.201
562.81	19.308
563.15	19.182
563.48	19.307
563.82	18.119
564.16	18.175
564.50	18.514
564.84	19.277
565.17	18.511
565.51	19.672
565.85	18.724
566.19	19.098
566.52	19.169
566.86	18.830
567.20	17.808
567.54	19.404
567.88	19.859
568.21	19.683
568.55	18.315
568.89	19.713
569.23	20.125
569.56	19.396
569.90	19.407
570.24	19.501
570.57	19.382
570.91	19.658
571.25	19.402
571.59	18.748
571.92	19.378
572.26	19.263
572.60	19.411
572.93	19.109
573.27	19.216
573.61	19.242
573.95	19.634
574.28	19.280
574.62	19.730
574.96	19.746
575.29	19.435
575.63	18.761
575.97	18.894
576.30	19.455
576.64	19.099
576.98	20.283
577.31	19.341
577.65	19.404
577.98	19.696
578.32	19.625
578.66	19.321
578.99	19.677
579.33	19.410
579.67	19.253
580.00	19.797
580.34	19.602
580.67	19.139
581.01	19.549
581.35	19.229
581.68	19.622
582.02	19.527
582.35	19.183
582.69	19.965
583.02	19.590
583.36	19.778
583.70	19.808
584.03	19.794
584.37	20.017
584.70	20.192
585.04	19.171
585.37	19.730
585.71	19.995
586.04	19.339
586.38	19.499
586.72	20.230
587.05	20.248
587.39	19.961
587.72	19.738
588.06	19.983
588.39	20.222
588.73	20.421
589.06	20.189
589.40	19.461
589.73	20.409
590.07	19.902
590.40	19.737
590.73	19.852
591.07	19.720
591.40	20.036
591.74	20.271
592.07	20.779
592.41	20.186
592.74	19.554
593.08	19.246
593.41	19.473
593.75	19.889
594.08	18.881
594.41	19.396
594.75	19.466
595.08	19.675
595.42	19.544
595.75	20.015
596.09	20.602
596.42	20.794
596.75	20.160
597.09	19.180
597.42	19.828
597.75	20.064
598.09	18.923
598.42	19.449
598.76	19.305
599.09	19.191
599.42	19.515
599.76	19.488
600.09	19.532
600.42	20.167
600.76	18.908
601.09	19.160
601.42	19.115
601.76	19.968
602.09	19.183
602.42	20.388
602.76	19.482
603.09	19.726
603.42	19.565
603.76	19.234
604.09	19.279
604.42	19.924
604.76	19.982
605.09	20.247
605.42	19.639
605.75	19.308
606.09	19.575
606.42	19.850
606.75	20.087
607.09	19.341
607.42	19.229
607.75	19.227
608.08	18.823
608.42	19.370
608.75	19.181
609.08	19.831
609.41	19.492
609.75	19.808
610.08	18.972
610.41	19.275
610.74	19.600
611.07	19.380
611.41	18.786
611.74	19.936
612.07	19.593
612.40	18.928
612.73	19.831
613.07	19.123
613.40	20.405
613.73	19.082
614.06	19.866
614.39	19.571
614.72	18.599
615.06	19.888
615.39	18.504
615.72	18.407
616.05	19.274
616.38	19.145
616.71	18.471
617.05	19.209
617.38	19.233
617.71	19.497
618.04	19.810
618.37	20.429
618.70	19.340
619.03	19.931
619.36	18.307
619.69	19.333
620.03	20.380
620.36	20.887
620.69	18.915
621.02	19.419
621.35	19.004
621.68	20.238
622.01	20.000
622.34	19.633
622.67	19.401
623.00	19.832
623.33	19.665
623.66	18.848
623.99	19.743
624.32	18.935
624.65	18.722
624.99	19.187
625.32	19.788
625.65	19.482
625.98	19.984
626.31	18.537
626.64	20.624
626.97	19.983
627.30	19.615
627.63	19.151
627.96	19.497
628.29	18.594
628.62	19.272
628.95	17.735
629.28	18.347
629.61	18.744
629.94	18.671
630.26	18.083
630.59	18.730
630.92	20.103
631.25	17.949
631.58	17.070
631.91	18.531
632.24	17.546
632.57	19.205
632.90	16.370
633.23	18.706
633.56	18.010
633.89	17.756
634.22	18.519
634.55	17.535
634.88	18.519
635.20	17.436
635.53	17.867
635.86	17.815
636.19	17.594
636.52	17.985
636.85	18.734
637.18	18.365
637.51	18.491
637.83	18.791
638.16	20.600
638.49	18.801
638.82	19.211
639.15	17.232
639.48	19.257
639.81	19.805
640.13	18.615
640.46	18.367
640.79	18.704
641.12	18.759
641.45	19.219
641.77	19.407
642.10	19.115
642.43	16.238
642.76	18.152
643.09	18.578
643.41	17.314
643.74	18.287
644.07	18.883
644.40	19.595
644.73	19.264
645.05	18.121
645.38	18.342
645.71	17.376
646.04	20.646
646.36	16.489
646.69	17.626
647.02	18.336
647.35	18.284
647.67	17.550
648.00	19.403
648.33	19.966
648.66	17.966
648.98	16.918
649.31	17.025
649.64	17.896
649.96	18.152
650.29	18.399
650.62	19.145
650.94	17.037
651.27	16.387
651.60	16.577
651.92	19.755
652.25	17.762
652.58	18.667
652.90	20.412
653.23	19.664
653.56	14.890
653.88	18.041
654.21	15.937
654.54	18.506
654.86	19.525
655.19	17.398
655.52	20.511
655.84	20.046
656.17	22.200
656.49	30.133
656.82	31.508
657.15	24.427
657.47	18.278
657.80	13.327
658.13	12.875
658.45	20.251
658.78	20.111
659.10	20.791
659.43	21.085
659.75	20.572
660.08	20.069
660.41	20.327
660.73	17.818
661.06	18.198
661.38	18.787
661.71	14.784
662.03	17.597
662.36	17.143
662.68	16.372
663.01	18.996
663.33	15.313
663.66	16.512
663.98	17.907
664.31	17.484
664.63	16.359
664.96	16.304
665.28	14.570
665.61	17.532
665.93	17.174
666.26	21.692
666.58	16.555
666.91	18.824
667.23	18.868
667.56	18.483
667.88	17.746
668.21	17.661
668.53	17.258
668.86	16.038
669.18	15.094
669.50	15.738
669.83	17.442
670.15	17.249
670.48	16.268
670.80	17.742
671.13	19.016
671.45	14.155
671.77	19.528
672.10	17.228
672.42	17.790
672.75	17.052
673.07	17.889
673.39	18.716
673.72	15.779
674.04	19.375
674.37	18.644
674.69	15.632
675.01	18.889
675.34	18.468
675.66	16.667
675.98	17.517
676.31	17.890
676.63	14.727
676.95	19.318
677.28	19.059
677.60	18.313
677.92	18.807
678.25	17.287
678.57	16.667
678.89	16.597
679.22	18.345
679.54	16.466
679.86	15.507
680.18	16.311
680.51	16.856
680.83	16.899
681.15	18.200
681.48	19.057
681.80	18.388
682.12	20.363
682.44	16.736
682.77	16.777
683.09	14.188
683.41	18.864
683.73	14.286
684.06	17.478
684.38	16.129
684.70	17.211
685.02	15.975
685.34	15.810
685.67	18.386
685.99	17.179
686.31	17.168
686.63	18.924
686.96	14.829
687.28	12.929
687.60	15.589
687.92	20.202
688.24	17.944
688.56	18.122
688.89	18.527
689.21	18.000
689.53	15.777
689.85	13.953
690.17	19.866
690.49	16.312
690.82	18.932
691.14	15.476
691.46	17.991
691.78	17.793
692.10	20.215
692.42	17.100
692.74	18.590
693.06	16.667
693.39	15.837
693.71	15.611
694.03	15.704
694.35	17.290
694.67	14.394
694.99	16.449
695.31	18.277
695.63	15.250
695.95	15.657
696.27	16.062
696.59	17.500
696.91	14.566
697.23	13.368
697.56	15.594
697.88	19.570
698.20	15.945
698.52	20.000
698.84	11.962
699.16	18.750
699.48	19.298
699.80	16.377
700.12	16.981
700.44	20.448
700.76	13.663
701.08	15.758
701.40	15.060
701.72	18.827
702.04	17.162
702.36	18.395
702.68	17.417
703.00	17.576
703.32	15.249
703.64	14.972
703.96	16.812
704.28	15.644
704.60	12.698
704.91	18.927
705.23	10.631
705.55	15.901
705.87	18.773
706.19	15.185
706.51	16.495
706.83	17.685
707.15	12.150
707.47	15.966
707.79	15.104
708.11	17.500
708.43	17.750
708.74	16.796
709.06	18.310
709.38	18.043
709.70	17.751
710.02	16.561
710.34	16.718
710.66	15.064
710.98	14.238
711.29	21.311
711.61	20.000
711.93	20.195
712.25	20.962
712.57	15.018
712.89	17.910
713.20	17.993
713.52	16.725
713.84	14.676
714.16	14.433
714.48	15.484
714.80	19.872
715.11	18.237
715.43	14.107
715.75	11.667
716.07	17.276
716.39	13.423
716.70	15.129
717.02	19.466
717.34	17.409
717.66	16.814
717.97	9.130
718.29	13.808
718.61	20.079
718.93	15.504
719.24	16.350
719.56	17.671
719.88	18.213
720.20	20.076
720.51	14.176
720.83	18.919
721.15	18.067
721.46	19.355
721.78	11.858
722.10	17.472
722.42	8.714
722.73	11.020
723.05	19.592
723.37	18.220
723.68	21.171
724.00	14.530
724.32	9.778
724.63	14.091
724.95	19.651
725.27	17.972
725.58	19.915
725.90	12.302
726.22	18.533
726.53	16.271
726.85	13.483
727.16	22.642
727.48	10.526
727.80	14.575
728.11	11.864
728.43	21.176
728.74	12.500
729.06	14.000
729.38	18.797
729.69	11.155
730.01	14.231
730.32	15.672
730.64	18.728
730.96	15.472
731.27	15.667
731.59	15.593
731.90	17.516
732.22	21.136
732.53	16.611
732.85	14.539
733.16	18.519
733.48	15.108
733.80	13.768
734.11	17.288
734.43	14.089
734.74	17.879
735.06	14.332
735.37	17.825
735.69	17.508
736.00	16.376
736.32	15.101
736.63	23.944
736.95	17.747
737.26	13.879
737.58	16.107
737.89	15.751
738.21	16.541
738.52	16.872
738.83	15.721
739.15	9.607
739.46	17.323
739.78	15.385
740.09	17.647
740.41	16.304
740.72	10.236
741.04	15.789
741.35	18.723
741.66	10.900
741.98	8.673
742.29	18.812
742.61	16.754
742.92	5.687
743.23	5.093
743.55	17.195
743.86	15.311
744.18	15.789
744.49	12.234
744.80	14.674
745.12	22.995
745.43	10.244
745.74	14.062
746.06	15.610
746.37	13.613
746.68	19.431
747.00	8.511
747.31	20.896
747.62	14.563
747.94	15.789
748.25	14.356
748.56	19.126
748.88	15.183
749.19	29.255
749.50	11.330
749.82	10.849
750.13	11.009
750.44	19.173
750.75	16.045
751.07	21.898
751.38	15.326
751.69	14.902
752.01	19.380
752.32	17.131
752.63	10.672
752.94	15.086
753.26	23.431
753.57	16.742
753.88	11.947
754.19	13.333
754.51	14.876
754.82	16.599
755.13	20.417
755.44	20.161
755.75	14.844
756.07	19.066
756.38	16.981
756.69	9.962
757.00	16.333
757.31	18.954
757.63	14.939
757.94	17.500
758.25	15.890
758.56	17.021
758.87	15.014
759.18	15.576
759.50	16.000
759.81	21.070
760.12	16.129
760.43	20.000
760.74	21.296
761.05	19.692
761.36	18.466
761.67	19.091
761.99	18.367
762.30	19.273
762.61	18.972
762.92	10.407
763.23	9.910
763.54	10.280
763.85	14.831
764.16	14.938
764.47	17.339
764.78	15.385
765.10	19.529
765.41	15.457
765.72	20.635
766.03	11.654
766.34	18.613
766.65	18.725
766.96	19.192
767.27	16.489
767.58	10.345
767.89	9.220
768.20	13.068
768.51	7.143
768.82	18.227
769.13	11.521
769.44	11.159
769.75	13.242
770.06	13.793
770.37	17.788
770.68	18.782
770.99	15.385
771.30	19.118
771.61	14.932
771.92	19.397
772.23	17.241
772.54	12.903
772.85	12.346
773.16	20.787
773.47	15.686
773.78	17.647
774.09	10.778
774.39	14.667
774.70	19.745
775.01	22.759
775.32	16.429
775.63	10.744
775.94	16.794
776.25	21.260
776.56	12.500
776.87	19.231
777.18	7.692
777.48	16.379
777.79	11.304
778.10	2.857
778.41	6.306
778.72	15.079
779.03	9.774
779.34	15.603
779.65	16.438
779.95	10.959
780.26	11.724
780.57	6.504
780.88	11.811
781.19	20.690
781.50	13.178
781.80	7.692
782.11	8.176
782.42	16.923
782.73	12.230
783.04	17.037
783.34	9.722
783.65	7.692
783.96	17.213
784.27	18.621
784.57	4.065
784.88	13.281
785.19	17.000
785.50	20.000
785.81	18.103
786.11	9.483
786.42	12.621
786.73	20.909
787.04	4.082
787.34	11.607
787.65	4.762
787.96	12.389
788.26	8.182
788.57	17.949
788.88	21.875
789.19	11.905
789.49	9.565
789.80	1.020
790.11	16.162
790.41	6.364
790.72	15.217
791.03	12.500
791.33	16.250
791.64	7.500
791.95	10.465
792.25	10.638
792.56	24.719
792.87	19.178
793.17	5.797
793.48	-1.333
793.79	6.250
794.09	15.000
794.40	0.943
794.70	6.796
795.01	13.821
795.32	14.530
795.62	5.714
795.93	4.902
796.23	25.472
796.54	17.708
796.85	26.471
797.15	12.676
797.46	-5.556
797.76	24.242
798.07	13.953
798.37	7.895
798.68	4.545
798.99	7.407
799.29	18.571
799.60	-4.348
799.90	13.333
800.21	18.033
800.51	15.385
800.82	0.000
801.12	5.797
801.43	16.393
801.73	15.873
802.04	6.000
802.34	-8.955
802.65	7.692
802.95	12.500
803.26	7.692
803.56	-3.922
803.87	-26.087
804.17	9.333
804.48	17.460
804.78	20.370
805.09	10.870
805.39	-13.333
805.70	-5.556
806.00	-17.544
806.30	14.085
806.61	25.714
806.91	-11.111
807.22	21.053
807.52	18.667
807.83	5.455
808.13	8.333
808.43	20.588
808.74	5.970
809.04	-5.085
809.35	1.923
809.65	9.375
809.95	-37.838
810.26	6.818
810.56	10.959
810.86	-4.762
811.17	0.000
811.47	24.490
811.77	2.632
812.08	9.091
812.38	-3.774
812.69	15.000
812.99	12.121
813.29	-2.632
813.59	-8.571
813.90	-25.000
814.20	-23.077
814.50	5.769
814.81	0.000
815.11	-10.638
815.41	18.644
815.72	19.048
816.02	17.647
816.32	0.000
816.62	26.829
816.93	-5.405
817.23	11.429
817.53	20.833
817.84	4.348
818.14	17.308
818.44	-13.158
818.74	21.739
819.04	-27.500
819.35	-5.405
819.65	5.882
819.95	-22.222
820.25	-14.286
820.56	30.000
820.86	-41.379
821.16	35.000
821.46	-6.383
821.76	27.500
822.07	-11.628
822.37	-43.243
822.67	3.125
822.97	23.810
823.27	-28.571
823.57	-20.000
823.88	-37.037
824.18	21.429
824.48	5.882
824.78	-12.903
825.08	-26.087
825.38	3.030
825.69	-83.333
825.99	-5.263
826.29	16.667
826.59	-26.667
826.89	-33.333
827.19	10.870
827.49	2.500
827.79	0.000
828.09	25.000
828.39	0.000
828.70	43.243
829.00	-35.714
829.30	-38.095
829.60	-23.333
829.90	31.250
830.20	-5.263
830.50	-44.444
830.80	-13.043
831.10	-54.545
831.40	42.424
831.70	19.355
832.00	28.571
832.30	-28.571
832.60	-50.000
832.90	6.897
833.20	0.000
833.50	18.182
833.80	-18.519
834.10	-15.385
834.40	37.500
834.70	-11.111
835.00	-42.105
835.30	61.538
835.60	26.667
835.90	12.903
836.20	13.636
836.50	14.286
836.80	-42.308
837.10	-7.143
837.40	-400.000
837.70	-18.182
838.00	-45.455
838.30	13.043
838.60	-7.692
838.90	40.909
839.19	0.000
839.49	13.333
839.79	-30.769
840.09	-66.667
840.39	0.000
840.69	14.286
840.99	-7.692
841.29	-52.632
841.59	-10.000
841.88	9.091
842.18	20.000
842.48	0.000
842.78	-40.000
843.08	48.148
843.38	-50.000
843.68	13.043
843.97	13.333
844.27	-86.667
844.57	-20.000
844.87	-5.556
845.17	-14.286
845.47	-33.333
845.76	9.524
846.06	-5.882
846.36	-170.000
846.66	-121.429
846.96	-46.667
847.25	-162.500
847.55	28.571
847.85	-87.500
848.15	-45.455
848.44	-666.667
848.74	50.000
849.04	18.519
849.34	-36.364
849.63	-150.000
849.93	-120.000
850.23	-22.222
850.53	70.000
850.82	-30.769
851.12	-11.111
851.42	26.667
851.71	19.231
852.01	-14.286
852.31	-300.000
852.61	-9.091
852.90	-20.000
853.20	-5.263
853.50	-8.333
853.79	17.391
854.09	0.000
854.39	-21.053
854.68	4.167
854.98	45.161
855.28	26.923
855.57	-15.000
855.87	-27.778
856.17	25.926
856.46	14.286
856.76	-66.667
857.05	11.111
857.35	8.000
857.65	11.111
857.94	-115.385
858.24	10.345
858.53	-11.111
858.83	37.037
859.13	-13.636
859.42	-26.087
859.72	-250.000
860.01	-866.667
860.31	28.000
860.60	33.333
860.90	-533.333
861.20	-33.333
861.49	-800.000
861.79	-20.000
862.08	-20.000
862.38	46.667
862.67	-240.000
862.97	-133.333
863.26	-58.333
863.56	0.000
863.85	-466.667
864.15	16.667
864.44	-120.000
864.74	35.714
865.03	100.000
865.33	-160.000
865.62	116.667
865.92	-66.667
866.21	-250.000
866.51	-6.250
866.80	-136.364
867.10	-550.000
867.39	25.000
867.69	0.000
867.98	-30.769
868.27	-400.000
868.57	0.000
868.86	44.444
869.16	-30.769
869.45	66.667
869.75	-1100.000
870.04	0.000
870.33	-28.571
870.63	0.000
870.92	166.667
871.22	-100.000
871.51	-800.000
871.80	77.778
872.10	366.667
>>>>>End Processed Spectral Data<<<<<
