SpectraSuite Data File
++++++++++++++++++++++++++++++++++++
Date: Fri May 15 21:12:17 PDT 2015
User: schluterlab
Dark Spectrum Present: Yes
Reference Spectrum Present: Yes
Number of Sampled Component Spectra: 1
Spectrometers: USB2E3373
Integration Time (usec): 3000 (USB2E3373)
Spectra Averaged: 3 (USB2E3373)
Boxcar Smoothing: 0 (USB2E3373)
Correct for Electrical Dark: No (USB2E3373)
Strobe/Lamp Enabled: No (USB2E3373)
Correct for Detector Non-linearity: No (USB2E3373)
Correct for Stray Light: No (USB2E3373)
Number of Pixels in Processed Spectrum: 2048
>>>>>Begin Processed Spectral Data<<<<<
178.53	0.000
178.91	0.000
179.29	-112.500
179.67	-500.000
180.04	-42.857
180.42	-125.000
180.80	-700.000
181.18	200.000
181.56	500.000
181.94	-200.000
182.31	900.000
182.69	-240.000
183.07	-166.667
183.45	-180.000
183.83	83.333
184.20	36.364
184.58	122.222
184.96	150.000
185.34	233.333
185.72	-450.000
186.09	169.231
186.47	-1000.000
186.85	283.333
187.23	122.222
187.61	400.000
187.98	-266.667
188.36	-22.222
188.74	-200.000
189.12	0.000
189.49	22.222
189.87	0.000
190.25	50.000
190.63	-100.000
191.00	-500.000
191.38	57.895
191.76	150.000
192.14	175.000
192.51	50.000
192.89	11.111
193.27	-271.429
193.65	183.333
194.02	154.545
194.40	40.000
194.78	-75.000
195.15	-16.667
195.53	-212.500
195.91	425.000
196.29	-350.000
196.66	100.000
197.04	128.571
197.42	-44.444
197.79	-333.333
198.17	-115.385
198.55	500.000
198.92	-200.000
199.30	-300.000
199.68	-200.000
200.05	-333.333
200.43	0.000
200.81	-100.000
201.18	-533.333
201.56	900.000
201.94	-500.000
202.31	-0.000
202.69	-340.000
203.07	275.000
203.44	0.000
203.82	0.000
204.19	21.429
204.57	-300.000
204.95	125.000
205.32	70.000
205.70	-71.429
206.08	-175.000
206.45	66.667
206.83	35.714
207.20	-200.000
207.58	700.000
207.96	-566.667
208.33	-180.000
208.71	-125.000
209.08	-200.000
209.46	-2200.000
209.84	-80.000
210.21	-600.000
210.59	85.714
210.96	-100.000
211.34	125.000
211.71	20.000
212.09	-185.714
212.46	-2300.000
212.84	0.000
213.22	130.000
213.59	-100.000
213.97	23.077
214.34	-90.909
214.72	16.667
215.09	625.000
215.47	-30.769
215.84	-36.364
216.22	-133.333
216.59	-50.000
216.97	200.000
217.34	-75.000
217.72	-320.000
218.09	0.000
218.47	262.500
218.84	-1600.000
219.22	-122.222
219.59	-40.000
219.97	300.000
220.34	200.000
220.72	-128.571
221.09	-225.000
221.47	0.000
221.84	-850.000
222.22	-500.000
222.59	18.182
222.97	58.333
223.34	-366.667
223.72	-21.429
224.09	-33.333
224.46	14.286
224.84	500.000
225.21	-80.000
225.59	-53.333
225.96	-350.000
226.34	550.000
226.71	-142.857
227.08	-133.333
227.46	-225.000
227.83	-800.000
228.21	22.222
228.58	18.182
228.95	-25.000
229.33	130.000
229.70	0.000
230.08	-137.500
230.45	28.571
230.82	-57.143
231.20	-13.333
231.57	35.714
231.95	-85.714
232.32	-130.000
232.69	28.571
233.07	166.667
233.44	-240.000
233.81	-90.000
234.19	33.333
234.56	-41.176
234.93	150.000
235.31	-175.000
235.68	-180.000
236.05	-92.308
236.43	-80.000
236.80	17.647
237.17	-3.125
237.55	-15.000
237.92	-11.111
238.29	11.111
238.67	3.333
239.04	20.588
239.41	-21.951
239.79	-6.667
240.16	34.146
240.53	-7.895
240.91	10.870
241.28	25.397
241.65	17.857
242.02	24.658
242.40	25.000
242.77	27.119
243.14	13.636
243.51	26.250
243.89	28.736
244.26	14.943
244.63	25.000
245.00	24.742
245.38	23.711
245.75	6.742
246.12	22.414
246.49	19.008
246.87	37.500
247.24	21.008
247.61	23.684
247.98	21.138
248.36	23.125
248.73	30.921
249.10	20.779
249.47	27.215
249.84	19.608
250.22	23.529
250.59	20.915
250.96	27.700
251.33	31.395
251.70	27.647
252.08	24.873
252.45	24.752
252.82	29.146
253.19	29.032
253.56	26.168
253.94	23.423
254.31	28.696
254.68	34.211
255.05	22.835
255.42	27.948
255.79	25.869
256.16	26.848
256.54	29.478
256.91	21.673
257.28	27.138
257.65	26.217
258.02	27.305
258.39	25.926
258.76	31.502
259.14	32.226
259.51	27.184
259.88	26.804
260.25	26.144
260.62	31.944
260.99	28.814
261.36	23.630
261.73	29.114
262.10	28.267
262.47	26.687
262.85	25.392
263.22	26.462
263.59	27.726
263.96	26.398
264.33	27.273
264.70	24.107
265.07	27.679
265.44	29.745
265.81	24.576
266.18	29.235
266.55	28.535
266.92	29.016
267.29	28.982
267.66	29.156
268.03	30.105
268.40	28.198
268.77	28.342
269.14	27.578
269.51	26.735
269.88	24.190
270.25	22.959
270.62	28.780
270.99	29.156
271.36	25.183
271.73	28.169
272.10	29.440
272.47	28.132
272.84	29.950
273.21	27.146
273.58	29.639
273.95	29.977
274.32	28.176
274.69	24.208
275.06	29.688
275.43	24.717
275.80	28.035
276.17	28.046
276.54	26.767
276.91	28.289
277.28	26.419
277.65	27.479
278.02	25.745
278.39	27.352
278.76	28.092
279.13	25.311
279.50	27.521
279.87	26.566
280.23	26.452
280.60	26.901
280.97	26.263
281.34	24.423
281.71	25.257
282.08	24.335
282.45	21.918
282.82	25.676
283.19	23.985
283.56	24.085
283.92	24.288
284.29	24.038
284.66	24.612
285.03	26.326
285.40	24.386
285.77	23.726
286.14	26.534
286.51	26.937
286.87	24.314
287.24	23.757
287.61	25.750
287.98	25.263
288.35	25.650
288.72	25.394
289.08	21.875
289.45	24.077
289.82	23.427
290.19	23.549
290.56	23.156
290.93	22.054
291.29	23.575
291.66	22.835
292.03	22.169
292.40	23.226
292.77	21.691
293.13	18.506
293.50	20.941
293.87	20.305
294.24	22.102
294.60	21.162
294.97	19.792
295.34	20.859
295.71	21.013
296.08	20.777
296.44	18.208
296.81	20.833
297.18	18.116
297.55	20.325
297.91	20.411
298.28	19.393
298.65	19.403
299.02	20.081
299.38	17.237
299.75	19.862
300.12	16.885
300.48	19.368
300.85	19.011
301.22	17.662
301.59	18.421
301.95	19.367
302.32	18.029
302.69	18.035
303.05	18.441
303.42	17.684
303.79	17.640
304.15	18.280
304.52	16.290
304.89	17.193
305.25	15.860
305.62	15.286
305.99	17.895
306.35	17.457
306.72	17.323
307.09	17.218
307.45	18.599
307.82	15.856
308.19	19.280
308.55	17.448
308.92	18.083
309.29	17.654
309.65	16.039
310.02	17.822
310.38	16.905
310.75	17.814
311.12	17.438
311.48	16.755
311.85	15.497
312.22	15.928
312.58	16.454
312.95	16.435
313.31	16.460
313.68	17.173
314.05	17.245
314.41	17.113
314.78	16.082
315.14	16.855
315.51	17.702
315.87	16.496
316.24	17.189
316.61	17.028
316.97	16.567
317.34	16.016
317.70	17.495
318.07	16.923
318.43	17.451
318.80	16.098
319.16	17.090
319.53	17.759
319.89	16.732
320.26	16.498
320.62	18.054
320.99	17.954
321.35	16.547
321.72	17.757
322.08	16.616
322.45	18.883
322.81	16.798
323.18	16.290
323.54	16.988
323.91	17.332
324.27	17.773
324.64	17.978
325.00	18.339
325.37	19.008
325.73	17.860
326.10	17.802
326.46	18.565
326.83	17.585
327.19	16.652
327.56	17.202
327.92	18.574
328.29	18.304
328.65	18.113
329.01	17.371
329.38	17.696
329.74	18.319
330.11	17.794
330.47	17.254
330.84	17.692
331.20	19.962
331.56	17.500
331.93	17.078
332.29	18.240
332.66	17.919
333.02	17.379
333.38	17.049
333.75	18.223
334.11	18.621
334.48	18.404
334.84	17.308
335.20	17.749
335.57	16.954
335.93	17.706
336.29	17.127
336.66	17.711
337.02	17.379
337.38	15.833
337.75	17.909
338.11	16.772
338.47	17.883
338.84	17.190
339.20	17.002
339.56	17.339
339.93	18.174
340.29	17.890
340.65	17.832
341.02	17.819
341.38	16.549
341.74	16.431
342.11	15.771
342.47	17.883
342.83	16.955
343.20	16.986
343.56	17.478
343.92	17.272
344.28	17.763
344.65	16.062
345.01	16.249
345.37	16.821
345.73	17.992
346.10	17.256
346.46	16.232
346.82	16.530
347.19	15.628
347.55	16.792
347.91	17.799
348.27	15.926
348.63	17.547
349.00	16.161
349.36	16.126
349.72	17.081
350.08	16.393
350.45	18.037
350.81	16.694
351.17	16.287
351.53	16.980
351.89	16.268
352.26	16.960
352.62	17.177
352.98	15.743
353.34	16.023
353.70	16.343
354.07	16.129
354.43	14.732
354.79	15.690
355.15	16.905
355.51	16.139
355.87	16.262
356.24	15.171
356.60	16.087
356.96	15.873
357.32	14.696
357.68	16.497
358.04	15.267
358.40	15.836
358.77	15.869
359.13	15.612
359.49	15.716
359.85	15.913
360.21	14.912
360.57	14.920
360.93	15.204
361.29	14.728
361.66	15.282
362.02	16.515
362.38	15.842
362.74	14.762
363.10	16.102
363.46	15.864
363.82	16.604
364.18	15.498
364.54	15.294
364.90	15.054
365.26	14.556
365.62	16.131
365.98	15.249
366.35	16.533
366.71	14.634
367.07	15.312
367.43	14.738
367.79	15.901
368.15	15.219
368.51	15.076
368.87	14.286
369.23	14.946
369.59	15.233
369.95	16.056
370.31	15.968
370.67	14.627
371.03	15.086
371.39	14.734
371.75	14.872
372.11	15.050
372.47	15.163
372.83	15.117
373.19	15.549
373.55	14.368
373.91	14.975
374.27	14.529
374.63	15.721
374.99	15.390
375.35	14.345
375.71	14.755
376.07	15.379
376.42	15.442
376.78	15.570
377.14	15.098
377.50	15.803
377.86	14.391
378.22	14.997
378.58	14.872
378.94	15.564
379.30	15.533
379.66	14.545
380.02	14.899
380.38	14.729
380.74	15.200
381.09	15.583
381.45	14.495
381.81	15.238
382.17	15.102
382.53	14.678
382.89	15.505
383.25	15.370
383.61	15.488
383.97	13.905
384.32	14.134
384.68	15.170
385.04	13.971
385.40	14.499
385.76	15.660
386.12	14.877
386.48	15.326
386.83	14.141
387.19	14.103
387.55	14.743
387.91	15.281
388.27	14.286
388.62	14.349
388.98	14.979
389.34	14.054
389.70	14.978
390.06	13.531
390.42	14.378
390.77	14.127
391.13	14.124
391.49	14.230
391.85	14.620
392.20	14.501
392.56	14.940
392.92	14.563
393.28	13.974
393.64	14.054
393.99	15.925
394.35	14.042
394.71	15.198
395.07	14.645
395.42	14.693
395.78	14.528
396.14	15.448
396.50	14.204
396.85	15.003
397.21	15.414
397.57	14.796
397.92	14.679
398.28	14.770
398.64	14.759
399.00	14.842
399.35	13.883
399.71	14.991
400.07	14.933
400.42	14.504
400.78	15.677
401.14	14.822
401.49	15.426
401.85	13.894
402.21	14.699
402.57	16.188
402.92	14.429
403.28	14.536
403.63	14.124
403.99	13.839
404.35	14.491
404.70	14.107
405.06	14.689
405.42	15.040
405.77	14.410
406.13	14.726
406.49	14.210
406.84	14.731
407.20	15.232
407.55	13.844
407.91	13.837
408.27	15.169
408.62	14.954
408.98	15.280
409.34	15.489
409.69	14.922
410.05	14.901
410.40	14.383
410.76	14.777
411.11	15.125
411.47	14.398
411.83	13.999
412.18	14.028
412.54	15.231
412.89	14.717
413.25	14.982
413.60	14.534
413.96	14.049
414.31	14.756
414.67	14.625
415.03	14.647
415.38	15.209
415.74	14.202
416.09	14.892
416.45	15.327
416.80	14.276
417.16	14.986
417.51	14.990
417.87	13.950
418.22	14.702
418.58	15.318
418.93	15.172
419.29	14.597
419.64	14.971
420.00	15.050
420.35	14.448
420.71	15.492
421.06	15.040
421.42	15.144
421.77	15.145
422.12	15.210
422.48	14.618
422.83	14.965
423.19	14.616
423.54	14.109
423.90	14.370
424.25	14.868
424.61	15.545
424.96	15.563
425.31	15.598
425.67	15.200
426.02	14.664
426.38	15.905
426.73	15.557
427.09	16.139
427.44	15.765
427.79	15.734
428.15	16.080
428.50	14.718
428.85	14.742
429.21	15.110
429.56	15.687
429.92	15.973
430.27	14.937
430.62	14.480
430.98	14.597
431.33	15.300
431.68	15.018
432.04	15.539
432.39	15.174
432.74	15.033
433.10	15.690
433.45	15.054
433.80	15.728
434.16	14.294
434.51	15.323
434.86	15.273
435.22	15.648
435.57	16.594
435.92	15.150
436.28	15.325
436.63	15.060
436.98	14.948
437.34	15.910
437.69	15.564
438.04	15.100
438.39	15.394
438.75	14.997
439.10	15.110
439.45	15.764
439.81	15.535
440.16	15.796
440.51	16.597
440.86	15.952
441.22	15.498
441.57	15.397
441.92	16.107
442.27	15.022
442.63	16.328
442.98	15.279
443.33	16.027
443.68	16.340
444.03	15.797
444.39	15.593
444.74	16.667
445.09	16.147
445.44	15.385
445.79	16.452
446.15	16.134
446.50	15.862
446.85	16.100
447.20	16.058
447.55	15.067
447.91	15.228
448.26	15.936
448.61	16.868
448.96	15.720
449.31	15.434
449.66	15.738
450.02	16.600
450.37	15.590
450.72	15.750
451.07	16.772
451.42	15.793
451.77	15.973
452.12	15.311
452.47	15.583
452.83	15.371
453.18	15.117
453.53	16.372
453.88	15.665
454.23	15.796
454.58	15.743
454.93	16.044
455.28	15.111
455.63	15.871
455.98	16.597
456.34	15.390
456.69	16.201
457.04	16.761
457.39	16.525
457.74	15.719
458.09	15.362
458.44	16.150
458.79	15.910
459.14	17.449
459.49	17.373
459.84	17.090
460.19	16.019
460.54	16.687
460.89	16.989
461.24	16.460
461.59	16.152
461.94	16.415
462.29	16.285
462.64	17.143
462.99	17.197
463.34	15.647
463.69	16.924
464.04	16.344
464.39	16.313
464.74	16.319
465.09	16.095
465.44	16.676
465.79	16.497
466.14	16.990
466.49	16.446
466.84	17.014
467.19	17.334
467.54	15.709
467.89	15.603
468.24	16.484
468.59	16.635
468.94	16.571
469.29	16.328
469.64	16.951
469.99	15.978
470.34	15.904
470.68	18.046
471.03	16.419
471.38	16.904
471.73	15.756
472.08	17.368
472.43	16.242
472.78	15.970
473.13	17.211
473.48	17.459
473.83	17.061
474.17	16.710
474.52	16.784
474.87	16.485
475.22	17.389
475.57	17.222
475.92	17.718
476.27	17.695
476.61	16.493
476.96	16.843
477.31	17.847
477.66	16.517
478.01	16.283
478.36	17.157
478.70	16.476
479.05	16.758
479.40	17.064
479.75	16.788
480.10	17.358
480.45	17.050
480.79	17.221
481.14	17.111
481.49	16.158
481.84	17.133
482.19	16.651
482.53	16.643
482.88	16.468
483.23	16.843
483.58	16.557
483.92	16.457
484.27	17.046
484.62	16.674
484.97	16.211
485.31	16.221
485.66	16.067
486.01	16.519
486.36	16.391
486.70	16.360
487.05	16.395
487.40	16.753
487.75	16.169
488.09	15.946
488.44	16.094
488.79	16.586
489.13	16.146
489.48	16.204
489.83	16.996
490.17	16.180
490.52	17.460
490.87	16.428
491.22	17.335
491.56	17.173
491.91	16.061
492.26	16.772
492.60	17.131
492.95	17.855
493.30	16.610
493.64	17.485
493.99	17.585
494.34	16.456
494.68	16.571
495.03	16.399
495.37	16.879
495.72	17.214
496.07	16.585
496.41	17.075
496.76	16.859
497.11	17.094
497.45	17.184
497.80	17.255
498.14	16.841
498.49	17.522
498.84	16.667
499.18	17.570
499.53	17.411
499.87	16.683
500.22	17.310
500.56	17.347
500.91	17.118
501.26	16.164
501.60	17.511
501.95	16.448
502.29	17.337
502.64	17.085
502.98	17.267
503.33	15.946
503.67	17.349
504.02	17.302
504.36	16.774
504.71	16.515
505.06	17.262
505.40	17.513
505.75	17.165
506.09	16.776
506.44	17.813
506.78	17.245
507.13	17.270
507.47	16.554
507.82	16.880
508.16	16.746
508.51	17.629
508.85	18.053
509.19	16.764
509.54	17.373
509.88	17.638
510.23	17.321
510.57	17.477
510.92	15.565
511.26	17.021
511.61	17.877
511.95	18.027
512.30	17.406
512.64	17.418
512.98	16.957
513.33	17.963
513.67	17.112
514.02	17.792
514.36	17.543
514.70	18.357
515.05	18.038
515.39	17.828
515.74	18.383
516.08	18.111
516.42	18.787
516.77	18.724
517.11	17.329
517.46	18.073
517.80	17.759
518.14	17.697
518.49	17.127
518.83	17.679
519.17	17.404
519.52	18.117
519.86	17.407
520.20	17.801
520.55	16.948
520.89	18.068
521.23	17.099
521.58	19.685
521.92	17.949
522.26	19.323
522.61	19.351
522.95	18.013
523.29	18.551
523.64	18.551
523.98	18.859
524.32	17.268
524.66	18.502
525.01	19.286
525.35	18.406
525.69	18.249
526.04	18.783
526.38	19.390
526.72	18.182
527.06	18.482
527.41	18.931
527.75	18.700
528.09	18.605
528.43	19.041
528.78	18.152
529.12	18.452
529.46	17.934
529.80	19.316
530.15	19.472
530.49	18.721
530.83	18.126
531.17	17.797
531.51	19.083
531.86	17.607
532.20	19.137
532.54	18.516
532.88	18.823
533.22	18.817
533.57	17.955
533.91	19.191
534.25	18.880
534.59	18.089
534.93	18.628
535.27	17.830
535.62	18.276
535.96	18.982
536.30	19.129
536.64	18.746
536.98	18.258
537.32	18.990
537.66	19.635
538.01	18.951
538.35	19.001
538.69	19.441
539.03	18.660
539.37	18.641
539.71	18.473
540.05	18.126
540.39	19.114
540.73	19.386
541.07	18.646
541.42	18.952
541.76	18.238
542.10	18.445
542.44	18.346
542.78	17.206
543.12	18.132
543.46	19.332
543.80	18.251
544.14	18.291
544.48	18.121
544.82	18.387
545.16	18.716
545.50	20.093
545.84	19.122
546.18	19.149
546.52	19.539
546.86	19.123
547.20	19.671
547.54	18.163
547.88	19.361
548.22	18.606
548.56	18.470
548.90	19.407
549.24	17.975
549.58	19.252
549.92	17.584
550.26	18.755
550.60	18.587
550.94	18.447
551.28	18.934
551.62	19.462
551.96	18.722
552.30	18.787
552.64	18.406
552.98	19.409
553.32	19.615
553.66	18.723
554.00	18.832
554.34	19.941
554.68	18.363
555.02	18.378
555.36	19.147
555.69	19.560
556.03	18.201
556.37	18.149
556.71	19.206
557.05	19.463
557.39	18.587
557.73	18.966
558.07	18.778
558.41	19.296
558.75	20.031
559.08	18.519
559.42	20.397
559.76	19.295
560.10	18.960
560.44	17.870
560.78	19.371
561.12	18.477
561.45	19.255
561.79	18.978
562.13	18.240
562.47	18.345
562.81	18.804
563.15	19.252
563.48	18.458
563.82	19.835
564.16	19.708
564.50	18.784
564.84	19.277
565.17	18.645
565.51	19.740
565.85	19.410
566.19	18.435
566.52	18.164
566.86	19.409
567.20	19.676
567.54	18.431
567.88	19.156
568.21	19.400
568.55	19.130
568.89	19.045
569.23	18.296
569.56	18.345
569.90	17.946
570.24	17.492
570.57	18.073
570.91	17.985
571.25	17.494
571.59	17.658
571.92	17.304
572.26	17.421
572.60	17.395
572.93	17.195
573.27	17.304
573.61	17.154
573.95	17.122
574.28	17.267
574.62	17.239
574.96	17.128
575.29	17.113
575.63	16.429
575.97	17.268
576.30	17.121
576.64	16.821
576.98	17.272
577.31	17.670
577.65	16.881
577.98	17.265
578.32	16.872
578.66	16.742
578.99	16.799
579.33	16.787
579.67	16.780
580.00	17.089
580.34	16.915
580.67	16.864
581.01	16.931
581.35	16.990
581.68	17.201
582.02	16.921
582.35	16.936
582.69	17.004
583.02	16.898
583.36	17.270
583.70	17.056
584.03	17.320
584.37	17.702
584.70	17.390
585.04	16.606
585.37	16.732
585.71	17.107
586.04	17.020
586.38	16.698
586.72	16.872
587.05	17.418
587.39	17.417
587.72	17.906
588.06	16.994
588.39	17.516
588.73	17.155
589.06	17.743
589.40	17.214
589.73	17.598
590.07	17.863
590.40	17.724
590.73	17.957
591.07	17.897
591.40	17.943
591.74	17.466
592.07	18.553
592.41	17.668
592.74	17.881
593.08	17.464
593.41	17.463
593.75	17.403
594.08	17.096
594.41	17.831
594.75	17.176
595.08	17.518
595.42	17.814
595.75	17.386
596.09	17.475
596.42	17.073
596.75	18.073
597.09	17.312
597.42	17.977
597.75	18.781
598.09	17.700
598.42	17.193
598.76	18.147
599.09	17.788
599.42	17.166
599.76	16.817
600.09	17.534
600.42	17.286
600.76	17.348
601.09	17.939
601.42	17.195
601.76	17.864
602.09	16.832
602.42	17.987
602.76	17.615
603.09	17.650
603.42	18.269
603.76	17.540
604.09	17.092
604.42	17.343
604.76	17.980
605.09	17.916
605.42	17.743
605.75	17.032
606.09	17.495
606.42	17.807
606.75	17.316
607.09	17.758
607.42	17.545
607.75	17.540
608.08	17.071
608.42	17.588
608.75	17.446
609.08	17.987
609.41	17.157
609.75	17.893
610.08	18.023
610.41	17.633
610.74	17.650
611.07	17.571
611.41	18.059
611.74	18.657
612.07	17.345
612.40	18.381
612.73	17.966
613.07	17.492
613.40	18.053
613.73	18.187
614.06	18.308
614.39	17.654
614.72	17.647
615.06	17.598
615.39	18.341
615.72	17.869
616.05	17.933
616.38	17.208
616.71	18.654
617.05	17.480
617.38	18.919
617.71	18.176
618.04	18.413
618.37	19.168
618.70	18.746
619.03	20.000
619.36	18.090
619.69	19.484
620.03	19.065
620.36	17.811
620.69	18.772
621.02	19.190
621.35	19.336
621.68	18.197
622.01	19.583
622.34	19.234
622.67	19.479
623.00	19.602
623.33	17.835
623.66	19.297
623.99	19.365
624.32	19.696
624.65	18.421
624.99	19.488
625.32	17.134
625.65	19.482
625.98	19.500
626.31	18.537
626.64	19.237
626.97	19.372
627.30	20.228
627.63	18.631
627.96	20.216
628.29	20.444
628.62	19.567
628.95	20.040
629.28	19.758
629.61	19.342
629.94	20.235
630.26	19.269
630.59	21.852
630.92	19.795
631.25	18.359
631.58	20.485
631.91	19.298
632.24	17.775
632.57	20.909
632.90	18.743
633.23	20.353
633.56	18.766
633.89	18.496
634.22	21.111
634.55	22.236
634.88	20.817
635.20	19.359
635.53	22.000
635.86	17.945
636.19	20.828
636.52	20.026
636.85	17.866
637.18	21.006
637.51	20.377
637.83	19.054
638.16	23.738
638.49	19.619
638.82	21.447
639.15	19.403
639.48	20.633
639.81	19.107
640.13	20.924
640.46	20.117
640.79	19.293
641.12	20.089
641.45	19.069
641.77	20.741
642.10	20.537
642.43	18.328
642.76	23.102
643.09	22.294
643.41	23.625
643.74	21.252
644.07	19.376
644.40	21.115
644.73	22.067
645.05	23.658
645.38	22.928
645.71	20.745
646.04	20.108
646.36	20.922
646.69	22.482
647.02	22.117
647.35	22.015
647.67	21.389
648.00	21.642
648.33	21.331
648.66	22.373
648.98	19.765
649.31	18.678
649.64	20.251
649.96	20.259
650.29	20.273
650.62	21.197
650.94	20.926
651.27	19.367
651.60	21.441
651.92	21.853
652.25	19.716
652.58	20.667
652.90	22.813
653.23	19.160
653.56	19.289
653.88	19.244
654.21	19.089
654.54	19.525
654.86	21.053
655.19	19.591
655.52	20.743
655.84	17.691
656.17	19.458
656.49	26.151
656.82	26.073
657.15	19.272
657.47	14.292
657.80	10.668
658.13	10.435
658.45	15.675
658.78	14.933
659.10	14.422
659.43	14.756
659.75	14.998
660.08	15.586
660.41	16.752
660.73	18.232
661.06	21.837
661.38	17.808
661.71	15.811
662.03	19.313
662.36	22.198
662.68	19.469
663.01	24.454
663.33	20.650
663.66	23.721
663.98	18.837
664.31	21.109
664.63	18.664
664.96	18.696
665.28	18.322
665.61	20.130
665.93	21.957
666.26	22.126
666.58	19.687
666.91	19.765
667.23	23.113
667.56	18.246
667.88	24.700
668.21	22.196
668.53	22.222
668.86	22.406
669.18	22.406
669.50	21.792
669.83	18.372
670.15	20.746
670.48	20.813
670.80	22.350
671.13	20.582
671.45	19.863
671.77	20.601
672.10	19.802
672.42	21.348
672.75	21.137
673.07	22.898
673.39	22.202
673.72	18.738
674.04	20.417
674.37	19.915
674.69	19.272
675.01	21.333
675.34	21.847
675.66	21.065
675.98	19.512
676.31	20.642
676.63	19.952
676.95	19.773
677.28	22.588
677.60	21.928
677.92	21.330
678.25	20.131
678.57	20.346
678.89	21.429
679.22	19.016
679.54	19.277
679.86	19.085
680.18	20.194
680.51	21.970
680.83	18.688
681.15	21.800
681.48	22.951
681.80	19.008
682.12	18.952
682.44	18.410
682.77	21.413
683.09	21.510
683.41	20.000
683.73	22.120
684.06	21.460
684.38	17.419
684.70	20.261
685.02	17.842
685.34	17.984
685.67	17.448
685.99	19.711
686.31	21.239
686.63	17.996
686.96	18.061
687.28	17.576
687.60	16.160
687.92	20.404
688.24	20.363
688.56	18.341
688.89	21.205
689.21	20.667
689.53	18.561
689.85	18.372
690.17	20.536
690.49	20.567
690.82	19.417
691.14	17.143
691.46	21.028
691.78	19.595
692.10	19.570
692.42	20.779
692.74	21.368
693.06	18.694
693.39	16.063
693.71	14.932
694.03	17.321
694.35	19.626
694.67	20.707
694.99	18.016
695.31	17.232
695.63	20.500
695.95	19.697
696.27	22.021
696.59	22.500
696.91	20.448
697.23	18.252
697.56	19.307
697.88	21.505
698.20	17.312
698.52	20.000
698.84	13.876
699.16	20.000
699.48	21.053
699.80	21.588
700.12	18.059
700.44	23.249
700.76	19.767
701.08	21.515
701.40	21.687
701.72	23.457
702.04	20.462
702.36	22.074
702.68	18.619
703.00	21.515
703.32	19.355
703.64	17.514
703.96	17.681
704.28	18.712
704.60	21.905
704.91	18.927
705.23	15.282
705.55	21.908
705.87	20.939
706.19	19.630
706.51	14.089
706.83	21.222
707.15	19.315
707.47	19.328
707.79	17.708
708.11	17.750
708.43	22.000
708.74	18.605
709.06	19.718
709.38	19.878
709.70	20.710
710.02	19.745
710.34	23.220
710.66	18.590
710.98	20.861
711.29	20.656
711.61	19.661
711.93	25.081
712.25	21.993
712.57	24.176
712.89	20.149
713.20	19.031
713.52	19.861
713.84	18.771
714.16	19.244
714.48	15.484
714.80	21.154
715.11	22.796
715.43	14.107
715.75	19.333
716.07	12.957
716.39	21.477
716.70	18.081
717.02	22.137
717.34	20.648
717.66	16.372
717.97	19.565
718.29	20.502
718.61	21.654
718.93	23.256
719.24	19.011
719.56	23.293
719.88	20.275
720.20	15.530
720.51	19.157
720.83	22.394
721.15	17.647
721.46	16.532
721.78	14.229
722.10	18.959
722.42	18.672
722.73	14.286
723.05	18.776
723.37	22.881
723.68	25.676
724.00	19.231
724.32	17.333
724.63	10.909
724.95	24.891
725.27	21.659
725.58	19.915
725.90	17.460
726.22	19.691
726.53	18.644
726.85	16.854
727.16	15.849
727.48	12.955
727.80	21.862
728.11	16.525
728.43	16.471
728.74	13.710
729.06	19.200
729.38	20.677
729.69	15.139
730.01	20.769
730.32	22.388
730.64	19.435
730.96	18.491
731.27	19.000
731.59	13.898
731.90	17.516
732.22	21.767
732.53	18.272
732.85	20.922
733.16	25.926
733.48	18.345
733.80	17.391
734.11	16.949
734.43	16.151
734.74	18.788
735.06	15.309
735.37	19.335
735.69	19.529
736.00	16.376
736.32	15.436
736.63	14.789
736.95	19.454
737.26	18.505
737.58	16.107
737.89	16.484
738.21	14.662
738.52	16.461
738.83	18.341
739.15	14.410
739.46	20.866
739.78	12.821
740.09	16.993
740.41	19.203
740.72	14.567
741.04	16.194
741.35	20.000
741.66	13.270
741.98	18.367
742.29	20.792
742.61	14.136
742.92	11.848
743.23	18.981
743.55	21.719
743.86	17.703
744.18	20.574
744.49	17.553
744.80	17.935
745.12	22.995
745.43	16.098
745.74	20.312
746.06	14.146
746.37	11.518
746.68	22.275
747.00	15.426
747.31	22.886
747.62	18.447
747.94	21.531
748.25	18.812
748.56	15.301
748.88	16.230
749.19	25.532
749.50	19.704
749.82	14.151
750.13	17.431
750.44	25.564
750.75	20.522
751.07	19.343
751.38	22.989
751.69	15.686
752.01	20.930
752.32	17.131
752.63	16.996
752.94	13.793
753.26	21.339
753.57	17.647
753.88	18.142
754.19	14.167
754.51	14.050
754.82	15.789
755.13	20.833
755.44	17.742
755.75	21.875
756.07	17.121
756.38	16.981
756.69	14.559
757.00	19.667
757.31	19.281
757.63	17.073
757.94	15.833
758.25	13.973
758.56	16.755
758.87	16.431
759.18	19.003
759.50	15.636
759.81	19.732
760.12	18.710
760.43	20.000
760.74	14.506
761.05	17.846
761.36	18.466
761.67	18.485
761.99	17.007
762.30	14.909
762.61	13.439
762.92	18.552
763.23	20.270
763.54	12.617
763.85	16.102
764.16	19.502
764.47	13.710
764.78	13.553
765.10	20.539
765.41	13.880
765.72	12.698
766.03	15.414
766.34	14.599
766.65	17.530
766.96	15.657
767.27	16.489
767.58	12.644
767.89	6.383
768.20	11.932
768.51	19.780
768.82	17.734
769.13	11.060
769.44	16.738
769.75	15.525
770.06	20.259
770.37	19.712
770.68	12.690
770.99	14.480
771.30	23.039
771.61	17.647
771.92	18.534
772.23	18.227
772.54	13.441
772.85	17.284
773.16	11.798
773.47	19.608
773.78	13.072
774.09	14.970
774.39	12.667
774.70	23.567
775.01	20.000
775.32	23.571
775.63	12.397
775.94	10.687
776.25	16.535
776.56	10.000
776.87	6.731
777.18	17.094
777.48	16.379
777.79	13.913
778.10	14.286
778.41	12.613
778.72	15.873
779.03	24.060
779.34	21.277
779.65	14.384
779.95	8.904
780.26	11.034
780.57	9.756
780.88	22.835
781.19	11.207
781.50	21.705
781.80	20.118
782.11	10.692
782.42	19.231
782.73	14.388
783.04	12.593
783.34	7.639
783.65	1.709
783.96	5.738
784.27	19.310
784.57	22.764
784.88	13.281
785.19	23.000
785.50	24.000
785.81	21.552
786.11	7.759
786.42	18.447
786.73	16.364
787.04	18.367
787.34	21.429
787.65	19.048
787.96	17.699
788.26	7.273
788.57	11.111
788.88	14.844
789.19	22.222
789.49	9.565
789.80	10.204
790.11	22.222
790.41	15.455
790.72	28.261
791.03	11.364
791.33	18.750
791.64	7.500
791.95	10.465
792.25	17.021
792.56	22.472
792.87	5.479
793.17	1.449
793.48	8.000
793.79	10.000
794.09	18.750
794.40	21.698
794.70	8.738
795.01	15.447
795.32	17.949
795.62	5.714
795.93	21.569
796.23	16.038
796.54	12.500
796.85	25.000
797.15	15.493
797.46	23.611
797.76	30.303
798.07	16.279
798.37	14.474
798.68	4.545
798.99	7.407
799.29	10.000
799.60	11.594
799.90	8.000
800.21	32.787
800.51	12.308
800.82	15.254
801.12	10.145
801.43	21.311
801.73	20.635
802.04	2.000
802.34	5.970
802.65	9.615
802.95	-10.714
803.26	3.846
803.56	3.922
803.87	-17.391
804.17	8.000
804.48	25.397
804.78	-11.111
805.09	0.000
805.39	-2.222
805.70	18.519
806.00	-12.281
806.30	8.451
806.61	0.000
806.91	8.333
807.22	26.316
807.52	10.667
807.83	12.727
808.13	13.889
808.43	8.824
808.74	13.433
809.04	13.559
809.35	0.000
809.65	3.125
809.95	-27.027
810.26	-20.455
810.56	21.918
810.86	21.429
811.17	-6.000
811.47	24.490
811.77	-5.263
812.08	13.636
812.38	11.321
812.69	-5.000
812.99	0.000
813.29	15.789
813.59	-22.857
813.90	-6.818
814.20	0.000
814.50	28.846
814.81	16.981
815.11	-2.128
815.41	15.254
815.72	-11.905
816.02	-1.961
816.32	27.083
816.62	-14.634
816.93	13.514
817.23	-8.571
817.53	10.417
817.84	6.522
818.14	21.154
818.44	-23.684
818.74	10.870
819.04	-17.500
819.35	24.324
819.65	-2.941
819.95	13.889
820.25	7.143
820.56	30.000
820.86	-58.621
821.16	-5.000
821.46	0.000
821.76	25.000
822.07	16.279
822.37	-2.703
822.67	9.375
822.97	7.143
823.27	0.000
823.57	-28.000
823.88	-59.259
824.18	3.571
824.48	-20.588
824.78	12.903
825.08	8.696
825.38	30.303
825.69	-12.500
825.99	-5.263
826.29	-5.556
826.59	-26.667
826.89	-52.381
827.19	-6.522
827.49	25.000
827.79	31.429
828.09	-3.571
828.39	33.333
828.70	59.459
829.00	-3.571
829.30	-9.524
829.60	10.000
829.90	21.875
830.20	-7.895
830.50	14.815
830.80	-4.348
831.10	9.091
831.40	9.091
831.70	22.581
832.00	-4.762
832.30	-85.714
832.60	-41.667
832.90	10.345
833.20	-65.000
833.50	15.152
833.80	-37.037
834.10	-11.538
834.40	9.375
834.70	-55.556
835.00	-26.316
835.30	-3.846
835.60	46.667
835.90	25.806
836.20	0.000
836.50	-14.286
836.80	-19.231
837.10	-14.286
837.40	-300.000
837.70	45.455
838.00	-36.364
838.30	-4.348
838.60	-76.923
838.90	31.818
839.19	35.714
839.49	16.667
839.79	-30.769
840.09	-166.667
840.39	50.000
840.69	21.429
840.99	-23.077
841.29	-26.316
841.59	-20.000
841.88	-54.545
842.18	-70.000
842.48	-43.750
842.78	73.333
843.08	0.000
843.38	-80.000
843.68	13.043
843.97	0.000
844.27	-113.333
844.57	-35.000
844.87	11.111
845.17	0.000
845.47	-6.667
845.76	-52.381
846.06	23.529
846.36	-10.000
846.66	-64.286
846.96	13.333
847.25	-50.000
847.55	28.571
847.85	-50.000
848.15	-22.727
848.44	-600.000
848.74	5.000
849.04	37.037
849.34	-18.182
849.63	-216.667
849.93	-220.000
850.23	5.556
850.53	-10.000
850.82	-76.923
851.12	22.222
851.42	13.333
851.71	19.231
852.01	-35.714
852.31	-175.000
852.61	-36.364
852.90	-25.000
853.20	5.263
853.50	-25.000
853.79	-4.348
854.09	29.167
854.39	21.053
854.68	4.167
854.98	6.452
855.28	19.231
855.57	-10.000
855.87	-27.778
856.17	33.333
856.46	-100.000
856.76	33.333
857.05	-55.556
857.35	24.000
857.65	33.333
857.94	-15.385
858.24	3.448
858.53	-22.222
858.83	18.519
859.13	0.000
859.42	-17.391
859.72	-175.000
860.01	-233.333
860.31	12.000
860.60	-9.524
860.90	-366.667
861.20	-66.667
861.49	-200.000
861.79	-20.000
862.08	-5.000
862.38	40.000
862.67	-220.000
862.97	-116.667
863.26	-16.667
863.56	61.111
863.85	-466.667
864.15	11.111
864.44	-80.000
864.74	-21.429
865.03	250.000
865.33	-200.000
865.62	-133.333
865.92	0.000
866.21	-316.667
866.51	-18.750
866.80	-27.273
867.10	-400.000
867.39	58.333
867.69	0.000
867.98	-38.462
868.27	-233.333
868.57	-33.333
868.86	-33.333
869.16	-100.000
869.45	40.000
869.75	-1500.000
870.04	0.000
870.33	-71.429
870.63	38.095
870.92	233.333
871.22	-300.000
871.51	-1500.000
871.80	44.444
872.10	633.333
>>>>>End Processed Spectral Data<<<<<
