SpectraSuite Data File
++++++++++++++++++++++++++++++++++++
Date: Fri May 15 20:48:14 PDT 2015
User: schluterlab
Dark Spectrum Present: Yes
Reference Spectrum Present: Yes
Number of Sampled Component Spectra: 1
Spectrometers: USB2E3373
Integration Time (usec): 3000 (USB2E3373)
Spectra Averaged: 3 (USB2E3373)
Boxcar Smoothing: 0 (USB2E3373)
Correct for Electrical Dark: No (USB2E3373)
Strobe/Lamp Enabled: No (USB2E3373)
Correct for Detector Non-linearity: No (USB2E3373)
Correct for Stray Light: No (USB2E3373)
Number of Pixels in Processed Spectrum: 2048
>>>>>Begin Processed Spectral Data<<<<<
178.53	0.000
178.91	0.000
179.29	50.000
179.67	-200.000
180.04	28.571
180.42	125.000
180.80	-100.000
181.18	466.667
181.56	150.000
181.94	-50.000
182.31	100.000
182.69	-40.000
183.07	-366.667
183.45	-200.000
183.83	150.000
184.20	-72.727
184.58	211.111
184.96	75.000
185.34	366.667
185.72	-450.000
186.09	153.846
186.47	-100.000
186.85	133.333
187.23	166.667
187.61	100.000
187.98	-500.000
188.36	-77.778
188.74	-400.000
189.12	29.412
189.49	50.000
189.87	0.000
190.25	42.857
190.63	-350.000
191.00	33.333
191.38	10.526
191.76	200.000
192.14	25.000
192.51	-100.000
192.89	-100.000
193.27	-171.429
193.65	266.667
194.02	136.364
194.40	-100.000
194.78	-250.000
195.15	16.667
195.53	-62.500
195.91	250.000
196.29	-175.000
196.66	130.769
197.04	100.000
197.42	-44.444
197.79	-600.000
198.17	-76.923
198.55	2300.000
198.92	-533.333
199.30	-400.000
199.68	-20.000
200.05	-133.333
200.43	0.000
200.81	166.667
201.18	-266.667
201.56	1500.000
201.94	-100.000
202.31	33.333
202.69	-200.000
203.07	175.000
203.44	-400.000
203.82	0.000
204.19	78.571
204.57	-600.000
204.95	100.000
205.32	-50.000
205.70	-57.143
206.08	-325.000
206.45	44.444
206.83	35.714
207.20	-271.429
207.58	600.000
207.96	166.667
208.33	-90.000
208.71	-75.000
209.08	-233.333
209.46	-1300.000
209.84	-180.000
210.21	-500.000
210.59	-114.286
210.96	-233.333
211.34	-500.000
211.71	66.667
212.09	-142.857
212.46	-2100.000
212.84	0.000
213.22	120.000
213.59	200.000
213.97	-7.692
214.34	90.909
214.72	66.667
215.09	475.000
215.47	23.077
215.84	-109.091
216.22	-533.333
216.59	-112.500
216.97	-100.000
217.34	150.000
217.72	-140.000
218.09	-50.000
218.47	87.500
218.84	-500.000
219.22	-55.556
219.59	20.000
219.97	466.667
220.34	400.000
220.72	0.000
221.09	100.000
221.47	-150.000
221.84	-300.000
222.22	-800.000
222.59	-109.091
222.97	0.000
223.34	-300.000
223.72	-35.714
224.09	14.286
224.46	7.143
224.84	633.333
225.21	-110.000
225.59	-33.333
225.96	-450.000
226.34	575.000
226.71	0.000
227.08	-150.000
227.46	-62.500
227.83	-450.000
228.21	-77.778
228.58	-36.364
228.95	0.000
229.33	40.000
229.70	-6.250
230.08	-112.500
230.45	-157.143
230.82	71.429
231.20	-13.333
231.57	-42.857
231.95	71.429
232.32	-100.000
232.69	-14.286
233.07	-66.667
233.44	-140.000
233.81	-150.000
234.19	33.333
234.56	29.412
234.93	50.000
235.31	-25.000
235.68	-200.000
236.05	-107.692
236.43	0.000
236.80	-5.882
237.17	15.625
237.55	-15.000
237.92	-3.704
238.29	16.667
238.67	3.333
239.04	-5.882
239.41	-14.634
239.79	20.000
240.16	48.780
240.53	23.684
240.91	17.391
241.28	25.397
241.65	30.357
242.02	30.137
242.40	31.667
242.77	18.644
243.14	21.212
243.51	26.250
243.89	40.230
244.26	17.241
244.63	17.857
245.00	25.773
245.38	36.082
245.75	25.843
246.12	27.586
246.49	32.231
246.87	37.500
247.24	22.689
247.61	23.684
247.98	34.146
248.36	20.625
248.73	32.237
249.10	24.675
249.47	30.380
249.84	24.183
250.22	30.588
250.59	28.758
250.96	37.089
251.33	26.163
251.70	34.706
252.08	37.563
252.45	32.673
252.82	33.166
253.19	38.249
253.56	28.505
253.94	33.784
254.31	36.957
254.68	36.404
255.05	31.890
255.42	33.624
255.79	31.274
256.16	33.074
256.54	35.821
256.91	32.319
257.28	34.572
257.65	28.839
258.02	31.560
258.39	35.690
258.76	35.165
259.14	37.209
259.51	32.039
259.88	33.333
260.25	33.333
260.62	35.764
260.99	32.203
261.36	29.452
261.73	33.861
262.10	34.347
262.47	34.356
262.85	35.423
263.22	32.923
263.59	35.514
263.96	37.578
264.33	37.273
264.70	30.655
265.07	33.929
265.44	34.278
265.81	32.768
266.18	33.607
266.55	34.704
266.92	36.269
267.29	36.554
267.66	34.527
268.03	33.246
268.40	34.726
268.77	36.898
269.14	35.252
269.51	35.476
269.88	31.671
270.25	34.439
270.62	33.659
270.99	36.061
271.36	31.785
271.73	37.559
272.10	34.307
272.47	37.825
272.84	35.891
273.21	31.787
273.58	34.699
273.95	32.723
274.32	30.254
274.69	33.710
275.06	37.500
275.43	35.147
275.80	33.775
276.17	30.345
276.54	33.833
276.91	35.307
277.28	32.969
277.65	32.231
278.02	31.915
278.39	34.573
278.76	35.639
279.13	29.461
279.50	32.773
279.87	33.261
280.23	35.269
280.60	33.528
280.97	34.747
281.34	32.692
281.71	34.497
282.08	31.902
282.45	30.333
282.82	31.660
283.19	32.882
283.56	36.609
283.92	31.120
284.29	30.192
284.66	30.814
285.03	32.220
285.40	32.703
285.77	28.647
286.14	32.310
286.51	32.103
286.87	29.982
287.24	30.203
287.61	31.746
287.98	31.754
288.35	30.849
288.72	28.371
289.08	32.465
289.45	30.053
289.82	30.420
290.19	29.863
290.56	29.503
290.93	30.303
291.29	27.427
291.66	30.394
292.03	29.027
292.40	28.387
292.77	26.794
293.13	25.974
293.50	25.797
293.87	28.550
294.24	26.739
294.60	27.124
294.97	27.827
295.34	25.767
295.71	27.422
296.08	25.710
296.44	23.613
296.81	25.556
297.18	24.348
297.55	27.507
297.91	25.479
298.28	26.121
298.65	24.966
299.02	22.642
299.38	23.256
299.75	23.310
300.12	24.084
300.48	23.320
300.85	24.208
301.22	24.026
301.59	23.158
301.95	25.570
302.32	26.329
302.69	23.507
303.05	23.391
303.42	24.284
303.79	23.481
304.15	24.492
304.52	22.473
304.89	22.339
305.25	21.429
305.62	22.054
305.99	22.339
306.35	22.543
306.72	21.147
307.09	22.007
307.45	22.962
307.82	23.958
308.19	24.390
308.55	22.465
308.92	23.312
309.29	21.899
309.65	23.358
310.02	22.002
310.38	23.491
310.75	24.590
311.12	23.897
311.48	22.906
311.85	22.827
312.22	23.207
312.58	23.036
312.95	21.985
313.31	22.981
313.68	23.141
314.05	22.245
314.41	24.433
314.78	22.990
315.14	22.919
315.51	23.188
315.87	23.975
316.24	24.671
316.61	23.425
316.97	23.810
317.34	24.316
317.70	24.187
318.07	24.231
318.43	24.412
318.80	24.242
319.16	26.465
319.53	26.306
319.89	25.098
320.26	26.113
320.62	26.680
320.99	25.574
321.35	25.591
321.72	26.791
322.08	28.499
322.45	27.310
322.81	27.407
323.18	27.969
323.54	29.633
323.91	28.238
324.27	29.590
324.64	29.494
325.00	29.927
325.37	31.864
325.73	29.374
326.10	30.881
326.46	31.300
326.83	31.234
327.19	30.689
327.56	32.493
327.92	33.187
328.29	33.393
328.65	32.453
329.01	32.445
329.38	33.272
329.74	32.672
330.11	32.530
330.47	32.653
330.84	33.846
331.20	34.791
331.56	32.685
331.93	34.338
332.29	34.464
332.66	34.389
333.02	33.922
333.38	33.364
333.75	33.791
334.11	33.483
334.48	34.542
334.84	34.799
335.20	34.950
335.57	32.820
335.93	34.688
336.29	33.702
336.66	34.696
337.02	33.271
337.38	33.056
337.75	33.273
338.11	33.995
338.47	35.128
338.84	33.826
339.20	32.724
339.56	34.220
339.93	34.288
340.29	34.220
340.65	35.215
341.02	33.156
341.38	33.894
341.74	33.392
342.11	32.322
342.47	33.541
342.83	33.910
343.20	33.972
343.56	33.565
343.92	35.607
344.28	34.159
344.65	33.592
345.01	35.091
345.37	33.389
345.73	34.644
346.10	35.375
346.46	32.632
346.82	34.043
347.19	32.835
347.55	34.419
347.91	33.252
348.27	32.983
348.63	34.242
349.00	32.650
349.36	34.248
349.72	34.328
350.08	32.951
350.45	33.360
350.81	33.887
351.17	33.469
351.53	34.612
351.89	33.939
352.26	33.920
352.62	34.435
352.98	33.494
353.34	33.333
353.70	33.576
354.07	33.871
354.43	34.187
354.79	34.269
355.15	34.365
355.51	34.335
355.87	34.466
356.24	33.931
356.60	34.196
356.96	33.175
357.32	33.466
357.68	34.558
358.04	33.845
358.40	34.727
358.77	33.971
359.13	34.027
359.49	33.282
359.85	34.087
360.21	34.131
360.57	34.353
360.93	34.493
361.29	33.988
361.66	34.483
362.02	34.697
362.38	35.110
362.74	34.292
363.10	35.290
363.46	34.618
363.82	35.312
364.18	34.391
364.54	33.382
364.90	34.480
365.26	34.716
365.62	35.985
365.98	34.824
366.35	35.178
366.71	36.216
367.07	35.631
367.43	35.514
367.79	34.982
368.15	36.324
368.51	35.397
368.87	34.817
369.23	34.657
369.59	36.152
369.95	35.924
370.31	36.705
370.67	36.716
371.03	34.802
371.39	35.594
371.75	36.337
372.11	35.806
372.47	37.574
372.83	36.338
373.19	35.949
373.55	35.957
373.91	35.781
374.27	37.208
374.63	36.324
374.99	36.596
375.35	36.630
375.71	36.993
376.07	37.219
376.42	36.531
376.78	37.383
377.14	36.357
377.50	37.716
377.86	37.149
378.22	36.503
378.58	38.077
378.94	36.358
379.30	37.305
379.66	37.179
380.02	37.094
380.38	36.579
380.74	37.522
381.09	38.528
381.45	38.777
381.81	38.248
382.17	37.563
382.53	37.851
382.89	39.674
383.25	39.328
383.61	38.537
383.97	38.540
384.32	38.837
384.68	39.009
385.04	39.032
385.40	38.643
385.76	39.748
386.12	39.651
386.48	40.485
386.83	38.618
387.19	39.011
387.55	39.649
387.91	39.487
388.27	39.194
388.62	40.780
388.98	38.858
389.34	40.162
389.70	41.019
390.06	39.459
390.42	40.220
390.77	41.007
391.13	39.975
391.49	41.138
391.85	40.481
392.20	39.046
392.56	40.687
392.92	40.282
393.28	40.389
393.64	40.180
393.99	41.881
394.35	41.493
394.71	39.719
395.07	40.289
395.42	40.801
395.78	41.694
396.14	41.677
396.50	41.091
396.85	41.017
397.21	41.479
397.57	41.191
397.92	40.443
398.28	42.299
398.64	39.759
399.00	40.688
399.35	40.350
399.71	40.379
400.07	42.080
400.42	41.126
400.78	42.315
401.14	41.742
401.49	41.691
401.85	40.707
402.21	41.145
402.57	42.812
402.92	41.217
403.28	41.667
403.63	42.560
403.99	42.985
404.35	42.349
404.70	41.548
405.06	40.893
405.42	41.765
405.77	41.197
406.13	41.385
406.49	41.445
406.84	41.748
407.20	43.046
407.55	41.726
407.91	42.380
408.27	41.619
408.62	41.108
408.98	41.282
409.34	42.937
409.69	41.796
410.05	41.441
410.40	42.346
410.76	42.039
411.11	42.250
411.47	43.195
411.83	41.682
412.18	42.857
412.54	41.760
412.89	41.071
413.25	42.178
413.60	42.422
413.96	41.718
414.31	42.805
414.67	42.720
415.03	42.277
415.38	41.906
415.74	42.020
416.09	43.697
416.45	42.471
416.80	41.904
417.16	43.232
417.51	42.305
417.87	42.373
418.22	43.329
418.58	42.274
418.93	43.323
419.29	42.254
419.64	42.839
420.00	44.207
420.35	42.090
420.71	42.649
421.06	43.094
421.42	44.291
421.77	43.584
422.12	42.338
422.48	42.501
422.83	42.285
423.19	43.454
423.54	42.857
423.90	42.580
424.25	43.972
424.61	44.064
424.96	44.483
425.31	44.714
425.67	43.721
426.02	43.640
426.38	44.020
426.73	43.826
427.09	45.253
427.44	44.588
427.79	43.606
428.15	43.993
428.50	43.731
428.85	42.506
429.21	43.520
429.56	44.205
429.92	44.787
430.27	43.158
430.62	43.649
430.98	43.471
431.33	43.796
431.68	43.014
432.04	45.333
432.39	43.868
432.74	43.776
433.10	44.368
433.45	43.250
433.80	44.922
434.16	43.767
434.51	44.355
434.86	44.135
435.22	44.868
435.57	45.477
435.92	43.713
436.28	43.590
436.63	44.894
436.98	43.105
437.34	44.525
437.69	44.663
438.04	44.217
438.39	44.044
438.75	44.080
439.10	44.029
439.45	44.735
439.81	43.731
440.16	45.190
440.51	45.493
440.86	45.559
441.22	43.552
441.57	44.150
441.92	44.858
442.27	45.787
442.63	45.396
442.98	44.744
443.33	44.240
443.68	44.881
444.03	45.007
444.39	43.728
444.74	45.931
445.09	45.601
445.44	45.926
445.79	45.797
446.15	44.989
446.50	45.258
446.85	44.846
447.20	44.473
447.55	45.926
447.91	44.896
448.26	45.817
448.61	46.632
448.96	45.611
449.31	45.607
449.66	45.993
450.02	45.237
450.37	45.525
450.72	44.273
451.07	45.253
451.42	46.005
451.77	45.027
452.12	44.318
452.47	45.074
452.83	44.523
453.18	44.972
453.53	46.081
453.88	45.234
454.23	45.360
454.58	44.836
454.93	45.683
455.28	43.619
455.63	45.195
455.98	45.340
456.34	44.891
456.69	45.044
457.04	45.873
457.39	45.687
457.74	45.586
458.09	44.320
458.44	45.524
458.79	44.202
459.14	45.137
459.49	45.313
459.84	44.614
460.19	45.146
460.54	44.927
460.89	45.568
461.24	44.224
461.59	45.249
461.94	43.585
462.29	45.356
462.64	45.581
462.99	45.091
463.34	44.784
463.69	43.822
464.04	44.128
464.39	44.815
464.74	43.988
465.09	44.417
465.44	45.355
465.79	43.764
466.14	44.299
466.49	44.566
466.84	45.390
467.19	44.994
467.54	43.614
467.89	45.420
468.24	44.951
468.59	45.905
468.94	43.810
469.29	45.311
469.64	44.019
469.99	45.340
470.34	44.573
470.68	44.743
471.03	45.931
471.38	44.223
471.73	44.958
472.08	46.336
472.43	44.832
472.78	44.414
473.13	44.422
473.48	44.169
473.83	44.458
474.17	45.142
474.52	44.225
474.87	44.182
475.22	43.929
475.57	43.139
475.92	44.432
476.27	44.121
476.61	44.329
476.96	43.781
477.31	44.943
477.66	44.326
478.01	43.459
478.36	43.519
478.70	43.883
479.05	44.121
479.40	44.727
479.75	43.535
480.10	44.342
480.45	44.150
480.79	44.109
481.14	44.518
481.49	43.990
481.84	44.402
482.19	44.107
482.53	45.276
482.88	44.200
483.23	43.282
483.58	42.736
483.92	43.708
484.27	43.026
484.62	43.658
484.97	42.745
485.31	42.738
485.66	42.020
486.01	42.467
486.36	42.881
486.70	42.703
487.05	43.243
487.40	42.528
487.75	41.887
488.09	42.645
488.44	43.088
488.79	43.631
489.13	43.630
489.48	42.668
489.83	42.870
490.17	42.562
490.52	42.540
490.87	42.665
491.22	42.407
491.56	42.647
491.91	42.639
492.26	42.538
492.60	42.802
492.95	43.827
493.30	42.452
493.64	43.762
493.99	40.870
494.34	42.524
494.68	42.238
495.03	41.509
495.37	42.591
495.72	42.807
496.07	42.488
496.41	42.170
496.76	42.423
497.11	42.664
497.45	41.766
497.80	42.987
498.14	42.474
498.49	42.306
498.84	42.216
499.18	42.671
499.53	42.361
499.87	41.245
500.22	42.384
500.56	42.562
500.91	43.624
501.26	41.226
501.60	41.712
501.95	42.746
502.29	41.646
502.64	43.147
502.98	42.181
503.33	40.778
503.67	41.880
504.02	42.424
504.36	43.196
504.71	41.414
505.06	41.621
505.40	42.030
505.75	42.423
506.09	41.004
506.44	43.121
506.78	41.684
507.13	41.520
507.47	41.619
507.82	42.575
508.16	42.314
508.51	43.127
508.85	41.497
509.19	42.576
509.54	42.520
509.88	42.071
510.23	42.066
510.57	42.758
510.92	41.098
511.26	42.280
511.61	42.354
511.95	42.521
512.30	41.297
512.64	41.959
512.98	40.764
513.33	42.194
513.67	41.899
514.02	43.650
514.36	43.314
514.70	42.599
515.05	42.949
515.39	40.968
515.74	43.533
516.08	42.558
516.42	43.110
516.77	43.359
517.11	42.908
517.46	42.549
517.80	42.372
518.14	42.009
518.49	41.346
518.83	42.467
519.17	40.995
519.52	41.800
519.86	41.837
520.20	42.588
520.55	41.964
520.89	42.597
521.23	42.179
521.58	42.776
521.92	42.436
522.26	42.160
522.61	41.623
522.95	42.848
523.29	42.567
523.64	42.630
523.98	42.255
524.32	42.075
524.66	42.190
525.01	43.636
525.35	42.255
525.69	41.616
526.04	41.997
526.38	42.412
526.72	40.157
527.06	41.699
527.41	41.953
527.75	41.354
528.09	41.728
528.43	43.147
528.78	42.640
529.12	41.806
529.46	41.975
529.80	42.559
530.15	41.584
530.49	41.347
530.83	42.271
531.17	40.766
531.51	42.544
531.86	40.449
532.20	42.102
532.54	42.750
532.88	41.410
533.22	41.801
533.57	40.826
533.91	40.731
534.25	41.732
534.59	41.180
534.93	40.403
535.27	40.926
535.62	38.950
535.96	40.705
536.30	40.897
536.64	43.280
536.98	39.791
537.32	41.750
537.66	40.743
538.01	41.119
538.35	40.638
538.69	40.080
539.03	39.029
539.37	40.781
539.71	41.650
540.05	39.986
540.39	41.066
540.73	40.377
541.07	41.367
541.42	40.255
541.76	39.780
542.10	39.986
542.44	40.723
542.78	38.197
543.12	39.560
543.46	41.029
543.80	40.458
544.14	38.652
544.48	39.440
544.82	39.986
545.16	40.096
545.50	40.053
545.84	40.297
546.18	40.071
546.52	37.779
546.86	39.396
547.20	39.700
547.54	38.233
547.88	39.742
548.22	38.330
548.56	37.995
548.90	38.881
549.24	38.430
549.58	39.492
549.92	38.670
550.26	38.388
550.60	38.662
550.94	38.163
551.28	38.099
551.62	39.385
551.96	38.647
552.30	38.377
552.64	38.434
552.98	38.959
553.32	38.445
553.66	37.518
554.00	38.394
554.34	38.109
554.68	38.717
555.02	39.807
555.36	37.921
555.69	37.729
556.03	36.831
556.37	38.790
556.71	39.134
557.05	38.031
557.39	37.100
557.73	38.531
558.07	38.009
558.41	38.974
558.75	37.334
559.08	38.140
559.42	37.857
559.76	38.431
560.10	38.379
560.44	36.783
560.78	37.552
561.12	38.717
561.45	38.440
561.79	38.445
562.13	36.977
562.47	37.698
562.81	36.095
563.15	35.755
563.48	36.846
563.82	37.474
564.16	37.535
564.50	37.230
564.84	36.412
565.17	37.022
565.51	38.115
565.85	39.026
566.19	37.533
566.52	36.126
566.86	37.082
567.20	36.364
567.54	36.618
567.88	37.317
568.21	37.783
568.55	37.717
568.89	36.858
569.23	36.688
569.56	36.953
569.90	37.881
570.24	36.658
570.57	36.545
570.91	37.156
571.25	35.909
571.59	35.628
571.92	34.904
572.26	35.658
572.60	35.411
572.93	35.457
573.27	35.298
573.61	35.710
573.95	35.636
574.28	34.640
574.62	34.961
574.96	35.128
575.29	34.957
575.63	34.387
575.97	34.454
576.30	34.720
576.64	33.801
576.98	34.775
577.31	35.390
577.65	35.115
577.98	35.270
578.32	34.390
578.66	33.978
578.99	34.230
579.33	33.900
579.67	33.636
580.00	34.304
580.34	34.527
580.67	33.902
581.01	34.078
581.35	34.281
581.68	33.871
582.02	34.795
582.35	34.373
582.69	34.612
583.02	34.181
583.36	34.280
583.70	34.657
584.03	34.696
584.37	34.529
584.70	34.396
585.04	34.041
585.37	33.710
585.71	33.572
586.04	34.569
586.38	33.396
586.72	33.945
587.05	34.575
587.39	33.352
587.72	34.855
588.06	34.154
588.39	33.438
588.73	34.554
589.06	33.986
589.40	33.806
589.73	33.297
590.07	34.743
590.40	34.249
590.73	34.473
591.07	34.054
591.40	34.016
591.74	33.529
592.07	34.323
592.41	33.260
592.74	33.333
593.08	31.855
593.41	33.509
593.75	32.614
594.08	32.956
594.41	33.734
594.75	33.588
595.08	33.939
595.42	32.941
595.75	33.609
596.09	33.151
596.42	32.906
596.75	33.304
597.09	33.576
597.42	33.017
597.75	33.669
598.09	32.911
598.42	32.401
598.76	32.861
599.09	32.532
599.42	32.171
599.76	32.430
600.09	32.579
600.42	32.183
600.76	31.612
601.09	32.214
601.42	31.962
601.76	32.473
602.09	32.302
602.42	32.350
602.76	33.149
603.09	33.430
603.42	32.776
603.76	32.419
604.09	32.361
604.42	33.080
604.76	32.354
605.09	32.678
605.42	31.783
605.75	32.531
606.09	32.994
606.42	31.776
606.75	31.515
607.09	32.308
607.42	31.945
607.75	31.838
608.08	31.357
608.42	31.932
608.75	32.723
609.08	31.789
609.41	31.117
609.75	31.653
610.08	31.902
610.41	31.836
610.74	31.838
611.07	32.765
611.41	32.538
611.74	32.356
612.07	31.585
612.40	31.346
612.73	32.429
613.07	30.990
613.40	31.400
613.73	30.946
614.06	31.219
614.39	31.359
614.72	31.317
615.06	31.061
615.39	31.496
615.72	29.817
616.05	31.397
616.38	30.427
616.71	31.498
617.05	31.686
617.38	32.118
617.71	32.138
618.04	31.683
618.37	31.778
618.70	31.683
619.03	33.125
619.36	30.970
619.69	31.766
620.03	31.045
620.36	31.330
620.69	30.692
621.02	31.346
621.35	30.954
621.68	31.463
622.01	31.000
622.34	30.407
622.67	31.309
623.00	30.704
623.33	31.479
623.66	31.264
623.99	30.408
624.32	31.407
624.65	29.850
624.99	30.850
625.32	29.795
625.65	30.951
625.98	31.910
626.31	30.756
626.64	30.936
626.97	31.588
627.30	31.086
627.63	30.676
627.96	30.907
628.29	29.417
628.62	30.285
628.95	31.062
629.28	31.552
629.61	30.508
629.94	31.769
630.26	29.644
630.59	32.674
630.92	31.897
631.25	28.718
631.58	30.947
631.91	29.496
632.24	31.651
632.57	29.886
632.90	28.944
633.23	30.000
633.56	31.234
633.89	29.223
634.22	31.852
634.55	29.860
634.88	29.374
635.20	29.615
635.53	30.267
635.86	28.739
636.19	32.471
636.52	29.209
636.85	26.923
637.18	27.925
637.51	29.686
637.83	31.406
638.16	30.286
638.49	29.155
638.82	31.184
639.15	27.137
639.48	30.261
639.81	29.568
640.13	30.592
640.46	30.029
640.79	29.013
641.12	30.281
641.45	29.429
641.77	29.778
642.10	31.280
642.43	28.296
642.76	27.888
643.09	31.341
643.41	28.479
643.74	30.148
644.07	29.721
644.40	30.405
644.73	29.597
645.05	27.852
645.38	31.393
645.71	28.901
646.04	28.905
646.36	29.078
646.69	29.317
647.02	28.355
647.35	29.478
647.67	30.347
648.00	28.918
648.33	29.181
648.66	29.661
648.98	28.476
649.31	28.430
649.64	27.630
649.96	28.525
650.29	31.857
650.62	28.205
650.94	29.074
651.27	26.071
651.60	29.730
651.92	28.846
652.25	25.222
652.58	29.333
652.90	28.645
653.23	28.403
653.56	27.580
653.88	27.320
654.21	27.145
654.54	27.844
654.86	28.693
655.19	27.632
655.52	31.037
655.84	29.453
656.17	32.785
656.49	43.878
656.82	45.060
657.15	33.799
657.47	25.347
657.80	18.294
658.13	17.850
658.45	27.850
658.78	27.775
659.10	26.908
659.43	27.631
659.75	27.528
660.08	26.828
660.41	28.192
660.73	27.486
661.06	27.903
661.38	24.658
661.71	25.873
662.03	28.326
662.36	27.692
662.68	25.885
663.01	29.039
663.33	27.378
663.66	26.744
663.98	26.047
664.31	26.866
664.63	26.959
664.96	29.348
665.28	26.932
665.61	26.840
665.93	29.348
666.26	27.332
666.58	25.727
666.91	26.588
667.23	28.538
667.56	24.645
667.88	26.619
668.21	29.594
668.53	27.423
668.86	26.887
669.18	25.236
669.50	23.002
669.83	27.674
670.15	26.573
670.48	28.947
670.80	22.811
671.13	24.832
671.45	25.114
671.77	27.897
672.10	24.752
672.42	26.779
672.75	26.110
673.07	27.549
673.39	28.991
673.72	24.852
674.04	25.000
674.37	25.636
674.69	25.054
675.01	26.222
675.34	27.928
675.66	28.935
675.98	27.051
676.31	25.688
676.63	27.078
676.95	25.000
677.28	26.824
677.60	26.506
677.92	26.376
678.25	26.915
678.57	27.273
678.89	24.160
679.22	27.517
679.54	28.313
679.86	26.441
680.18	27.379
680.51	25.189
680.83	24.254
681.15	26.200
681.48	28.893
681.80	26.653
682.12	25.605
682.44	25.941
682.77	26.932
683.09	24.714
683.41	22.727
683.73	26.267
684.06	25.664
684.38	26.022
684.70	24.837
685.02	26.556
685.34	24.506
685.67	25.516
685.99	25.859
686.31	25.664
686.63	22.449
686.96	23.384
687.28	22.222
687.60	25.095
687.92	27.273
688.24	26.613
688.56	24.891
688.89	25.893
689.21	27.111
689.53	26.218
689.85	25.814
690.17	26.116
690.49	24.350
690.82	22.573
691.14	25.000
691.46	27.103
691.78	26.577
692.10	25.591
692.42	27.706
692.74	23.077
693.06	23.649
693.39	25.113
693.71	22.172
694.03	24.018
694.35	21.495
694.67	27.273
694.99	24.282
695.31	26.632
695.63	25.750
695.95	21.465
696.27	23.834
696.59	26.111
696.91	24.930
697.23	24.165
697.56	24.752
697.88	27.742
698.20	23.462
698.52	25.647
698.84	23.684
699.16	23.500
699.48	25.313
699.80	24.069
700.12	23.450
700.44	24.650
700.76	20.930
701.08	24.545
701.40	21.084
701.72	28.395
702.04	25.743
702.36	26.421
702.68	24.625
703.00	24.545
703.32	24.340
703.64	23.446
703.96	23.478
704.28	25.767
704.60	26.984
704.91	21.136
705.23	23.920
705.55	28.622
705.87	23.827
706.19	22.963
706.51	24.399
706.83	24.116
707.15	21.184
707.47	25.490
707.79	24.479
708.11	23.500
708.43	24.500
708.74	24.806
709.06	24.225
709.38	28.135
709.70	25.740
710.02	19.745
710.34	25.697
710.66	20.513
710.98	19.205
711.29	22.951
711.61	28.475
711.93	23.453
712.25	28.179
712.57	23.077
712.89	22.388
713.20	22.491
713.52	24.042
713.84	22.526
714.16	23.711
714.48	22.258
714.80	23.077
715.11	23.404
715.43	20.690
715.75	21.667
716.07	23.256
716.39	20.134
716.70	21.402
717.02	20.992
717.34	23.077
717.66	19.912
717.97	22.609
718.29	23.013
718.61	20.472
718.93	20.930
719.24	23.954
719.56	20.884
719.88	25.086
720.20	21.212
720.51	20.307
720.83	23.166
721.15	21.008
721.46	21.371
721.78	18.972
722.10	18.216
722.42	19.502
722.73	23.673
723.05	21.633
723.37	21.610
723.68	22.072
724.00	22.222
724.32	22.667
724.63	20.909
724.95	20.524
725.27	21.198
725.58	26.695
725.90	19.841
726.22	21.622
726.53	23.390
726.85	20.974
727.16	25.660
727.48	23.482
727.80	24.696
728.11	22.034
728.43	21.961
728.74	20.968
729.06	21.200
729.38	27.068
729.69	18.725
730.01	20.385
730.32	25.000
730.64	23.675
730.96	23.396
731.27	25.667
731.59	24.068
731.90	26.115
732.22	25.237
732.53	22.259
732.85	21.986
733.16	25.589
733.48	18.705
733.80	21.377
734.11	20.678
734.43	22.337
734.74	22.424
735.06	21.824
735.37	25.378
735.69	26.599
736.00	20.906
736.32	23.826
736.63	20.423
736.95	23.891
737.26	19.573
737.58	21.477
737.89	15.018
738.21	20.677
738.52	19.753
738.83	22.707
739.15	19.214
739.46	23.622
739.78	20.513
740.09	18.301
740.41	18.841
740.72	17.323
741.04	24.291
741.35	20.851
741.66	17.536
741.98	25.000
742.29	20.792
742.61	26.702
742.92	13.744
743.23	18.981
743.55	24.887
743.86	18.660
744.18	21.531
744.49	20.745
744.80	19.022
745.12	24.064
745.43	16.585
745.74	17.708
746.06	17.073
746.37	14.660
746.68	25.592
747.00	21.809
747.31	22.886
747.62	22.816
747.94	18.660
748.25	17.327
748.56	22.404
748.88	17.801
749.19	17.021
749.50	25.616
749.82	18.868
750.13	19.266
750.44	23.308
750.75	24.254
751.07	24.088
751.38	17.241
751.69	21.569
752.01	17.829
752.32	24.701
752.63	17.787
752.94	23.276
753.26	26.360
753.57	19.005
753.88	22.124
754.19	22.083
754.51	23.140
754.82	22.267
755.13	27.917
755.44	22.984
755.75	26.953
756.07	20.623
756.38	24.151
756.69	17.625
757.00	21.333
757.31	22.222
757.63	21.646
757.94	23.056
758.25	22.740
758.56	22.606
758.87	19.263
759.18	21.184
759.50	20.000
759.81	23.077
760.12	27.097
760.43	22.121
760.74	24.383
761.05	23.692
761.36	18.466
761.67	23.636
761.99	25.850
762.30	20.727
762.61	16.601
762.92	20.814
763.23	20.270
763.54	17.290
763.85	23.305
764.16	25.726
764.47	20.968
764.78	20.879
765.10	28.620
765.41	22.713
765.72	21.270
766.03	16.917
766.34	19.708
766.65	27.888
766.96	26.263
767.27	22.340
767.58	14.943
767.89	9.929
768.20	20.455
768.51	18.681
768.82	20.690
769.13	18.433
769.44	18.884
769.75	17.808
770.06	21.983
770.37	18.750
770.68	16.244
770.99	19.910
771.30	26.471
771.61	19.910
771.92	20.690
772.23	24.138
772.54	23.656
772.85	19.753
773.16	21.910
773.47	22.222
773.78	22.876
774.09	17.964
774.39	14.000
774.70	16.561
775.01	24.828
775.32	22.857
775.63	18.182
775.94	20.611
776.25	17.323
776.56	23.333
776.87	15.385
777.18	11.111
777.48	16.379
777.79	15.652
778.10	4.762
778.41	12.613
778.72	15.873
779.03	19.549
779.34	21.986
779.65	15.753
779.95	23.288
780.26	24.138
780.57	12.195
780.88	18.898
781.19	8.621
781.50	24.031
781.80	17.751
782.11	18.239
782.42	21.538
782.73	21.583
783.04	17.037
783.34	14.583
783.65	8.547
783.96	13.934
784.27	21.379
784.57	8.943
784.88	19.531
785.19	16.000
785.50	16.000
785.81	24.138
786.11	11.207
786.42	16.505
786.73	25.455
787.04	19.388
787.34	14.286
787.65	8.571
787.96	5.310
788.26	20.000
788.57	17.094
788.88	28.125
789.19	16.667
789.49	13.043
789.80	21.429
790.11	14.141
790.41	12.727
790.72	35.870
791.03	18.182
791.33	22.500
791.64	16.250
791.95	17.442
792.25	11.702
792.56	12.360
792.87	10.959
793.17	15.942
793.48	-13.333
793.79	16.250
794.09	23.750
794.40	17.925
794.70	9.709
795.01	9.756
795.32	13.675
795.62	19.048
795.93	11.765
796.23	26.415
796.54	6.250
796.85	25.000
797.15	16.901
797.46	25.000
797.76	6.061
798.07	12.791
798.37	10.526
798.68	15.152
798.99	8.642
799.29	21.429
799.60	15.942
799.90	13.333
800.21	27.869
800.51	-4.615
800.82	16.949
801.12	27.536
801.43	13.115
801.73	19.048
802.04	2.000
802.34	-1.493
802.65	7.692
802.95	7.143
803.26	-15.385
803.56	19.608
803.87	-21.739
804.17	20.000
804.48	42.857
804.78	12.963
805.09	4.348
805.39	-4.444
805.70	25.926
806.00	-1.754
806.30	18.310
806.61	15.714
806.91	-8.333
807.22	22.368
807.52	25.333
807.83	-3.636
808.13	5.556
808.43	17.647
808.74	14.925
809.04	11.864
809.35	11.538
809.65	10.938
809.95	-35.135
810.26	15.909
810.56	19.178
810.86	4.762
811.17	18.000
811.47	14.286
811.77	-10.526
812.08	18.182
812.38	11.321
812.69	-5.000
812.99	-3.030
813.29	2.632
813.59	-8.571
813.90	-9.091
814.20	-30.769
814.50	-1.923
814.81	28.302
815.11	-23.404
815.41	22.034
815.72	9.524
816.02	15.686
816.32	12.500
816.62	0.000
816.93	0.000
817.23	5.714
817.53	10.417
817.84	10.870
818.14	15.385
818.44	-21.053
818.74	28.261
819.04	-30.000
819.35	8.108
819.65	20.588
819.95	-8.333
820.25	11.905
820.56	17.500
820.86	-20.690
821.16	30.000
821.46	2.128
821.76	35.000
822.07	0.000
822.37	-18.919
822.67	-3.125
822.97	16.667
823.27	3.571
823.57	-32.000
823.88	-18.519
824.18	10.714
824.48	-11.765
824.78	16.129
825.08	13.043
825.38	15.152
825.69	-29.167
825.99	7.895
826.29	-2.778
826.59	-20.000
826.89	-61.905
827.19	39.130
827.49	10.000
827.79	-17.143
828.09	39.286
828.39	36.364
828.70	29.730
829.00	10.714
829.30	9.524
829.60	-13.333
829.90	15.625
830.20	-2.632
830.50	-14.815
830.80	-52.174
831.10	-9.091
831.40	21.212
831.70	12.903
832.00	4.762
832.30	-9.524
832.60	-50.000
832.90	-20.690
833.20	-45.000
833.50	-9.091
833.80	-37.037
834.10	3.846
834.40	6.250
834.70	-122.222
835.00	10.526
835.30	7.692
835.60	13.333
835.90	9.677
836.20	4.545
836.50	46.429
836.80	-50.000
837.10	21.429
837.40	-300.000
837.70	-31.818
838.00	-109.091
838.30	-8.696
838.60	-146.154
838.90	-31.818
839.19	-39.286
839.49	13.333
839.79	-61.538
840.09	-125.000
840.39	17.857
840.69	-28.571
840.99	-11.538
841.29	-52.632
841.59	-110.000
841.88	9.091
842.18	-30.000
842.48	-18.750
842.78	-33.333
843.08	-33.333
843.38	-110.000
843.68	8.696
843.97	-40.000
844.27	-73.333
844.57	-60.000
844.87	-33.333
845.17	-52.381
845.47	20.000
845.76	-38.095
846.06	-35.294
846.36	-40.000
846.66	-64.286
846.96	0.000
847.25	-250.000
847.55	-71.429
847.85	-75.000
848.15	-63.636
848.44	-366.667
848.74	10.000
849.04	0.000
849.34	-18.182
849.63	-116.667
849.93	-240.000
850.23	0.000
850.53	70.000
850.82	-130.769
851.12	-111.111
851.42	-46.667
851.71	-19.231
852.01	14.286
852.31	-150.000
852.61	-45.455
852.90	-45.000
853.20	10.526
853.50	-58.333
853.79	39.130
854.09	37.500
854.39	-21.053
854.68	16.667
854.98	25.806
855.28	0.000
855.57	-40.000
855.87	-22.222
856.17	22.222
856.46	-7.143
856.76	-33.333
857.05	55.556
857.35	20.000
857.65	-11.111
857.94	-15.385
858.24	17.241
858.53	72.222
858.83	14.815
859.13	4.545
859.42	-21.739
859.72	-275.000
860.01	-66.667
860.31	-20.000
860.60	-38.095
860.90	-266.667
861.20	-86.667
861.49	-650.000
861.79	-46.667
862.08	-20.000
862.38	-13.333
862.67	-40.000
862.97	-166.667
863.26	-25.000
863.56	-33.333
863.85	-500.000
864.15	22.222
864.44	-70.000
864.74	-85.714
865.03	50.000
865.33	-240.000
865.62	-33.333
865.92	-75.000
866.21	-216.667
866.51	0.000
866.80	-72.727
867.10	-450.000
867.39	25.000
867.69	0.000
867.98	-23.077
868.27	-266.667
868.57	-40.000
868.86	33.333
869.16	-84.615
869.45	60.000
869.75	-1600.000
870.04	0.000
870.33	-200.000
870.63	23.810
870.92	433.333
871.22	-300.000
871.51	-300.000
871.80	44.444
872.10	733.333
>>>>>End Processed Spectral Data<<<<<
