SpectraSuite Data File
++++++++++++++++++++++++++++++++++++
Date: Fri May 15 21:06:09 PDT 2015
User: schluterlab
Dark Spectrum Present: Yes
Reference Spectrum Present: Yes
Number of Sampled Component Spectra: 1
Spectrometers: USB2E3373
Integration Time (usec): 3000 (USB2E3373)
Spectra Averaged: 3 (USB2E3373)
Boxcar Smoothing: 0 (USB2E3373)
Correct for Electrical Dark: No (USB2E3373)
Strobe/Lamp Enabled: No (USB2E3373)
Correct for Detector Non-linearity: No (USB2E3373)
Correct for Stray Light: No (USB2E3373)
Number of Pixels in Processed Spectrum: 2048
>>>>>Begin Processed Spectral Data<<<<<
178.53	0.000
178.91	0.000
179.29	-25.000
179.67	-650.000
180.04	-0.000
180.42	50.000
180.80	-1000.000
181.18	33.333
181.56	400.000
181.94	-50.000
182.31	400.000
182.69	-100.000
183.07	-200.000
183.45	-320.000
183.83	250.000
184.20	18.182
184.58	122.222
184.96	-125.000
185.34	533.333
185.72	-450.000
186.09	100.000
186.47	-400.000
186.85	150.000
187.23	188.889
187.61	600.000
187.98	-600.000
188.36	0.000
188.74	-500.000
189.12	-23.529
189.49	0.000
189.87	0.000
190.25	7.143
190.63	-200.000
191.00	0.000
191.38	-42.105
191.76	-350.000
192.14	250.000
192.51	-100.000
192.89	-55.556
193.27	-142.857
193.65	150.000
194.02	136.364
194.40	-50.000
194.78	-125.000
195.15	-41.667
195.53	-162.500
195.91	450.000
196.29	-50.000
196.66	100.000
197.04	157.143
197.42	-88.889
197.79	-500.000
198.17	-84.615
198.55	2300.000
198.92	-433.333
199.30	-100.000
199.68	-140.000
200.05	-433.333
200.43	0.000
200.81	-200.000
201.18	0.000
201.56	300.000
201.94	-400.000
202.31	200.000
202.69	-320.000
203.07	150.000
203.44	300.000
203.82	0.000
204.19	57.143
204.57	-666.667
204.95	112.500
205.32	-40.000
205.70	-100.000
206.08	-225.000
206.45	133.333
206.83	78.571
207.20	-128.571
207.58	1300.000
207.96	-66.667
208.33	-170.000
208.71	-75.000
209.08	-233.333
209.46	-400.000
209.84	-260.000
210.21	-300.000
210.59	42.857
210.96	-133.333
211.34	-150.000
211.71	6.667
212.09	-128.571
212.46	-1000.000
212.84	0.000
213.22	60.000
213.59	400.000
213.97	84.615
214.34	-27.273
214.72	-233.333
215.09	675.000
215.47	-15.385
215.84	18.182
216.22	-200.000
216.59	-187.500
216.97	300.000
217.34	125.000
217.72	-320.000
218.09	-62.500
218.47	75.000
218.84	-100.000
219.22	-55.556
219.59	-40.000
219.97	500.000
220.34	250.000
220.72	-28.571
221.09	-150.000
221.47	150.000
221.84	0.000
222.22	-550.000
222.59	9.091
222.97	0.000
223.34	-333.333
223.72	-85.714
224.09	28.571
224.46	7.143
224.84	666.667
225.21	-10.000
225.59	-26.667
225.96	-400.000
226.34	450.000
226.71	-142.857
227.08	-116.667
227.46	75.000
227.83	-900.000
228.21	-122.222
228.58	-45.455
228.95	-87.500
229.33	100.000
229.70	6.250
230.08	-87.500
230.45	-157.143
230.82	28.571
231.20	-53.333
231.57	0.000
231.95	-114.286
232.32	-130.000
232.69	14.286
233.07	-100.000
233.44	-120.000
233.81	-100.000
234.19	-155.556
234.56	-35.294
234.93	400.000
235.31	175.000
235.68	-300.000
236.05	-138.462
236.43	-50.000
236.80	17.647
237.17	3.125
237.55	-40.000
237.92	-37.037
238.29	-25.000
238.67	-3.333
239.04	-8.824
239.41	-24.390
239.79	-13.333
240.16	9.756
240.53	-23.684
240.91	-21.739
241.28	9.524
241.65	1.786
242.02	4.110
242.40	-6.667
242.77	0.000
243.14	-4.545
243.51	-3.750
243.89	12.644
244.26	2.299
244.63	8.333
245.00	9.278
245.38	6.186
245.75	-3.371
246.12	4.310
246.49	0.000
246.87	0.000
247.24	3.361
247.61	-5.263
247.98	5.691
248.36	3.125
248.73	13.816
249.10	7.143
249.47	4.430
249.84	10.458
250.22	9.412
250.59	3.268
250.96	16.432
251.33	1.163
251.70	5.294
252.08	7.107
252.45	0.990
252.82	4.020
253.19	4.147
253.56	4.206
253.94	6.306
254.31	6.957
254.68	7.456
255.05	6.299
255.42	9.607
255.79	7.722
256.16	4.669
256.54	13.060
256.91	7.985
257.28	7.063
257.65	6.742
258.02	4.965
258.39	7.071
258.76	9.524
259.14	11.296
259.51	9.385
259.88	8.591
260.25	5.229
260.62	5.903
260.99	6.102
261.36	6.507
261.73	7.911
262.10	7.599
262.47	6.748
262.85	7.210
263.22	9.846
263.59	9.346
263.96	9.317
264.33	8.788
264.70	8.333
265.07	5.357
265.44	12.465
265.81	7.062
266.18	6.284
266.55	10.283
266.92	10.104
267.29	7.572
267.66	7.928
268.03	10.471
268.40	7.050
268.77	8.556
269.14	9.353
269.51	8.997
269.88	5.486
270.25	5.612
270.62	10.488
270.99	5.115
271.36	5.134
271.73	7.746
272.10	7.786
272.47	8.747
272.84	5.198
273.21	8.585
273.58	11.084
273.95	7.551
274.32	5.312
274.69	5.882
275.06	7.366
275.43	7.029
275.80	6.181
276.17	9.195
276.54	5.567
276.91	8.333
277.28	8.734
277.65	9.298
278.02	7.234
278.39	7.877
278.76	7.128
279.13	6.017
279.50	7.563
279.87	8.855
280.23	6.452
280.60	8.772
280.97	10.505
281.34	7.308
281.71	9.856
282.08	8.589
282.45	7.045
282.82	7.143
283.19	10.251
283.56	8.092
283.92	7.780
284.29	7.500
284.66	7.946
285.03	9.037
285.40	8.507
285.77	8.260
286.14	9.747
286.51	9.410
286.87	9.689
287.24	9.024
287.61	7.584
287.98	9.649
288.35	9.705
288.72	11.208
289.08	9.549
289.45	10.896
289.82	10.140
290.19	7.338
290.56	8.405
290.93	9.596
291.29	8.783
291.66	12.283
292.03	10.048
292.40	10.968
292.77	11.802
293.13	8.279
293.50	9.712
293.87	10.534
294.24	10.974
294.60	10.432
294.97	9.524
295.34	10.429
295.71	12.519
296.08	11.211
296.44	8.535
296.81	12.500
297.18	11.739
297.55	13.008
297.91	10.274
298.28	13.193
298.65	11.669
299.02	11.051
299.38	9.713
299.75	12.690
300.12	11.780
300.48	10.804
300.85	13.942
301.22	10.260
301.59	12.500
301.95	12.532
302.32	12.062
302.69	11.816
303.05	11.757
303.42	12.204
303.79	11.799
304.15	13.023
304.52	11.415
304.89	11.930
305.25	11.501
305.62	11.552
305.99	13.567
306.35	12.023
306.72	11.361
307.09	12.429
307.45	11.366
307.82	12.153
308.19	13.937
308.55	13.850
308.92	14.270
309.29	12.514
309.65	12.809
310.02	13.421
310.38	13.172
310.75	13.880
311.12	13.563
311.48	13.362
311.85	13.822
312.22	13.397
312.58	14.013
312.95	13.234
313.31	12.422
313.68	13.613
314.05	13.980
314.41	14.227
314.78	13.402
315.14	15.519
315.51	14.389
315.87	16.189
316.24	14.560
316.61	14.764
316.97	15.278
317.34	14.551
317.70	13.862
318.07	13.173
318.43	13.529
318.80	14.962
319.16	15.039
319.53	16.334
319.89	14.764
320.26	14.271
320.62	15.647
320.99	14.927
321.35	15.930
321.72	14.953
322.08	15.811
322.45	16.345
322.81	16.208
323.18	15.702
323.54	16.409
323.91	16.650
324.27	16.406
324.64	17.509
325.00	17.336
325.37	17.723
325.73	16.682
326.10	16.440
326.46	17.937
326.83	16.885
327.19	17.786
327.56	18.245
327.92	17.606
328.29	16.964
328.65	17.925
329.01	17.831
329.38	18.157
329.74	16.619
330.11	18.072
330.47	18.275
330.84	17.115
331.20	18.251
331.56	17.037
331.93	17.260
332.29	18.607
332.66	19.548
333.02	17.751
333.38	17.874
333.75	18.681
334.11	16.920
334.48	18.132
334.84	17.308
335.20	17.017
335.57	16.228
335.93	17.164
336.29	17.587
336.66	16.621
337.02	16.171
337.38	15.556
337.75	17.000
338.11	15.960
338.47	17.062
338.84	16.913
339.20	15.814
339.56	16.514
339.93	17.905
340.29	17.706
340.65	16.846
341.02	16.844
341.38	16.195
341.74	16.343
342.11	15.945
342.47	16.370
342.83	17.388
343.20	15.592
343.56	16.696
343.92	16.829
344.28	18.190
344.65	15.458
345.01	15.385
345.37	17.410
345.73	16.653
346.10	16.739
346.46	17.578
346.82	16.858
347.19	15.877
347.55	16.040
347.91	17.557
348.27	17.057
348.63	16.525
349.00	17.391
349.36	17.041
349.72	17.164
350.08	17.213
350.45	18.516
350.81	16.694
351.17	16.368
351.53	16.327
351.89	17.093
352.26	17.040
352.62	17.581
352.98	17.028
353.34	16.264
353.70	17.314
354.07	17.097
354.43	17.054
354.79	17.093
355.15	18.571
355.51	17.801
355.87	17.233
356.24	16.476
356.60	17.381
356.96	18.095
357.32	17.492
357.68	16.419
358.04	18.578
358.40	17.444
358.77	17.783
359.13	17.614
359.49	18.259
359.85	17.473
360.21	16.986
360.57	18.133
360.93	17.927
361.29	16.918
361.66	17.947
362.02	17.955
362.38	17.898
362.74	17.562
363.10	18.661
363.46	18.532
363.82	18.107
364.18	18.598
364.54	18.309
364.90	18.065
365.26	18.268
365.62	19.343
365.98	17.669
366.35	18.937
366.71	18.773
367.07	18.723
367.43	17.829
367.79	19.081
368.15	19.239
368.51	18.864
368.87	18.306
369.23	19.639
369.59	19.606
369.95	19.355
370.31	19.653
370.67	20.149
371.03	19.940
371.39	19.694
371.75	18.974
372.11	19.401
372.47	19.379
372.83	19.233
373.19	19.544
373.55	18.773
373.91	19.942
374.27	20.269
374.63	19.383
374.99	19.574
375.35	19.499
375.71	20.350
376.07	19.663
376.42	19.388
376.78	18.859
377.14	18.957
377.50	19.721
377.86	19.411
378.22	19.528
378.58	19.359
378.94	18.904
379.30	19.775
379.66	20.000
380.02	20.172
380.38	18.685
380.74	19.270
381.09	20.859
381.45	19.327
381.81	19.988
382.17	19.924
382.53	19.363
382.89	19.460
383.25	20.348
383.61	19.878
383.97	19.175
384.32	19.637
384.68	19.628
385.04	19.363
385.40	19.166
385.76	20.314
386.12	20.052
386.48	19.349
386.83	20.038
387.19	19.109
387.55	20.201
387.91	18.521
388.27	18.315
388.62	19.006
388.98	19.091
389.34	18.988
389.70	19.391
390.06	17.999
390.42	18.782
390.77	18.051
391.13	18.600
391.49	18.823
391.85	18.324
392.20	18.456
392.56	17.737
392.92	18.321
393.28	17.571
393.64	17.778
393.99	18.871
394.35	17.204
394.71	17.241
395.07	16.845
395.42	16.636
395.78	18.046
396.14	16.898
396.50	16.931
396.85	17.772
397.21	17.481
397.57	16.614
397.92	16.477
398.28	16.322
398.64	15.482
399.00	17.269
399.35	15.181
399.71	15.796
400.07	15.961
400.42	15.973
400.78	15.432
401.14	16.455
401.49	15.724
401.85	14.869
402.21	15.602
402.57	15.000
402.92	14.053
403.28	14.912
403.63	15.448
403.99	13.839
404.35	14.928
404.70	13.274
405.06	14.395
405.42	13.797
405.77	13.713
406.13	14.086
406.49	14.150
406.84	13.753
407.20	13.606
407.55	13.393
407.91	12.834
408.27	12.747
408.62	12.985
408.98	13.185
409.34	13.073
409.69	13.114
410.05	13.485
410.40	13.025
410.76	12.606
411.11	12.375
411.47	12.689
411.83	12.116
412.18	12.806
412.54	12.859
412.89	12.069
413.25	12.756
413.60	12.857
413.96	12.086
414.31	13.049
414.67	12.123
415.03	12.716
415.38	12.141
415.74	12.638
416.09	12.280
416.45	13.842
416.80	13.219
417.16	12.776
417.51	13.058
417.87	12.256
418.22	12.759
418.58	12.910
418.93	13.668
419.29	12.996
419.64	12.054
420.00	14.295
420.35	13.313
420.71	14.156
421.06	13.321
421.42	13.582
421.77	13.584
422.12	13.734
422.48	14.023
422.83	14.617
423.19	13.488
423.54	13.815
423.90	14.605
424.25	15.327
424.61	15.055
424.96	14.866
425.31	15.598
425.67	15.258
426.02	16.313
426.38	15.780
426.73	16.646
427.09	17.342
427.44	16.294
427.79	15.910
428.15	17.233
428.50	16.535
428.85	15.663
429.21	17.657
429.56	17.197
429.92	17.514
430.27	17.494
430.62	17.146
430.98	17.516
431.33	18.559
431.68	18.367
432.04	17.496
432.39	18.140
432.74	18.100
433.10	19.598
433.45	19.235
433.80	19.385
434.16	18.560
434.51	18.495
434.86	19.628
435.22	19.405
435.57	19.651
435.92	19.461
436.28	19.559
436.63	19.852
436.98	19.293
437.34	19.903
437.69	21.467
438.04	19.430
438.39	19.731
438.75	20.340
439.10	20.260
439.45	20.572
439.81	21.101
440.16	21.437
440.51	21.373
440.86	21.873
441.22	21.097
441.57	21.909
441.92	21.721
442.27	22.007
442.63	22.323
442.98	21.597
443.33	21.647
443.68	22.175
444.03	22.802
444.39	22.184
444.74	22.575
445.09	23.274
445.44	22.621
445.79	23.569
446.15	23.403
446.50	22.573
446.85	23.061
447.20	22.732
447.55	22.433
447.91	23.294
448.26	23.051
448.61	23.489
448.96	23.351
449.31	22.717
449.66	23.810
450.02	23.617
450.37	23.059
450.72	23.081
451.07	23.734
451.42	23.283
451.77	24.111
452.12	23.744
452.47	23.245
452.83	23.439
453.18	23.150
453.53	24.273
453.88	23.679
454.23	23.786
454.58	24.874
454.93	24.936
455.28	22.540
455.63	24.241
455.98	24.594
456.34	23.372
456.69	23.761
457.04	24.008
457.39	23.998
457.74	24.426
458.09	23.308
458.44	24.459
458.79	24.034
459.14	23.284
459.49	25.075
459.84	24.929
460.19	24.393
460.54	23.900
460.89	24.205
461.24	24.037
461.59	23.812
461.94	22.956
462.29	24.125
462.64	24.319
462.99	24.374
463.34	25.174
463.69	24.582
464.04	24.818
464.39	23.408
464.74	23.926
465.09	24.329
465.44	24.524
465.79	23.810
466.14	24.743
466.49	24.382
466.84	25.104
467.19	24.280
467.54	23.627
467.89	23.437
468.24	24.392
468.59	24.762
468.94	23.556
469.29	25.311
469.64	24.470
469.99	24.597
470.34	24.232
470.68	25.727
471.03	24.204
471.38	25.036
471.73	24.860
472.08	24.016
472.43	24.094
472.78	25.086
473.13	24.354
473.48	24.235
473.83	24.595
474.17	24.611
474.52	23.740
474.87	24.606
475.22	23.612
475.57	24.337
475.92	25.288
476.27	24.389
476.61	24.942
476.96	23.648
477.31	24.932
477.66	25.169
478.01	24.312
478.36	23.366
478.70	24.850
479.05	24.945
479.40	24.377
479.75	24.922
480.10	23.758
480.45	24.600
480.79	25.176
481.14	23.822
481.49	23.645
481.84	24.517
482.19	23.667
482.53	24.173
482.88	23.819
483.23	23.273
483.58	24.245
483.92	23.136
484.27	23.336
484.62	24.249
484.97	24.046
485.31	23.555
485.66	22.649
486.01	22.844
486.36	23.118
486.70	22.703
487.05	23.163
487.40	22.596
487.75	22.761
488.09	22.559
488.44	22.937
488.79	23.160
489.13	23.157
489.48	23.814
489.83	23.453
490.17	23.730
490.52	23.279
490.87	23.137
491.22	24.594
491.56	23.624
491.91	22.945
492.26	22.995
492.60	23.704
492.95	23.069
493.30	22.960
493.64	23.330
493.99	23.816
494.34	22.670
494.68	23.524
495.03	22.336
495.37	24.387
495.72	22.817
496.07	23.415
496.41	22.689
496.76	22.478
497.11	22.264
497.45	23.294
497.80	23.461
498.14	23.050
498.49	23.311
498.84	23.154
499.18	22.942
499.53	23.016
499.87	21.644
500.22	22.107
500.56	23.449
500.91	22.189
501.26	22.096
501.60	22.135
501.95	22.804
502.29	23.245
502.64	23.118
502.98	22.842
503.33	22.238
503.67	23.229
504.02	22.532
504.36	23.355
504.71	21.869
505.06	22.698
505.40	22.386
505.75	23.093
506.09	22.960
506.44	22.793
506.78	23.265
507.13	23.009
507.47	22.037
507.82	22.543
508.16	22.293
508.51	22.770
508.85	22.292
509.19	21.927
509.54	22.413
509.88	22.546
510.23	21.732
510.57	23.677
510.92	22.281
511.26	22.259
511.61	22.992
511.95	22.795
512.30	23.559
512.64	22.760
512.98	22.291
513.33	22.608
513.67	22.911
514.02	23.169
514.36	23.029
514.70	24.068
515.05	23.561
515.39	23.790
515.74	23.772
516.08	23.730
516.42	23.322
516.77	23.406
517.11	22.611
517.46	23.579
517.80	23.421
518.14	22.474
518.49	23.017
518.83	23.329
519.17	21.710
519.52	22.321
519.86	22.689
520.20	22.722
520.55	22.452
520.89	22.647
521.23	22.799
521.58	23.281
521.92	23.269
522.26	22.707
522.61	23.701
522.95	23.576
523.29	22.046
523.64	22.872
523.98	22.878
524.32	21.843
524.66	23.303
525.01	22.792
525.35	22.294
525.69	23.030
526.04	21.627
526.38	23.411
526.72	22.629
527.06	22.309
527.41	22.032
527.75	20.643
528.09	22.259
528.43	22.012
528.78	21.518
529.12	21.806
529.46	21.442
529.80	21.596
530.15	21.914
530.49	21.481
530.83	21.683
531.17	21.155
531.51	21.067
531.86	20.530
532.20	21.294
532.54	20.967
532.88	21.903
533.22	21.035
533.57	21.560
533.91	21.279
534.25	21.484
534.59	20.654
534.93	20.642
535.27	20.749
535.62	20.220
535.96	20.809
536.30	20.580
536.64	21.020
536.98	20.418
537.32	21.053
537.66	21.178
538.01	20.280
538.35	20.111
538.69	20.506
539.03	18.934
539.37	19.717
539.71	20.041
540.05	19.145
540.39	20.499
540.73	19.456
541.07	19.890
541.42	20.901
541.76	20.440
542.10	20.716
542.44	20.083
542.78	18.376
543.12	20.192
543.46	20.097
543.80	19.986
544.14	18.558
544.48	19.787
544.82	20.096
545.16	21.448
545.50	20.294
545.84	20.113
546.18	20.213
546.52	19.683
546.86	19.698
547.20	19.671
547.54	18.728
547.88	19.158
548.22	19.329
548.56	19.393
548.90	20.889
549.24	20.041
549.58	20.592
549.92	19.085
550.26	18.755
550.60	19.033
550.94	19.268
551.28	20.015
551.62	19.615
551.96	19.850
552.30	19.298
552.64	18.336
552.98	19.691
553.32	19.615
553.66	18.650
554.00	20.365
554.34	19.941
554.68	19.395
555.02	20.387
555.36	19.895
555.69	19.048
556.03	18.772
556.37	18.363
556.71	18.556
557.05	18.419
557.39	18.587
557.73	19.190
558.07	21.192
558.41	18.453
558.75	18.706
559.08	19.701
559.42	19.444
559.76	20.737
560.10	18.119
560.44	19.732
560.78	18.951
561.12	18.406
561.45	19.958
561.79	19.188
562.13	19.092
562.47	18.777
562.81	18.948
563.15	19.252
563.48	18.741
563.82	18.668
564.16	18.384
564.50	18.311
564.84	19.210
565.17	17.975
565.51	19.126
565.85	17.970
566.19	18.103
566.52	19.370
566.86	18.380
567.20	17.684
567.54	17.701
567.88	17.223
568.21	18.043
568.55	17.174
568.89	18.172
569.23	17.236
569.56	17.250
569.90	17.458
570.24	17.119
570.57	17.055
570.91	17.009
571.25	17.034
571.59	16.537
571.92	16.474
572.26	16.304
572.60	16.589
572.93	16.599
573.27	15.956
573.61	15.931
573.95	16.412
574.28	15.651
574.62	15.866
574.96	15.856
575.29	15.825
575.63	15.367
575.97	15.153
576.30	15.687
576.64	15.417
576.98	15.882
577.31	16.122
577.65	15.734
577.98	15.533
578.32	15.099
578.66	15.581
578.99	15.606
579.33	15.738
579.67	15.014
580.00	15.873
580.34	15.547
580.67	15.554
581.01	15.946
581.35	15.461
581.68	15.607
582.02	15.764
582.35	15.562
582.69	15.894
583.02	15.894
583.36	16.016
583.70	15.914
584.03	16.069
584.37	16.827
584.70	16.154
585.04	16.010
585.37	16.216
585.71	15.971
586.04	16.011
586.38	15.924
586.72	16.557
587.05	16.378
587.39	16.327
587.72	16.512
588.06	16.275
588.39	16.747
588.73	16.545
589.06	16.928
589.40	16.315
589.73	17.014
590.07	17.409
590.40	17.337
590.73	17.504
591.07	16.794
591.40	17.453
591.74	17.149
592.07	17.347
592.41	17.403
592.74	16.965
593.08	16.905
593.41	17.133
593.75	16.781
594.08	16.512
594.41	17.431
594.75	16.947
595.08	16.307
595.42	16.710
595.75	17.161
596.09	16.654
596.42	16.990
596.75	17.451
597.09	17.267
597.42	17.028
597.75	16.674
598.09	16.795
598.42	16.561
598.76	15.959
599.09	16.747
599.42	16.521
599.76	15.952
600.09	16.704
600.42	16.869
600.76	16.493
601.09	16.870
601.42	15.903
601.76	16.634
602.09	16.708
602.42	16.976
602.76	16.426
603.09	16.777
603.42	17.140
603.76	15.806
604.09	16.525
604.42	16.582
604.76	16.956
605.09	16.636
605.42	16.704
605.75	15.981
606.09	16.263
606.42	16.347
606.75	16.580
607.09	16.484
607.42	16.128
607.75	16.252
608.08	16.083
608.42	16.400
608.75	16.867
609.08	17.040
609.41	15.838
609.75	15.272
610.08	16.675
610.41	16.232
610.74	15.505
611.07	16.331
611.41	16.710
611.74	17.537
612.07	15.739
612.40	16.958
612.73	16.780
613.07	16.198
613.40	16.247
613.73	16.564
614.06	16.082
614.39	17.597
614.72	15.742
615.06	16.034
615.39	15.830
615.72	15.877
616.05	16.257
616.38	15.385
616.71	16.269
617.05	15.936
617.38	16.908
617.71	15.409
618.04	16.952
618.37	16.772
618.70	16.040
619.03	16.667
619.36	15.412
619.69	17.058
620.03	17.020
620.36	16.667
620.69	16.131
621.02	17.278
621.35	16.680
621.68	16.837
622.01	17.167
622.34	16.121
622.67	17.035
623.00	16.539
623.33	15.777
623.66	16.904
623.99	16.793
624.32	16.122
624.65	15.940
624.99	15.877
625.32	15.694
625.65	16.025
625.98	16.600
626.31	15.378
626.64	15.165
626.97	17.539
627.30	17.426
627.63	16.898
627.96	16.083
628.29	16.096
628.62	16.519
628.95	15.130
629.28	16.431
629.61	16.251
629.94	17.595
630.26	16.403
630.59	17.066
630.92	18.154
631.25	17.231
631.58	16.630
631.91	15.241
632.24	15.596
632.57	17.386
632.90	16.607
633.23	15.765
633.56	16.499
633.89	16.400
634.22	16.790
634.55	15.756
634.88	16.858
635.20	18.205
635.53	15.733
635.86	16.515
636.19	16.171
636.52	16.199
636.85	14.640
637.18	15.220
637.51	16.101
637.83	17.477
638.16	18.008
638.49	14.441
638.82	16.711
639.15	15.468
639.48	16.919
639.81	16.179
640.13	16.162
640.46	16.327
640.79	14.728
641.12	15.066
641.45	14.565
641.77	17.185
642.10	16.904
642.43	15.434
642.76	16.337
643.09	16.478
643.41	17.152
643.74	14.992
644.07	18.062
644.40	18.750
644.73	19.264
645.05	15.436
645.38	15.873
645.71	15.780
646.04	16.158
646.36	16.489
646.69	17.266
647.02	18.147
647.35	16.231
647.67	16.088
648.00	16.418
648.33	16.212
648.66	15.763
648.98	14.405
649.31	15.041
649.64	13.501
649.96	13.290
650.29	17.036
650.62	15.897
650.94	12.963
651.27	14.339
651.60	14.775
651.92	16.259
652.25	15.631
652.58	15.167
652.90	17.496
653.23	15.798
653.56	15.905
653.88	14.605
654.21	14.361
654.54	15.620
654.86	15.789
655.19	14.620
655.52	15.789
655.84	13.595
656.17	14.630
656.49	20.344
656.82	20.937
657.15	15.788
657.47	11.558
657.80	8.802
658.13	8.523
658.45	12.691
658.78	12.401
659.10	12.626
659.43	12.369
659.75	12.876
660.08	12.690
660.41	14.096
660.73	14.227
661.06	14.038
661.38	13.894
661.71	10.883
662.03	16.738
662.36	12.088
662.68	13.274
663.01	15.066
663.33	16.705
663.66	13.953
663.98	10.930
664.31	17.484
664.63	13.594
664.96	11.739
665.28	12.804
665.61	14.502
665.93	17.174
666.26	15.184
666.58	15.436
666.91	14.118
667.23	15.566
667.56	15.403
667.88	15.588
668.21	14.558
668.53	14.894
668.86	17.217
669.18	13.915
669.50	11.138
669.83	12.326
670.15	14.685
670.48	13.397
670.80	13.825
671.13	14.541
671.45	13.014
671.77	16.738
672.10	16.040
672.42	15.543
672.75	15.631
673.07	17.174
673.39	12.844
673.72	13.412
674.04	12.083
674.37	16.314
674.69	14.561
675.01	11.778
675.34	14.640
675.66	15.509
675.98	13.969
676.31	15.367
676.63	13.777
676.95	15.227
677.28	15.059
677.60	15.181
677.92	13.761
678.25	14.223
678.57	12.121
678.89	14.706
679.22	14.765
679.54	13.655
679.86	11.730
680.18	14.951
680.51	12.879
680.83	13.519
681.15	14.000
681.48	15.779
681.80	15.289
682.12	16.129
682.44	15.481
682.77	15.011
683.09	14.188
683.41	12.955
683.73	14.977
684.06	13.496
684.38	14.624
684.70	12.854
685.02	13.071
685.34	14.427
685.67	11.445
685.99	13.020
686.31	10.442
686.63	13.544
686.96	12.548
687.28	10.101
687.60	11.217
687.92	13.333
688.24	12.298
688.56	13.319
688.89	14.509
689.21	16.000
689.53	12.065
689.85	12.791
690.17	16.071
690.49	12.057
690.82	12.621
691.14	10.476
691.46	12.383
691.78	12.613
692.10	13.118
692.42	12.338
692.74	12.821
693.06	13.063
693.39	11.086
693.71	12.670
694.03	10.855
694.35	11.682
694.67	11.616
694.99	12.272
695.31	14.360
695.63	13.250
695.95	11.111
696.27	12.953
696.59	14.722
696.91	11.204
697.23	10.797
697.56	11.139
697.88	12.043
698.20	11.845
698.52	13.882
698.84	10.287
699.16	12.000
699.48	13.784
699.80	12.903
700.12	11.051
700.44	12.605
700.76	12.500
701.08	10.909
701.40	12.952
701.72	14.198
702.04	9.901
702.36	11.037
702.68	10.811
703.00	12.121
703.32	11.144
703.64	12.712
703.96	12.174
704.28	10.429
704.60	12.381
704.91	11.041
705.23	11.960
705.55	18.021
705.87	10.469
706.19	13.704
706.51	9.622
706.83	11.254
707.15	7.788
707.47	10.644
707.79	9.115
708.11	13.250
708.43	11.000
708.74	12.145
709.06	15.775
709.38	15.596
709.70	10.355
710.02	16.242
710.34	15.789
710.66	10.256
710.98	12.914
711.29	11.148
711.61	7.458
711.93	12.052
712.25	15.808
712.57	8.791
712.89	10.448
713.20	13.149
713.52	9.059
713.84	10.922
714.16	7.904
714.48	9.677
714.80	12.821
715.11	12.766
715.43	10.972
715.75	11.333
716.07	9.967
716.39	9.732
716.70	7.011
717.02	11.450
717.34	13.360
717.66	10.619
717.97	8.696
718.29	12.134
718.61	12.205
718.93	8.140
719.24	11.787
719.56	14.056
719.88	12.027
720.20	11.364
720.51	8.046
720.83	13.900
721.15	8.824
721.46	12.500
721.78	7.510
722.10	11.152
722.42	6.639
722.73	14.694
723.05	16.735
723.37	13.136
723.68	11.261
724.00	5.983
724.32	6.222
724.63	5.000
724.95	11.354
725.27	12.903
725.58	11.441
725.90	7.540
726.22	7.336
726.53	14.576
726.85	12.360
727.16	10.566
727.48	6.478
727.80	12.146
728.11	8.051
728.43	5.882
728.74	9.274
729.06	10.400
729.38	12.030
729.69	7.171
730.01	5.385
730.32	14.179
730.64	14.488
730.96	10.566
731.27	9.333
731.59	9.492
731.90	8.280
732.22	14.826
732.53	13.953
732.85	13.121
733.16	13.805
733.48	7.914
733.80	11.594
734.11	6.780
734.43	10.997
734.74	10.303
735.06	6.189
735.37	9.668
735.69	14.478
736.00	8.711
736.32	9.732
736.63	10.563
736.95	11.263
737.26	6.050
737.58	7.718
737.89	7.692
738.21	6.767
738.52	9.465
738.83	5.677
739.15	5.677
739.46	9.055
739.78	11.722
740.09	13.399
740.41	10.145
740.72	10.630
741.04	18.219
741.35	8.511
741.66	5.213
741.98	11.735
742.29	4.950
742.61	10.471
742.92	3.318
743.23	3.704
743.55	9.050
743.86	7.656
744.18	11.005
744.49	6.915
744.80	11.957
745.12	9.626
745.43	5.854
745.74	8.333
746.06	5.854
746.37	8.377
746.68	15.640
747.00	7.447
747.31	10.448
747.62	7.767
747.94	7.656
748.25	5.941
748.56	13.115
748.88	12.042
749.19	10.106
749.50	16.749
749.82	2.830
750.13	5.505
750.44	7.895
750.75	11.567
751.07	13.139
751.38	9.579
751.69	3.922
752.01	12.403
752.32	5.976
752.63	8.696
752.94	7.759
753.26	12.134
753.57	6.335
753.88	7.080
754.19	6.250
754.51	8.264
754.82	6.883
755.13	8.750
755.44	9.274
755.75	12.500
756.07	8.949
756.38	6.415
756.69	8.046
757.00	8.000
757.31	5.882
757.63	8.537
757.94	8.611
758.25	7.945
758.56	7.979
758.87	6.516
759.18	7.788
759.50	4.000
759.81	11.371
760.12	13.548
760.43	5.455
760.74	8.025
761.05	5.538
761.36	5.398
761.67	7.879
761.99	11.224
762.30	7.273
762.61	7.905
762.92	8.597
763.23	5.856
763.54	2.336
763.85	8.898
764.16	8.714
764.47	8.065
764.78	8.059
765.10	12.121
765.41	9.148
765.72	4.444
766.03	3.759
766.34	9.124
766.65	9.562
766.96	12.626
767.27	10.106
767.58	3.448
767.89	0.000
768.20	5.114
768.51	8.242
768.82	7.389
769.13	5.069
769.44	9.871
769.75	0.913
770.06	8.190
770.37	8.654
770.68	7.614
770.99	5.882
771.30	6.373
771.61	8.597
771.92	9.914
772.23	8.374
772.54	11.828
772.85	9.877
773.16	14.607
773.47	9.150
773.78	3.922
774.09	7.784
774.39	1.333
774.70	3.185
775.01	12.414
775.32	10.714
775.63	0.826
775.94	6.107
776.25	5.512
776.56	7.500
776.87	7.692
777.18	1.709
777.48	5.172
777.79	1.739
778.10	-7.619
778.41	-7.207
778.72	3.175
779.03	12.030
779.34	11.348
779.65	10.959
779.95	3.425
780.26	11.724
780.57	-3.252
780.88	6.299
781.19	6.034
781.50	11.628
781.80	4.142
782.11	1.887
782.42	-1.538
782.73	1.439
783.04	8.148
783.34	5.556
783.65	-14.530
783.96	7.377
784.27	10.345
784.57	4.065
784.88	6.250
785.19	3.000
785.50	11.000
785.81	0.862
786.11	4.310
786.42	2.913
786.73	10.909
787.04	-2.041
787.34	0.000
787.65	0.000
787.96	-0.885
788.26	13.636
788.57	0.855
788.88	10.937
789.19	4.762
789.49	-1.739
789.80	2.041
790.11	-3.030
790.41	1.818
790.72	14.130
791.03	3.409
791.33	2.500
791.64	7.500
791.95	-1.163
792.25	5.319
792.56	3.371
792.87	1.370
793.17	5.797
793.48	-6.667
793.79	-5.000
794.09	8.750
794.40	8.491
794.70	-8.738
795.01	-6.504
795.32	6.838
795.62	3.810
795.93	4.902
796.23	16.038
796.54	5.208
796.85	-2.941
797.15	-8.451
797.46	2.778
797.76	10.606
798.07	-5.814
798.37	-2.632
798.68	-7.576
798.99	3.704
799.29	12.857
799.60	-4.348
799.90	21.333
800.21	14.754
800.51	12.308
800.82	6.780
801.12	-2.899
801.43	8.197
801.73	11.111
802.04	-2.000
802.34	-11.940
802.65	17.308
802.95	-7.143
803.26	3.846
803.56	3.922
803.87	-17.391
804.17	5.333
804.48	26.984
804.78	5.556
805.09	-10.870
805.39	0.000
805.70	3.704
806.00	-8.772
806.30	2.817
806.61	15.714
806.91	-4.167
807.22	14.474
807.52	20.000
807.83	-18.182
808.13	19.444
808.43	1.471
808.74	5.970
809.04	-25.424
809.35	-5.769
809.65	1.563
809.95	-40.541
810.26	-18.182
810.56	10.959
810.86	-26.190
811.17	20.000
811.47	4.082
811.77	-15.789
812.08	-9.091
812.38	-18.868
812.69	-5.000
812.99	-39.394
813.29	10.526
813.59	-20.000
813.90	-6.818
814.20	-2.564
814.50	-5.769
814.81	18.868
815.11	-19.149
815.41	8.475
815.72	0.000
816.02	5.882
816.32	-20.833
816.62	-31.707
816.93	-8.108
817.23	-17.143
817.53	-12.500
817.84	-2.174
818.14	11.538
818.44	-10.526
818.74	-2.174
819.04	-42.500
819.35	-21.622
819.65	-20.588
819.95	-22.222
820.25	-4.762
820.56	10.000
820.86	-65.517
821.16	10.000
821.46	-8.511
821.76	7.500
822.07	2.326
822.37	-40.541
822.67	-21.875
822.97	11.905
823.27	-21.429
823.57	-60.000
823.88	-37.037
824.18	-32.143
824.48	-14.706
824.78	-6.452
825.08	-8.696
825.38	-21.212
825.69	-41.667
825.99	5.263
826.29	-44.444
826.59	-33.333
826.89	-52.381
827.19	23.913
827.49	7.500
827.79	17.143
828.09	7.143
828.39	21.212
828.70	10.811
829.00	-3.571
829.30	-57.143
829.60	-23.333
829.90	-3.125
830.20	-28.947
830.50	-11.111
830.80	-47.826
831.10	-4.545
831.40	-9.091
831.70	12.903
832.00	-52.381
832.30	-42.857
832.60	-83.333
832.90	24.138
833.20	-105.000
833.50	6.061
833.80	0.000
834.10	-7.692
834.40	12.500
834.70	-100.000
835.00	-78.947
835.30	23.077
835.60	33.333
835.90	-3.226
836.20	-18.182
836.50	-14.286
836.80	-61.538
837.10	-25.000
837.40	-366.667
837.70	-13.636
838.00	-45.455
838.30	21.739
838.60	23.077
838.90	22.727
839.19	-3.571
839.49	6.667
839.79	-76.923
840.09	-166.667
840.39	17.857
840.69	-10.714
840.99	-34.615
841.29	-52.632
841.59	-150.000
841.88	36.364
842.18	0.000
842.48	-18.750
842.78	-140.000
843.08	11.111
843.38	-130.000
843.68	-30.435
843.97	-93.333
844.27	-46.667
844.57	-10.000
844.87	-5.556
845.17	-47.619
845.47	13.333
845.76	-57.143
846.06	-17.647
846.36	-80.000
846.66	-85.714
846.96	-26.667
847.25	-25.000
847.55	14.286
847.85	-162.500
848.15	-31.818
848.44	-600.000
848.74	15.000
849.04	-11.111
849.34	-9.091
849.63	-233.333
849.93	-480.000
850.23	-16.667
850.53	110.000
850.82	-38.462
851.12	-44.444
851.42	6.667
851.71	-19.231
852.01	-71.429
852.31	-175.000
852.61	-27.273
852.90	-40.000
853.20	-26.316
853.50	-83.333
853.79	17.391
854.09	-16.667
854.39	-52.632
854.68	-4.167
854.98	16.129
855.28	69.231
855.57	0.000
855.87	22.222
856.17	7.407
856.46	-28.571
856.76	-53.333
857.05	55.556
857.35	-24.000
857.65	-5.556
857.94	-23.077
858.24	17.241
858.53	-11.111
858.83	-7.407
859.13	-27.273
859.42	-30.435
859.72	25.000
860.01	-400.000
860.31	36.000
860.60	-14.286
860.90	-500.000
861.20	-6.667
861.49	-800.000
861.79	-93.333
862.08	-35.000
862.38	-20.000
862.67	-180.000
862.97	-250.000
863.26	-50.000
863.56	50.000
863.85	-433.333
864.15	0.000
864.44	-110.000
864.74	57.143
865.03	225.000
865.33	20.000
865.62	-116.667
865.92	-16.667
866.21	-133.333
866.51	-25.000
866.80	-154.545
867.10	-500.000
867.39	8.333
867.69	0.000
867.98	-38.462
868.27	-333.333
868.57	0.000
868.86	5.556
869.16	-69.231
869.45	6.667
869.75	-1400.000
870.04	0.000
870.33	-142.857
870.63	28.571
870.92	633.333
871.22	-300.000
871.51	-1100.000
871.80	-33.333
872.10	200.000
>>>>>End Processed Spectral Data<<<<<
