SpectraSuite Data File
++++++++++++++++++++++++++++++++++++
Date: Fri May 15 20:42:18 PDT 2015
User: schluterlab
Dark Spectrum Present: Yes
Reference Spectrum Present: Yes
Number of Sampled Component Spectra: 1
Spectrometers: USB2E3373
Integration Time (usec): 3000 (USB2E3373)
Spectra Averaged: 3 (USB2E3373)
Boxcar Smoothing: 0 (USB2E3373)
Correct for Electrical Dark: No (USB2E3373)
Strobe/Lamp Enabled: No (USB2E3373)
Correct for Detector Non-linearity: No (USB2E3373)
Correct for Stray Light: No (USB2E3373)
Number of Pixels in Processed Spectrum: 2048
>>>>>Begin Processed Spectral Data<<<<<
178.53	0.000
178.91	0.000
179.29	12.500
179.67	-250.000
180.04	85.714
180.42	200.000
180.80	-300.000
181.18	166.667
181.56	500.000
181.94	-500.000
182.31	1200.000
182.69	-100.000
183.07	-66.667
183.45	-200.000
183.83	83.333
184.20	81.818
184.58	200.000
184.96	75.000
185.34	-0.000
185.72	0.000
186.09	92.308
186.47	200.000
186.85	150.000
187.23	77.778
187.61	900.000
187.98	-366.667
188.36	22.222
188.74	-400.000
189.12	5.882
189.49	27.778
189.87	0.000
190.25	85.714
190.63	150.000
191.00	-433.333
191.38	0.000
191.76	150.000
192.14	175.000
192.51	350.000
192.89	-33.333
193.27	14.286
193.65	66.667
194.02	209.091
194.40	-50.000
194.78	-162.500
195.15	25.000
195.53	-62.500
195.91	475.000
196.29	0.000
196.66	84.615
197.04	57.143
197.42	-77.778
197.79	-533.333
198.17	-30.769
198.55	1000.000
198.92	-166.667
199.30	400.000
199.68	80.000
200.05	-66.667
200.43	0.000
200.81	-200.000
201.18	-366.667
201.56	1300.000
201.94	-400.000
202.31	66.667
202.69	-180.000
203.07	125.000
203.44	-100.000
203.82	0.000
204.19	-50.000
204.57	-433.333
204.95	75.000
205.32	0.000
205.70	0.000
206.08	275.000
206.45	100.000
206.83	50.000
207.20	-71.429
207.58	-200.000
207.96	-466.667
208.33	-90.000
208.71	75.000
209.08	-266.667
209.46	-800.000
209.84	0.000
210.21	-1500.000
210.59	-71.429
210.96	-50.000
211.34	-50.000
211.71	-26.667
212.09	-128.571
212.46	-1600.000
212.84	0.000
213.22	70.000
213.59	700.000
213.97	46.154
214.34	-9.091
214.72	100.000
215.09	100.000
215.47	-23.077
215.84	-45.455
216.22	-366.667
216.59	-25.000
216.97	150.000
217.34	-125.000
217.72	-180.000
218.09	0.000
218.47	137.500
218.84	-200.000
219.22	-100.000
219.59	-100.000
219.97	200.000
220.34	75.000
220.72	14.286
221.09	-50.000
221.47	-50.000
221.84	-400.000
222.22	-550.000
222.59	81.818
222.97	8.333
223.34	-300.000
223.72	21.429
224.09	61.905
224.46	32.143
224.84	433.333
225.21	-70.000
225.59	-20.000
225.96	150.000
226.34	250.000
226.71	14.286
227.08	16.667
227.46	-87.500
227.83	-150.000
228.21	11.111
228.58	-9.091
228.95	-50.000
229.33	20.000
229.70	68.750
230.08	-12.500
230.45	-57.143
230.82	-128.571
231.20	-6.667
231.57	21.429
231.95	57.143
232.32	-110.000
232.69	50.000
233.07	-66.667
233.44	-140.000
233.81	-90.000
234.19	-55.556
234.56	5.882
234.93	350.000
235.31	75.000
235.68	-40.000
236.05	-23.077
236.43	-65.000
236.80	-76.471
237.17	6.250
237.55	35.000
237.92	7.407
238.29	22.222
238.67	40.000
239.04	0.000
239.41	-12.195
239.79	16.667
240.16	26.829
240.53	-7.895
240.91	15.217
241.28	28.571
241.65	17.857
242.02	26.027
242.40	28.333
242.77	16.949
243.14	21.212
243.51	28.750
243.89	40.230
244.26	27.586
244.63	30.952
245.00	21.649
245.38	24.742
245.75	24.719
246.12	23.276
246.49	23.967
246.87	22.115
247.24	25.210
247.61	28.070
247.98	31.707
248.36	28.125
248.73	26.316
249.10	20.779
249.47	31.013
249.84	31.373
250.22	25.882
250.59	24.837
250.96	29.108
251.33	27.326
251.70	30.588
252.08	31.472
252.45	24.752
252.82	31.658
253.19	28.111
253.56	26.636
253.94	31.081
254.31	29.565
254.68	33.772
255.05	28.346
255.42	25.328
255.79	30.502
256.16	32.296
256.54	32.463
256.91	31.559
257.28	26.394
257.65	30.337
258.02	26.596
258.39	30.640
258.76	31.502
259.14	33.555
259.51	30.421
259.88	27.148
260.25	27.778
260.62	31.944
260.99	30.169
261.36	27.740
261.73	29.114
262.10	31.915
262.47	29.141
262.85	28.840
263.22	29.846
263.59	31.776
263.96	29.193
264.33	26.970
264.70	29.464
265.07	32.440
265.44	31.161
265.81	30.508
266.18	29.235
266.55	31.877
266.92	30.829
267.29	32.898
267.66	27.366
268.03	29.843
268.40	28.198
268.77	32.353
269.14	28.777
269.51	29.049
269.88	30.175
270.25	27.551
270.62	27.317
270.99	30.946
271.36	28.117
271.73	30.047
272.10	29.927
272.47	26.950
272.84	27.723
273.21	28.538
273.58	29.880
273.95	30.664
274.32	26.097
274.69	26.244
275.06	32.143
275.43	28.571
275.80	30.684
276.17	27.126
276.54	28.266
276.91	29.825
277.28	26.201
277.65	29.959
278.02	28.511
278.39	27.352
278.76	26.415
279.13	23.444
279.50	29.202
279.87	28.942
280.23	28.387
280.60	27.290
280.97	28.687
281.34	30.000
281.71	27.926
282.08	28.221
282.45	26.614
282.82	26.448
283.19	29.014
283.56	28.324
283.92	25.806
284.29	27.500
284.66	27.519
285.03	26.916
285.40	29.112
285.77	25.659
286.14	25.090
286.51	28.413
286.87	23.583
287.24	28.545
287.61	25.397
287.98	29.298
288.35	26.863
288.72	25.569
289.08	24.132
289.45	26.714
289.82	25.874
290.19	27.645
290.56	25.043
290.93	25.421
291.29	23.729
291.66	24.724
292.03	23.604
292.40	24.355
292.77	22.329
293.13	21.104
293.50	21.851
293.87	22.290
294.24	24.111
294.60	25.037
294.97	23.065
295.34	23.313
295.71	22.802
296.08	24.066
296.44	20.199
296.81	20.278
297.18	22.464
297.55	22.087
297.91	22.055
298.28	21.636
298.65	20.081
299.02	19.003
299.38	18.878
299.75	21.241
300.12	19.895
300.48	18.972
300.85	21.293
301.22	19.740
301.59	20.263
301.95	20.759
302.32	22.179
302.69	19.652
303.05	19.307
303.42	20.174
303.79	18.925
304.15	20.550
304.52	18.074
304.89	19.649
305.25	19.370
305.62	19.253
305.99	18.713
306.35	18.497
306.72	17.885
307.09	18.814
307.45	19.173
307.82	17.940
308.19	19.861
308.55	17.884
308.92	19.935
309.29	17.877
309.65	17.546
310.02	17.712
310.38	19.868
310.75	19.126
311.12	18.837
311.48	18.346
311.85	17.906
312.22	18.460
312.58	17.728
312.95	18.250
313.31	18.012
313.68	16.649
314.05	17.551
314.41	18.144
314.78	18.041
315.14	18.294
315.51	18.323
315.87	16.803
316.24	19.009
316.61	17.224
316.97	18.353
317.34	17.383
317.70	17.304
318.07	17.404
318.43	19.020
318.80	16.572
319.16	16.992
319.53	19.278
319.89	18.012
320.26	18.522
320.62	18.857
320.99	17.328
321.35	17.986
321.72	19.315
322.08	18.127
322.45	17.868
322.81	18.173
323.18	18.646
323.54	17.954
323.91	17.040
324.27	17.773
324.64	18.820
325.00	18.431
325.37	20.478
325.73	17.770
326.10	18.529
326.46	19.193
326.83	19.598
327.19	18.221
327.56	19.114
327.92	19.718
328.29	17.411
328.65	18.208
329.01	18.934
329.38	18.802
329.74	17.469
330.11	18.536
330.47	17.625
330.84	17.981
331.20	19.867
331.56	17.778
331.93	19.269
332.29	19.982
332.66	17.738
333.02	17.658
333.38	17.232
333.75	17.949
334.11	17.995
334.48	18.948
334.84	19.414
335.20	18.298
335.57	16.772
335.93	18.880
336.29	18.324
336.66	18.529
337.02	17.286
337.38	16.852
337.75	17.545
338.11	18.124
338.47	17.974
338.84	18.022
339.20	17.916
339.56	16.514
339.93	17.726
340.29	17.339
340.65	19.265
341.02	17.287
341.38	17.699
341.74	17.933
342.11	16.551
342.47	19.128
342.83	17.820
343.20	17.422
343.56	16.435
343.92	17.892
344.28	18.873
344.65	16.839
345.01	16.768
345.37	16.989
345.73	18.912
346.10	17.601
346.46	16.905
346.82	17.430
347.19	16.376
347.55	17.377
347.91	18.447
348.27	17.057
348.63	17.632
349.00	15.422
349.36	17.872
349.72	18.159
350.08	17.623
350.45	17.558
350.81	17.442
351.17	17.020
351.53	16.980
351.89	15.194
352.26	16.720
352.62	17.177
352.98	16.386
353.34	16.425
353.70	17.880
354.07	16.613
354.43	16.813
354.79	16.928
355.15	17.460
355.51	17.326
355.87	16.424
356.24	16.558
356.60	15.845
356.96	16.984
357.32	16.773
357.68	16.106
358.04	16.397
358.40	17.042
358.77	17.703
359.13	16.013
359.49	17.026
359.85	16.771
360.21	16.268
360.57	16.679
360.93	16.263
361.29	15.408
361.66	17.320
362.02	16.591
362.38	16.299
362.74	15.897
363.10	16.629
363.46	15.345
363.82	16.379
364.18	16.162
364.54	15.515
364.90	16.129
365.26	16.303
365.62	17.664
365.98	15.396
366.35	16.460
366.71	17.221
367.07	16.255
367.43	16.175
367.79	16.608
368.15	16.296
368.51	16.242
368.87	14.932
369.23	15.668
369.59	14.796
369.95	15.836
370.31	15.968
370.67	15.000
371.03	15.385
371.39	14.953
371.75	16.264
372.11	16.120
372.47	15.828
372.83	15.685
373.19	15.835
373.55	15.162
373.91	15.983
374.27	16.017
374.63	16.152
374.99	15.035
375.35	15.599
375.71	16.713
376.07	15.730
376.42	16.054
376.78	15.705
377.14	15.843
377.50	15.007
377.86	16.600
378.22	15.507
378.58	15.833
378.94	15.438
379.30	15.471
379.66	15.423
380.02	15.635
380.38	14.790
380.74	15.200
381.09	16.319
381.45	15.963
381.81	15.423
382.17	16.117
382.53	14.553
382.89	16.196
383.25	15.495
383.61	15.915
383.97	15.048
384.32	14.759
384.68	14.551
385.04	14.461
385.40	14.437
385.76	16.038
386.12	15.783
386.48	15.390
386.83	15.663
387.19	15.201
387.55	15.370
387.91	15.220
388.27	15.079
388.62	15.607
388.98	14.979
389.34	14.991
389.70	14.978
390.06	14.286
390.42	14.832
390.77	14.650
391.13	14.439
391.49	15.136
391.85	14.165
392.20	14.626
392.56	14.304
392.92	15.561
393.28	14.623
393.64	15.135
393.99	15.423
394.35	13.662
394.71	15.645
395.07	14.205
395.42	14.147
395.78	14.984
396.14	15.889
396.50	15.599
396.85	14.617
397.21	14.850
397.57	15.110
397.92	14.859
398.28	14.713
398.64	14.699
399.00	14.955
399.35	13.883
399.71	14.532
400.07	15.357
400.42	14.627
400.78	14.758
401.14	15.487
401.49	14.175
401.85	15.113
402.21	14.880
402.57	14.250
402.92	14.806
403.28	15.351
403.63	14.502
403.99	14.987
404.35	15.428
404.70	15.119
405.06	14.336
405.42	14.854
405.77	14.236
406.13	14.203
406.49	14.150
406.84	14.853
407.20	15.232
407.55	14.231
407.91	15.040
408.27	13.639
408.62	15.077
408.98	15.342
409.34	14.994
409.69	14.341
410.05	14.532
410.40	13.951
410.76	14.837
411.11	15.250
411.47	14.924
411.83	14.250
412.18	13.835
412.54	15.169
412.89	14.409
413.25	14.440
413.60	14.658
413.96	14.663
414.31	14.939
414.67	13.791
415.03	15.646
415.38	14.099
415.74	15.440
416.09	15.153
416.45	14.855
416.80	14.805
417.16	14.296
417.51	15.256
417.87	14.276
418.22	15.091
418.58	14.047
418.93	15.486
419.29	13.764
419.64	13.934
420.00	15.491
420.35	15.045
420.71	14.885
421.06	14.794
421.42	15.084
421.77	14.740
422.12	14.529
422.48	14.781
422.83	13.921
423.19	14.447
423.54	13.698
423.90	14.664
424.25	15.040
424.61	14.994
424.96	15.273
425.31	15.598
425.67	14.378
426.02	15.489
426.38	14.903
426.73	15.012
427.09	15.000
427.44	15.412
427.79	14.202
428.15	15.049
428.50	14.900
428.85	13.575
429.21	14.884
429.56	14.933
429.92	15.408
430.27	14.837
430.62	14.689
430.98	15.074
431.33	15.405
431.68	14.181
432.04	14.310
432.39	14.090
432.74	13.830
433.10	15.517
433.45	14.695
433.80	14.452
434.16	13.850
434.51	14.355
434.86	14.983
435.22	14.470
435.57	15.533
435.92	14.970
436.28	14.609
436.63	14.718
436.98	14.311
437.34	14.277
437.69	14.848
438.04	14.473
438.39	14.356
438.75	14.754
439.10	14.431
439.45	14.729
439.81	15.596
440.16	14.252
440.51	14.985
440.86	15.831
441.22	15.045
441.57	14.570
441.92	15.635
442.27	14.302
442.63	14.775
442.98	15.049
443.33	14.691
443.68	15.119
444.03	15.698
444.39	14.215
444.74	15.273
445.09	15.145
445.44	15.271
445.79	15.678
446.15	14.537
446.50	14.254
446.85	14.559
447.20	14.859
447.55	15.234
447.91	15.059
448.26	15.139
448.61	15.083
448.96	15.261
449.31	15.491
449.66	15.215
450.02	14.832
450.37	14.582
450.72	14.548
451.07	15.949
451.42	14.045
451.77	15.732
452.12	13.995
452.47	14.939
452.83	15.253
453.18	14.168
453.53	15.424
453.88	14.572
454.23	15.181
454.58	15.617
454.93	15.722
455.28	14.286
455.63	15.747
455.98	15.815
456.34	14.815
456.69	15.184
457.04	16.005
457.39	15.492
457.74	14.933
458.09	14.832
458.44	14.277
458.79	14.734
459.14	15.103
459.49	15.224
459.84	15.567
460.19	14.684
460.54	16.076
460.89	14.830
461.24	14.534
461.59	14.549
461.94	14.277
462.29	15.320
462.64	15.615
462.99	15.098
463.34	14.604
463.69	15.380
464.04	15.012
464.39	15.343
464.74	14.785
465.09	15.409
465.44	15.061
465.79	14.853
466.14	15.735
466.49	15.354
466.84	15.348
467.19	15.707
467.54	15.709
467.89	14.782
468.24	14.538
468.59	15.619
468.94	15.302
469.29	15.148
469.64	15.789
469.99	16.468
470.34	14.198
470.68	15.362
471.03	15.640
471.38	15.264
471.73	15.266
472.08	15.129
472.43	14.295
472.78	15.079
473.13	15.374
473.48	14.397
473.83	14.010
474.17	14.896
474.52	14.550
474.87	14.667
475.22	15.070
475.57	14.963
475.92	15.688
476.27	15.541
476.61	15.625
476.96	14.780
477.31	14.494
477.66	15.112
478.01	14.823
478.36	14.488
478.70	15.715
479.05	15.879
479.40	15.103
479.75	14.546
480.10	14.388
480.45	14.800
480.79	15.760
481.14	15.523
481.49	15.369
481.84	14.961
482.19	14.874
482.53	15.108
482.88	15.370
483.23	14.923
483.58	15.519
483.92	15.973
484.27	14.813
484.62	15.016
484.97	14.925
485.31	15.065
485.66	14.670
486.01	14.968
486.36	14.639
486.70	14.523
487.05	15.211
487.40	14.814
487.75	14.901
488.09	15.080
488.44	14.856
488.79	14.270
489.13	15.545
489.48	14.451
489.83	14.484
490.17	14.517
490.52	14.827
490.87	15.039
491.22	15.043
491.56	15.085
491.91	14.914
492.26	15.070
492.60	15.259
492.95	15.593
493.30	14.900
493.64	15.324
493.99	15.556
494.34	14.757
494.68	15.333
495.03	14.550
495.37	15.064
495.72	15.699
496.07	15.073
496.41	15.142
496.76	14.740
497.11	14.485
497.45	15.418
497.80	14.480
498.14	14.754
498.49	14.627
498.84	14.621
499.18	15.211
499.53	15.079
499.87	14.932
500.22	14.886
500.56	15.179
500.91	14.558
501.26	14.829
501.60	15.445
501.95	15.575
502.29	15.400
502.64	14.913
502.98	14.948
503.33	14.361
503.67	14.795
504.02	14.809
504.36	15.784
504.71	14.444
505.06	15.400
505.40	15.025
505.75	14.691
506.09	15.053
506.44	15.708
506.78	14.847
507.13	15.408
507.47	14.621
507.82	14.156
508.16	14.633
508.51	15.635
508.85	14.652
509.19	14.742
509.54	14.906
509.88	14.941
510.23	15.492
510.57	15.286
510.92	14.392
511.26	15.057
511.61	15.072
511.95	15.562
512.30	15.521
512.64	15.804
512.98	14.599
513.33	15.725
513.67	14.895
514.02	15.618
514.36	15.486
514.70	15.851
515.05	16.157
515.39	15.525
515.74	15.689
516.08	15.182
516.42	16.196
516.77	15.682
517.11	14.777
517.46	15.021
517.80	15.316
518.14	15.064
518.49	14.964
518.83	15.067
519.17	14.979
519.52	14.683
519.86	14.826
520.20	15.249
520.55	15.009
520.89	15.558
521.23	15.769
521.58	15.962
521.92	15.128
522.26	15.745
522.61	14.935
522.95	15.563
523.29	15.820
523.64	16.074
523.98	15.878
524.32	14.369
524.66	16.133
525.01	15.455
525.35	15.360
525.69	15.152
526.04	14.484
526.38	15.240
526.72	15.239
527.06	14.462
527.41	15.369
527.75	15.080
528.09	15.017
528.43	16.475
528.78	14.587
529.12	15.548
529.46	15.335
529.80	15.769
530.15	15.776
530.49	15.017
530.83	15.458
531.17	15.245
531.51	15.458
531.86	15.160
532.20	15.101
532.54	15.793
532.88	15.127
533.22	14.987
533.57	15.072
533.91	14.948
534.25	15.755
534.59	15.138
534.93	15.356
535.27	14.721
535.62	15.036
535.96	16.243
536.30	15.765
536.64	16.471
536.98	14.983
537.32	16.145
537.66	15.638
538.01	16.434
538.35	14.632
538.69	16.378
539.03	14.286
539.37	15.882
539.71	16.155
540.05	15.071
540.39	15.789
540.73	15.621
541.07	15.746
541.42	17.003
541.76	16.380
542.10	15.348
542.44	15.358
542.78	15.141
543.12	15.591
543.46	15.299
543.80	15.337
544.14	14.419
544.48	15.523
544.82	15.311
545.16	16.189
545.50	16.422
545.84	15.368
546.18	16.454
546.52	16.438
546.86	14.881
547.20	15.808
547.54	14.841
547.88	15.285
548.22	15.056
548.56	15.567
548.90	16.240
549.24	15.152
549.58	15.374
549.92	14.510
550.26	15.238
550.60	15.539
550.94	15.683
551.28	15.070
551.62	16.231
551.96	15.338
552.30	15.936
552.64	15.162
552.98	15.893
553.32	16.120
553.66	15.167
554.00	16.277
554.34	15.583
554.68	14.971
555.02	15.848
555.36	15.707
555.69	13.626
556.03	14.561
556.37	15.302
556.71	16.029
557.05	15.362
557.39	15.242
557.73	16.192
558.07	15.988
558.41	14.548
558.75	15.355
559.08	14.815
559.42	14.603
559.76	15.532
560.10	14.985
560.44	14.892
560.78	15.315
561.12	15.162
561.45	15.812
561.79	15.826
562.13	15.188
562.47	14.245
562.81	15.850
563.15	15.726
563.48	14.781
563.82	15.854
564.16	16.156
564.50	15.405
564.84	15.797
565.17	15.560
565.51	16.803
565.85	15.912
566.19	15.318
566.52	15.550
566.86	15.938
567.20	15.753
567.54	14.964
567.88	15.290
568.21	15.894
568.55	15.380
568.89	15.657
569.23	15.551
569.56	15.280
569.90	15.794
570.24	15.519
570.57	15.273
570.91	15.615
571.25	15.390
571.59	15.167
571.92	14.844
572.26	15.157
572.60	14.760
572.93	14.998
573.27	14.734
573.61	15.334
573.95	15.292
574.28	15.042
574.62	14.747
574.96	14.909
575.29	15.144
575.63	14.797
575.97	15.126
576.30	14.675
576.64	14.464
576.98	14.955
577.31	14.893
577.65	15.550
577.98	15.089
578.32	15.162
578.66	14.958
578.99	15.161
579.33	14.764
579.67	14.686
580.00	14.658
580.34	15.124
580.67	14.639
581.01	15.130
581.35	14.470
581.68	14.918
582.02	15.049
582.35	14.986
582.69	15.329
583.02	14.548
583.36	14.810
583.70	15.447
584.03	15.096
584.37	15.274
584.70	14.808
585.04	14.404
585.37	15.307
585.71	14.935
586.04	15.179
586.38	14.537
586.72	14.892
587.05	14.847
587.39	15.124
587.72	15.282
588.06	15.084
588.39	15.380
588.73	14.988
589.06	15.492
589.40	15.244
589.73	15.042
590.07	15.219
590.40	15.519
590.73	15.733
591.07	15.310
591.40	15.138
591.74	15.611
592.07	15.399
592.41	15.239
592.74	15.054
593.08	14.914
593.41	14.893
593.75	15.047
594.08	14.830
594.41	15.211
594.75	15.000
595.08	14.832
595.42	14.612
595.75	14.683
596.09	14.269
596.42	15.668
596.75	15.542
597.09	15.353
597.42	14.950
597.75	15.392
598.09	14.441
598.42	15.794
598.76	14.972
599.09	15.505
599.42	14.475
599.76	14.635
600.09	14.668
600.42	15.049
600.76	14.710
601.09	15.000
601.42	15.315
601.76	14.291
602.09	14.480
602.42	14.912
602.76	15.323
603.09	15.116
603.42	15.343
603.76	15.121
604.09	14.743
604.42	15.482
604.76	15.977
605.09	15.265
605.42	15.305
605.75	15.061
606.09	14.735
606.42	14.721
606.75	15.325
607.09	15.297
607.42	14.577
607.75	14.742
608.08	14.510
608.42	14.893
608.75	16.048
609.08	15.546
609.41	15.279
609.75	14.667
610.08	15.477
610.41	15.121
610.74	14.481
611.07	15.039
611.41	15.880
611.74	16.045
612.07	14.882
612.40	15.646
612.73	14.746
613.07	14.567
613.40	15.646
613.73	15.109
614.06	15.860
614.39	14.777
614.72	15.294
615.06	15.196
615.39	14.956
615.72	14.962
616.05	15.531
616.38	14.188
616.71	15.107
617.05	14.639
617.38	15.651
617.71	15.031
618.04	15.556
618.37	15.763
618.70	15.182
619.03	16.181
619.36	14.544
619.69	16.603
620.03	15.924
620.36	14.735
620.69	14.490
621.02	15.596
621.35	16.183
621.68	15.476
622.01	14.500
622.34	16.840
622.67	15.379
623.00	14.778
623.33	15.244
623.66	14.734
623.99	16.112
624.32	15.361
624.65	14.737
624.99	15.275
625.32	14.860
625.65	16.025
625.98	15.230
626.31	14.879
626.64	16.205
626.97	15.271
627.30	14.974
627.63	15.165
627.96	16.352
628.29	15.634
628.62	15.634
628.95	14.429
629.28	15.524
629.61	14.855
629.94	16.716
630.26	15.810
630.59	16.025
630.92	15.385
631.25	13.231
631.58	15.749
631.91	13.377
632.24	15.252
632.57	16.932
632.90	13.642
633.23	14.353
633.56	14.987
633.89	14.920
634.22	16.667
634.55	15.629
634.88	13.921
635.20	14.744
635.53	15.867
635.86	13.394
636.19	14.877
636.52	13.776
636.85	13.648
637.18	15.723
637.51	14.717
637.83	14.192
638.16	16.235
638.49	14.986
638.82	16.316
639.15	16.689
639.48	14.580
639.81	16.597
640.13	15.007
640.46	15.889
640.79	15.022
641.12	14.771
641.45	14.565
641.77	17.185
642.10	14.692
642.43	17.042
642.76	15.842
643.09	15.509
643.41	14.078
643.74	14.003
644.07	15.599
644.40	16.047
644.73	16.988
645.05	14.597
645.38	14.109
645.71	13.475
646.04	15.440
646.36	16.135
646.69	18.165
647.02	16.446
647.35	17.724
647.67	16.819
648.00	16.791
648.33	16.894
648.66	14.915
648.98	14.238
649.31	14.380
649.64	15.228
649.96	14.587
650.29	15.162
650.62	16.752
650.94	14.074
651.27	15.084
651.60	14.595
651.92	16.084
652.25	14.920
652.58	16.500
652.90	14.408
653.23	14.454
653.56	14.552
653.88	14.777
654.21	13.485
654.54	15.280
654.86	17.827
655.19	14.474
655.52	17.337
655.84	15.412
656.17	17.134
656.49	22.800
656.82	23.288
657.15	17.747
657.47	13.261
657.80	9.859
658.13	9.622
658.45	14.760
658.78	15.327
659.10	14.646
659.43	14.611
659.75	15.244
660.08	14.069
660.41	15.220
660.73	14.503
661.06	15.771
661.38	13.503
661.71	12.320
662.03	18.240
662.36	14.945
662.68	14.823
663.01	16.157
663.33	14.385
663.66	13.488
663.98	13.953
664.31	14.499
664.63	12.903
664.96	11.957
665.28	13.907
665.61	15.368
665.93	16.304
666.26	16.052
666.58	11.409
666.91	14.118
667.23	14.858
667.56	16.351
667.88	12.470
668.21	17.422
668.53	17.258
668.86	13.208
669.18	14.623
669.50	14.044
669.83	15.581
670.15	14.685
670.48	13.876
670.80	16.359
671.13	13.870
671.45	14.384
671.77	17.167
672.10	14.653
672.42	13.296
672.75	13.854
673.07	16.637
673.39	16.514
673.72	13.018
674.04	16.250
674.37	14.195
674.69	14.347
675.01	14.667
675.34	15.090
675.66	17.361
675.98	15.743
676.31	15.138
676.63	15.202
676.95	16.136
677.28	16.471
677.60	16.386
677.92	14.220
678.25	14.661
678.57	13.420
678.89	13.025
679.22	14.541
679.54	12.249
679.86	13.121
680.18	14.951
680.51	15.530
680.83	16.501
681.15	17.000
681.48	16.393
681.80	16.322
682.12	14.315
682.44	14.854
682.77	12.804
683.09	16.247
683.41	15.455
683.73	14.516
684.06	15.929
684.38	13.333
684.70	13.943
685.02	11.203
685.34	14.625
685.67	15.947
685.99	16.094
686.31	15.752
686.63	15.584
686.96	12.548
687.28	11.717
687.60	12.928
687.92	12.727
688.24	16.734
688.56	14.629
688.89	13.170
689.21	17.111
689.53	13.921
689.85	13.023
690.17	16.295
690.49	15.839
690.82	13.592
691.14	13.333
691.46	13.318
691.78	15.541
692.10	16.129
692.42	11.688
692.74	14.103
693.06	15.541
693.39	13.348
693.71	12.443
694.03	13.626
694.35	17.991
694.67	15.657
694.99	13.316
695.31	15.666
695.63	16.250
695.95	12.879
696.27	13.472
696.59	16.389
696.91	17.367
697.23	14.910
697.56	14.356
697.88	17.204
698.20	14.123
698.52	14.824
698.84	14.354
699.16	15.500
699.48	14.536
699.80	13.648
700.12	16.173
700.44	15.406
700.76	13.663
701.08	14.242
701.40	12.048
701.72	20.370
702.04	11.881
702.36	17.057
702.68	14.715
703.00	15.455
703.32	15.249
703.64	12.147
703.96	13.913
704.28	14.110
704.60	17.460
704.91	13.880
705.23	16.279
705.55	16.254
705.87	12.274
706.19	16.667
706.51	18.213
706.83	15.756
707.15	11.215
707.47	17.647
707.79	14.583
708.11	16.250
708.43	16.750
708.74	17.054
709.06	15.775
709.38	11.315
709.70	15.976
710.02	14.650
710.34	17.957
710.66	11.218
710.98	12.914
711.29	16.393
711.61	16.610
711.93	14.332
712.25	17.182
712.57	16.850
712.89	13.060
713.20	14.879
713.52	16.725
713.84	11.263
714.16	14.089
714.48	13.871
714.80	15.064
715.11	15.502
715.43	12.226
715.75	10.667
716.07	16.279
716.39	13.087
716.70	8.856
717.02	12.977
717.34	14.170
717.66	14.602
717.97	13.913
718.29	12.552
718.61	14.567
718.93	14.729
719.24	14.829
719.56	19.679
719.88	16.838
720.20	16.667
720.51	13.793
720.83	16.602
721.15	14.706
721.46	16.532
721.78	13.043
722.10	12.639
722.42	9.959
722.73	15.102
723.05	17.551
723.37	22.881
723.68	13.063
724.00	15.812
724.32	12.444
724.63	12.273
724.95	13.100
725.27	13.825
725.58	16.525
725.90	6.746
726.22	14.672
726.53	17.288
726.85	17.978
727.16	18.868
727.48	12.955
727.80	14.575
728.11	11.441
728.43	11.765
728.74	13.710
729.06	12.000
729.38	22.932
729.69	9.163
730.01	10.769
730.32	15.672
730.64	15.194
730.96	13.585
731.27	15.333
731.59	15.932
731.90	15.287
732.22	14.196
732.53	16.279
732.85	18.085
733.16	18.855
733.48	10.072
733.80	13.768
734.11	14.915
734.43	13.746
734.74	15.758
735.06	13.029
735.37	17.523
735.69	16.498
736.00	9.756
736.32	14.094
736.63	15.493
736.95	19.454
737.26	12.456
737.58	15.772
737.89	12.821
738.21	13.158
738.52	15.226
738.83	13.100
739.15	10.917
739.46	11.024
739.78	11.355
740.09	12.418
740.41	15.217
740.72	11.024
741.04	12.955
741.35	15.745
741.66	9.953
741.98	14.796
742.29	11.881
742.61	10.995
742.92	10.427
743.23	8.796
743.55	17.647
743.86	13.397
744.18	11.005
744.49	12.234
744.80	9.783
745.12	14.973
745.43	16.098
745.74	15.104
746.06	16.098
746.37	13.089
746.68	17.062
747.00	12.234
747.31	14.925
747.62	11.650
747.94	16.746
748.25	13.861
748.56	13.661
748.88	21.990
749.19	21.277
749.50	13.793
749.82	8.491
750.13	13.303
750.44	16.541
750.75	14.552
751.07	21.168
751.38	14.176
751.69	16.471
752.01	18.605
752.32	14.741
752.63	11.462
752.94	11.638
753.26	16.318
753.57	14.027
753.88	15.487
754.19	13.333
754.51	12.397
754.82	11.336
755.13	20.000
755.44	10.887
755.75	20.703
756.07	15.564
756.38	11.321
756.69	16.858
757.00	10.333
757.31	12.092
757.63	12.805
757.94	15.000
758.25	15.616
758.56	12.234
758.87	9.632
759.18	15.576
759.50	14.182
759.81	15.385
760.12	14.194
760.43	16.364
760.74	15.432
761.05	17.846
761.36	13.068
761.67	15.455
761.99	13.605
762.30	12.364
762.61	17.787
762.92	19.910
763.23	13.964
763.54	11.682
763.85	14.831
764.16	14.938
764.47	11.694
764.78	9.524
765.10	15.488
765.41	16.088
765.72	15.873
766.03	10.902
766.34	15.693
766.65	16.335
766.96	11.616
767.27	18.085
767.58	12.644
767.89	9.220
768.20	6.250
768.51	12.637
768.82	17.241
769.13	12.903
769.44	12.017
769.75	5.936
770.06	16.379
770.37	15.385
770.68	14.213
770.99	16.290
771.30	17.157
771.61	16.290
771.92	15.517
772.23	15.764
772.54	15.591
772.85	14.815
773.16	12.921
773.47	22.876
773.78	13.725
774.09	11.976
774.39	15.333
774.70	17.197
775.01	17.931
775.32	10.714
775.63	9.917
775.94	18.321
776.25	15.748
776.56	16.667
776.87	4.808
777.18	9.402
777.48	14.655
777.79	0.870
778.10	-1.905
778.41	15.315
778.72	15.873
779.03	16.541
779.34	18.440
779.65	13.014
779.95	10.959
780.26	18.621
780.57	13.008
780.88	9.449
781.19	13.793
781.50	13.953
781.80	15.385
782.11	8.805
782.42	10.769
782.73	9.353
783.04	12.593
783.34	13.194
783.65	0.855
783.96	14.754
784.27	11.034
784.57	11.382
784.88	17.188
785.19	24.000
785.50	18.000
785.81	16.379
786.11	7.759
786.42	6.796
786.73	15.455
787.04	15.306
787.34	9.821
787.65	14.286
787.96	5.310
788.26	8.182
788.57	5.983
788.88	9.375
789.19	15.873
789.49	15.652
789.80	18.367
790.11	7.071
790.41	17.273
790.72	13.043
791.03	13.636
791.33	18.750
791.64	8.750
791.95	8.140
792.25	23.404
792.56	23.596
792.87	2.740
793.17	-2.899
793.48	-5.333
793.79	6.250
794.09	20.000
794.40	12.264
794.70	11.650
795.01	12.195
795.32	3.419
795.62	12.381
795.93	8.824
796.23	14.151
796.54	13.542
796.85	5.882
797.15	8.451
797.46	19.444
797.76	21.212
798.07	25.581
798.37	-7.895
798.68	3.030
798.99	17.284
799.29	5.714
799.60	7.246
799.90	17.333
800.21	4.918
800.51	20.000
800.82	-5.085
801.12	4.348
801.43	8.197
801.73	26.984
802.04	2.000
802.34	10.448
802.65	23.077
802.95	-8.929
803.26	-3.846
803.56	25.490
803.87	-4.348
804.17	17.333
804.48	17.460
804.78	1.852
805.09	4.348
805.39	-8.889
805.70	-9.259
806.00	-5.263
806.30	25.352
806.61	18.571
806.91	6.944
807.22	17.105
807.52	-1.333
807.83	9.091
808.13	27.778
808.43	10.294
808.74	13.433
809.04	-1.695
809.35	7.692
809.65	6.250
809.95	-32.432
810.26	-15.909
810.56	4.110
810.86	2.381
811.17	6.000
811.47	28.571
811.77	2.632
812.08	0.000
812.38	22.642
812.69	-20.000
812.99	-24.242
813.29	-10.526
813.59	-40.000
813.90	-11.364
814.20	-23.077
814.50	11.538
814.81	7.547
815.11	2.128
815.41	23.729
815.72	14.286
816.02	17.647
816.32	-2.083
816.62	-7.317
816.93	8.108
817.23	-5.714
817.53	29.167
817.84	4.348
818.14	21.154
818.44	-42.105
818.74	23.913
819.04	-20.000
819.35	24.324
819.65	-2.941
819.95	8.333
820.25	-2.381
820.56	15.000
820.86	-24.138
821.16	35.000
821.46	31.915
821.76	20.000
822.07	-2.326
822.37	-16.216
822.67	-34.375
822.97	26.190
823.27	3.571
823.57	0.000
823.88	-33.333
824.18	21.429
824.48	5.882
824.78	-19.355
825.08	4.348
825.38	6.061
825.69	-37.500
825.99	26.316
826.29	-8.333
826.59	-66.667
826.89	-76.190
827.19	23.913
827.49	20.000
827.79	22.857
828.09	10.714
828.39	3.030
828.70	70.270
829.00	25.000
829.30	14.286
829.60	20.000
829.90	31.250
830.20	7.895
830.50	-55.556
830.80	-17.391
831.10	9.091
831.40	42.424
831.70	9.677
832.00	47.619
832.30	-38.095
832.60	16.667
832.90	10.345
833.20	35.000
833.50	12.121
833.80	18.519
834.10	34.615
834.40	15.625
834.70	-122.222
835.00	31.579
835.30	23.077
835.60	6.667
835.90	0.000
836.20	45.455
836.50	10.714
836.80	-7.692
837.10	50.000
837.40	-100.000
837.70	22.727
838.00	-27.273
838.30	-17.391
838.60	61.538
838.90	0.000
839.19	-10.714
839.49	40.000
839.79	0.000
840.09	0.000
840.39	28.571
840.69	10.714
840.99	3.846
841.29	-26.316
841.59	-130.000
841.88	63.636
842.18	30.000
842.48	18.750
842.78	0.000
843.08	55.556
843.38	-150.000
843.68	4.348
843.97	0.000
844.27	-13.333
844.57	-25.000
844.87	-27.778
845.17	-4.762
845.47	13.333
845.76	-4.762
846.06	0.000
846.36	-30.000
846.66	-64.286
846.96	33.333
847.25	-237.500
847.55	71.429
847.85	-50.000
848.15	-27.273
848.44	-366.667
848.74	-10.000
849.04	40.741
849.34	-63.636
849.63	-233.333
849.93	-220.000
850.23	0.000
850.53	110.000
850.82	-15.385
851.12	44.444
851.42	-20.000
851.71	42.308
852.01	-71.429
852.31	-100.000
852.61	-63.636
852.90	-10.000
853.20	-5.263
853.50	-8.333
853.79	-39.130
854.09	37.500
854.39	-31.579
854.68	-16.667
854.98	3.226
855.28	26.923
855.57	-35.000
855.87	-27.778
856.17	44.444
856.46	14.286
856.76	-33.333
857.05	55.556
857.35	-16.000
857.65	22.222
857.94	-76.923
858.24	20.690
858.53	-27.778
858.83	40.741
859.13	27.273
859.42	26.087
859.72	-75.000
860.01	-100.000
860.31	40.000
860.60	-28.571
860.90	-66.667
861.20	-100.000
861.49	-1000.000
861.79	6.667
862.08	30.000
862.38	126.667
862.67	-120.000
862.97	-200.000
863.26	8.333
863.56	33.333
863.85	-400.000
864.15	16.667
864.44	-40.000
864.74	35.714
865.03	350.000
865.33	-280.000
865.62	66.667
865.92	-50.000
866.21	-266.667
866.51	-31.250
866.80	-72.727
867.10	-350.000
867.39	-75.000
867.69	0.000
867.98	0.000
868.27	-466.667
868.57	-66.667
868.86	61.111
869.16	-61.538
869.45	0.000
869.75	-900.000
870.04	0.000
870.33	-228.571
870.63	19.048
870.92	233.333
871.22	-220.000
871.51	-600.000
871.80	-33.333
872.10	433.333
>>>>>End Processed Spectral Data<<<<<
