SpectraSuite Data File
++++++++++++++++++++++++++++++++++++
Date: Fri May 15 20:37:14 PDT 2015
User: schluterlab
Dark Spectrum Present: Yes
Reference Spectrum Present: Yes
Number of Sampled Component Spectra: 1
Spectrometers: USB2E3373
Integration Time (usec): 3000 (USB2E3373)
Spectra Averaged: 3 (USB2E3373)
Boxcar Smoothing: 0 (USB2E3373)
Correct for Electrical Dark: No (USB2E3373)
Strobe/Lamp Enabled: No (USB2E3373)
Correct for Detector Non-linearity: No (USB2E3373)
Correct for Stray Light: No (USB2E3373)
Number of Pixels in Processed Spectrum: 2048
>>>>>Begin Processed Spectral Data<<<<<
178.53	0.000
178.91	0.000
179.29	87.500
179.67	-450.000
180.04	42.857
180.42	-125.000
180.80	-1100.000
181.18	133.333
181.56	300.000
181.94	100.000
182.31	300.000
182.69	0.000
183.07	-266.667
183.45	-100.000
183.83	200.000
184.20	-118.182
184.58	77.778
184.96	75.000
185.34	66.667
185.72	-300.000
186.09	69.231
186.47	-300.000
186.85	216.667
187.23	144.444
187.61	-0.000
187.98	-200.000
188.36	0.000
188.74	-200.000
189.12	23.529
189.49	5.556
189.87	0.000
190.25	-7.143
190.63	-250.000
191.00	-133.333
191.38	0.000
191.76	-150.000
192.14	225.000
192.51	50.000
192.89	-122.222
193.27	-100.000
193.65	150.000
194.02	181.818
194.40	-70.000
194.78	-12.500
195.15	-41.667
195.53	-162.500
195.91	275.000
196.29	-75.000
196.66	92.308
197.04	100.000
197.42	-100.000
197.79	-333.333
198.17	-84.615
198.55	1200.000
198.92	-66.667
199.30	-200.000
199.68	-80.000
200.05	-266.667
200.43	0.000
200.81	-233.333
201.18	33.333
201.56	1000.000
201.94	-250.000
202.31	-66.667
202.69	-240.000
203.07	450.000
203.44	500.000
203.82	0.000
204.19	35.714
204.57	-300.000
204.95	100.000
205.32	0.000
205.70	-114.286
206.08	-200.000
206.45	155.556
206.83	-28.571
207.20	-114.286
207.58	-300.000
207.96	-300.000
208.33	-80.000
208.71	-25.000
209.08	-83.333
209.46	-500.000
209.84	-40.000
210.21	-1000.000
210.59	-14.286
210.96	-200.000
211.34	75.000
211.71	40.000
212.09	-14.286
212.46	-1600.000
212.84	0.000
213.22	110.000
213.59	500.000
213.97	69.231
214.34	36.364
214.72	0.000
215.09	300.000
215.47	-53.846
215.84	-9.091
216.22	-300.000
216.59	62.500
216.97	-50.000
217.34	-125.000
217.72	-180.000
218.09	-12.500
218.47	200.000
218.84	-600.000
219.22	-144.444
219.59	0.000
219.97	266.667
220.34	200.000
220.72	-28.571
221.09	-325.000
221.47	-550.000
221.84	-350.000
222.22	-800.000
222.59	127.273
222.97	75.000
223.34	0.000
223.72	0.000
224.09	-33.333
224.46	28.571
224.84	300.000
225.21	-70.000
225.59	33.333
225.96	-350.000
226.34	275.000
226.71	-100.000
227.08	-116.667
227.46	-50.000
227.83	-450.000
228.21	33.333
228.58	-36.364
228.95	-37.500
229.33	50.000
229.70	18.750
230.08	-87.500
230.45	-228.571
230.82	57.143
231.20	-73.333
231.57	-57.143
231.95	42.857
232.32	-80.000
232.69	-7.143
233.07	66.667
233.44	-180.000
233.81	-130.000
234.19	0.000
234.56	-11.765
234.93	250.000
235.31	-150.000
235.68	-240.000
236.05	-38.462
236.43	-20.000
236.80	5.882
237.17	-6.250
237.55	15.000
237.92	-22.222
238.29	22.222
238.67	20.000
239.04	11.765
239.41	-48.780
239.79	-6.667
240.16	2.439
240.53	-26.316
240.91	-19.565
241.28	6.349
241.65	3.571
242.02	10.959
242.40	11.667
242.77	6.780
243.14	-1.515
243.51	8.750
243.89	16.092
244.26	6.897
244.63	5.952
245.00	5.155
245.38	13.402
245.75	12.360
246.12	4.310
246.49	19.835
246.87	23.077
247.24	7.563
247.61	1.754
247.98	5.691
248.36	11.250
248.73	15.132
249.10	6.494
249.47	16.456
249.84	10.458
250.22	7.059
250.59	17.647
250.96	15.962
251.33	8.721
251.70	12.353
252.08	17.259
252.45	10.891
252.82	12.563
253.19	13.364
253.56	6.075
253.94	12.613
254.31	13.043
254.68	13.596
255.05	14.173
255.42	11.790
255.79	13.127
256.16	14.786
256.54	14.925
256.91	8.365
257.28	13.755
257.65	13.483
258.02	9.929
258.39	15.152
258.76	16.117
259.14	14.286
259.51	16.181
259.88	16.151
260.25	16.340
260.62	12.500
260.99	13.220
261.36	10.959
261.73	10.127
262.10	12.462
262.47	15.031
262.85	9.718
263.22	11.385
263.59	11.838
263.96	16.149
264.33	18.182
264.70	14.286
265.07	11.607
265.44	17.280
265.81	13.559
266.18	15.847
266.55	14.910
266.92	13.731
267.29	14.621
267.66	16.368
268.03	13.089
268.40	10.705
268.77	15.241
269.14	16.067
269.51	15.681
269.88	11.970
270.25	10.969
270.62	11.707
270.99	9.207
271.36	15.403
271.73	13.380
272.10	13.382
272.47	14.421
272.84	12.871
273.21	12.529
273.58	13.494
273.95	13.501
274.32	13.164
274.69	11.765
275.06	13.616
275.43	14.286
275.80	14.349
276.17	11.264
276.54	13.919
276.91	13.596
277.28	14.192
277.65	14.256
278.02	12.128
278.39	12.254
278.76	14.046
279.13	11.618
279.50	14.076
279.87	13.823
280.23	11.828
280.60	15.400
280.97	11.919
281.34	11.154
281.71	14.579
282.08	12.679
282.45	12.916
282.82	12.741
283.19	12.959
283.56	10.983
283.92	12.524
284.29	10.192
284.66	12.403
285.03	13.360
285.40	11.909
285.77	11.248
286.14	12.816
286.51	13.653
286.87	11.517
287.24	13.444
287.61	11.464
287.98	14.386
288.35	11.265
288.72	10.683
289.08	12.500
289.45	12.478
289.82	13.811
290.19	10.239
290.56	10.463
290.93	10.438
291.29	10.632
291.66	12.598
292.03	11.324
292.40	10.323
292.77	11.164
293.13	8.929
293.50	9.408
293.87	11.603
294.24	10.355
294.60	10.730
294.97	10.565
295.34	10.736
295.71	11.475
296.08	10.015
296.44	8.250
296.81	9.444
297.18	10.290
297.55	12.331
297.91	8.767
298.28	10.950
298.65	10.448
299.02	10.108
299.38	8.618
299.75	9.931
300.12	8.901
300.48	9.223
300.85	8.999
301.22	9.091
301.59	8.553
301.95	9.620
302.32	10.895
302.69	10.075
303.05	10.644
303.42	8.468
303.79	9.463
304.15	10.514
304.52	7.015
304.89	8.421
305.25	9.322
305.62	7.818
305.99	8.070
306.35	9.017
306.72	8.436
307.09	8.780
307.45	8.840
307.82	8.218
308.19	8.246
308.55	8.724
308.92	9.150
309.29	7.486
309.65	9.150
310.02	8.801
310.38	8.672
310.75	9.399
311.12	8.719
311.48	9.438
311.85	7.016
312.22	9.177
312.58	8.705
312.95	8.965
313.31	8.075
313.68	9.529
314.05	8.061
314.41	8.041
314.78	7.629
315.14	10.175
315.51	10.041
315.87	8.914
316.24	9.606
316.61	8.268
316.97	10.317
317.34	9.668
317.70	8.317
318.07	10.481
318.43	9.706
318.80	9.280
319.16	11.230
319.53	10.921
319.89	10.039
320.26	11.032
320.62	11.133
320.99	10.543
321.35	11.614
321.72	11.630
322.08	11.480
322.45	11.066
322.81	12.475
323.18	12.463
323.54	11.680
323.91	12.269
324.27	12.012
324.64	13.951
325.00	14.416
325.37	13.590
325.73	13.146
326.10	14.351
326.46	14.888
326.83	14.436
327.19	15.432
327.56	14.596
327.92	16.197
328.29	16.607
328.65	16.604
329.01	15.809
329.38	16.406
329.74	17.375
330.11	17.238
330.47	16.327
330.84	15.385
331.20	18.821
331.56	18.056
331.93	17.900
332.29	18.607
332.66	17.466
333.02	18.494
333.38	17.415
333.75	19.231
334.11	17.010
334.48	19.220
334.84	18.132
335.20	18.847
335.57	17.498
335.93	19.061
336.29	18.692
336.66	18.347
337.02	17.286
337.38	18.519
337.75	18.182
338.11	19.657
338.47	17.245
338.84	19.131
339.20	18.464
339.56	18.440
339.93	19.427
340.29	17.982
340.65	19.444
341.02	18.351
341.38	18.319
341.74	18.640
342.11	17.851
342.47	18.149
342.83	18.772
343.20	18.902
343.56	19.391
343.92	19.043
344.28	19.471
344.65	19.085
345.01	17.113
345.37	18.671
345.73	19.331
346.10	19.327
346.46	18.503
346.82	19.558
347.19	17.955
347.55	18.713
347.91	20.065
348.27	18.351
348.63	19.165
349.00	18.786
349.36	18.703
349.72	19.486
350.08	19.016
350.45	18.356
350.81	18.189
351.17	18.730
351.53	20.163
351.89	18.002
352.26	18.240
352.62	19.435
352.98	18.554
353.34	19.082
353.70	19.903
354.07	19.355
354.43	19.536
354.79	19.488
355.15	19.524
355.51	20.253
355.87	19.660
356.24	18.760
356.60	19.321
356.96	18.889
357.32	19.489
357.68	18.921
358.04	19.871
358.40	19.695
358.77	20.096
359.13	19.696
359.49	19.877
359.85	18.877
360.21	20.255
360.57	19.434
360.93	19.365
361.29	19.184
361.66	20.219
362.02	19.545
362.38	19.954
362.74	19.682
363.10	19.714
363.46	20.534
363.82	20.887
364.18	19.705
364.54	19.338
364.90	20.072
365.26	19.432
365.62	21.533
365.98	19.282
366.35	21.631
366.71	20.399
367.07	20.102
367.43	20.345
367.79	20.212
368.15	20.029
368.51	20.685
368.87	20.531
369.23	20.072
369.59	19.825
369.95	21.114
370.31	21.387
370.67	21.269
371.03	20.911
371.39	19.548
371.75	21.978
372.11	22.111
372.47	22.115
372.83	20.866
373.19	22.111
373.55	21.949
373.91	21.382
374.27	21.828
374.63	21.177
374.99	21.064
375.35	22.214
375.71	22.727
376.07	23.034
376.42	21.701
376.78	21.812
377.14	22.275
377.50	22.510
377.86	22.222
378.22	21.825
378.58	22.692
378.94	22.432
379.30	21.460
379.66	22.633
380.02	23.299
380.38	21.363
380.74	22.561
381.09	22.945
381.45	21.957
381.81	22.394
382.17	23.223
382.53	22.986
382.89	23.038
383.25	23.086
383.61	23.963
383.97	23.048
384.32	23.014
384.68	23.715
385.04	22.672
385.40	22.838
385.76	24.088
386.12	24.644
386.48	24.521
386.83	23.970
387.19	23.810
387.55	24.341
387.91	24.083
388.27	24.115
388.62	24.481
388.98	24.125
389.34	24.859
389.70	25.047
390.06	22.970
390.42	23.964
390.77	24.853
391.13	24.590
391.49	25.679
391.85	24.107
392.20	23.289
392.56	25.366
392.92	25.015
393.28	25.531
393.64	23.904
393.99	25.893
394.35	23.340
394.71	24.968
395.07	23.633
395.42	24.954
395.78	24.625
396.14	25.347
396.50	25.048
396.85	26.594
397.21	24.937
397.57	24.953
397.92	24.805
398.28	25.920
398.64	23.675
399.00	25.677
399.35	24.605
399.71	25.043
400.07	26.119
400.42	26.010
400.78	25.475
401.14	25.469
401.49	25.432
401.85	24.497
402.21	25.663
402.57	26.063
402.92	24.906
403.28	26.253
403.63	25.221
403.99	25.638
404.35	25.984
404.70	25.655
405.06	25.558
405.42	25.606
405.77	25.625
406.13	25.611
406.49	25.400
406.84	25.795
407.20	26.791
407.55	24.920
407.91	25.201
408.27	25.813
408.62	27.323
408.98	25.262
409.34	25.527
409.69	24.871
410.05	24.692
410.40	26.111
410.76	26.779
411.11	26.188
411.47	26.890
411.83	25.424
412.18	25.418
412.54	25.780
412.89	25.369
413.25	25.752
413.60	25.342
413.96	25.399
414.31	25.793
414.67	25.144
415.03	25.233
415.38	26.044
415.74	26.580
416.09	25.800
416.45	26.131
416.80	26.305
417.16	26.657
417.51	26.382
417.87	25.424
418.22	26.684
418.58	25.485
418.93	26.583
419.29	26.056
419.64	26.183
420.00	27.078
420.35	26.687
420.71	26.488
421.06	26.335
421.42	26.022
421.77	26.821
422.12	26.447
422.48	26.584
422.83	25.812
423.19	26.354
423.54	25.632
423.90	25.736
424.25	26.292
424.61	26.928
424.96	26.190
425.31	26.285
425.67	26.995
426.02	26.207
426.38	25.673
426.73	27.421
427.09	26.013
427.44	26.588
427.79	27.342
428.15	27.306
428.50	25.803
428.85	26.536
429.21	26.542
429.56	27.170
429.92	26.862
430.27	26.115
430.62	26.503
430.98	26.592
431.33	26.341
431.68	26.060
432.04	26.439
432.39	25.442
432.74	25.556
433.10	27.069
433.45	26.284
433.80	26.407
434.16	25.928
434.51	26.452
434.86	27.178
435.22	26.697
435.57	26.388
435.92	26.587
436.28	26.237
436.63	26.412
436.98	26.419
437.34	26.558
437.69	27.013
438.04	26.553
438.39	26.329
438.75	26.655
439.10	25.806
439.45	28.058
439.81	27.095
440.16	27.672
440.51	27.701
440.86	27.915
441.22	26.471
441.57	26.876
441.92	28.174
442.27	27.605
442.63	27.516
442.98	27.168
443.33	27.991
443.68	27.427
444.03	27.919
444.39	27.595
444.74	28.372
445.09	28.452
445.44	27.236
445.79	27.592
446.15	26.707
446.50	26.123
446.85	28.002
447.20	27.216
447.55	28.013
447.91	26.847
448.26	27.775
448.61	28.094
448.96	27.194
449.31	27.283
449.66	26.771
450.02	26.982
450.37	27.149
450.72	26.403
451.07	27.089
451.42	26.904
451.77	27.366
452.12	26.974
452.47	26.465
452.83	27.326
453.18	26.502
453.53	26.865
453.88	26.715
454.23	26.982
454.58	27.141
454.93	27.384
455.28	26.413
455.63	27.836
455.98	27.420
456.34	27.011
456.69	27.764
457.04	27.662
457.39	26.853
457.74	26.784
458.09	26.251
458.44	26.156
458.79	26.387
459.14	26.831
459.49	27.403
459.84	27.129
460.19	27.002
460.54	27.934
460.89	27.614
461.24	26.770
461.59	27.316
461.94	25.535
462.29	27.262
462.64	26.777
462.99	27.014
463.34	26.704
463.69	26.448
464.04	27.482
464.39	26.501
464.74	26.687
465.09	27.698
465.44	26.947
465.79	26.247
466.14	26.112
466.49	26.394
466.84	26.889
467.19	26.033
467.54	25.607
467.89	26.090
468.24	26.095
468.59	26.794
468.94	26.222
469.29	26.230
469.64	25.564
469.99	26.349
470.34	25.939
470.68	26.696
471.03	27.247
471.38	26.462
471.73	26.611
472.08	26.255
472.43	25.772
472.78	24.949
473.13	25.646
473.48	26.645
473.83	26.152
474.17	26.166
474.52	26.484
474.87	26.121
475.22	25.015
475.57	26.030
475.92	25.562
476.27	26.834
476.61	25.752
476.96	24.875
477.31	26.014
477.66	25.562
478.01	25.660
478.36	25.272
478.70	25.285
479.05	25.934
479.40	26.550
479.75	24.713
480.10	24.834
480.45	25.350
480.79	25.126
481.14	26.742
481.49	25.172
481.84	25.917
482.19	25.304
482.53	25.084
482.88	24.916
483.23	24.520
483.58	25.094
483.92	24.831
484.27	24.977
484.62	24.608
484.97	24.129
485.31	23.880
485.66	24.100
486.01	24.966
486.36	25.038
486.70	25.279
487.05	24.771
487.40	24.767
487.75	24.704
488.09	23.702
488.44	24.072
488.79	24.057
489.13	24.199
489.48	24.027
489.83	24.036
490.17	23.371
490.52	23.788
490.87	23.415
491.22	24.499
491.56	23.956
491.91	23.231
492.26	23.821
492.60	23.512
492.95	24.299
493.30	23.302
493.64	23.919
493.99	23.816
494.34	23.107
494.68	23.048
495.03	23.017
495.37	23.602
495.72	23.221
496.07	23.317
496.41	23.726
496.76	23.261
497.11	22.683
497.45	23.723
497.80	23.007
498.14	22.702
498.49	23.159
498.84	22.954
499.18	23.594
499.53	22.867
499.87	22.325
500.22	22.206
500.56	22.895
500.91	22.741
501.26	23.529
501.60	23.660
501.95	22.610
502.29	22.712
502.64	23.359
502.98	23.236
503.33	22.526
503.67	21.976
504.02	23.167
504.36	23.206
504.71	22.273
505.06	22.597
505.40	22.284
505.75	22.526
506.09	22.250
506.44	23.255
506.78	23.163
507.13	22.182
507.47	21.567
507.82	22.382
508.16	22.293
508.51	21.983
508.85	22.658
509.19	22.139
509.54	21.877
509.88	21.413
510.23	22.216
510.57	21.432
510.92	21.535
511.26	22.149
511.61	21.672
511.95	22.466
512.30	21.951
512.64	21.369
512.98	22.122
513.33	21.824
513.67	21.376
514.02	22.140
514.36	22.629
514.70	22.669
515.05	22.679
515.39	21.192
515.74	22.335
516.08	21.578
516.42	22.438
516.77	21.767
517.11	22.671
517.46	21.843
517.80	21.692
518.14	21.555
518.49	21.575
518.83	21.385
519.17	20.558
519.52	20.841
519.86	21.609
520.20	21.567
520.55	21.138
520.89	22.146
521.23	20.773
521.58	22.145
521.92	21.154
522.26	21.926
522.61	21.623
522.95	22.119
523.29	21.156
523.64	21.347
523.98	20.544
524.32	20.876
524.66	22.151
525.01	21.753
525.35	20.220
525.69	21.010
526.04	19.907
526.38	22.179
526.72	20.471
527.06	21.077
527.41	21.174
527.75	20.912
528.09	20.930
528.43	22.552
528.78	20.462
529.12	21.355
529.46	20.598
529.80	21.913
530.15	21.452
530.49	20.269
530.83	20.725
531.17	20.282
531.51	21.341
531.86	20.394
532.20	20.529
532.54	20.762
532.88	20.876
533.22	20.027
533.57	20.577
533.91	20.039
534.25	20.313
534.59	20.269
534.93	20.642
535.27	20.114
535.62	19.054
535.96	19.439
536.30	20.515
536.64	20.262
536.98	19.652
537.32	20.768
537.66	20.266
538.01	20.490
538.35	19.001
538.69	19.774
539.03	18.319
539.37	20.256
539.71	19.291
540.05	20.367
540.39	19.598
540.73	19.944
541.07	20.373
541.42	19.960
541.76	20.165
542.10	19.890
542.44	19.944
542.78	18.582
543.12	19.643
543.46	19.611
543.80	19.431
544.14	18.758
544.48	18.921
544.82	19.891
545.16	19.467
545.50	20.160
545.84	18.980
546.18	19.787
546.52	19.178
546.86	19.339
547.20	18.956
547.54	18.799
547.88	19.565
548.22	18.606
548.56	18.404
548.90	19.946
549.24	18.871
549.58	18.688
549.92	18.370
550.26	18.462
550.60	19.182
550.94	17.774
551.28	18.238
551.62	18.846
551.96	18.421
552.30	18.056
552.64	18.618
552.98	18.495
553.32	19.330
553.66	17.634
554.00	18.175
554.34	18.538
554.68	18.142
555.02	18.601
555.36	17.726
555.69	17.436
556.03	18.201
556.37	17.651
556.71	17.978
557.05	18.792
557.39	16.431
557.73	18.816
558.07	18.024
558.41	17.611
558.75	17.381
559.08	16.942
559.42	18.413
559.76	17.854
560.10	17.278
560.44	17.647
560.78	17.692
561.12	17.983
561.45	17.709
561.79	17.437
562.13	17.530
562.47	17.482
562.81	18.300
563.15	17.630
563.48	17.539
563.82	18.394
564.16	16.852
564.50	17.432
564.84	17.871
565.17	16.767
565.51	17.555
565.85	17.764
566.19	17.042
566.52	16.421
566.86	17.481
567.20	17.435
567.54	17.153
567.88	17.633
568.21	18.213
568.55	18.043
568.89	17.710
569.23	17.477
569.56	17.513
569.90	17.702
570.24	17.603
570.57	17.673
570.91	17.776
571.25	16.968
571.59	17.627
571.92	16.800
572.26	16.667
572.60	17.147
572.93	17.007
573.27	16.928
573.61	17.094
573.95	16.958
574.28	17.055
574.62	16.552
574.96	16.779
575.29	16.961
575.63	16.585
575.97	16.725
576.30	16.924
576.64	16.371
576.98	16.499
577.31	17.031
577.65	17.294
577.98	17.139
578.32	16.997
578.66	16.613
578.99	16.612
579.33	16.737
579.67	15.922
580.00	16.253
580.34	16.741
580.67	16.222
581.01	16.499
581.35	16.688
581.68	16.926
582.02	16.994
582.35	16.565
582.69	16.634
583.02	16.578
583.36	16.347
583.70	16.407
584.03	16.264
584.37	16.742
584.70	16.401
585.04	16.166
585.37	16.388
585.71	16.564
586.04	16.188
586.38	16.031
586.72	16.614
587.05	16.580
587.39	16.466
587.72	16.484
588.06	16.358
588.39	16.349
588.73	16.484
589.06	16.438
589.40	16.281
589.73	16.320
590.07	16.767
590.40	16.138
590.73	16.845
591.07	15.437
591.40	16.118
591.74	16.290
592.07	16.466
592.41	16.122
592.74	16.209
593.08	15.718
593.41	16.244
593.75	16.225
594.08	15.482
594.41	16.230
594.75	16.183
595.08	15.702
595.42	15.679
595.75	15.772
596.09	15.598
596.42	15.502
596.75	15.897
597.09	16.446
597.42	16.125
597.75	15.896
598.09	15.346
598.42	15.659
598.76	15.530
599.09	15.385
599.42	15.801
599.76	15.726
600.09	15.535
600.42	15.694
600.76	15.082
601.09	15.382
601.42	15.159
601.76	15.165
602.09	15.512
602.42	16.091
602.76	15.747
603.09	15.656
603.42	15.928
603.76	15.121
604.09	15.512
604.42	15.736
604.76	15.710
605.09	15.905
605.42	15.576
605.75	15.368
606.09	15.881
606.42	15.763
606.75	15.758
607.09	15.912
607.42	15.153
607.75	15.364
608.08	14.465
608.42	15.532
608.75	15.663
609.08	14.798
609.41	15.381
609.75	14.768
610.08	15.926
610.41	14.831
610.74	15.310
611.07	15.090
611.41	15.309
611.74	15.458
612.07	14.454
612.40	14.168
612.73	15.141
613.07	14.848
613.40	15.098
613.73	14.941
614.06	15.248
614.39	15.285
614.72	15.462
615.06	15.196
615.39	14.956
615.72	15.608
616.05	15.419
616.38	14.302
616.71	14.618
617.05	14.886
617.38	15.085
617.71	14.340
618.04	14.857
618.37	15.637
618.70	14.917
619.03	14.653
619.36	13.965
619.69	15.087
620.03	16.289
620.36	15.236
620.69	15.489
621.02	14.755
621.35	14.689
621.68	15.816
622.01	15.083
622.34	14.525
622.67	14.905
623.00	16.156
623.33	13.491
623.66	14.286
623.99	14.523
624.32	15.437
624.65	13.534
624.99	15.576
625.32	14.784
625.65	15.397
625.98	14.182
626.31	13.882
626.64	14.645
626.97	15.358
627.30	15.149
627.63	15.251
627.96	14.645
628.29	14.154
628.62	15.339
628.95	14.228
629.28	14.113
629.61	15.155
629.94	15.152
630.26	13.834
630.59	15.193
630.92	14.462
631.25	13.641
631.58	15.088
631.91	13.596
632.24	13.647
632.57	15.114
632.90	13.405
633.23	14.000
633.56	14.861
633.89	13.194
634.22	15.926
634.55	13.596
634.88	13.921
635.20	13.846
635.53	14.933
635.86	12.484
636.19	15.136
636.52	13.393
636.85	15.509
637.18	13.836
637.51	13.459
637.83	14.455
638.16	14.870
638.49	12.398
638.82	15.658
639.15	12.754
639.48	15.681
639.81	13.947
640.13	13.853
640.46	12.974
640.79	13.844
641.12	12.555
641.45	14.414
641.77	13.333
642.10	16.430
642.43	13.023
642.76	12.706
643.09	15.347
643.41	12.945
643.74	12.685
644.07	14.122
644.40	16.216
644.73	15.762
645.05	13.591
645.38	13.757
645.71	14.007
646.04	12.208
646.36	14.716
646.69	14.748
647.02	14.934
647.35	12.313
647.67	14.077
648.00	13.806
648.33	13.993
648.66	14.407
648.98	14.070
649.31	9.587
649.64	14.286
649.96	11.669
650.29	14.140
650.62	14.188
650.94	11.296
651.27	11.546
651.60	14.595
651.92	14.685
652.25	11.723
652.58	14.667
652.90	15.266
653.23	12.773
653.56	13.198
653.88	12.199
654.21	11.734
654.54	13.413
654.86	13.243
655.19	12.135
655.52	14.861
655.84	14.473
656.17	16.214
656.49	22.237
656.82	22.428
657.15	16.546
657.47	12.256
657.80	8.896
658.13	8.545
658.45	12.771
658.78	12.169
659.10	11.588
659.43	11.501
659.75	11.889
660.08	11.310
660.41	12.564
660.73	13.122
661.06	12.998
661.38	11.742
661.71	10.267
662.03	12.876
662.36	14.505
662.68	12.389
663.01	14.410
663.33	11.369
663.66	12.326
663.98	10.233
664.31	13.859
664.63	11.290
664.96	9.130
665.28	10.596
665.61	13.853
665.93	13.043
666.26	12.581
666.58	12.975
666.91	13.647
667.23	14.151
667.56	17.062
667.88	14.388
668.21	13.126
668.53	14.657
668.86	15.566
669.18	13.915
669.50	8.959
669.83	12.791
670.15	13.287
670.48	10.526
670.80	12.673
671.13	12.752
671.45	8.904
671.77	14.378
672.10	14.653
672.42	13.670
672.75	13.499
673.07	16.100
673.39	14.862
673.72	10.651
674.04	12.917
674.37	13.771
674.69	11.991
675.01	12.000
675.34	11.261
675.66	14.352
675.98	12.417
676.31	12.844
676.63	12.352
676.95	13.864
677.28	12.471
677.60	14.458
677.92	7.798
678.25	14.004
678.57	11.905
678.89	13.235
679.22	12.752
679.54	9.839
679.86	13.320
680.18	11.068
680.51	12.500
680.83	11.730
681.15	12.200
681.48	14.344
681.80	13.843
682.12	14.516
682.44	12.762
682.77	14.128
683.09	12.586
683.41	8.182
683.73	11.982
684.06	12.832
684.38	12.258
684.70	11.765
685.02	12.448
685.34	10.474
685.67	15.197
685.99	13.020
686.31	12.920
686.63	11.503
686.96	11.217
687.28	9.293
687.60	12.167
687.92	14.343
688.24	14.718
688.56	10.044
688.89	11.830
689.21	13.778
689.53	11.369
689.85	12.326
690.17	13.170
690.49	12.293
690.82	9.951
691.14	11.667
691.46	11.215
691.78	14.414
692.10	13.118
692.42	10.606
692.74	12.179
693.06	10.811
693.39	9.955
693.71	9.050
694.03	11.316
694.35	13.084
694.67	12.879
694.99	7.572
695.31	12.010
695.63	14.750
695.95	12.879
696.27	10.881
696.59	14.167
696.91	11.204
697.23	12.853
697.56	10.891
697.88	14.409
698.20	13.440
698.52	11.059
698.84	10.287
699.16	11.000
699.48	11.028
699.80	9.926
700.12	12.129
700.44	13.725
700.76	9.593
701.08	13.030
701.40	13.855
701.72	14.506
702.04	14.191
702.36	11.037
702.68	10.210
703.00	10.000
703.32	8.798
703.64	7.627
703.96	6.667
704.28	9.509
704.60	12.698
704.91	7.886
705.23	12.292
705.55	14.841
705.87	13.718
706.19	9.630
706.51	12.027
706.83	11.897
707.15	9.034
707.47	13.165
707.79	14.844
708.11	15.500
708.43	16.750
708.74	11.628
709.06	11.549
709.38	12.232
709.70	13.018
710.02	9.236
710.34	12.693
710.66	8.974
710.98	9.934
711.29	10.164
711.61	11.864
711.93	15.309
712.25	14.433
712.57	12.821
712.89	8.209
713.20	12.457
713.52	11.150
713.84	11.604
714.16	11.684
714.48	11.935
714.80	14.423
715.11	9.119
715.43	8.777
715.75	9.667
716.07	12.625
716.39	11.409
716.70	9.963
717.02	9.542
717.34	11.741
717.66	7.965
717.97	10.000
718.29	11.297
718.61	11.417
718.93	10.853
719.24	9.886
719.56	9.639
719.88	9.622
720.20	14.015
720.51	8.429
720.83	8.494
721.15	10.084
721.46	13.710
721.78	8.300
722.10	10.037
722.42	4.149
722.73	6.122
723.05	11.020
723.37	17.373
723.68	10.360
724.00	5.128
724.32	6.222
724.63	6.818
724.95	13.100
725.27	11.982
725.58	14.407
725.90	7.143
726.22	12.355
726.53	13.898
726.85	14.981
727.16	15.849
727.48	8.097
727.80	12.955
728.11	13.983
728.43	9.804
728.74	8.468
729.06	9.200
729.38	17.293
729.69	7.570
730.01	8.846
730.32	12.687
730.64	10.601
730.96	14.717
731.27	10.333
731.59	9.492
731.90	11.146
732.22	11.987
732.53	12.625
732.85	12.766
733.16	13.805
733.48	8.273
733.80	10.145
734.11	12.203
734.43	13.058
734.74	13.636
735.06	7.818
735.37	12.991
735.69	8.418
736.00	9.756
736.32	7.718
736.63	7.042
736.95	11.604
737.26	11.388
737.58	10.403
737.89	9.524
738.21	8.647
738.52	10.288
738.83	10.917
739.15	3.493
739.46	12.205
739.78	8.425
740.09	11.765
740.41	9.783
740.72	9.449
741.04	13.765
741.35	9.787
741.66	9.005
741.98	5.612
742.29	9.406
742.61	10.471
742.92	4.739
743.23	3.704
743.55	5.882
743.86	7.177
744.18	6.699
744.49	5.851
744.80	5.435
745.12	17.112
745.43	9.756
745.74	13.021
746.06	12.683
746.37	8.901
746.68	10.900
747.00	10.106
747.31	14.925
747.62	7.767
747.94	14.833
748.25	8.416
748.56	6.557
748.88	7.330
749.19	11.702
749.50	9.852
749.82	4.717
750.13	5.505
750.44	15.414
750.75	14.179
751.07	18.978
751.38	8.429
751.69	7.451
752.01	13.953
752.32	12.749
752.63	7.905
752.94	9.483
753.26	18.828
753.57	11.312
753.88	11.504
754.19	7.500
754.51	7.025
754.82	7.287
755.13	13.750
755.44	11.290
755.75	11.719
756.07	11.284
756.38	10.189
756.69	7.280
757.00	13.667
757.31	12.745
757.63	7.622
757.94	13.333
758.25	9.863
758.56	9.043
758.87	7.365
759.18	9.034
759.50	9.455
759.81	13.378
760.12	10.645
760.43	10.606
760.74	10.494
761.05	9.846
761.36	11.364
761.67	13.333
761.99	7.483
762.30	7.636
762.61	9.881
762.92	9.502
763.23	8.559
763.54	7.944
763.85	11.864
764.16	6.639
764.47	8.871
764.78	11.722
765.10	13.131
765.41	10.095
765.72	9.524
766.03	6.767
766.34	13.869
766.65	13.546
766.96	13.131
767.27	9.574
767.58	8.046
767.89	2.128
768.20	14.205
768.51	10.989
768.82	12.315
769.13	8.756
769.44	7.725
769.75	4.110
770.06	11.638
770.37	10.096
770.68	13.198
770.99	9.955
771.30	14.216
771.61	10.860
771.92	18.103
772.23	10.345
772.54	7.527
772.85	6.790
773.16	13.483
773.47	10.458
773.78	7.190
774.09	11.377
774.39	-2.000
774.70	13.376
775.01	17.241
775.32	7.143
775.63	6.612
775.94	13.740
776.25	6.299
776.56	5.000
776.87	2.885
777.18	3.419
777.48	6.897
777.79	2.609
778.10	-1.905
778.41	2.703
778.72	9.524
779.03	6.015
779.34	10.638
779.65	2.055
779.95	3.425
780.26	6.897
780.57	-0.813
780.88	11.024
781.19	4.310
781.50	10.853
781.80	10.059
782.11	6.289
782.42	14.615
782.73	9.353
783.04	8.148
783.34	4.167
783.65	-7.692
783.96	0.820
784.27	14.483
784.57	2.439
784.88	2.344
785.19	12.000
785.50	19.000
785.81	10.345
786.11	14.655
786.42	3.883
786.73	12.727
787.04	17.347
787.34	1.786
787.65	5.714
787.96	0.885
788.26	8.182
788.57	7.692
788.88	7.813
789.19	7.143
789.49	13.043
789.80	1.020
790.11	3.030
790.41	2.727
790.72	6.522
791.03	15.909
791.33	15.000
791.64	5.000
791.95	5.814
792.25	10.638
792.56	10.112
792.87	1.370
793.17	1.449
793.48	-1.333
793.79	12.500
794.09	-1.250
794.40	-14.151
794.70	-0.971
795.01	12.195
795.32	11.111
795.62	10.476
795.93	-1.961
796.23	16.038
796.54	7.292
796.85	11.765
797.15	1.408
797.46	20.833
797.76	12.121
798.07	19.767
798.37	1.316
798.68	-3.030
798.99	-7.407
799.29	8.571
799.60	4.348
799.90	9.333
800.21	-9.836
800.51	-12.308
800.82	3.390
801.12	23.188
801.43	8.197
801.73	4.762
802.04	-16.000
802.34	-2.985
802.65	28.846
802.95	-5.357
803.26	-1.923
803.56	-11.765
803.87	-36.957
804.17	13.333
804.48	11.111
804.78	-3.704
805.09	-10.870
805.39	11.111
805.70	7.407
806.00	-15.789
806.30	5.634
806.61	12.857
806.91	-9.722
807.22	5.263
807.52	5.333
807.83	-12.727
808.13	0.000
808.43	13.235
808.74	-1.493
809.04	0.000
809.35	-7.692
809.65	0.000
809.95	-67.568
810.26	-11.364
810.56	4.110
810.86	-19.048
811.17	2.000
811.47	8.163
811.77	-28.947
812.08	20.455
812.38	-9.434
812.69	0.000
812.99	0.000
813.29	7.895
813.59	-20.000
813.90	-34.091
814.20	-33.333
814.50	-7.692
814.81	-3.774
815.11	-31.915
815.41	18.644
815.72	-2.381
816.02	19.608
816.32	2.083
816.62	19.512
816.93	-8.108
817.23	-14.286
817.53	-2.083
817.84	0.000
818.14	15.385
818.44	2.632
818.74	19.565
819.04	-22.500
819.35	2.703
819.65	-2.941
819.95	-8.333
820.25	-7.143
820.56	40.000
820.86	-62.069
821.16	15.000
821.46	-10.638
821.76	20.000
822.07	-2.326
822.37	-24.324
822.67	-18.750
822.97	26.190
823.27	-7.143
823.57	-36.000
823.88	-25.926
824.18	10.714
824.48	-5.882
824.78	-19.355
825.08	4.348
825.38	15.152
825.69	-50.000
825.99	2.632
826.29	11.111
826.59	-60.000
826.89	-47.619
827.19	21.739
827.49	0.000
827.79	-8.571
828.09	-17.857
828.39	-6.061
828.70	35.135
829.00	7.143
829.30	-66.667
829.60	16.667
829.90	18.750
830.20	10.526
830.50	-11.111
830.80	-43.478
831.10	-27.273
831.40	21.212
831.70	6.452
832.00	9.524
832.30	-52.381
832.60	-66.667
832.90	3.448
833.20	-50.000
833.50	6.061
833.80	11.111
834.10	-11.538
834.40	-28.125
834.70	-77.778
835.00	-21.053
835.30	38.462
835.60	-33.333
835.90	-9.677
836.20	0.000
836.50	35.714
836.80	-57.692
837.10	-17.857
837.40	-333.333
837.70	-4.545
838.00	-54.545
838.30	4.348
838.60	-38.462
838.90	-18.182
839.19	-35.714
839.49	-30.000
839.79	-76.923
840.09	-125.000
840.39	39.286
840.69	14.286
840.99	-30.769
841.29	-73.684
841.59	-40.000
841.88	-63.636
842.18	30.000
842.48	-75.000
842.78	-73.333
843.08	14.815
843.38	-130.000
843.68	-13.043
843.97	-60.000
844.27	-33.333
844.57	-35.000
844.87	5.556
845.17	-33.333
845.47	-40.000
845.76	-23.810
846.06	52.941
846.36	-80.000
846.66	-42.857
846.96	-6.667
847.25	-112.500
847.55	28.571
847.85	-37.500
848.15	9.091
848.44	-466.667
848.74	-45.000
849.04	3.704
849.34	-63.636
849.63	-266.667
849.93	-360.000
850.23	0.000
850.53	-20.000
850.82	-7.692
851.12	-33.333
851.42	-46.667
851.71	-19.231
852.01	-71.429
852.31	-150.000
852.61	-36.364
852.90	-50.000
853.20	-10.526
853.50	-41.667
853.79	0.000
854.09	41.667
854.39	0.000
854.68	-8.333
854.98	-12.903
855.28	15.385
855.57	-30.000
855.87	-33.333
856.17	11.111
856.46	-14.286
856.76	-6.667
857.05	44.444
857.35	8.000
857.65	0.000
857.94	-61.538
858.24	-6.897
858.53	22.222
858.83	11.111
859.13	36.364
859.42	-30.435
859.72	-100.000
860.01	-366.667
860.31	36.000
860.60	38.095
860.90	-233.333
861.20	0.000
861.49	-200.000
861.79	-80.000
862.08	-10.000
862.38	106.667
862.67	-80.000
862.97	-66.667
863.26	-75.000
863.56	5.556
863.85	-333.333
864.15	-11.111
864.44	10.000
864.74	-50.000
865.03	175.000
865.33	-260.000
865.62	-100.000
865.92	-83.333
866.21	-266.667
866.51	25.000
866.80	-54.545
867.10	-650.000
867.39	116.667
867.69	0.000
867.98	-46.154
868.27	-300.000
868.57	-53.333
868.86	5.556
869.16	-69.231
869.45	33.333
869.75	-600.000
870.04	0.000
870.33	-142.857
870.63	9.524
870.92	433.333
871.22	-100.000
871.51	0.000
871.80	-100.000
872.10	366.667
>>>>>End Processed Spectral Data<<<<<
