SpectraSuite Data File
++++++++++++++++++++++++++++++++++++
Date: Fri May 15 21:00:51 PDT 2015
User: schluterlab
Dark Spectrum Present: Yes
Reference Spectrum Present: Yes
Number of Sampled Component Spectra: 1
Spectrometers: USB2E3373
Integration Time (usec): 3000 (USB2E3373)
Spectra Averaged: 3 (USB2E3373)
Boxcar Smoothing: 0 (USB2E3373)
Correct for Electrical Dark: No (USB2E3373)
Strobe/Lamp Enabled: No (USB2E3373)
Correct for Detector Non-linearity: No (USB2E3373)
Correct for Stray Light: No (USB2E3373)
Number of Pixels in Processed Spectrum: 2048
>>>>>Begin Processed Spectral Data<<<<<
178.53	0.000
178.91	0.000
179.29	50.000
179.67	-1100.000
180.04	28.571
180.42	175.000
180.80	-800.000
181.18	100.000
181.56	550.000
181.94	-100.000
182.31	1500.000
182.69	-160.000
183.07	-233.333
183.45	-60.000
183.83	216.667
184.20	-90.909
184.58	88.889
184.96	300.000
185.34	233.333
185.72	-350.000
186.09	153.846
186.47	-1200.000
186.85	183.333
187.23	133.333
187.61	-0.000
187.98	-400.000
188.36	11.111
188.74	-433.333
189.12	17.647
189.49	55.556
189.87	0.000
190.25	7.143
190.63	-300.000
191.00	33.333
191.38	10.526
191.76	150.000
192.14	100.000
192.51	-50.000
192.89	-66.667
193.27	0.000
193.65	216.667
194.02	136.364
194.40	-50.000
194.78	-62.500
195.15	-25.000
195.53	-125.000
195.91	325.000
196.29	-100.000
196.66	61.538
197.04	114.286
197.42	33.333
197.79	-200.000
198.17	-92.308
198.55	2000.000
198.92	-333.333
199.30	200.000
199.68	-200.000
200.05	-333.333
200.43	0.000
200.81	-33.333
201.18	-33.333
201.56	1300.000
201.94	-300.000
202.31	133.333
202.69	-180.000
203.07	75.000
203.44	1100.000
203.82	0.000
204.19	-7.143
204.57	-333.333
204.95	112.500
205.32	30.000
205.70	71.429
206.08	-400.000
206.45	111.111
206.83	85.714
207.20	-185.714
207.58	800.000
207.96	-33.333
208.33	0.000
208.71	0.000
209.08	-100.000
209.46	-500.000
209.84	-180.000
210.21	-900.000
210.59	28.571
210.96	-66.667
211.34	-225.000
211.71	73.333
212.09	-185.714
212.46	-1500.000
212.84	0.000
213.22	-40.000
213.59	800.000
213.97	30.769
214.34	-36.364
214.72	-150.000
215.09	375.000
215.47	46.154
215.84	-81.818
216.22	-433.333
216.59	0.000
216.97	150.000
217.34	-50.000
217.72	-140.000
218.09	25.000
218.47	212.500
218.84	200.000
219.22	-77.778
219.59	-180.000
219.97	333.333
220.34	425.000
220.72	-100.000
221.09	-300.000
221.47	50.000
221.84	-650.000
222.22	-700.000
222.59	18.182
222.97	41.667
223.34	-100.000
223.72	21.429
224.09	33.333
224.46	-14.286
224.84	533.333
225.21	60.000
225.59	60.000
225.96	-350.000
226.34	500.000
226.71	-157.143
227.08	-66.667
227.46	-100.000
227.83	0.000
228.21	-66.667
228.58	0.000
228.95	50.000
229.33	50.000
229.70	18.750
230.08	-50.000
230.45	-28.571
230.82	-57.143
231.20	-40.000
231.57	-7.143
231.95	100.000
232.32	-90.000
232.69	21.429
233.07	-100.000
233.44	20.000
233.81	-20.000
234.19	77.778
234.56	47.059
234.93	50.000
235.31	100.000
235.68	-220.000
236.05	30.769
236.43	-10.000
236.80	29.412
237.17	43.750
237.55	30.000
237.92	44.444
238.29	36.111
238.67	63.333
239.04	38.235
239.41	21.951
239.79	40.000
240.16	51.220
240.53	36.842
240.91	69.565
241.28	41.270
241.65	76.786
242.02	47.945
242.40	65.000
242.77	62.712
243.14	65.152
243.51	57.500
243.89	63.218
244.26	43.678
244.63	52.381
245.00	55.670
245.38	71.134
245.75	49.438
246.12	53.448
246.49	57.025
246.87	60.577
247.24	59.664
247.61	54.386
247.98	60.163
248.36	50.000
248.73	61.184
249.10	50.649
249.47	51.899
249.84	65.359
250.22	55.882
250.59	58.170
250.96	61.502
251.33	61.047
251.70	64.706
252.08	62.944
252.45	65.347
252.82	65.829
253.19	63.594
253.56	57.477
253.94	61.261
254.31	66.087
254.68	65.789
255.05	62.992
255.42	63.319
255.79	59.846
256.16	61.089
256.54	61.567
256.91	61.217
257.28	55.390
257.65	63.296
258.02	61.702
258.39	59.596
258.76	64.103
259.14	63.123
259.51	56.958
259.88	61.168
260.25	60.458
260.62	64.931
260.99	60.339
261.36	59.932
261.73	62.975
262.10	64.742
262.47	62.270
262.85	61.442
263.22	62.769
263.59	61.994
263.96	65.528
264.33	56.970
264.70	63.690
265.07	66.667
265.44	62.890
265.81	61.299
266.18	61.475
266.55	61.440
266.92	62.694
267.29	62.663
267.66	59.335
268.03	63.351
268.40	62.663
268.77	68.984
269.14	62.590
269.51	62.468
269.88	62.095
270.25	56.122
270.62	59.512
270.99	61.125
271.36	60.147
271.73	59.390
272.10	60.584
272.47	61.702
272.84	63.614
273.21	59.165
273.58	64.337
273.95	59.954
274.32	60.046
274.69	58.371
275.06	60.714
275.43	60.998
275.80	61.369
276.17	63.908
276.54	57.173
276.91	60.526
277.28	58.734
277.65	57.025
278.02	58.723
278.39	57.768
278.76	57.862
279.13	56.017
279.50	58.193
279.87	58.963
280.23	56.559
280.60	57.310
280.97	59.798
281.34	58.462
281.71	60.780
282.08	60.532
282.45	55.382
282.82	57.143
283.19	56.673
283.56	60.308
283.92	56.546
284.29	55.577
284.66	56.202
285.03	60.118
285.40	58.979
285.77	55.009
286.14	56.679
286.51	55.904
286.87	55.759
287.24	54.880
287.61	53.086
287.98	56.667
288.35	55.286
288.72	55.867
289.08	53.819
289.45	51.845
289.82	52.797
290.19	52.389
290.56	54.374
290.93	50.842
291.29	50.231
291.66	49.921
292.03	49.601
292.40	50.806
292.77	48.485
293.13	47.403
293.50	47.344
293.87	49.160
294.24	46.213
294.60	46.051
294.97	44.643
295.34	46.626
295.71	45.902
296.08	45.142
296.44	42.390
296.81	45.278
297.18	45.072
297.55	45.122
297.91	44.795
298.28	44.063
298.65	41.655
299.02	42.722
299.38	41.450
299.75	43.034
300.12	41.885
300.48	42.161
300.85	43.093
301.22	43.506
301.59	42.237
301.95	42.658
302.32	41.764
302.69	41.294
303.05	42.946
303.42	40.598
303.79	41.121
304.15	41.099
304.52	38.882
304.89	41.287
305.25	40.436
305.62	38.040
305.99	39.181
306.35	40.231
306.72	38.358
307.09	40.593
307.45	40.643
307.82	40.741
308.19	41.463
308.55	40.349
308.92	39.760
309.29	37.989
309.65	38.859
310.02	38.944
310.38	39.188
310.75	38.689
311.12	39.074
311.48	39.873
311.85	37.068
312.22	37.975
312.58	38.960
312.95	38.634
313.31	39.234
313.68	39.581
314.05	39.286
314.41	39.278
314.78	40.928
315.14	41.007
315.51	40.269
315.87	41.086
316.24	40.344
316.61	39.173
316.97	41.270
317.34	39.453
317.70	40.631
318.07	41.923
318.43	41.373
318.80	40.909
319.16	43.066
319.53	42.830
319.89	41.634
320.26	42.105
320.62	45.035
320.99	43.528
321.35	43.988
321.72	44.133
322.08	46.425
322.45	47.208
322.81	46.660
323.18	46.516
323.54	47.297
323.91	45.862
324.27	47.461
324.64	47.097
325.00	46.533
325.37	47.107
325.73	47.235
326.10	47.139
326.46	48.789
326.83	48.819
327.19	47.864
327.56	50.652
327.92	49.736
328.29	50.714
328.65	52.075
329.01	51.746
329.38	51.244
329.74	52.030
330.11	51.807
330.47	52.876
330.84	51.731
331.20	56.559
331.56	51.759
331.93	53.333
332.29	54.354
332.66	52.579
333.02	52.788
333.38	53.071
333.75	53.480
334.11	51.925
334.48	54.216
334.84	53.938
335.20	53.797
335.57	52.403
335.93	53.297
336.29	54.144
336.66	52.952
337.02	53.253
337.38	51.574
337.75	55.364
338.11	55.005
338.47	54.197
338.84	53.604
339.20	53.839
339.56	53.211
339.93	53.805
340.29	54.862
340.65	54.122
341.02	54.965
341.38	54.248
341.74	53.180
342.11	51.820
342.47	53.381
342.83	54.844
343.20	53.571
343.56	56.261
343.92	54.827
344.28	53.971
344.65	53.800
345.01	51.685
345.37	52.565
345.73	53.975
346.10	52.977
346.46	52.902
346.82	53.355
347.19	53.616
347.55	53.968
347.91	53.074
348.27	52.385
348.63	54.003
349.00	53.651
349.36	53.367
349.72	54.478
350.08	53.361
350.45	53.152
350.81	54.153
351.17	52.850
351.53	52.816
351.89	53.509
352.26	53.360
352.62	52.823
352.98	51.566
353.34	52.979
353.70	51.294
354.07	53.306
354.43	52.602
354.79	52.601
355.15	52.381
355.51	54.035
355.87	54.288
356.24	52.447
356.60	54.406
356.96	54.444
357.32	51.757
357.68	53.401
358.04	53.554
358.40	52.814
358.77	53.509
359.13	52.682
359.49	52.773
359.85	52.886
360.21	53.110
360.57	52.793
360.93	52.118
361.29	53.021
361.66	55.878
362.02	54.167
362.38	53.465
362.74	53.823
363.10	55.079
363.46	54.411
363.82	53.719
364.18	53.137
364.54	52.647
364.90	53.047
365.26	54.076
365.62	54.307
365.98	54.179
366.35	54.843
366.71	54.841
367.07	54.209
367.43	54.277
367.79	53.569
368.15	55.707
368.51	54.843
368.87	54.630
369.23	52.924
369.59	55.758
369.95	55.205
370.31	54.986
370.67	54.254
371.03	55.937
371.39	54.121
371.75	56.557
372.11	54.779
372.47	55.991
372.83	54.791
373.19	54.422
373.55	54.946
373.91	54.356
374.27	55.280
374.63	54.917
374.99	54.965
375.35	56.546
375.71	56.713
376.07	55.548
376.42	55.714
376.78	56.577
377.14	54.638
377.50	56.308
377.86	56.560
378.22	56.286
378.58	56.218
378.94	56.333
379.30	56.706
379.66	57.053
380.02	55.733
380.38	55.691
380.74	56.493
381.09	57.607
381.45	55.413
381.81	57.002
382.17	58.122
382.53	57.152
382.89	59.134
383.25	57.934
383.61	57.805
383.97	56.952
384.32	57.661
384.68	58.266
385.04	57.721
385.40	57.436
385.76	59.371
386.12	59.638
386.48	60.217
386.83	58.592
387.19	59.341
387.55	59.912
387.91	59.291
388.27	59.158
388.62	58.905
388.98	58.686
389.34	59.963
389.70	61.715
390.06	58.150
390.42	59.845
390.77	59.451
391.13	59.773
391.49	60.931
391.85	60.884
392.20	61.080
392.56	60.140
392.92	60.658
393.28	62.913
393.64	60.601
393.99	62.821
394.35	62.302
394.71	62.708
395.07	60.717
395.42	61.324
395.78	63.648
396.14	61.728
396.50	62.968
396.85	62.267
397.21	61.717
397.57	61.693
397.92	62.852
398.28	63.678
398.64	61.807
399.00	63.939
399.35	63.205
399.71	61.516
400.07	64.389
400.42	62.913
400.78	65.891
401.14	62.976
401.49	63.550
401.85	64.899
402.21	64.458
402.57	63.875
402.92	64.178
403.28	65.977
403.63	66.393
403.99	66.582
404.35	65.959
404.70	63.333
405.06	65.511
405.42	65.817
405.77	66.066
406.13	66.589
406.49	65.187
406.84	68.276
407.20	67.670
407.55	66.774
407.91	66.912
408.27	68.005
408.62	66.831
408.98	67.406
409.34	67.534
409.69	67.377
410.05	66.749
410.40	67.716
410.76	68.516
411.11	68.625
411.47	70.480
411.83	67.734
412.18	70.077
412.54	69.164
412.89	67.672
413.25	69.194
413.60	70.062
413.96	67.914
414.31	69.268
414.67	70.109
415.03	69.840
415.38	69.778
415.74	70.033
416.09	70.346
416.45	70.966
416.80	70.985
417.16	71.754
417.51	71.019
417.87	70.665
418.22	71.632
418.58	71.973
418.93	71.787
419.29	70.423
419.64	71.873
420.00	72.796
420.35	71.821
420.71	71.871
421.06	72.805
421.42	72.356
421.77	73.064
422.12	70.715
422.48	73.037
422.83	73.144
423.19	71.840
423.54	74.368
423.90	72.615
424.25	73.823
424.61	73.501
424.96	73.984
425.31	75.390
425.67	74.413
426.02	75.324
426.38	75.892
426.73	74.758
427.09	75.823
427.44	74.765
427.79	74.661
428.15	74.939
428.50	76.741
428.85	74.386
429.21	75.042
429.56	76.226
429.92	74.884
430.27	74.887
430.62	75.588
430.98	75.902
431.33	76.604
431.68	76.400
432.04	76.914
432.39	75.927
432.74	74.203
433.10	77.356
433.45	76.165
433.80	76.843
434.16	76.399
434.51	76.935
434.86	77.352
435.22	77.902
435.57	77.604
435.92	76.587
436.28	76.029
436.63	77.524
436.98	77.520
437.34	76.891
437.69	79.428
438.04	77.607
438.39	77.764
438.75	79.478
439.10	78.268
439.45	80.037
439.81	77.370
440.16	79.929
440.51	80.597
440.86	80.242
441.22	78.676
441.57	79.525
441.92	80.378
442.27	80.820
442.63	79.657
442.98	80.471
443.33	78.742
443.68	79.894
444.03	80.378
444.39	78.308
444.74	83.055
445.09	81.180
445.44	81.823
445.79	82.310
446.15	80.341
446.50	79.811
446.85	81.934
447.20	80.501
447.55	80.580
447.91	81.218
448.26	80.421
448.61	80.771
448.96	81.641
449.31	81.387
449.66	81.591
450.02	81.289
450.37	83.521
450.72	80.069
451.07	82.658
451.42	80.275
451.77	81.133
452.12	80.742
452.47	80.940
452.83	80.212
453.18	80.519
453.53	82.554
453.88	81.967
454.23	81.069
454.58	83.249
454.93	80.541
455.28	79.619
455.63	82.083
455.98	81.359
456.34	79.566
456.69	80.940
457.04	81.159
457.39	80.984
457.74	80.472
458.09	80.106
458.44	81.978
458.79	79.440
459.14	81.808
459.49	81.493
459.84	80.823
460.19	82.585
460.54	79.584
460.89	81.534
461.24	81.925
461.59	81.770
461.94	80.377
462.29	81.604
462.64	80.930
462.99	81.923
463.34	80.111
463.69	81.274
464.04	79.843
464.39	81.140
464.74	79.755
465.09	80.536
465.44	79.919
465.79	79.819
466.14	80.616
466.49	80.621
466.84	82.153
467.19	79.099
467.54	80.268
467.89	82.123
468.24	79.501
468.59	81.016
468.94	80.889
469.29	81.508
469.64	79.631
469.99	81.570
470.34	80.273
470.68	81.506
471.03	79.830
471.38	79.601
471.73	78.641
472.08	78.426
472.43	80.403
472.78	80.329
473.13	79.864
473.48	79.739
473.83	79.016
474.17	79.858
474.52	79.834
474.87	78.848
475.22	79.866
475.57	78.769
475.92	81.075
476.27	78.987
476.61	82.697
476.96	79.253
477.31	79.340
477.66	78.090
478.01	79.001
478.36	79.031
478.70	81.620
479.05	80.055
479.40	79.173
479.75	78.624
480.10	78.034
480.45	78.650
480.79	80.010
481.14	80.738
481.49	78.128
481.84	80.647
482.19	78.391
482.53	78.849
482.88	76.754
483.23	77.879
483.58	78.113
483.92	77.348
484.27	77.119
484.62	78.978
484.97	78.524
485.31	77.059
485.66	75.900
486.01	77.902
486.36	77.666
486.70	80.414
487.05	80.054
487.40	78.904
487.75	78.986
488.09	78.121
488.44	80.055
488.79	78.595
489.13	78.005
489.48	77.683
489.83	77.668
490.17	76.854
490.52	77.136
490.87	77.001
491.22	77.985
491.56	76.328
491.91	75.717
492.26	78.123
492.60	77.447
492.95	78.111
493.30	76.795
493.64	77.947
493.99	77.488
494.34	77.524
494.68	76.952
495.03	76.204
495.37	76.644
495.72	78.849
496.07	77.756
496.41	75.896
496.76	76.969
497.11	75.966
497.45	77.327
497.80	78.355
498.14	75.758
498.49	77.349
498.84	74.301
499.18	78.112
499.53	76.389
499.87	76.848
500.22	76.706
500.56	77.408
500.91	76.054
501.26	75.482
501.60	76.045
501.95	76.516
502.29	75.981
502.64	76.882
502.98	77.602
503.33	75.312
503.67	76.289
504.02	78.006
504.36	76.150
504.71	75.455
505.06	75.189
505.40	75.685
505.75	76.856
506.09	75.570
506.44	76.540
506.78	77.704
507.13	76.112
507.47	74.830
507.82	75.908
508.16	75.541
508.51	75.971
508.85	76.609
509.19	75.679
509.54	77.319
509.88	74.973
510.23	76.762
510.57	75.521
510.92	74.200
511.26	74.468
511.61	75.248
511.95	74.027
512.30	77.328
512.64	75.682
512.98	75.463
513.33	76.553
513.67	74.986
514.02	76.831
514.36	75.771
514.70	77.506
515.05	75.852
515.39	75.915
515.74	76.108
516.08	75.672
516.42	76.620
516.77	76.419
517.11	75.846
517.46	76.780
517.80	73.361
518.14	75.260
518.49	75.000
518.83	75.334
519.17	73.499
519.52	74.778
519.86	75.210
520.20	74.544
520.55	75.109
520.89	75.031
521.23	75.681
521.58	75.268
521.92	75.064
522.26	74.626
522.61	76.234
522.95	77.947
523.29	74.396
523.64	74.968
523.98	76.669
524.32	76.418
524.66	76.312
525.01	75.065
525.35	75.178
525.69	77.643
526.04	75.463
526.38	77.821
526.72	74.689
527.06	75.097
527.41	75.000
527.75	73.391
528.09	76.080
528.43	76.502
528.78	75.512
529.12	75.226
529.46	76.933
529.80	73.844
530.15	77.228
530.49	75.354
530.83	76.471
531.17	74.748
531.51	77.086
531.86	76.003
532.20	76.757
532.54	75.153
532.88	76.934
533.22	76.747
533.57	75.360
533.91	76.697
534.25	78.060
534.59	76.780
534.93	75.834
535.27	74.937
535.62	76.410
535.96	76.778
536.30	76.649
536.64	77.050
536.98	75.958
537.32	76.316
537.66	78.121
538.01	76.364
538.35	77.046
538.69	74.900
539.03	74.436
539.37	76.581
539.71	77.369
540.05	75.017
540.39	77.493
540.73	76.220
541.07	78.660
541.42	77.016
541.76	77.701
542.10	76.462
542.44	76.928
542.78	75.705
543.12	76.923
543.46	76.217
543.80	77.307
544.14	73.164
544.48	76.349
544.82	76.487
545.16	77.596
545.50	75.701
545.84	75.921
546.18	76.738
546.52	77.650
546.86	75.917
547.20	76.824
547.54	76.325
547.88	76.902
548.22	75.214
548.56	74.802
548.90	77.224
549.24	76.171
549.58	75.740
549.92	75.054
550.26	76.410
550.60	77.249
550.94	77.296
551.28	76.739
551.62	77.538
551.96	77.368
552.30	76.827
552.64	76.516
552.98	75.598
553.32	77.318
553.66	77.141
554.00	76.788
554.34	77.400
554.68	74.558
555.02	79.464
555.36	76.739
555.69	75.531
556.03	76.231
556.37	74.662
556.71	76.101
557.05	76.137
557.39	75.688
557.73	75.487
558.07	77.225
558.41	77.948
558.75	77.864
559.08	77.778
559.42	78.333
559.76	77.662
560.10	75.688
560.44	76.173
560.78	77.832
561.12	77.645
561.45	77.934
561.79	78.151
562.13	77.644
562.47	76.043
562.81	77.882
563.15	75.176
563.48	77.298
563.82	77.968
564.16	77.368
564.50	74.797
564.84	76.908
565.17	77.800
565.51	78.825
565.85	78.738
566.19	77.984
566.52	77.346
566.86	78.728
567.20	78.705
567.54	78.832
567.88	79.028
568.21	80.260
568.55	77.120
568.89	78.080
569.23	78.671
569.56	78.765
569.90	78.806
570.24	77.670
570.57	79.127
570.91	79.157
571.25	78.132
571.59	77.203
571.92	76.770
572.26	78.442
572.60	78.543
572.93	77.785
573.27	77.398
573.61	77.566
573.95	78.263
574.28	78.019
574.62	76.430
574.96	76.789
575.29	77.032
575.63	75.797
575.97	78.070
576.30	77.762
576.64	77.457
576.98	78.430
577.31	78.570
577.65	77.890
577.98	77.747
578.32	77.727
578.66	77.112
578.99	77.843
579.33	77.567
579.67	76.609
580.00	78.177
580.34	78.507
580.67	77.374
581.01	78.818
581.35	77.756
581.68	77.977
582.02	77.666
582.35	77.846
582.69	78.224
583.02	78.765
583.36	78.661
583.70	79.024
584.03	79.260
584.37	79.757
584.70	78.022
585.04	76.995
585.37	76.978
585.71	77.956
586.04	77.887
586.38	77.914
586.72	78.508
587.05	79.347
587.39	78.781
587.72	79.716
588.06	78.522
588.39	78.838
588.73	78.541
589.06	79.876
589.40	78.742
589.73	78.569
590.07	79.645
590.40	80.224
590.73	80.189
591.07	78.838
591.40	78.718
591.74	78.326
592.07	78.942
592.41	79.461
592.74	78.216
593.08	75.969
593.41	78.254
593.75	78.214
594.08	77.686
594.41	78.712
594.75	78.244
595.08	78.774
595.42	77.990
595.75	79.910
596.09	78.968
596.42	78.917
596.75	79.574
597.09	78.314
597.42	77.913
597.75	80.394
598.09	77.954
598.42	77.843
598.76	77.778
599.09	78.245
599.42	77.870
599.76	77.840
600.09	77.790
600.42	76.952
600.76	77.340
601.09	78.359
601.42	77.517
601.76	78.563
602.09	78.465
602.42	79.528
602.76	78.311
603.09	78.738
603.42	81.355
603.76	79.355
604.09	78.939
604.42	79.230
604.76	79.395
605.09	79.205
605.42	78.600
605.75	78.897
606.09	77.919
606.42	78.232
606.75	78.398
607.09	78.198
607.42	78.556
607.75	78.819
608.08	76.909
608.42	77.021
608.75	79.373
609.08	79.671
609.41	78.426
609.75	77.722
610.08	78.832
610.41	78.068
610.74	79.132
611.07	78.553
611.41	79.813
611.74	78.571
612.07	78.158
612.40	79.212
612.73	80.000
613.07	78.515
613.40	78.337
613.73	78.120
614.06	78.186
614.39	78.624
614.72	78.263
615.06	78.380
615.39	76.201
615.72	76.372
616.05	78.156
616.38	76.866
616.71	78.654
617.05	78.629
617.38	78.441
617.71	78.176
618.04	79.302
618.37	79.508
618.70	80.396
619.03	79.236
619.36	77.713
619.69	81.274
620.03	81.154
620.36	79.757
620.69	78.230
621.02	78.211
621.35	80.996
621.68	78.827
622.01	78.583
622.34	77.973
622.67	79.732
623.00	76.953
623.33	80.412
623.66	77.786
623.99	78.366
624.32	79.772
624.65	78.647
624.99	79.233
625.32	77.331
625.65	78.947
625.98	78.646
626.31	77.889
626.64	78.250
626.97	79.407
627.30	79.860
627.63	78.856
627.96	79.695
628.29	80.389
628.62	79.056
628.95	77.054
629.28	80.847
629.61	79.860
629.94	80.450
630.26	77.668
630.59	79.917
630.92	78.974
631.25	75.692
631.58	79.405
631.91	78.180
632.24	78.670
632.57	80.114
632.90	79.478
633.23	79.294
633.56	80.479
633.89	79.531
634.22	80.617
634.55	80.686
634.88	78.289
635.20	78.974
635.53	80.533
635.86	78.023
636.19	79.043
636.52	79.847
636.85	79.032
637.18	76.855
637.51	78.994
637.83	78.712
638.16	80.082
638.49	74.523
638.82	79.474
639.15	77.341
639.48	78.542
639.81	79.219
640.13	80.952
640.46	79.883
640.79	79.087
641.12	79.468
641.45	78.979
641.77	76.000
642.10	81.675
642.43	80.225
642.76	79.538
643.09	75.283
643.41	77.346
643.74	78.913
644.07	79.310
644.40	79.730
644.73	82.137
645.05	76.342
645.38	80.423
645.71	76.596
646.04	81.688
646.36	77.128
646.69	77.518
647.02	82.420
647.35	80.037
647.67	78.976
648.00	79.664
648.33	76.451
648.66	78.305
648.98	79.732
649.31	78.347
649.64	75.196
649.96	78.606
650.29	80.750
650.62	74.359
650.94	79.074
651.27	81.937
651.60	78.198
651.92	76.573
652.25	78.508
652.58	79.000
652.90	79.588
653.23	77.479
653.56	78.849
653.88	78.007
654.21	77.233
654.54	78.608
654.86	81.154
655.19	78.947
655.52	86.300
655.84	79.815
656.17	85.685
656.49	100.000
656.82	100.000
657.15	100.000
657.47	90.188
657.80	52.267
658.13	52.112
658.45	80.346
658.78	81.143
659.10	79.854
659.43	78.734
659.75	79.033
660.08	77.310
660.41	76.200
660.73	74.724
661.06	78.683
661.38	77.104
661.71	74.743
662.03	81.330
662.36	76.484
662.68	74.115
663.01	80.568
663.33	78.886
663.66	77.907
663.98	76.047
664.31	72.281
664.63	77.880
664.96	77.826
665.28	79.912
665.61	79.437
665.93	80.000
666.26	78.742
666.58	74.720
666.91	82.824
667.23	78.538
667.56	79.147
667.88	81.535
668.21	79.475
668.53	81.087
668.86	79.009
669.18	73.349
669.50	75.061
669.83	74.884
670.15	75.991
670.48	78.947
670.80	78.111
671.13	71.812
671.45	75.571
671.77	75.107
672.10	73.663
672.42	73.596
672.75	77.798
673.07	77.818
673.39	76.330
673.72	71.795
674.04	75.625
674.37	77.119
674.69	77.944
675.01	77.778
675.34	75.225
675.66	76.852
675.98	77.162
676.31	75.459
676.63	77.435
676.95	72.727
677.28	75.765
677.60	74.940
677.92	77.064
678.25	74.836
678.57	77.489
678.89	76.891
679.22	78.747
679.54	74.900
679.86	74.155
680.18	77.282
680.51	76.515
680.83	75.149
681.15	74.200
681.48	76.025
681.80	75.207
682.12	77.016
682.44	74.268
682.77	76.159
683.09	72.082
683.41	73.409
683.73	77.189
684.06	75.000
684.38	74.409
684.70	78.431
685.02	75.934
685.34	74.506
685.67	74.484
685.99	77.396
686.31	73.982
686.63	72.913
686.96	77.186
687.28	73.737
687.60	72.814
687.92	75.556
688.24	76.008
688.56	77.729
688.89	77.679
689.21	73.111
689.53	75.406
689.85	75.581
690.17	72.321
690.49	74.941
690.82	74.029
691.14	75.000
691.46	74.533
691.78	73.874
692.10	75.054
692.42	75.541
692.74	72.009
693.06	75.000
693.39	72.851
693.71	71.041
694.03	72.286
694.35	72.897
694.67	76.515
694.99	72.063
695.31	75.196
695.63	73.250
695.95	72.222
696.27	73.316
696.59	72.500
696.91	74.230
697.23	71.722
697.56	76.238
697.88	75.054
698.20	74.032
698.52	75.765
698.84	71.292
699.16	77.500
699.48	74.436
699.80	68.983
700.12	71.698
700.44	71.989
700.76	72.093
701.08	73.333
701.40	70.482
701.72	77.469
702.04	72.607
702.36	83.946
702.68	78.378
703.00	77.273
703.32	74.194
703.64	68.079
703.96	70.145
704.28	71.472
704.60	72.698
704.91	71.924
705.23	71.429
705.55	76.678
705.87	76.173
706.19	74.074
706.51	71.134
706.83	72.990
707.15	65.732
707.47	73.389
707.79	73.177
708.11	74.000
708.43	69.500
708.74	71.835
709.06	70.704
709.38	72.171
709.70	73.964
710.02	73.248
710.34	68.421
710.66	67.949
710.98	69.536
711.29	70.492
711.61	76.610
711.93	71.661
712.25	77.320
712.57	73.260
712.89	72.015
713.20	69.896
713.52	67.247
713.84	71.672
714.16	67.698
714.48	75.806
714.80	76.282
715.11	68.997
715.43	70.846
715.75	73.333
716.07	71.096
716.39	70.470
716.70	74.170
717.02	67.939
717.34	72.065
717.66	75.664
717.97	66.957
718.29	65.272
718.61	75.984
718.93	75.194
719.24	69.582
719.56	70.683
719.88	65.292
720.20	72.727
720.51	72.414
720.83	69.498
721.15	73.529
721.46	72.984
721.78	67.984
722.10	64.312
722.42	70.954
722.73	68.571
723.05	69.388
723.37	79.661
723.68	74.324
724.00	71.795
724.32	72.000
724.63	73.182
724.95	76.856
725.27	76.037
725.58	69.068
725.90	73.413
726.22	69.498
726.53	71.525
726.85	69.288
727.16	73.585
727.48	71.255
727.80	71.255
728.11	69.915
728.43	69.020
728.74	65.323
729.06	74.400
729.38	71.053
729.69	71.315
730.01	67.692
730.32	70.896
730.64	66.431
730.96	68.679
731.27	67.667
731.59	65.424
731.90	70.382
732.22	65.931
732.53	69.435
732.85	73.050
733.16	68.350
733.48	69.424
733.80	72.464
734.11	68.475
734.43	71.134
734.74	66.061
735.06	71.336
735.37	70.997
735.69	75.421
736.00	64.111
736.32	68.121
736.63	69.366
736.95	70.990
737.26	65.836
737.58	66.443
737.89	67.766
738.21	71.053
738.52	70.370
738.83	72.926
739.15	72.052
739.46	66.929
739.78	64.835
740.09	65.686
740.41	67.754
740.72	62.992
741.04	68.421
741.35	65.106
741.66	73.934
741.98	68.367
742.29	69.307
742.61	64.398
742.92	65.403
743.23	64.352
743.55	64.706
743.86	66.986
744.18	65.550
744.49	68.085
744.80	73.913
745.12	73.797
745.43	64.390
745.74	71.354
746.06	69.756
746.37	67.016
746.68	63.033
747.00	67.021
747.31	68.159
747.62	66.505
747.94	69.856
748.25	64.356
748.56	71.038
748.88	70.681
749.19	68.617
749.50	69.458
749.82	61.321
750.13	67.890
750.44	68.045
750.75	72.761
751.07	72.628
751.38	65.900
751.69	70.196
752.01	67.442
752.32	69.721
752.63	63.636
752.94	69.397
753.26	70.711
753.57	67.873
753.88	66.814
754.19	67.083
754.51	64.050
754.82	66.397
755.13	69.167
755.44	65.726
755.75	69.141
756.07	71.206
756.38	66.415
756.69	71.264
757.00	63.000
757.31	67.647
757.63	61.280
757.94	63.889
758.25	59.452
758.56	61.968
758.87	58.074
759.18	58.567
759.50	64.364
759.81	69.565
760.12	65.484
760.43	63.333
760.74	67.901
761.05	64.000
761.36	62.500
761.67	66.667
761.99	68.027
762.30	64.364
762.61	63.636
762.92	64.253
763.23	60.360
763.54	60.748
763.85	66.102
764.16	68.050
764.47	61.694
764.78	63.370
765.10	70.707
765.41	68.770
765.72	59.683
766.03	65.414
766.34	65.328
766.65	64.542
766.96	61.616
767.27	63.298
767.58	55.747
767.89	58.865
768.20	57.386
768.51	71.978
768.82	66.995
769.13	62.673
769.44	60.944
769.75	64.840
770.06	52.586
770.37	62.500
770.68	62.437
770.99	63.801
771.30	69.118
771.61	62.896
771.92	70.259
772.23	69.458
772.54	66.129
772.85	67.901
773.16	66.292
773.47	67.974
773.78	62.745
774.09	58.683
774.39	67.333
774.70	62.420
775.01	69.655
775.32	60.000
775.63	70.248
775.94	51.145
776.25	62.205
776.56	58.333
776.87	55.769
777.18	58.120
777.48	62.069
777.79	66.087
778.10	56.190
778.41	63.964
778.72	53.968
779.03	66.917
779.34	62.411
779.65	69.863
779.95	59.589
780.26	60.690
780.57	61.789
780.88	59.843
781.19	68.966
781.50	70.543
781.80	55.030
782.11	50.943
782.42	76.154
782.73	56.835
783.04	65.185
783.34	54.861
783.65	49.573
783.96	59.836
784.27	55.172
784.57	56.911
784.88	58.594
785.19	74.000
785.50	64.000
785.81	56.034
786.11	53.448
786.42	55.340
786.73	62.727
787.04	62.245
787.34	44.643
787.65	64.762
787.96	55.752
788.26	61.818
788.57	55.556
788.88	59.375
789.19	59.524
789.49	50.435
789.80	62.245
790.11	52.525
790.41	49.091
790.72	72.826
791.03	62.500
791.33	72.500
791.64	58.750
791.95	47.674
792.25	56.383
792.56	57.303
792.87	58.904
793.17	50.725
793.48	45.333
793.79	47.500
794.09	78.750
794.40	58.491
794.70	59.223
795.01	56.098
795.32	53.846
795.62	45.714
795.93	60.784
796.23	55.660
796.54	45.833
796.85	50.000
797.15	33.803
797.46	44.444
797.76	69.697
798.07	43.023
798.37	48.684
798.68	43.939
798.99	33.333
799.29	45.714
799.60	55.072
799.90	49.333
800.21	44.262
800.51	40.000
800.82	71.186
801.12	36.232
801.43	55.738
801.73	57.143
802.04	64.000
802.34	37.313
802.65	65.385
802.95	35.714
803.26	25.000
803.56	54.902
803.87	52.174
804.17	45.333
804.48	74.603
804.78	53.704
805.09	67.391
805.39	46.667
805.70	50.000
806.00	28.070
806.30	53.521
806.61	62.857
806.91	40.278
807.22	68.421
807.52	41.333
807.83	34.545
808.13	45.833
808.43	52.941
808.74	49.254
809.04	44.068
809.35	32.692
809.65	50.000
809.95	29.730
810.26	34.091
810.56	28.767
810.86	57.143
811.17	50.000
811.47	30.612
811.77	39.474
812.08	54.545
812.38	45.283
812.69	22.500
812.99	36.364
813.29	57.895
813.59	45.714
813.90	61.364
814.20	41.026
814.50	59.615
814.81	37.736
815.11	31.915
815.41	72.881
815.72	50.000
816.02	62.745
816.32	52.083
816.62	34.146
816.93	43.243
817.23	20.000
817.53	37.500
817.84	32.609
818.14	28.846
818.44	13.158
818.74	34.783
819.04	10.000
819.35	86.486
819.65	52.941
819.95	52.778
820.25	61.905
820.56	55.000
820.86	13.793
821.16	52.500
821.46	53.191
821.76	65.000
822.07	27.907
822.37	16.216
822.67	37.500
822.97	73.810
823.27	46.429
823.57	44.000
823.88	37.037
824.18	46.429
824.48	41.176
824.78	38.710
825.08	65.217
825.38	48.485
825.69	-4.167
825.99	47.368
826.29	19.444
826.59	120.000
826.89	19.048
827.19	47.826
827.49	30.000
827.79	60.000
828.09	50.000
828.39	66.667
828.70	45.946
829.00	25.000
829.30	42.857
829.60	30.000
829.90	18.750
830.20	34.211
830.50	18.519
830.80	47.826
831.10	31.818
831.40	27.273
831.70	41.935
832.00	23.810
832.30	33.333
832.60	0.000
832.90	31.034
833.20	15.000
833.50	18.182
833.80	77.778
834.10	65.385
834.40	53.125
834.70	155.556
835.00	36.842
835.30	57.692
835.60	66.667
835.90	45.161
836.20	45.455
836.50	46.429
836.80	30.769
837.10	28.571
837.40	-33.333
837.70	-13.636
838.00	72.727
838.30	-39.130
838.60	-15.385
838.90	22.727
839.19	-25.000
839.49	53.333
839.79	-92.308
840.09	-8.333
840.39	42.857
840.69	14.286
840.99	15.385
841.29	-47.368
841.59	-130.000
841.88	0.000
842.18	50.000
842.48	12.500
842.78	-40.000
843.08	-14.815
843.38	-70.000
843.68	8.696
843.97	26.667
844.27	-66.667
844.57	25.000
844.87	44.444
845.17	-42.857
845.47	13.333
845.76	19.048
846.06	47.059
846.36	30.000
846.66	21.429
846.96	60.000
847.25	-125.000
847.55	14.286
847.85	12.500
848.15	9.091
848.44	-466.667
848.74	35.000
849.04	0.000
849.34	9.091
849.63	50.000
849.93	-280.000
850.23	-27.778
850.53	70.000
850.82	-30.769
851.12	-66.667
851.42	53.333
851.71	0.000
852.01	-7.143
852.31	-175.000
852.61	9.091
852.90	-20.000
853.20	36.842
853.50	-33.333
853.79	4.348
854.09	25.000
854.39	10.526
854.68	8.333
854.98	29.032
855.28	61.538
855.57	-5.000
855.87	55.556
856.17	74.074
856.46	-14.286
856.76	-20.000
857.05	-100.000
857.35	20.000
857.65	-5.556
857.94	-61.538
858.24	17.241
858.53	16.667
858.83	7.407
859.13	59.091
859.42	-4.348
859.72	-25.000
860.01	-533.333
860.31	40.000
860.60	14.286
860.90	-300.000
861.20	26.667
861.49	-600.000
861.79	6.667
862.08	-50.000
862.38	66.667
862.67	-20.000
862.97	0.000
863.26	16.667
863.56	22.222
863.85	-400.000
864.15	22.222
864.44	30.000
864.74	-14.286
865.03	100.000
865.33	-140.000
865.62	100.000
865.92	-8.333
866.21	-166.667
866.51	50.000
866.80	-90.909
867.10	-500.000
867.39	116.667
867.69	0.000
867.98	38.462
868.27	-100.000
868.57	73.333
868.86	38.889
869.16	-15.385
869.45	46.667
869.75	-1300.000
870.04	0.000
870.33	14.286
870.63	0.000
870.92	400.000
871.22	-80.000
871.51	500.000
871.80	122.222
872.10	466.667
>>>>>End Processed Spectral Data<<<<<
