SpectraSuite Data File
++++++++++++++++++++++++++++++++++++
Date: Fri May 15 20:49:56 PDT 2015
User: schluterlab
Dark Spectrum Present: Yes
Reference Spectrum Present: Yes
Number of Sampled Component Spectra: 1
Spectrometers: USB2E3373
Integration Time (usec): 3000 (USB2E3373)
Spectra Averaged: 3 (USB2E3373)
Boxcar Smoothing: 0 (USB2E3373)
Correct for Electrical Dark: No (USB2E3373)
Strobe/Lamp Enabled: No (USB2E3373)
Correct for Detector Non-linearity: No (USB2E3373)
Correct for Stray Light: No (USB2E3373)
Number of Pixels in Processed Spectrum: 2048
>>>>>Begin Processed Spectral Data<<<<<
178.53	0.000
178.91	0.000
179.29	-12.500
179.67	150.000
180.04	-85.714
180.42	75.000
180.80	-500.000
181.18	200.000
181.56	700.000
181.94	0.000
182.31	900.000
182.69	-100.000
183.07	-100.000
183.45	-180.000
183.83	133.333
184.20	27.273
184.58	88.889
184.96	-150.000
185.34	33.333
185.72	-350.000
186.09	130.769
186.47	-900.000
186.85	300.000
187.23	133.333
187.61	300.000
187.98	-300.000
188.36	0.000
188.74	-133.333
189.12	-17.647
189.49	44.444
189.87	0.000
190.25	7.143
190.63	0.000
191.00	-366.667
191.38	0.000
191.76	150.000
192.14	275.000
192.51	400.000
192.89	11.111
193.27	-28.571
193.65	166.667
194.02	163.636
194.40	-20.000
194.78	-87.500
195.15	8.333
195.53	-50.000
195.91	325.000
196.29	-150.000
196.66	92.308
197.04	157.143
197.42	-33.333
197.79	-800.000
198.17	-123.077
198.55	2500.000
198.92	-333.333
199.30	-1000.000
199.68	-140.000
200.05	-333.333
200.43	0.000
200.81	-300.000
201.18	-500.000
201.56	1200.000
201.94	-450.000
202.31	333.333
202.69	-340.000
203.07	275.000
203.44	-1100.000
203.82	0.000
204.19	7.143
204.57	-566.667
204.95	112.500
205.32	0.000
205.70	85.714
206.08	75.000
206.45	88.889
206.83	50.000
207.20	-157.143
207.58	800.000
207.96	-266.667
208.33	-50.000
208.71	-150.000
209.08	-183.333
209.46	-800.000
209.84	-200.000
210.21	-1100.000
210.59	-28.571
210.96	-100.000
211.34	-100.000
211.71	20.000
212.09	-357.143
212.46	-2000.000
212.84	0.000
213.22	60.000
213.59	650.000
213.97	-69.231
214.34	118.182
214.72	-283.333
215.09	400.000
215.47	-23.077
215.84	-36.364
216.22	-633.333
216.59	-37.500
216.97	500.000
217.34	-200.000
217.72	20.000
218.09	150.000
218.47	225.000
218.84	-300.000
219.22	-77.778
219.59	-40.000
219.97	433.333
220.34	250.000
220.72	28.571
221.09	50.000
221.47	-350.000
221.84	-850.000
222.22	-1150.000
222.59	27.273
222.97	25.000
223.34	166.667
223.72	-28.571
224.09	14.286
224.46	25.000
224.84	700.000
225.21	-100.000
225.59	33.333
225.96	-950.000
226.34	275.000
226.71	-171.429
227.08	-266.667
227.46	-37.500
227.83	-600.000
228.21	-22.222
228.58	-72.727
228.95	-162.500
229.33	130.000
229.70	-31.250
230.08	-137.500
230.45	-85.714
230.82	0.000
231.20	-113.333
231.57	-35.714
231.95	-14.286
232.32	-80.000
232.69	-7.143
233.07	66.667
233.44	-180.000
233.81	-100.000
234.19	22.222
234.56	-52.941
234.93	500.000
235.31	-200.000
235.68	-220.000
236.05	-138.462
236.43	-65.000
236.80	-11.765
237.17	-21.875
237.55	-50.000
237.92	-70.370
238.29	-16.667
238.67	-16.667
239.04	-38.235
239.41	-26.829
239.79	-50.000
240.16	-21.951
240.53	-21.053
240.91	-8.696
241.28	-3.175
241.65	-12.500
242.02	1.370
242.40	-16.667
242.77	3.390
243.14	-9.091
243.51	1.250
243.89	1.149
244.26	-17.241
244.63	-2.381
245.00	-5.155
245.38	3.093
245.75	-20.225
246.12	-9.483
246.49	2.479
246.87	1.923
247.24	-7.563
247.61	-10.526
247.98	-2.439
248.36	3.750
248.73	-1.316
249.10	-1.299
249.47	-5.696
249.84	0.000
250.22	-1.176
250.59	-0.654
250.96	0.000
251.33	0.000
251.70	-1.765
252.08	-5.076
252.45	0.000
252.82	-1.005
253.19	0.461
253.56	-4.673
253.94	-4.054
254.31	2.609
254.68	2.632
255.05	-0.787
255.42	-2.183
255.79	-0.386
256.16	-3.113
256.54	-0.746
256.91	0.000
257.28	-1.487
257.65	-4.120
258.02	-1.064
258.39	0.337
258.76	4.762
259.14	2.658
259.51	-0.971
259.88	0.344
260.25	-2.288
260.62	0.694
260.99	-5.085
261.36	-4.110
261.73	-0.949
262.10	0.608
262.47	0.613
262.85	-4.075
263.22	-0.615
263.59	-2.804
263.96	4.037
264.33	-0.303
264.70	0.893
265.07	-3.571
265.44	-1.700
265.81	0.000
266.18	1.366
266.55	2.057
266.92	1.036
267.29	1.044
267.66	-2.302
268.03	1.832
268.40	-1.044
268.77	4.278
269.14	0.959
269.51	1.028
269.88	-0.998
270.25	-1.786
270.62	-4.146
270.99	-1.535
271.36	-1.467
271.73	-0.704
272.10	-0.730
272.47	-1.182
272.84	-1.733
273.21	2.552
273.58	-0.964
273.95	3.204
274.32	0.924
274.69	-0.452
275.06	-0.670
275.43	-3.401
275.80	-1.325
276.17	-2.069
276.54	0.857
276.91	1.974
277.28	-2.183
277.65	2.066
278.02	-0.638
278.39	0.438
278.76	-0.210
279.13	-3.320
279.50	0.840
279.87	1.944
280.23	-0.645
280.60	-0.390
280.97	0.404
281.34	-1.154
281.71	0.616
282.08	-1.840
282.45	-1.566
282.82	-2.317
283.19	-0.193
283.56	-0.771
283.92	-0.759
284.29	0.192
284.66	-0.388
285.03	0.000
285.40	-1.134
285.77	-0.879
286.14	0.181
286.51	2.399
286.87	0.000
287.24	-1.289
287.61	-0.353
287.98	1.579
288.35	-0.347
288.72	0.876
289.08	-0.694
289.45	0.351
289.82	0.524
290.19	-2.901
290.56	-1.887
290.93	-0.505
291.29	-1.541
291.66	0.315
292.03	-0.478
292.40	1.290
292.77	-2.233
293.13	-2.110
293.50	-1.366
293.87	1.069
294.24	0.927
294.60	-0.298
294.97	0.446
295.34	0.307
295.71	0.894
296.08	-0.598
296.44	-1.422
296.81	-0.278
297.18	-0.725
297.55	2.846
297.91	1.233
298.28	2.770
298.65	0.678
299.02	0.135
299.38	-1.231
299.75	-0.276
300.12	-0.524
300.48	0.395
300.85	1.014
301.22	1.558
301.59	-0.395
301.95	0.380
302.32	0.389
302.69	0.622
303.05	-0.124
303.42	0.125
303.79	0.234
304.15	1.553
304.52	-0.951
304.89	-0.117
305.25	0.363
305.62	0.117
305.99	0.351
306.35	-0.231
306.72	-0.112
307.09	0.456
307.45	0.804
307.82	0.116
308.19	0.581
308.55	0.218
308.92	1.525
309.29	-0.112
309.65	0.431
310.02	0.220
310.38	0.878
310.75	-0.656
311.12	0.431
311.48	0.530
311.85	0.838
312.22	-0.422
312.58	0.637
312.95	0.854
313.31	0.621
313.68	0.733
314.05	0.102
314.41	2.784
314.78	1.031
315.14	2.569
315.51	2.070
315.87	1.230
316.24	3.741
316.61	2.953
316.97	3.373
317.34	2.344
317.70	2.772
318.07	3.077
318.43	3.725
318.80	2.841
319.16	4.395
319.53	4.748
319.89	4.528
320.26	5.263
320.62	6.319
320.99	3.758
321.35	5.961
321.72	7.892
322.08	6.143
322.45	7.208
322.81	7.957
323.18	6.771
323.54	7.819
323.91	7.400
324.27	7.617
324.64	8.708
325.00	9.307
325.37	10.836
325.73	11.061
326.10	10.263
326.46	10.314
326.83	11.024
327.19	10.811
327.56	13.206
327.92	13.292
328.29	12.679
328.65	12.264
329.01	13.971
329.38	13.364
329.74	12.465
330.11	13.531
330.47	12.523
330.84	13.462
331.20	15.970
331.56	13.981
331.93	15.068
332.29	15.582
332.66	14.842
333.02	14.219
333.38	15.490
333.75	15.476
334.11	13.966
334.48	16.228
334.84	16.484
335.20	16.194
335.57	15.503
335.93	15.537
336.29	16.943
336.66	16.440
337.02	16.543
337.38	15.093
337.75	16.182
338.11	16.592
338.47	16.058
338.84	16.451
339.20	17.367
339.56	17.431
339.93	17.995
340.29	17.064
340.65	17.563
341.02	17.465
341.38	17.168
341.74	16.254
342.11	16.031
342.47	17.171
342.83	18.599
343.20	16.115
343.56	17.478
343.92	17.538
344.28	18.019
344.65	16.839
345.01	16.335
345.37	17.746
345.73	17.741
346.10	16.221
346.46	18.251
346.82	17.512
347.19	15.461
347.55	18.212
347.91	18.608
348.27	17.138
348.63	16.951
349.00	17.473
349.36	17.207
349.72	18.076
350.08	17.705
350.45	17.877
350.81	16.777
351.17	16.531
351.53	18.041
351.89	16.185
352.26	17.520
352.62	19.113
352.98	18.474
353.34	17.955
353.70	17.718
354.07	17.823
354.43	17.534
354.79	17.258
355.15	18.095
355.51	18.196
355.87	17.799
356.24	17.700
356.60	17.542
356.96	18.333
357.32	17.732
357.68	18.139
358.04	17.124
358.40	17.926
358.77	19.298
359.13	17.934
359.49	17.257
359.85	18.097
360.21	18.820
360.57	17.751
360.93	19.062
361.29	17.674
361.66	18.495
362.02	18.712
362.38	17.974
362.74	18.092
363.10	18.962
363.46	18.384
363.82	19.159
364.18	17.638
364.54	18.015
364.90	18.710
365.26	17.758
365.62	19.562
365.98	18.988
366.35	20.248
366.71	18.330
367.07	18.360
367.43	18.548
367.79	18.445
368.15	19.239
368.51	19.228
368.87	18.593
369.23	17.834
369.59	18.586
369.95	19.135
370.31	18.642
370.67	18.731
371.03	17.625
371.39	19.110
371.75	18.681
372.11	18.402
372.47	19.009
372.83	19.801
373.19	18.759
373.55	17.834
373.91	19.798
374.27	18.852
374.63	19.742
374.99	18.156
375.35	19.011
375.71	19.231
376.07	19.312
376.42	18.776
376.78	19.262
377.14	19.160
377.50	18.792
377.86	18.809
378.22	19.336
378.58	19.359
378.94	18.967
379.30	17.654
379.66	20.188
380.02	19.620
380.38	19.051
380.74	18.253
381.09	20.000
381.45	18.716
381.81	19.186
382.17	18.401
382.53	18.988
382.89	17.828
383.25	18.668
383.61	19.573
383.97	18.730
384.32	18.887
384.68	18.452
385.04	18.382
385.40	18.793
385.76	19.748
386.12	19.664
386.48	18.902
386.83	17.565
387.19	18.987
387.55	18.821
387.91	18.949
388.27	18.864
388.62	20.138
388.98	19.276
389.34	19.800
389.70	19.826
390.06	18.817
390.42	18.588
390.77	19.032
391.13	18.159
391.49	19.340
391.85	19.363
392.20	18.958
392.56	18.881
392.92	18.967
393.28	18.219
393.64	18.498
393.99	20.376
394.35	18.027
394.71	18.710
395.07	18.668
395.42	19.186
395.78	18.697
396.14	18.663
396.50	18.389
396.85	18.674
397.21	18.609
397.57	18.621
397.92	19.113
398.28	18.563
398.64	17.048
399.00	18.679
399.35	18.002
399.71	18.323
400.07	18.742
400.42	18.788
400.78	18.004
401.14	18.996
401.49	18.642
401.85	18.221
402.21	18.012
402.57	18.812
402.92	17.629
403.28	19.612
403.63	17.970
403.99	18.048
404.35	18.364
404.70	17.381
405.06	17.861
405.42	19.018
405.77	17.141
406.13	17.928
406.49	18.532
406.84	18.215
407.20	17.821
407.55	16.613
407.91	16.778
408.27	17.718
408.62	18.338
408.98	17.991
409.34	18.154
409.69	16.796
410.05	17.365
410.40	17.716
410.76	17.913
411.11	17.188
411.47	17.817
411.83	17.012
412.18	16.409
412.54	17.416
412.89	16.995
413.25	16.907
413.60	17.516
413.96	17.055
414.31	17.256
414.67	16.998
415.03	17.044
415.38	16.188
415.74	16.743
416.09	16.460
416.45	16.678
416.80	17.052
417.16	17.541
417.51	18.188
417.87	16.754
418.22	16.839
418.58	16.722
418.93	17.429
419.29	16.325
419.64	15.813
420.00	17.569
420.35	16.716
420.71	17.011
421.06	16.022
421.42	17.007
421.77	16.185
422.12	16.459
422.48	16.622
422.83	16.415
423.19	15.971
423.54	15.403
423.90	15.901
424.25	15.901
424.61	16.585
424.96	16.609
425.31	16.696
425.67	15.962
426.02	16.667
426.38	16.656
426.73	16.404
427.09	16.266
427.44	16.588
427.79	17.030
428.15	16.808
428.50	15.203
428.85	15.479
429.21	16.299
429.56	15.633
429.92	15.922
430.27	15.739
430.62	15.055
430.98	15.127
431.33	16.036
431.68	16.117
432.04	16.098
432.39	15.117
432.74	15.454
433.10	16.552
433.45	15.830
433.80	15.206
434.16	15.014
434.51	15.215
434.86	14.634
435.22	15.255
435.57	14.910
435.92	14.970
436.28	15.802
436.63	15.174
436.98	15.122
437.34	14.519
437.69	15.981
438.04	15.271
438.39	14.905
438.75	14.815
439.10	15.620
439.45	15.277
439.81	16.086
440.16	15.499
440.51	15.940
440.86	16.556
441.22	14.932
441.57	14.680
441.92	15.268
442.27	14.856
442.63	16.060
442.98	15.968
443.33	15.081
443.68	15.332
444.03	15.897
444.39	15.199
444.74	16.109
445.09	15.757
445.44	15.100
445.79	15.988
446.15	15.033
446.50	14.864
446.85	15.143
447.20	15.433
447.55	15.625
447.91	15.285
448.26	15.139
448.61	15.889
448.96	15.376
449.31	14.682
449.66	15.796
450.02	15.630
450.37	15.590
450.72	14.777
451.07	15.570
451.42	15.044
451.77	15.130
452.12	15.311
452.47	14.939
452.83	14.900
453.18	15.054
453.53	14.981
453.88	14.936
454.23	14.874
454.58	14.673
454.93	15.077
455.28	14.032
455.63	15.189
455.98	15.454
456.34	14.368
456.69	14.295
457.04	15.123
457.39	13.973
457.74	14.571
458.09	13.479
458.44	14.102
458.79	14.062
459.14	14.474
459.49	14.687
459.84	14.721
460.19	14.260
460.54	14.425
460.89	14.261
461.24	14.161
461.59	14.786
461.94	14.277
462.29	15.078
462.64	15.282
462.99	13.676
463.34	13.282
463.69	13.578
464.04	14.709
464.39	13.523
464.74	13.006
465.09	14.161
465.44	14.080
465.79	14.229
466.14	14.481
466.49	14.204
466.84	14.158
467.19	14.456
467.54	13.282
467.89	13.708
468.24	13.564
468.59	15.238
468.94	14.159
469.29	13.443
469.64	14.422
469.99	14.646
470.34	13.652
470.68	14.392
471.03	15.145
471.38	13.909
471.73	13.655
472.08	13.772
472.43	12.282
472.78	12.817
473.13	13.333
473.48	13.094
473.83	13.200
474.17	13.925
474.52	12.891
474.87	13.394
475.22	12.264
475.57	13.326
475.92	13.001
476.27	13.620
476.61	13.079
476.96	13.274
477.31	13.250
477.66	13.034
478.01	12.746
478.36	12.473
478.70	13.649
479.05	13.297
479.40	12.878
479.75	12.461
480.10	12.494
480.45	12.800
480.79	13.142
481.14	12.705
481.49	12.266
481.84	12.693
482.19	11.787
482.53	12.710
482.88	12.792
483.23	11.948
483.58	12.311
483.92	11.423
484.27	11.258
484.62	11.968
484.97	11.816
485.31	11.669
485.66	11.177
486.01	11.334
486.36	11.150
486.70	11.694
487.05	11.325
487.40	11.272
487.75	11.408
488.09	11.465
488.44	11.554
488.79	11.991
489.13	11.739
489.48	11.928
489.83	11.659
490.17	11.820
490.52	11.686
490.87	11.199
491.22	11.557
491.56	11.860
491.91	11.185
492.26	12.056
492.60	12.236
492.95	12.002
493.30	11.822
493.64	11.149
493.99	11.787
494.34	10.680
494.68	11.429
495.03	10.706
495.37	11.237
495.72	11.005
496.07	10.732
496.41	11.132
496.76	10.548
497.11	10.899
497.45	11.456
497.80	11.655
498.14	10.482
498.49	11.122
498.84	11.277
499.18	10.743
499.53	11.409
499.87	11.089
500.22	10.633
500.56	11.346
500.91	10.693
501.26	10.578
501.60	10.723
501.95	10.335
502.29	10.508
502.64	10.569
502.98	10.705
503.33	10.279
503.67	10.506
504.02	10.655
504.36	10.737
504.71	10.455
505.06	10.518
505.40	10.355
505.75	10.515
506.09	10.948
506.44	11.140
506.78	10.918
507.13	9.617
507.47	10.757
507.82	9.882
508.16	9.878
508.51	10.126
508.85	10.099
509.19	9.686
509.54	10.188
509.88	10.248
510.23	10.328
510.57	9.995
510.92	9.382
511.26	9.111
511.61	10.121
511.95	10.521
512.30	10.477
512.64	9.460
512.98	9.377
513.33	10.017
513.67	9.380
514.02	10.526
514.36	10.800
514.70	10.023
515.05	10.458
515.39	9.799
515.74	10.778
516.08	9.863
516.42	10.836
516.77	9.830
517.11	9.852
517.46	9.695
517.80	9.535
518.14	9.982
518.49	10.216
518.83	9.417
519.17	9.157
519.52	9.828
519.86	9.004
520.20	9.660
520.55	8.568
520.89	11.104
521.23	10.133
521.58	10.789
521.92	10.385
522.26	9.109
522.61	10.065
522.95	9.470
523.29	10.102
523.64	10.546
523.98	10.045
524.32	8.956
524.66	10.563
525.01	9.935
525.35	10.175
525.69	9.024
526.04	9.127
526.38	9.728
526.72	8.829
527.06	9.728
527.41	9.697
527.75	8.713
528.09	9.369
528.43	10.263
528.78	8.317
529.12	9.613
529.46	9.162
529.80	9.690
530.15	10.297
530.49	8.687
530.83	9.097
531.17	9.738
531.51	9.644
531.86	9.177
532.20	8.490
532.54	9.190
532.88	8.282
533.22	8.938
533.57	8.716
533.91	8.420
534.25	8.659
534.59	8.724
534.93	8.685
535.27	7.995
535.62	8.231
535.96	9.459
536.30	8.377
536.64	8.890
536.98	7.944
537.32	8.819
537.66	9.116
538.01	8.811
538.35	8.322
538.69	9.121
539.03	8.407
539.37	8.546
539.71	8.657
540.05	8.758
540.39	8.864
540.73	8.577
541.07	8.425
541.42	9.946
541.76	8.603
542.10	8.465
542.44	7.783
542.78	7.571
543.12	7.761
543.46	8.414
543.80	8.189
544.14	7.810
544.48	9.260
544.82	7.792
545.16	8.265
545.50	9.613
545.84	8.711
546.18	8.794
546.52	8.796
546.86	7.980
547.20	7.511
547.54	8.269
547.88	8.220
548.22	6.969
548.56	7.916
548.90	8.558
549.24	7.576
549.58	8.886
549.92	7.291
550.26	7.399
550.60	8.550
550.94	8.215
551.28	7.883
551.62	7.538
551.96	6.617
552.30	8.626
552.64	7.546
552.98	7.876
553.32	7.418
553.66	7.692
554.00	5.985
554.34	7.016
554.68	8.038
555.02	8.557
555.36	7.554
555.69	7.179
556.03	6.852
556.37	6.406
556.71	8.087
557.05	7.905
557.39	6.989
557.73	7.721
558.07	7.541
558.41	7.198
558.75	6.781
559.08	7.486
559.42	7.143
559.76	7.046
560.10	6.957
560.44	6.329
560.78	7.692
561.12	7.757
561.45	7.379
561.79	8.123
562.13	7.026
562.47	6.403
562.81	7.205
563.15	8.251
563.48	7.355
563.82	8.099
564.16	7.242
564.50	7.568
564.84	8.635
565.17	6.304
565.51	7.855
565.85	6.722
566.19	7.029
566.52	7.172
566.86	7.841
567.20	5.604
567.54	7.117
567.88	7.206
568.21	7.127
568.55	6.522
568.89	6.930
569.23	6.981
569.56	6.349
569.90	7.065
570.24	6.811
570.57	6.436
570.91	7.250
571.25	6.478
571.59	6.291
571.92	5.985
572.26	6.039
572.60	6.388
572.93	6.307
573.27	5.925
573.61	6.653
573.95	6.472
574.28	6.038
574.62	6.204
574.96	6.108
575.29	5.931
575.63	5.831
575.97	6.126
576.30	6.016
576.64	5.616
576.98	6.461
577.31	6.095
577.65	6.170
577.98	6.403
578.32	5.965
578.66	6.039
578.99	5.896
579.33	5.921
579.67	5.728
580.00	6.051
580.34	6.095
580.67	6.182
581.01	6.388
581.35	5.792
581.68	6.022
582.02	5.836
582.35	5.887
582.69	5.941
583.02	6.131
583.36	6.127
583.70	6.101
584.03	6.088
584.37	6.211
584.70	6.016
585.04	5.855
585.37	6.265
585.71	5.900
586.04	5.900
586.38	5.762
586.72	5.567
587.05	6.153
587.39	6.262
587.72	6.178
588.06	5.923
588.39	5.639
588.73	6.136
589.06	6.197
589.40	6.187
589.73	6.718
590.07	5.853
590.40	5.960
590.73	6.466
591.07	6.149
591.40	5.565
591.74	6.471
592.07	6.725
592.41	6.670
592.74	5.775
593.08	5.693
593.41	6.030
593.75	5.626
594.08	5.733
594.41	6.368
594.75	5.611
595.08	5.751
595.42	5.889
595.75	6.046
596.09	6.138
596.42	5.829
596.75	6.083
597.09	5.877
597.42	5.330
597.75	5.360
598.09	5.840
598.42	5.821
598.76	5.749
599.09	6.210
599.42	6.063
599.76	5.944
600.09	5.995
600.42	5.914
600.76	5.684
601.09	5.458
601.42	5.131
601.76	6.233
602.09	5.528
602.42	6.150
602.76	6.027
603.09	6.312
603.42	6.480
603.76	5.806
604.09	5.589
604.42	5.964
604.76	6.231
605.09	6.170
605.42	6.095
605.75	5.823
606.09	5.732
606.42	5.421
606.75	6.147
607.09	6.374
607.42	5.627
607.75	5.506
608.08	5.346
608.42	5.710
608.75	6.361
609.08	5.830
609.41	5.888
609.75	5.746
610.08	5.941
610.41	5.604
610.74	5.217
611.07	5.478
611.41	5.968
611.74	6.077
612.07	5.835
612.40	5.799
612.73	5.367
613.07	5.849
613.40	6.729
613.73	5.428
614.06	6.177
614.39	6.486
614.72	5.210
615.06	5.866
615.39	6.004
615.72	5.113
616.05	6.369
616.38	5.185
616.71	5.566
617.05	5.744
617.38	5.468
617.71	5.472
618.04	5.968
618.37	6.873
618.70	6.535
619.03	6.528
619.36	5.427
619.69	6.596
620.03	7.012
620.36	5.937
620.69	6.210
621.02	5.505
621.35	5.643
621.68	6.463
622.01	6.000
622.34	6.943
622.67	5.836
623.00	6.355
623.33	5.793
623.66	5.834
623.99	5.976
624.32	6.388
624.65	5.263
624.99	6.245
625.32	5.534
625.65	6.756
625.98	7.494
626.31	5.985
626.64	7.019
626.97	5.759
627.30	6.830
627.63	6.239
627.96	6.379
628.29	5.735
628.62	6.588
628.95	7.014
629.28	6.855
629.61	5.882
629.94	6.354
630.26	5.632
630.59	6.035
630.92	6.769
631.25	6.256
631.58	5.617
631.91	5.373
632.24	4.128
632.57	6.136
632.90	4.864
633.23	6.000
633.56	5.416
633.89	5.549
634.22	7.284
634.55	5.337
634.88	5.492
635.20	4.103
635.53	5.333
635.86	5.852
636.19	7.115
636.52	6.378
636.85	5.707
637.18	5.283
637.51	5.283
637.83	4.599
638.16	7.776
638.49	5.858
638.82	6.974
639.15	5.699
639.48	6.052
639.81	6.416
640.13	6.061
640.46	5.539
640.79	4.418
641.12	6.647
641.45	4.955
641.77	7.111
642.10	7.109
642.43	3.859
642.76	6.271
643.09	6.624
643.41	5.825
643.74	5.107
644.07	7.061
644.40	5.743
644.73	7.180
645.05	6.208
645.38	7.584
645.71	5.851
646.04	7.720
646.36	5.851
646.69	7.734
647.02	5.104
647.35	6.157
647.67	6.399
648.00	7.836
648.33	6.655
648.66	5.254
648.98	4.188
649.31	3.471
649.64	5.338
649.96	4.052
650.29	7.155
650.62	4.786
650.94	4.074
651.27	4.655
651.60	7.027
651.92	6.119
652.25	6.039
652.58	6.167
652.90	7.547
653.23	5.546
653.56	5.245
653.88	6.357
654.21	3.152
654.54	5.093
654.86	5.433
655.19	4.971
655.52	5.495
655.84	4.942
656.17	5.416
656.49	6.958
656.82	7.513
657.15	5.760
657.47	4.437
657.80	3.323
658.13	3.232
658.45	5.033
658.78	4.947
659.10	5.079
659.43	4.846
659.75	5.525
660.08	4.759
660.41	6.333
660.73	5.801
661.06	6.932
661.38	4.892
661.71	4.107
662.03	6.438
662.36	6.593
662.68	3.540
663.01	9.389
663.33	3.944
663.66	2.093
663.98	4.186
664.31	6.823
664.63	2.304
664.96	3.261
665.28	3.532
665.61	6.061
665.93	5.870
666.26	3.688
666.58	4.251
666.91	3.059
667.23	9.670
667.56	6.161
667.88	5.995
668.21	3.819
668.53	7.801
668.86	7.311
669.18	5.425
669.50	1.937
669.83	7.907
670.15	6.760
670.48	4.785
670.80	6.682
671.13	5.817
671.45	4.566
671.77	6.223
672.10	6.733
672.42	5.431
672.75	5.861
673.07	7.871
673.39	7.156
673.72	2.959
674.04	3.958
674.37	5.297
674.69	4.925
675.01	7.111
675.34	7.207
675.66	6.481
675.98	6.652
676.31	5.734
676.63	3.800
676.95	6.591
677.28	5.412
677.60	5.301
677.92	8.257
678.25	5.689
678.57	3.247
678.89	5.252
679.22	3.803
679.54	4.418
679.86	3.976
680.18	4.078
680.51	4.924
680.83	3.579
681.15	4.600
681.48	4.508
681.80	6.198
682.12	5.847
682.44	5.439
682.77	7.064
683.09	5.950
683.41	3.864
683.73	5.991
684.06	5.531
684.38	1.505
684.70	3.268
685.02	1.867
685.34	4.545
685.67	2.814
685.99	4.702
686.31	5.487
686.63	5.937
686.96	1.901
687.28	4.444
687.60	5.513
687.92	6.465
688.24	5.847
688.56	3.930
688.89	3.571
689.21	3.778
689.53	4.176
689.85	2.791
690.17	6.250
690.49	4.965
690.82	5.097
691.14	4.286
691.46	8.178
691.78	5.405
692.10	6.882
692.42	4.329
692.74	6.197
693.06	4.279
693.39	2.489
693.71	0.679
694.03	2.309
694.35	5.607
694.67	4.040
694.99	4.439
695.31	2.611
695.63	6.250
695.95	3.788
696.27	1.295
696.59	2.222
696.91	5.042
697.23	3.342
697.56	5.693
697.88	6.452
698.20	5.695
698.52	5.412
698.84	4.545
699.16	3.750
699.48	5.013
699.80	3.722
700.12	5.660
700.44	5.042
700.76	3.488
701.08	4.242
701.40	6.325
701.72	5.556
702.04	3.960
702.36	2.007
702.68	4.505
703.00	2.121
703.32	4.106
703.64	2.260
703.96	6.087
704.28	4.601
704.60	5.714
704.91	2.839
705.23	3.987
705.55	5.654
705.87	3.610
706.19	10.000
706.51	4.124
706.83	3.859
707.15	-0.312
707.47	2.521
707.79	2.344
708.11	6.250
708.43	4.500
708.74	6.202
709.06	8.451
709.38	3.058
709.70	7.396
710.02	5.414
710.34	5.573
710.66	2.244
710.98	1.656
711.29	4.590
711.61	1.017
711.93	4.235
712.25	6.873
712.57	0.733
712.89	5.597
713.20	5.190
713.52	2.787
713.84	2.048
714.16	5.155
714.48	2.258
714.80	3.846
715.11	7.599
715.43	2.821
715.75	-1.000
716.07	3.322
716.39	0.336
716.70	1.476
717.02	1.527
717.34	6.478
717.66	2.655
717.97	1.304
718.29	2.092
718.61	4.331
718.93	1.163
719.24	5.323
719.56	-0.402
719.88	6.873
720.20	1.894
720.51	-0.383
720.83	6.178
721.15	0.000
721.46	-0.403
721.78	-1.976
722.10	3.346
722.42	0.000
722.73	-0.816
723.05	6.939
723.37	8.898
723.68	5.856
724.00	-0.427
724.32	3.556
724.63	2.727
724.95	5.240
725.27	2.765
725.58	2.119
725.90	3.175
726.22	3.861
726.53	4.746
726.85	4.120
727.16	4.151
727.48	0.405
727.80	2.834
728.11	3.390
728.43	6.667
728.74	-4.032
729.06	2.400
729.38	8.647
729.69	-0.797
730.01	0.769
730.32	6.716
730.64	4.240
730.96	1.132
731.27	4.000
731.59	3.729
731.90	0.318
732.22	7.256
732.53	5.648
732.85	6.738
733.16	7.744
733.48	-0.719
733.80	-0.725
734.11	3.729
734.43	4.811
734.74	4.545
735.06	-1.303
735.37	6.647
735.69	4.714
736.00	0.000
736.32	3.020
736.63	1.408
736.95	6.143
737.26	3.203
737.58	3.691
737.89	3.297
738.21	-1.128
738.52	1.646
738.83	3.930
739.15	-0.437
739.46	7.480
739.78	1.099
740.09	6.209
740.41	2.899
740.72	0.394
741.04	8.502
741.35	2.979
741.66	-1.896
741.98	5.102
742.29	4.950
742.61	1.571
742.92	-5.687
743.23	0.000
743.55	5.430
743.86	4.785
744.18	0.000
744.49	-0.532
744.80	-2.717
745.12	5.348
745.43	3.902
745.74	2.604
746.06	0.488
746.37	0.000
746.68	5.687
747.00	2.128
747.31	10.448
747.62	-0.485
747.94	4.306
748.25	2.475
748.56	0.000
748.88	4.712
749.19	5.319
749.50	6.897
749.82	-2.830
750.13	-5.505
750.44	4.135
750.75	8.209
751.07	3.650
751.38	3.831
751.69	-0.784
752.01	3.101
752.32	-1.594
752.63	1.186
752.94	3.017
753.26	11.297
753.57	-1.357
753.88	0.885
754.19	0.000
754.51	2.066
754.82	1.619
755.13	7.083
755.44	6.048
755.75	5.859
756.07	1.167
756.38	1.887
756.69	2.299
757.00	3.333
757.31	3.922
757.63	0.305
757.94	0.833
758.25	4.110
758.56	2.660
758.87	1.133
759.18	1.869
759.50	0.000
759.81	8.361
760.12	4.516
760.43	3.939
760.74	4.321
761.05	1.231
761.36	1.420
761.67	3.030
761.99	6.463
762.30	2.909
762.61	2.767
762.92	2.262
763.23	-2.703
763.54	-3.271
763.85	2.542
764.16	2.075
764.47	2.016
764.78	1.099
765.10	7.071
765.41	3.785
765.72	3.175
766.03	-3.759
766.34	2.555
766.65	5.578
766.96	1.010
767.27	2.128
767.58	0.000
767.89	-8.511
768.20	-0.568
768.51	3.846
768.82	4.433
769.13	-0.461
769.44	2.146
769.75	0.913
770.06	6.897
770.37	0.481
770.68	2.538
770.99	3.167
771.30	5.392
771.61	-3.167
771.92	5.172
772.23	3.941
772.54	3.226
772.85	-0.617
773.16	1.685
773.47	7.190
773.78	1.307
774.09	2.994
774.39	2.000
774.70	-1.274
775.01	-2.759
775.32	3.571
775.63	-9.091
775.94	0.000
776.25	-4.724
776.56	0.000
776.87	-7.692
777.18	0.855
777.48	-0.862
777.79	-5.217
778.10	-16.190
778.41	0.000
778.72	1.587
779.03	8.271
779.34	-1.418
779.65	6.849
779.95	-4.110
780.26	7.586
780.57	-4.878
780.88	-3.150
781.19	-3.448
781.50	2.326
781.80	0.000
782.11	-1.258
782.42	-0.769
782.73	1.439
783.04	-7.407
783.34	-4.861
783.65	-12.821
783.96	-2.459
784.27	2.759
784.57	-6.504
784.88	5.469
785.19	11.000
785.50	4.000
785.81	-2.586
786.11	4.310
786.42	-6.796
786.73	8.182
787.04	-3.061
787.34	-0.893
787.65	-15.238
787.96	-7.965
788.26	7.273
788.57	-2.564
788.88	10.156
789.19	1.587
789.49	-0.870
789.80	-5.102
790.11	-1.010
790.41	4.545
790.72	3.261
791.03	6.818
791.33	8.750
791.64	6.250
791.95	2.326
792.25	9.574
792.56	17.978
792.87	-8.219
793.17	8.696
793.48	-9.333
793.79	-5.000
794.09	1.250
794.40	-0.943
794.70	-4.854
795.01	-4.878
795.32	-14.530
795.62	-2.857
795.93	0.980
796.23	6.604
796.54	-6.250
796.85	-4.412
797.15	-16.901
797.46	-1.389
797.76	-1.515
798.07	4.651
798.37	-18.421
798.68	0.000
798.99	4.938
799.29	5.714
799.60	8.696
799.90	12.000
800.21	-6.557
800.51	-6.154
800.82	-3.390
801.12	11.594
801.43	-13.115
801.73	0.000
802.04	-8.000
802.34	2.985
802.65	-1.923
802.95	-17.857
803.26	-9.615
803.56	-13.725
803.87	-34.783
804.17	-5.333
804.48	14.286
804.78	-1.852
805.09	-10.870
805.39	-37.778
805.70	-1.852
806.00	-21.053
806.30	-9.859
806.61	7.143
806.91	-15.278
807.22	6.579
807.52	10.667
807.83	-1.818
808.13	-2.778
808.43	5.882
808.74	-1.493
809.04	-16.949
809.35	-30.769
809.65	-6.250
809.95	-43.243
810.26	-45.455
810.56	-4.110
810.86	-28.571
811.17	-18.000
811.47	6.122
811.77	-5.263
812.08	-2.273
812.38	0.000
812.69	-12.500
812.99	-15.152
813.29	28.947
813.59	-45.714
813.90	-4.545
814.20	-48.718
814.50	-1.923
814.81	0.000
815.11	-27.660
815.41	10.169
815.72	-11.905
816.02	-1.961
816.32	0.000
816.62	-29.268
816.93	-2.703
817.23	-37.143
817.53	20.833
817.84	-19.565
818.14	13.462
818.44	-28.947
818.74	-13.043
819.04	-40.000
819.35	10.811
819.65	-26.471
819.95	-8.333
820.25	0.000
820.56	22.500
820.86	-79.310
821.16	10.000
821.46	-2.128
821.76	-5.000
822.07	0.000
822.37	-48.649
822.67	-25.000
822.97	9.524
823.27	-64.286
823.57	-36.000
823.88	-29.630
824.18	-3.571
824.48	-2.941
824.78	-6.452
825.08	-47.826
825.38	-6.061
825.69	-62.500
825.99	0.000
826.29	-11.111
826.59	-86.667
826.89	-28.571
827.19	0.000
827.49	-15.000
827.79	-14.286
828.09	-25.000
828.39	-3.030
828.70	24.324
829.00	-35.714
829.30	-4.762
829.60	0.000
829.90	-18.750
830.20	-28.947
830.50	-59.259
830.80	-13.043
831.10	0.000
831.40	12.121
831.70	-29.032
832.00	9.524
832.30	-80.952
832.60	-33.333
832.90	-3.448
833.20	-50.000
833.50	21.212
833.80	0.000
834.10	-34.615
834.40	0.000
834.70	-133.333
835.00	-73.684
835.30	23.077
835.60	-40.000
835.90	-6.452
836.20	18.182
836.50	-14.286
836.80	-92.308
837.10	0.000
837.40	-333.333
837.70	-18.182
838.00	-145.455
838.30	-17.391
838.60	-123.077
838.90	4.545
839.19	-10.714
839.49	13.333
839.79	-84.615
840.09	-100.000
840.39	28.571
840.69	-28.571
840.99	-30.769
841.29	-47.368
841.59	-170.000
841.88	-72.727
842.18	-80.000
842.48	-31.250
842.78	-46.667
843.08	3.704
843.38	-90.000
843.68	-30.435
843.97	-20.000
844.27	-53.333
844.57	-30.000
844.87	-27.778
845.17	-38.095
845.47	-6.667
845.76	4.762
846.06	-5.882
846.36	-50.000
846.66	-121.429
846.96	-33.333
847.25	-187.500
847.55	21.429
847.85	-87.500
848.15	-45.455
848.44	-466.667
848.74	15.000
849.04	-3.704
849.34	-36.364
849.63	-250.000
849.93	-280.000
850.23	-44.444
850.53	40.000
850.82	-30.769
851.12	-166.667
851.42	-20.000
851.71	-15.385
852.01	-42.857
852.31	25.000
852.61	-100.000
852.90	-15.000
853.20	-42.105
853.50	-66.667
853.79	17.391
854.09	0.000
854.39	-47.368
854.68	-8.333
854.98	-25.806
855.28	-7.692
855.57	-25.000
855.87	-55.556
856.17	40.741
856.46	0.000
856.76	-86.667
857.05	-55.556
857.35	-4.000
857.65	-77.778
857.94	-76.923
858.24	-20.690
858.53	-33.333
858.83	-25.926
859.13	0.000
859.42	-30.435
859.72	-300.000
860.01	-400.000
860.31	8.000
860.60	-23.810
860.90	-433.333
861.20	-80.000
861.49	-1000.000
861.79	-53.333
862.08	-25.000
862.38	26.667
862.67	-280.000
862.97	-283.333
863.26	-41.667
863.56	-16.667
863.85	-800.000
864.15	16.667
864.44	-40.000
864.74	-35.714
865.03	250.000
865.33	-280.000
865.62	33.333
865.92	-133.333
866.21	-233.333
866.51	-12.500
866.80	-27.273
867.10	-950.000
867.39	16.667
867.69	0.000
867.98	-123.077
868.27	-333.333
868.57	-113.333
868.86	-11.111
869.16	-69.231
869.45	20.000
869.75	-1700.000
870.04	0.000
870.33	-157.143
870.63	-19.048
870.92	366.667
871.22	-200.000
871.51	-100.000
871.80	-33.333
872.10	700.000
>>>>>End Processed Spectral Data<<<<<
