SpectraSuite Data File
++++++++++++++++++++++++++++++++++++
Date: Fri May 15 20:39:37 PDT 2015
User: schluterlab
Dark Spectrum Present: Yes
Reference Spectrum Present: Yes
Number of Sampled Component Spectra: 1
Spectrometers: USB2E3373
Integration Time (usec): 3000 (USB2E3373)
Spectra Averaged: 3 (USB2E3373)
Boxcar Smoothing: 0 (USB2E3373)
Correct for Electrical Dark: No (USB2E3373)
Strobe/Lamp Enabled: No (USB2E3373)
Correct for Detector Non-linearity: No (USB2E3373)
Correct for Stray Light: No (USB2E3373)
Number of Pixels in Processed Spectrum: 2048
>>>>>Begin Processed Spectral Data<<<<<
178.53	0.000
178.91	0.000
179.29	-37.500
179.67	-350.000
180.04	-0.000
180.42	-125.000
180.80	100.000
181.18	-0.000
181.56	350.000
181.94	150.000
182.31	500.000
182.69	-20.000
183.07	-400.000
183.45	-160.000
183.83	200.000
184.20	27.273
184.58	22.222
184.96	-0.000
185.34	466.667
185.72	-450.000
186.09	84.615
186.47	-1200.000
186.85	-16.667
187.23	77.778
187.61	100.000
187.98	-266.667
188.36	-22.222
188.74	-100.000
189.12	35.294
189.49	50.000
189.87	0.000
190.25	50.000
190.63	-150.000
191.00	-600.000
191.38	-63.158
191.76	-50.000
192.14	175.000
192.51	150.000
192.89	-111.111
193.27	-71.429
193.65	166.667
194.02	100.000
194.40	-90.000
194.78	-212.500
195.15	-33.333
195.53	-125.000
195.91	350.000
196.29	-75.000
196.66	30.769
197.04	214.286
197.42	-77.778
197.79	-433.333
198.17	-169.231
198.55	1100.000
198.92	-233.333
199.30	-400.000
199.68	-80.000
200.05	-633.333
200.43	0.000
200.81	-166.667
201.18	-233.333
201.56	1000.000
201.94	-200.000
202.31	466.667
202.69	-120.000
203.07	25.000
203.44	700.000
203.82	0.000
204.19	-7.143
204.57	-600.000
204.95	87.500
205.32	-70.000
205.70	14.286
206.08	-25.000
206.45	144.444
206.83	14.286
207.20	-71.429
207.58	500.000
207.96	66.667
208.33	0.000
208.71	-50.000
209.08	-350.000
209.46	-500.000
209.84	-80.000
210.21	-1000.000
210.59	-71.429
210.96	83.333
211.34	0.000
211.71	53.333
212.09	-228.571
212.46	-1800.000
212.84	0.000
213.22	70.000
213.59	100.000
213.97	76.923
214.34	-45.455
214.72	-133.333
215.09	375.000
215.47	23.077
215.84	18.182
216.22	-300.000
216.59	37.500
216.97	-50.000
217.34	-75.000
217.72	-300.000
218.09	37.500
218.47	175.000
218.84	-1200.000
219.22	-100.000
219.59	-140.000
219.97	300.000
220.34	475.000
220.72	-171.429
221.09	-100.000
221.47	0.000
221.84	-950.000
222.22	-800.000
222.59	-18.182
222.97	75.000
223.34	-400.000
223.72	-57.143
224.09	28.571
224.46	7.143
224.84	566.667
225.21	-40.000
225.59	13.333
225.96	-450.000
226.34	150.000
226.71	-214.286
227.08	-16.667
227.46	-62.500
227.83	-400.000
228.21	11.111
228.58	63.636
228.95	-75.000
229.33	80.000
229.70	-6.250
230.08	-37.500
230.45	-128.571
230.82	14.286
231.20	-46.667
231.57	-7.143
231.95	-28.571
232.32	-80.000
232.69	7.143
233.07	-100.000
233.44	-80.000
233.81	-90.000
234.19	-11.111
234.56	5.882
234.93	550.000
235.31	-100.000
235.68	-140.000
236.05	-46.154
236.43	-25.000
236.80	23.529
237.17	37.500
237.55	-65.000
237.92	-25.926
238.29	-5.556
238.67	0.000
239.04	5.882
239.41	-31.707
239.79	-3.333
240.16	2.439
240.53	-7.895
240.91	4.348
241.28	11.111
241.65	7.143
242.02	13.699
242.40	-1.667
242.77	-1.695
243.14	-7.576
243.51	7.500
243.89	16.092
244.26	0.000
244.63	-1.190
245.00	10.309
245.38	4.124
245.75	-4.494
246.12	-5.172
246.49	6.612
246.87	4.808
247.24	0.840
247.61	-1.754
247.98	7.317
248.36	1.250
248.73	9.868
249.10	2.597
249.47	3.797
249.84	-1.961
250.22	-3.529
250.59	1.307
250.96	7.512
251.33	-4.070
251.70	1.176
252.08	3.553
252.45	3.960
252.82	-3.518
253.19	7.834
253.56	-0.467
253.94	4.054
254.31	5.652
254.68	2.193
255.05	2.756
255.42	6.114
255.79	3.861
256.16	7.004
256.54	7.463
256.91	2.662
257.28	4.833
257.65	7.116
258.02	1.418
258.39	6.061
258.76	10.256
259.14	3.654
259.51	3.560
259.88	3.436
260.25	4.575
260.62	2.778
260.99	-0.339
261.36	1.027
261.73	3.165
262.10	5.167
262.47	2.761
262.85	2.194
263.22	7.077
263.59	4.050
263.96	6.522
264.33	3.939
264.70	5.655
265.07	3.571
265.44	6.232
265.81	5.650
266.18	5.464
266.55	7.198
266.92	7.772
267.29	5.222
267.66	3.069
268.03	3.665
268.40	4.700
268.77	9.893
269.14	5.276
269.51	6.427
269.88	3.990
270.25	4.592
270.62	3.902
270.99	1.023
271.36	4.401
271.73	6.103
272.10	6.083
272.47	5.201
272.84	4.208
273.21	7.425
273.58	3.855
273.95	6.178
274.32	4.619
274.69	1.584
275.06	5.580
275.43	3.628
275.80	4.857
276.17	2.069
276.54	4.925
276.91	5.702
277.28	2.183
277.65	7.231
278.02	6.809
278.39	3.282
278.76	3.145
279.13	3.320
279.50	4.622
279.87	6.263
280.23	4.086
280.60	6.238
280.97	5.051
281.34	5.769
281.71	7.598
282.08	5.726
282.45	4.501
282.82	4.633
283.19	4.642
283.56	4.817
283.92	4.364
284.29	4.038
284.66	5.233
285.03	5.697
285.40	6.238
285.77	2.988
286.14	4.332
286.51	6.089
286.87	5.302
287.24	4.788
287.61	3.880
287.98	7.018
288.35	3.813
288.72	5.779
289.08	2.604
289.45	5.624
289.82	4.720
290.19	3.584
290.56	2.573
290.93	3.367
291.29	4.931
291.66	6.772
292.03	3.190
292.40	6.129
292.77	5.582
293.13	1.786
293.50	2.883
293.87	3.359
294.24	4.328
294.60	3.428
294.97	5.804
295.34	4.448
295.71	4.322
296.08	2.990
296.44	4.125
296.81	3.056
297.18	3.913
297.55	6.640
297.91	4.521
298.28	4.354
298.65	3.121
299.02	4.178
299.38	2.462
299.75	4.000
300.12	3.927
300.48	4.348
300.85	4.689
301.22	3.896
301.59	3.026
301.95	5.823
302.32	6.096
302.69	3.856
303.05	3.218
303.42	3.362
303.79	3.738
304.15	4.301
304.52	2.854
304.89	3.275
305.25	2.785
305.62	3.151
305.99	4.211
306.35	3.699
306.72	2.475
307.09	4.219
307.45	3.330
307.82	3.588
308.19	4.065
308.55	3.162
308.92	4.248
309.29	3.240
309.65	3.660
310.02	3.630
310.38	5.598
310.75	5.137
311.12	3.660
311.48	3.606
311.85	4.712
312.22	3.165
312.58	4.671
312.95	3.415
313.31	3.106
313.68	3.770
314.05	2.959
314.41	5.670
314.78	3.814
315.14	5.344
315.51	5.072
315.87	4.713
316.24	6.168
316.61	5.217
316.97	6.845
317.34	5.176
317.70	5.545
318.07	6.346
318.43	5.784
318.80	5.587
319.16	7.520
319.53	7.407
319.89	7.972
320.26	7.287
320.62	8.425
320.99	7.411
321.35	8.325
321.72	10.592
322.08	8.862
322.45	9.442
322.81	9.725
323.18	10.010
323.54	10.232
323.91	11.490
324.27	10.547
324.64	13.390
325.00	13.047
325.37	13.682
325.73	13.055
326.10	13.624
326.46	14.081
326.83	14.611
327.19	15.519
327.56	15.899
327.92	16.021
328.29	16.696
328.65	17.642
329.01	18.107
329.38	19.631
329.74	17.469
330.11	19.092
330.47	18.924
330.84	19.135
331.20	21.198
331.56	19.722
331.93	21.461
332.29	21.173
332.66	22.172
333.02	21.004
333.38	20.532
333.75	21.886
334.11	21.038
334.48	21.940
334.84	21.978
335.20	22.415
335.57	21.487
335.93	23.035
336.29	22.560
336.66	21.980
337.02	20.818
337.38	22.037
337.75	22.455
338.11	22.092
338.47	24.088
338.84	23.475
339.20	23.218
339.56	23.303
339.93	24.261
340.29	23.578
340.65	23.387
341.02	23.670
341.38	23.540
341.74	22.792
342.11	22.964
342.47	24.199
342.83	25.173
343.20	23.780
343.56	23.478
343.92	23.295
344.28	24.424
344.65	24.439
345.01	23.855
345.37	23.886
345.73	24.100
346.10	24.245
346.46	23.465
346.82	23.650
347.19	23.026
347.55	23.810
347.91	24.676
348.27	24.576
348.63	23.680
349.00	24.938
349.36	24.106
349.72	25.041
350.08	25.820
350.45	25.379
350.81	24.086
351.17	23.697
351.53	25.469
351.89	23.699
352.26	24.960
352.62	25.323
352.98	24.418
353.34	24.557
353.70	25.971
354.07	23.871
354.43	24.420
354.79	25.186
355.15	25.397
355.51	26.266
355.87	25.971
356.24	25.041
356.60	25.627
356.96	25.952
357.32	24.201
357.68	24.785
358.04	26.252
358.40	26.206
358.77	26.954
359.13	25.941
359.49	25.886
359.85	26.131
360.21	26.396
360.57	26.702
360.93	26.853
361.29	26.360
361.66	26.411
362.02	27.348
362.38	27.190
362.74	27.403
363.10	27.088
363.46	28.021
363.82	29.452
364.18	26.790
364.54	27.500
364.90	28.602
365.26	26.710
365.62	28.686
365.98	28.592
366.35	28.696
366.71	29.194
367.07	29.173
367.43	27.462
367.79	29.329
368.15	27.782
368.51	29.060
368.87	28.571
369.23	29.242
369.59	29.082
369.95	29.619
370.31	29.480
370.67	29.104
371.03	28.902
371.39	28.884
371.75	29.524
372.11	30.100
372.47	30.695
372.83	29.666
373.19	29.601
373.55	29.819
373.91	30.094
374.27	30.687
374.63	30.940
374.99	30.071
375.35	30.641
375.71	31.748
376.07	31.110
376.42	30.748
376.78	30.738
377.14	29.248
377.50	30.412
377.86	30.187
378.22	30.440
378.58	30.449
378.94	29.742
379.30	30.443
379.66	30.345
380.02	29.982
380.38	30.371
380.74	29.862
381.09	31.166
381.45	30.826
381.81	30.722
382.17	31.409
382.53	30.418
382.89	30.760
383.25	31.923
383.61	30.610
383.97	30.921
384.32	31.895
384.68	31.084
385.04	31.373
385.40	30.616
385.76	31.950
386.12	30.918
386.48	31.673
386.83	31.769
387.19	32.845
387.55	31.807
387.91	31.235
388.27	31.929
388.62	31.781
388.98	30.510
389.34	30.731
389.70	32.132
390.06	30.963
390.42	32.124
390.77	31.982
391.13	31.589
391.49	31.436
391.85	31.644
392.20	30.257
392.56	30.896
392.92	30.945
393.28	30.955
393.64	30.270
393.99	31.912
394.35	31.120
394.71	31.545
395.07	31.175
395.42	30.844
395.78	30.879
396.14	30.769
396.50	31.896
396.85	30.844
397.21	31.704
397.57	31.097
397.92	31.037
398.28	30.690
398.64	29.518
399.00	31.151
399.35	30.361
399.71	29.983
400.07	30.653
400.42	30.110
400.78	30.863
401.14	30.188
401.49	30.792
401.85	29.433
402.21	30.120
402.57	29.750
402.92	30.113
403.28	30.639
403.63	30.391
403.99	30.166
404.35	30.543
404.70	28.452
405.06	28.731
405.42	30.019
405.77	27.368
406.13	29.045
406.49	28.893
406.84	29.218
407.20	29.440
407.55	29.363
407.91	28.944
408.27	29.127
408.62	29.231
408.98	28.158
409.34	28.377
409.69	28.230
410.05	28.448
410.40	29.012
410.76	28.227
411.11	28.813
411.47	29.586
411.83	28.311
412.18	28.764
412.54	27.840
412.89	27.155
413.25	28.761
413.60	28.385
413.96	26.871
414.31	28.902
414.67	27.774
415.03	28.096
415.38	27.937
415.74	29.316
416.09	29.001
416.45	28.832
416.80	28.685
417.16	28.315
417.51	28.115
417.87	28.422
418.22	29.598
418.58	27.358
418.93	29.216
419.29	27.337
419.64	28.775
420.00	29.471
420.35	27.940
420.71	28.858
421.06	28.422
421.42	28.666
421.77	28.671
422.12	28.774
422.48	27.937
422.83	27.784
423.19	28.555
423.54	27.513
423.90	28.151
424.25	28.990
424.61	29.437
424.96	28.165
425.31	29.058
425.67	29.225
426.02	30.212
426.38	29.681
426.73	29.782
427.09	30.443
427.44	29.941
427.79	29.994
428.15	29.005
428.50	28.649
428.85	30.344
429.21	29.768
429.56	29.650
429.92	29.481
430.27	28.321
430.62	29.012
430.98	29.034
431.33	30.862
431.68	29.252
432.04	29.849
432.39	29.378
432.74	29.104
433.10	30.690
433.45	30.048
433.80	29.890
434.16	29.584
434.51	30.376
434.86	29.791
435.22	30.342
435.57	30.692
435.92	30.719
436.28	30.173
436.63	30.234
436.98	29.896
437.34	31.337
437.69	31.067
438.04	30.427
438.39	29.994
438.75	32.301
439.10	31.013
439.45	32.075
439.81	31.621
440.16	31.948
440.51	31.761
440.86	33.353
441.22	31.278
441.57	32.671
441.92	32.529
442.27	33.315
442.63	32.923
442.98	31.993
443.33	32.554
443.68	32.573
444.03	33.631
444.39	32.366
444.74	34.002
445.09	33.018
445.44	32.991
445.79	34.399
446.15	32.930
446.50	33.333
446.85	34.431
447.20	33.837
447.55	34.208
447.91	33.785
448.26	33.751
448.61	34.715
448.96	34.538
449.31	33.988
449.66	34.785
450.02	35.254
450.37	34.736
450.72	34.536
451.07	34.557
451.42	34.020
451.77	34.840
452.12	34.629
452.47	33.484
452.83	35.041
453.18	35.104
453.53	34.513
453.88	36.308
454.23	34.911
454.58	35.768
454.93	35.696
455.28	34.667
455.63	34.904
455.98	35.358
456.34	35.377
456.69	35.705
457.04	36.043
457.39	34.872
457.74	35.127
458.09	34.079
458.44	34.114
458.79	34.566
459.14	36.270
459.49	35.761
459.84	34.969
460.19	34.891
460.54	35.086
460.89	34.830
461.24	35.590
461.59	35.333
461.94	34.277
462.29	36.007
462.64	36.611
462.99	36.019
463.34	35.049
463.69	35.586
464.04	35.109
464.39	34.991
464.74	35.215
465.09	35.246
465.44	34.968
465.79	34.410
466.14	34.036
466.49	34.503
466.84	35.455
467.19	35.670
467.54	35.504
467.89	35.502
468.24	35.036
468.59	35.873
468.94	35.492
469.29	36.197
469.64	35.338
469.99	37.141
470.34	35.085
470.68	35.794
471.03	34.820
471.38	36.519
471.73	35.574
472.08	35.346
472.43	34.899
472.78	34.407
473.13	36.599
473.48	36.352
473.83	35.679
474.17	36.205
474.52	35.929
474.87	35.212
475.22	35.204
475.57	35.404
475.92	36.314
476.27	36.147
476.61	35.359
476.96	34.300
477.31	34.776
477.66	36.067
478.01	35.373
478.36	35.675
478.70	36.270
479.05	35.495
479.40	35.718
479.75	35.036
480.10	35.689
480.45	35.600
480.79	36.052
481.14	35.400
481.49	35.567
481.84	36.004
482.19	34.565
482.53	35.827
482.88	35.656
483.23	36.036
483.58	35.236
483.92	34.560
484.27	33.546
484.62	34.424
484.97	33.789
485.31	34.357
485.66	32.483
486.01	32.469
486.36	32.783
486.70	32.865
487.05	33.616
487.40	33.635
487.75	33.831
488.09	34.456
488.44	34.663
488.79	34.516
489.13	35.136
489.48	34.416
489.83	35.112
490.17	34.966
490.52	34.550
490.87	34.614
491.22	34.766
491.56	34.867
491.91	34.369
492.26	36.315
492.60	34.597
492.95	35.416
493.30	34.245
493.64	35.265
493.99	35.604
494.34	34.709
494.68	34.762
495.03	34.307
495.37	34.544
495.72	35.083
496.07	35.463
496.41	33.915
496.76	34.823
497.11	33.908
497.45	34.368
497.80	35.217
498.14	34.625
498.49	34.535
498.84	34.032
499.18	35.040
499.53	34.573
499.87	34.436
500.22	34.372
500.56	34.644
500.91	34.488
501.26	34.207
501.60	35.268
501.95	34.158
502.29	34.528
502.64	34.653
502.98	34.731
503.33	34.678
503.67	34.458
504.02	33.822
504.36	34.339
504.71	34.596
505.06	34.373
505.40	35.330
505.75	34.021
506.09	33.806
506.44	34.240
506.78	34.796
507.13	34.747
507.47	34.099
507.82	35.310
508.16	34.073
508.51	36.149
508.85	34.746
509.19	34.220
509.54	35.013
509.88	34.898
510.23	35.718
510.57	35.382
510.92	33.795
511.26	35.406
511.61	35.809
511.95	35.726
512.30	35.366
512.64	36.728
512.98	36.833
513.33	36.542
513.67	36.669
514.02	37.586
514.36	37.143
514.70	38.287
515.05	37.485
515.39	36.128
515.74	37.725
516.08	38.852
516.42	37.809
516.77	38.385
517.11	38.220
517.46	38.121
517.80	37.366
518.14	38.028
518.49	37.981
518.83	38.214
519.17	36.871
519.52	38.129
519.86	38.415
520.20	38.639
520.55	38.899
520.89	38.708
521.23	38.695
521.58	39.117
521.92	38.141
522.26	39.232
522.61	39.416
522.95	39.801
523.29	38.374
523.64	39.962
523.98	40.376
524.32	38.402
524.66	39.757
525.01	40.779
525.35	39.080
525.69	40.202
526.04	39.286
526.38	41.829
526.72	38.980
527.06	39.364
527.41	40.172
527.75	39.276
528.09	39.801
528.43	41.661
528.78	40.264
529.12	40.000
529.46	40.481
529.80	40.975
530.15	41.386
530.49	41.279
530.83	41.929
531.17	39.825
531.51	42.955
531.86	40.245
532.20	40.640
532.54	40.844
532.88	41.615
533.22	40.121
533.57	39.122
533.91	40.405
534.25	40.755
534.59	39.641
534.93	38.767
535.27	39.848
535.62	39.987
535.96	40.639
536.30	39.314
536.64	40.731
536.98	40.418
537.32	42.105
537.66	41.374
538.01	40.769
538.35	41.262
538.69	40.879
539.03	40.055
539.37	39.973
539.71	40.082
540.05	39.919
540.39	41.759
540.73	40.028
541.07	40.262
541.42	41.465
541.76	40.743
542.10	39.849
542.44	39.958
542.78	38.334
543.12	39.766
543.46	40.612
543.80	40.250
544.14	37.517
544.48	39.374
544.82	39.850
545.16	40.710
545.50	39.586
545.84	41.360
546.18	40.638
546.52	39.726
546.86	39.827
547.20	39.986
547.54	40.283
547.88	39.198
548.22	37.607
548.56	39.314
548.90	40.431
549.24	38.981
549.58	37.588
549.92	39.242
550.26	39.194
550.60	41.413
550.94	39.881
551.28	39.645
551.62	41.077
551.96	40.451
552.30	40.278
552.64	38.575
552.98	39.451
553.32	38.231
553.66	38.316
554.00	40.073
554.34	40.325
554.68	38.717
555.02	40.104
555.36	39.417
555.69	38.755
556.03	38.687
556.37	38.648
556.71	40.505
557.05	40.194
557.39	38.810
557.73	39.955
558.07	40.422
558.41	39.587
558.75	40.452
559.08	40.347
559.42	40.159
559.76	39.472
560.10	38.991
560.44	37.156
560.78	39.371
561.12	39.140
561.45	39.916
561.79	38.445
562.13	39.035
562.47	38.561
562.81	37.032
563.15	38.293
563.48	38.472
563.82	39.190
564.16	38.579
564.50	36.892
564.84	36.948
565.17	37.022
565.51	38.866
565.85	38.272
566.19	37.997
566.52	38.070
566.86	37.725
567.20	36.675
567.54	37.226
567.88	37.434
568.21	37.783
568.55	36.250
568.89	36.448
569.23	35.002
569.56	35.026
569.90	34.754
570.24	33.383
570.57	34.327
570.91	33.879
571.25	32.983
571.59	32.607
571.92	31.881
572.26	32.911
572.60	32.062
572.93	32.068
573.27	32.445
573.61	32.518
573.95	32.141
574.28	31.409
574.62	31.223
574.96	30.890
575.29	31.196
575.63	30.707
575.97	30.279
576.30	30.841
576.64	30.358
576.98	31.557
577.31	30.892
577.65	31.170
577.98	30.241
578.32	30.365
578.66	29.809
578.99	30.580
579.33	30.577
579.67	30.532
580.00	30.000
580.34	30.647
580.67	30.415
581.01	30.476
581.35	29.823
581.68	29.561
582.02	29.602
582.35	29.786
582.69	29.879
583.02	30.122
583.36	30.494
583.70	30.867
584.03	31.081
584.37	31.903
584.70	31.181
585.04	29.974
585.37	30.639
585.71	30.659
586.04	30.383
586.38	30.381
586.72	30.732
587.05	30.936
587.39	31.395
587.72	31.575
588.06	30.556
588.39	31.045
588.73	30.739
589.06	31.474
589.40	31.697
589.73	31.289
590.07	31.986
590.40	32.392
590.73	32.208
591.07	31.595
591.40	32.191
591.74	32.127
592.07	32.792
592.41	32.200
592.74	31.581
593.08	30.353
593.41	30.577
593.75	30.389
594.08	29.969
594.41	31.077
594.75	30.992
595.08	30.723
595.42	30.880
595.75	30.454
596.09	31.353
596.42	32.038
596.75	31.927
597.09	31.982
597.42	31.752
597.75	31.379
598.09	31.689
598.42	30.957
598.76	30.716
599.09	30.889
599.42	30.315
599.76	29.797
600.09	30.354
600.42	30.174
600.76	29.941
601.09	30.229
601.42	30.082
601.76	30.488
602.09	30.363
602.42	31.466
602.76	30.645
603.09	30.565
603.42	31.062
603.76	30.121
604.09	29.688
604.42	30.838
604.76	31.108
605.09	30.804
605.42	30.609
605.75	30.867
606.09	30.573
606.42	29.733
606.75	30.346
607.09	30.374
607.42	29.553
607.75	29.396
608.08	29.560
608.42	29.466
608.75	31.084
609.08	30.842
609.41	31.168
609.75	30.393
610.08	31.802
610.41	30.097
610.74	30.180
611.07	31.421
611.41	31.759
611.74	31.610
612.07	29.604
612.40	31.729
612.73	31.130
613.07	31.046
613.40	30.635
613.73	30.834
614.06	30.440
614.39	30.908
614.72	30.700
615.06	30.279
615.39	30.841
615.72	30.678
616.05	31.061
616.38	30.142
616.71	31.376
617.05	31.377
617.38	31.930
617.71	31.258
618.04	32.635
618.37	31.463
618.70	31.155
619.03	31.875
619.36	32.562
619.69	32.752
620.03	33.528
620.36	32.546
620.69	31.549
621.02	31.651
621.35	32.780
621.68	33.078
622.01	33.500
622.34	32.482
622.67	32.729
623.00	32.695
623.33	31.098
623.66	31.788
623.99	31.392
624.32	33.004
624.65	30.977
624.99	31.753
625.32	29.871
625.65	31.422
625.98	32.313
626.31	31.505
626.64	34.575
626.97	33.508
627.30	33.187
627.63	33.016
627.96	32.794
628.29	34.043
628.62	34.022
628.95	33.567
629.28	34.476
629.61	32.702
629.94	34.018
630.26	32.609
630.59	36.212
630.92	33.538
631.25	32.718
631.58	35.463
631.91	33.662
632.24	34.977
632.57	35.000
632.90	33.689
633.23	35.412
633.56	36.398
633.89	33.662
634.22	37.160
634.55	34.562
634.88	35.377
635.20	35.769
635.53	36.933
635.86	35.111
636.19	37.257
636.52	34.694
636.85	34.864
637.18	31.950
637.51	35.597
637.83	33.903
638.16	35.880
638.49	33.651
638.82	35.789
639.15	36.228
639.48	35.351
639.81	36.960
640.13	34.632
640.46	35.277
640.79	34.610
641.12	36.337
641.45	34.985
641.77	36.000
642.10	39.336
642.43	34.566
642.76	35.149
643.09	36.026
643.41	35.761
643.74	35.255
644.07	38.752
644.40	37.331
644.73	35.902
645.05	33.893
645.38	34.039
645.71	37.766
646.04	36.804
646.36	35.284
646.69	36.691
647.02	38.941
647.35	35.821
647.67	37.660
648.00	37.873
648.33	37.884
648.66	36.610
648.98	33.333
649.31	34.215
649.64	35.479
649.96	34.198
650.29	35.775
650.62	35.214
650.94	36.852
651.27	34.078
651.60	33.694
651.92	33.741
652.25	34.813
652.58	36.167
652.90	35.506
653.23	32.773
653.56	34.518
653.88	33.849
654.21	30.298
654.54	33.786
654.86	35.484
655.19	31.433
655.52	29.489
655.84	22.679
656.17	24.934
656.49	33.143
656.82	34.634
657.15	26.736
657.47	20.399
657.80	15.193
658.13	15.051
658.45	23.811
658.78	24.083
659.10	24.158
659.43	24.919
659.75	26.295
660.08	26.828
660.41	28.907
660.73	31.215
661.06	33.795
661.38	33.268
661.71	32.033
662.03	36.481
662.36	37.582
662.68	32.965
663.01	35.153
663.33	35.963
663.66	36.512
663.98	33.721
664.31	33.689
664.63	33.410
664.96	31.957
665.28	33.113
665.61	35.714
665.93	34.348
666.26	35.358
666.58	33.557
666.91	35.765
667.23	36.085
667.56	37.441
667.88	37.410
668.21	36.993
668.53	37.825
668.86	36.557
669.18	33.019
669.50	35.593
669.83	32.093
670.15	35.431
670.48	34.450
670.80	35.714
671.13	32.886
671.45	33.562
671.77	35.408
672.10	32.871
672.42	32.022
672.75	33.570
673.07	34.168
673.39	31.009
673.72	28.600
674.04	33.333
674.37	31.356
674.69	31.049
675.01	33.556
675.34	31.757
675.66	35.417
675.98	34.146
676.31	33.945
676.63	36.817
676.95	32.955
677.28	35.765
677.60	32.530
677.92	32.339
678.25	33.260
678.57	32.251
678.89	30.462
679.22	34.228
679.54	31.526
679.86	30.616
680.18	33.010
680.51	29.735
680.83	27.435
681.15	32.000
681.48	31.352
681.80	31.198
682.12	30.847
682.44	30.335
682.77	33.554
683.09	32.723
683.41	33.864
683.73	30.415
684.06	34.071
684.38	27.527
684.70	31.155
685.02	29.461
685.34	28.063
685.67	29.081
685.99	31.826
686.31	29.912
686.63	29.128
686.96	27.186
687.28	27.475
687.60	25.856
687.92	29.899
688.24	31.048
688.56	28.821
688.89	31.920
689.21	32.889
689.53	32.715
689.85	30.000
690.17	29.241
690.49	30.496
690.82	29.854
691.14	25.714
691.46	29.907
691.78	29.955
692.10	28.172
692.42	29.437
692.74	30.983
693.06	28.153
693.39	29.412
693.71	26.471
694.03	33.718
694.35	28.738
694.67	30.808
694.99	29.243
695.31	33.943
695.63	30.000
695.95	24.242
696.27	28.497
696.59	33.056
696.91	31.092
697.23	28.021
697.56	30.198
697.88	28.602
698.20	27.790
698.52	26.588
698.84	26.316
699.16	27.000
699.48	27.068
699.80	27.295
700.12	28.032
700.44	31.092
700.76	27.616
701.08	25.758
701.40	30.120
701.72	35.185
702.04	27.723
702.36	31.438
702.68	29.429
703.00	29.091
703.32	26.979
703.64	26.554
703.96	29.855
704.28	28.221
704.60	29.524
704.91	30.599
705.23	32.558
705.55	32.509
705.87	32.130
706.19	34.074
706.51	31.271
706.83	33.441
707.15	28.660
707.47	26.891
707.79	25.781
708.11	28.000
708.43	26.500
708.74	28.424
709.06	30.704
709.38	30.887
709.70	29.290
710.02	30.892
710.34	31.579
710.66	28.205
710.98	25.166
711.29	31.475
711.61	29.831
711.93	27.687
712.25	33.333
712.57	32.601
712.89	24.254
713.20	31.834
713.52	27.526
713.84	31.058
714.16	28.179
714.48	29.032
714.80	28.846
715.11	28.267
715.43	22.257
715.75	27.000
716.07	28.904
716.39	26.846
716.70	24.354
717.02	24.809
717.34	27.935
717.66	28.761
717.97	27.826
718.29	26.360
718.61	30.315
718.93	25.581
719.24	31.179
719.56	26.908
719.88	31.271
720.20	34.091
720.51	23.755
720.83	32.046
721.15	31.933
721.46	27.823
721.78	21.739
722.10	23.420
722.42	20.747
722.73	27.347
723.05	33.878
723.37	30.508
723.68	35.586
724.00	32.051
724.32	24.444
724.63	29.091
724.95	29.694
725.27	30.876
725.58	30.508
725.90	26.984
726.22	25.097
726.53	31.525
726.85	26.966
727.16	28.302
727.48	21.053
727.80	26.721
728.11	24.153
728.43	26.275
728.74	22.177
729.06	27.200
729.38	29.323
729.69	29.880
730.01	20.769
730.32	27.239
730.64	22.615
730.96	30.943
731.27	26.667
731.59	22.373
731.90	23.567
732.22	28.707
732.53	26.910
732.85	27.305
733.16	29.630
733.48	20.863
733.80	23.551
734.11	22.712
734.43	25.773
734.74	25.455
735.06	22.801
735.37	23.867
735.69	23.906
736.00	24.739
736.32	25.168
736.63	25.704
736.95	26.962
737.26	20.996
737.58	21.141
737.89	21.612
738.21	20.301
738.52	23.457
738.83	19.651
739.15	26.201
739.46	23.228
739.78	18.315
740.09	24.183
740.41	22.826
740.72	20.079
741.04	25.101
741.35	25.106
741.66	24.645
741.98	22.959
742.29	29.703
742.61	20.942
742.92	20.853
743.23	19.907
743.55	20.362
743.86	27.751
744.18	24.880
744.49	24.468
744.80	27.717
745.12	29.947
745.43	25.366
745.74	27.083
746.06	28.780
746.37	19.895
746.68	24.645
747.00	23.936
747.31	29.851
747.62	26.699
747.94	25.837
748.25	22.772
748.56	25.683
748.88	26.702
749.19	31.915
749.50	26.108
749.82	21.226
750.13	18.349
750.44	25.564
750.75	24.254
751.07	28.467
751.38	26.437
751.69	21.176
752.01	24.806
752.32	21.514
752.63	20.949
752.94	19.828
753.26	30.962
753.57	22.172
753.88	28.319
754.19	22.917
754.51	23.554
754.82	24.696
755.13	27.917
755.44	25.000
755.75	26.172
756.07	24.903
756.38	22.642
756.69	22.989
757.00	20.000
757.31	24.183
757.63	21.341
757.94	18.056
758.25	22.466
758.56	20.745
758.87	17.847
759.18	20.249
759.50	22.182
759.81	25.084
760.12	20.968
760.43	19.091
760.74	21.296
761.05	20.000
761.36	21.875
761.67	22.424
761.99	22.789
762.30	21.818
762.61	23.715
762.92	20.362
763.23	22.072
763.54	23.364
763.85	19.492
764.16	16.183
764.47	24.194
764.78	18.681
765.10	19.865
765.41	17.350
765.72	19.365
766.03	15.414
766.34	22.628
766.65	25.100
766.96	22.727
767.27	29.787
767.58	22.414
767.89	21.277
768.20	20.455
768.51	23.077
768.82	19.704
769.13	19.355
769.44	24.464
769.75	20.091
770.06	23.707
770.37	19.712
770.68	20.812
770.99	21.267
771.30	21.569
771.61	20.814
771.92	20.690
772.23	22.660
772.54	17.742
772.85	20.988
773.16	25.281
773.47	24.183
773.78	26.797
774.09	22.156
774.39	24.000
774.70	17.197
775.01	32.414
775.32	20.000
775.63	21.488
775.94	22.901
776.25	21.260
776.56	22.500
776.87	20.192
777.18	24.786
777.48	25.862
777.79	23.478
778.10	8.571
778.41	23.423
778.72	29.365
779.03	24.060
779.34	21.277
779.65	17.123
779.95	14.384
780.26	18.621
780.57	14.634
780.88	22.047
781.19	18.966
781.50	15.504
781.80	18.343
782.11	13.208
782.42	20.769
782.73	12.950
783.04	22.222
783.34	19.444
783.65	7.692
783.96	10.656
784.27	19.310
784.57	17.073
784.88	16.406
785.19	28.000
785.50	24.000
785.81	16.379
786.11	12.931
786.42	14.563
786.73	22.727
787.04	21.429
787.34	13.393
787.65	20.000
787.96	19.469
788.26	30.909
788.57	18.803
788.88	28.906
789.19	20.635
789.49	16.522
789.80	15.306
790.11	18.182
790.41	15.455
790.72	21.739
791.03	13.636
791.33	35.000
791.64	11.250
791.95	31.395
792.25	23.404
792.56	17.978
792.87	26.027
793.17	8.696
793.48	12.000
793.79	18.750
794.09	37.500
794.40	22.642
794.70	16.505
795.01	13.821
795.32	20.513
795.62	27.619
795.93	17.647
796.23	21.698
796.54	36.458
796.85	14.706
797.15	16.901
797.46	19.444
797.76	30.303
798.07	29.070
798.37	2.632
798.68	16.667
798.99	20.988
799.29	22.857
799.60	15.942
799.90	24.000
800.21	18.033
800.51	27.692
800.82	3.390
801.12	17.391
801.43	4.918
801.73	28.571
802.04	10.000
802.34	2.985
802.65	17.308
802.95	0.000
803.26	26.923
803.56	35.294
803.87	-10.870
804.17	14.667
804.48	22.222
804.78	14.815
805.09	15.217
805.39	11.111
805.70	20.370
806.00	-7.018
806.30	18.310
806.61	24.286
806.91	-5.556
807.22	23.684
807.52	36.000
807.83	21.818
808.13	27.778
808.43	10.294
808.74	23.881
809.04	-8.475
809.35	13.462
809.65	21.875
809.95	-18.919
810.26	-25.000
810.56	28.767
810.86	33.333
811.17	22.000
811.47	40.816
811.77	10.526
812.08	13.636
812.38	22.642
812.69	7.500
812.99	3.030
813.29	13.158
813.59	0.000
813.90	34.091
814.20	15.385
814.50	13.462
814.81	3.774
815.11	2.128
815.41	37.288
815.72	40.476
816.02	3.922
816.32	22.917
816.62	9.756
816.93	24.324
817.23	28.571
817.53	37.500
817.84	2.174
818.14	17.308
818.44	-7.895
818.74	21.739
819.04	-27.500
819.35	8.108
819.65	17.647
819.95	2.778
820.25	4.762
820.56	35.000
820.86	-20.690
821.16	30.000
821.46	19.149
821.76	30.000
822.07	27.907
822.37	-29.730
822.67	21.875
822.97	42.857
823.27	21.429
823.57	0.000
823.88	22.222
824.18	28.571
824.48	35.294
824.78	-3.226
825.08	13.043
825.38	12.121
825.69	-8.333
825.99	2.632
826.29	11.111
826.59	-60.000
826.89	-4.762
827.19	19.565
827.49	27.500
827.79	40.000
828.09	32.143
828.39	33.333
828.70	43.243
829.00	0.000
829.30	19.048
829.60	-3.333
829.90	18.750
830.20	-13.158
830.50	7.407
830.80	-13.043
831.10	-18.182
831.40	12.121
831.70	35.484
832.00	0.000
832.30	-14.286
832.60	-8.333
832.90	44.828
833.20	0.000
833.50	30.303
833.80	-22.222
834.10	3.846
834.40	0.000
834.70	-44.444
835.00	5.263
835.30	15.385
835.60	13.333
835.90	9.677
836.20	63.636
836.50	3.571
836.80	-23.077
837.10	28.571
837.40	-100.000
837.70	4.545
838.00	-9.091
838.30	0.000
838.60	-15.385
838.90	-18.182
839.19	21.429
839.49	26.667
839.79	69.231
840.09	-75.000
840.39	35.714
840.69	17.857
840.99	-7.692
841.29	-5.263
841.59	-110.000
841.88	-27.273
842.18	-60.000
842.48	-25.000
842.78	-26.667
843.08	29.630
843.38	-140.000
843.68	26.087
843.97	-6.667
844.27	-80.000
844.57	-15.000
844.87	16.667
845.17	23.810
845.47	0.000
845.76	-9.524
846.06	29.412
846.36	0.000
846.66	-35.714
846.96	0.000
847.25	-200.000
847.55	57.143
847.85	-75.000
848.15	-54.545
848.44	-466.667
848.74	5.000
849.04	55.556
849.34	63.636
849.63	-16.667
849.93	-160.000
850.23	-11.111
850.53	50.000
850.82	-15.385
851.12	-133.333
851.42	-26.667
851.71	11.538
852.01	7.143
852.31	-275.000
852.61	9.091
852.90	30.000
853.20	26.316
853.50	-150.000
853.79	4.348
854.09	54.167
854.39	26.316
854.68	-8.333
854.98	22.581
855.28	23.077
855.57	-45.000
855.87	-5.556
856.17	18.519
856.46	-28.571
856.76	-13.333
857.05	55.556
857.35	32.000
857.65	-5.556
857.94	76.923
858.24	0.000
858.53	61.111
858.83	25.926
859.13	18.182
859.42	-17.391
859.72	-125.000
860.01	-566.667
860.31	0.000
860.60	14.286
860.90	-466.667
861.20	-46.667
861.49	50.000
861.79	-53.333
862.08	-15.000
862.38	33.333
862.67	-140.000
862.97	-116.667
863.26	25.000
863.56	50.000
863.85	-300.000
864.15	61.111
864.44	-60.000
864.74	7.143
865.03	500.000
865.33	-200.000
865.62	66.667
865.92	-8.333
866.21	-33.333
866.51	62.500
866.80	-72.727
867.10	-100.000
867.39	41.667
867.69	0.000
867.98	53.846
868.27	-300.000
868.57	13.333
868.86	22.222
869.16	-123.077
869.45	0.000
869.75	-1300.000
870.04	0.000
870.33	-71.429
870.63	-4.762
870.92	333.333
871.22	-260.000
871.51	100.000
871.80	100.000
872.10	266.667
>>>>>End Processed Spectral Data<<<<<
