SpectraSuite Data File
++++++++++++++++++++++++++++++++++++
Date: Fri May 15 20:41:27 PDT 2015
User: schluterlab
Dark Spectrum Present: Yes
Reference Spectrum Present: Yes
Number of Sampled Component Spectra: 1
Spectrometers: USB2E3373
Integration Time (usec): 3000 (USB2E3373)
Spectra Averaged: 3 (USB2E3373)
Boxcar Smoothing: 0 (USB2E3373)
Correct for Electrical Dark: No (USB2E3373)
Strobe/Lamp Enabled: No (USB2E3373)
Correct for Detector Non-linearity: No (USB2E3373)
Correct for Stray Light: No (USB2E3373)
Number of Pixels in Processed Spectrum: 2048
>>>>>Begin Processed Spectral Data<<<<<
178.53	0.000
178.91	0.000
179.29	87.500
179.67	-550.000
180.04	71.429
180.42	125.000
180.80	-600.000
181.18	266.667
181.56	550.000
181.94	-250.000
182.31	800.000
182.69	-20.000
183.07	-133.333
183.45	-260.000
183.83	50.000
184.20	-45.455
184.58	33.333
184.96	50.000
185.34	66.667
185.72	-450.000
186.09	46.154
186.47	-200.000
186.85	83.333
187.23	155.556
187.61	-300.000
187.98	33.333
188.36	0.000
188.74	-166.667
189.12	11.765
189.49	5.556
189.87	0.000
190.25	-7.143
190.63	150.000
191.00	-366.667
191.38	26.316
191.76	400.000
192.14	175.000
192.51	400.000
192.89	-44.444
193.27	-157.143
193.65	100.000
194.02	72.727
194.40	10.000
194.78	-150.000
195.15	-16.667
195.53	-87.500
195.91	225.000
196.29	0.000
196.66	146.154
197.04	100.000
197.42	55.556
197.79	-766.667
198.17	-107.692
198.55	1300.000
198.92	-233.333
199.30	-400.000
199.68	-60.000
200.05	-366.667
200.43	0.000
200.81	-333.333
201.18	66.667
201.56	800.000
201.94	-550.000
202.31	233.333
202.69	-120.000
203.07	-125.000
203.44	900.000
203.82	0.000
204.19	85.714
204.57	-633.333
204.95	125.000
205.32	-20.000
205.70	-57.143
206.08	-50.000
206.45	77.778
206.83	64.286
207.20	-85.714
207.58	600.000
207.96	-166.667
208.33	-90.000
208.71	-200.000
209.08	-166.667
209.46	-200.000
209.84	60.000
210.21	-1500.000
210.59	142.857
210.96	-16.667
211.34	-100.000
211.71	46.667
212.09	-128.571
212.46	-400.000
212.84	0.000
213.22	130.000
213.59	350.000
213.97	53.846
214.34	36.364
214.72	33.333
215.09	350.000
215.47	15.385
215.84	-18.182
216.22	-633.333
216.59	-75.000
216.97	450.000
217.34	100.000
217.72	-60.000
218.09	62.500
218.47	37.500
218.84	-100.000
219.22	-22.222
219.59	-220.000
219.97	233.333
220.34	350.000
220.72	85.714
221.09	-50.000
221.47	-100.000
221.84	-150.000
222.22	-600.000
222.59	0.000
222.97	33.333
223.34	-300.000
223.72	-14.286
224.09	0.000
224.46	53.571
224.84	66.667
225.21	0.000
225.59	33.333
225.96	-150.000
226.34	500.000
226.71	-114.286
227.08	16.667
227.46	-175.000
227.83	-250.000
228.21	-22.222
228.58	72.727
228.95	0.000
229.33	80.000
229.70	50.000
230.08	-112.500
230.45	-142.857
230.82	-28.571
231.20	26.667
231.57	7.143
231.95	85.714
232.32	-110.000
232.69	-35.714
233.07	66.667
233.44	60.000
233.81	-30.000
234.19	-55.556
234.56	-17.647
234.93	250.000
235.31	250.000
235.68	-40.000
236.05	-38.462
236.43	-20.000
236.80	5.882
237.17	-15.625
237.55	10.000
237.92	-14.815
238.29	33.333
238.67	6.667
239.04	-20.588
239.41	7.317
239.79	-10.000
240.16	21.951
240.53	0.000
240.91	17.391
241.28	20.635
241.65	17.857
242.02	38.356
242.40	10.000
242.77	18.644
243.14	10.606
243.51	16.250
243.89	13.793
244.26	8.046
244.63	20.238
245.00	18.557
245.38	23.711
245.75	7.865
246.12	9.483
246.49	19.008
246.87	26.923
247.24	15.126
247.61	10.526
247.98	10.569
248.36	15.625
248.73	17.763
249.10	13.636
249.47	20.253
249.84	16.993
250.22	17.647
250.59	18.301
250.96	25.822
251.33	14.535
251.70	17.647
252.08	19.797
252.45	21.287
252.82	17.085
253.19	18.433
253.56	17.290
253.94	19.820
254.31	22.609
254.68	19.298
255.05	18.504
255.42	21.834
255.79	16.602
256.16	19.455
256.54	21.269
256.91	17.110
257.28	19.703
257.65	14.981
258.02	19.504
258.39	20.875
258.76	23.443
259.14	22.591
259.51	20.712
259.88	19.244
260.25	22.222
260.62	21.181
260.99	16.271
261.36	16.781
261.73	16.772
262.10	23.100
262.47	16.564
262.85	19.436
263.22	18.154
263.59	20.249
263.96	19.255
264.33	20.000
264.70	16.667
265.07	18.155
265.44	24.363
265.81	18.362
266.18	18.033
266.55	21.337
266.92	18.653
267.29	20.366
267.66	17.391
268.03	20.419
268.40	18.016
268.77	18.984
269.14	20.144
269.51	19.537
269.88	16.708
270.25	15.306
270.62	17.073
270.99	17.136
271.36	17.604
271.73	19.718
272.10	20.681
272.47	19.858
272.84	18.812
273.21	20.650
273.58	21.205
273.95	20.595
274.32	17.783
274.69	17.195
275.06	21.205
275.43	17.914
275.80	19.426
276.17	18.621
276.54	18.415
276.91	16.447
277.28	16.812
277.65	18.802
278.02	18.723
278.39	19.912
278.76	19.916
279.13	15.353
279.50	19.328
279.87	17.495
280.23	16.774
280.60	20.273
280.97	19.192
281.34	19.231
281.71	21.150
282.08	17.791
282.45	16.830
282.82	19.112
283.19	19.342
283.56	19.268
283.92	16.888
284.29	16.731
284.66	17.442
285.03	16.699
285.40	17.958
285.77	17.399
286.14	19.134
286.51	19.373
286.87	18.464
287.24	17.311
287.61	16.226
287.98	19.649
288.35	15.945
288.72	18.214
289.08	17.708
289.45	19.859
289.82	18.182
290.19	17.406
290.56	15.266
290.93	17.677
291.29	14.638
291.66	16.850
292.03	16.427
292.40	15.484
292.77	14.673
293.13	15.097
293.50	15.023
293.87	14.351
294.24	17.465
294.60	14.903
294.97	16.667
295.34	15.798
295.71	14.754
296.08	15.994
296.44	12.660
296.81	13.889
297.18	14.348
297.55	16.125
297.91	15.205
298.28	15.172
298.65	13.026
299.02	14.420
299.38	11.628
299.75	13.655
300.12	14.005
300.48	14.097
300.85	13.688
301.22	13.766
301.59	13.947
301.95	14.684
302.32	16.083
302.69	13.682
303.05	12.005
303.42	15.318
303.79	16.005
304.15	14.576
304.52	11.296
304.89	12.865
305.25	13.680
305.62	12.952
305.99	14.035
306.35	12.601
306.72	12.936
307.09	13.113
307.45	12.859
307.82	14.120
308.19	13.589
308.55	14.068
308.92	14.924
309.29	14.190
309.65	12.917
310.02	14.411
310.38	12.843
310.75	14.754
311.12	14.855
311.48	14.316
311.85	15.079
312.22	12.975
312.58	13.588
312.95	13.874
313.31	13.872
313.68	14.660
314.05	14.796
314.41	15.361
314.78	14.948
315.14	16.238
315.51	15.424
315.87	16.086
316.24	17.594
316.61	15.650
316.97	16.071
317.34	15.820
317.70	15.774
318.07	15.288
318.43	16.569
318.80	16.098
319.16	17.871
319.53	18.993
319.89	17.717
320.26	17.713
320.62	18.355
320.99	17.119
321.35	18.705
321.72	19.522
322.08	20.141
322.45	19.391
322.81	19.352
323.18	19.333
323.54	19.691
323.91	18.598
324.27	20.312
324.64	21.536
325.00	20.894
325.37	21.671
325.73	21.940
326.10	22.434
326.46	22.422
326.83	23.185
327.19	22.755
327.56	24.674
327.92	24.032
328.29	21.250
328.65	22.736
329.01	23.805
329.38	24.424
329.74	23.418
330.11	24.930
330.47	23.377
330.84	23.846
331.20	25.285
331.56	22.407
331.93	24.932
332.29	25.206
332.66	23.891
333.02	24.535
333.38	23.923
333.75	25.549
334.11	23.993
334.48	26.201
334.84	24.451
335.20	25.069
335.57	24.751
335.93	25.294
336.29	24.954
336.66	23.978
337.02	23.048
337.38	25.000
337.75	25.273
338.11	25.338
338.47	25.730
338.84	25.601
339.20	25.229
339.56	25.138
339.93	26.768
340.29	25.046
340.65	26.344
341.02	25.975
341.38	26.106
341.74	24.470
342.11	23.917
342.47	26.601
342.83	26.298
343.20	26.220
343.56	25.826
343.92	27.015
344.28	25.107
344.65	25.648
345.01	24.633
345.37	24.895
345.73	25.105
346.10	25.194
346.46	25.399
346.82	25.368
347.19	24.855
347.55	25.313
347.91	26.214
348.27	24.010
348.63	26.491
349.00	26.579
349.36	26.434
349.72	26.285
350.08	25.902
350.45	26.097
350.81	24.419
351.17	24.430
351.53	25.224
351.89	25.929
352.26	25.280
352.62	26.452
352.98	25.622
353.34	26.087
353.70	25.243
354.07	25.484
354.43	26.021
354.79	26.012
355.15	26.349
355.51	26.108
355.87	25.485
356.24	25.612
356.60	25.707
356.96	27.063
357.32	25.559
357.68	24.394
358.04	26.737
358.40	26.367
358.77	26.236
359.13	26.021
359.49	25.963
359.85	26.599
360.21	25.917
360.57	25.019
360.93	26.399
361.29	26.133
361.66	25.392
362.02	26.970
362.38	27.037
362.74	26.041
363.10	26.862
363.46	26.835
363.82	28.325
364.18	26.199
364.54	25.735
364.90	26.308
365.26	26.856
365.62	28.175
365.98	27.053
366.35	27.021
366.71	27.273
367.07	27.504
367.43	26.815
367.79	26.643
368.15	27.566
368.51	27.094
368.87	27.351
369.23	27.292
369.59	26.822
369.95	27.493
370.31	26.734
370.67	27.015
371.03	27.334
371.39	26.988
371.75	27.766
372.11	27.461
372.47	27.515
372.83	28.318
373.19	28.103
373.55	27.292
373.91	28.078
374.27	27.853
374.63	28.428
374.99	26.879
375.35	27.994
375.71	27.972
376.07	27.317
376.42	28.299
376.78	28.188
377.14	28.707
377.50	28.685
377.86	27.443
378.22	28.398
378.58	28.077
378.94	27.851
379.30	28.072
379.66	29.279
380.02	28.694
380.38	28.241
380.74	28.366
381.09	28.589
381.45	28.685
381.81	28.501
382.17	27.538
382.53	28.420
382.89	27.935
383.25	27.816
383.61	30.122
383.97	27.429
384.32	28.518
384.68	29.288
385.04	28.248
385.40	28.500
385.76	28.931
386.12	29.754
386.48	29.246
386.83	28.218
387.19	29.426
387.55	30.364
387.91	29.218
388.27	29.060
388.62	29.075
388.98	29.957
389.34	29.357
389.70	30.329
390.06	29.201
390.42	29.404
390.77	28.908
391.13	29.004
391.49	30.078
391.85	29.760
392.20	29.253
392.56	28.735
392.92	30.241
393.28	29.363
393.64	29.730
393.99	31.034
394.35	30.234
394.71	30.077
395.07	29.918
395.42	29.144
395.78	29.251
396.14	29.508
396.50	29.613
396.85	30.135
397.21	29.637
397.57	28.840
397.92	29.299
398.28	29.655
398.64	28.434
399.00	29.063
399.35	29.289
399.71	28.949
400.07	30.048
400.42	29.988
400.78	29.639
401.14	29.885
401.49	30.435
401.85	29.616
402.21	30.542
402.57	30.250
402.92	28.984
403.28	29.637
403.63	29.508
403.99	29.209
404.35	30.044
404.70	29.702
405.06	29.436
405.42	30.329
405.77	28.588
406.13	28.405
406.49	30.314
406.84	31.112
407.20	29.982
407.55	29.878
407.91	29.612
408.27	29.382
408.62	30.154
408.98	30.807
409.34	29.368
409.69	28.941
410.05	29.372
410.40	30.741
410.76	30.760
411.11	30.000
411.47	30.769
411.83	28.876
412.18	30.695
412.54	30.150
412.89	29.002
413.25	29.964
413.60	29.876
413.96	29.693
414.31	30.366
414.67	29.763
415.03	30.027
415.38	30.744
415.74	31.205
416.09	31.025
416.45	30.587
416.80	30.337
417.16	31.215
417.51	30.580
417.87	30.117
418.22	30.959
418.58	30.100
418.93	30.094
419.29	29.385
419.64	30.590
420.00	30.856
420.35	29.493
420.71	30.863
421.06	30.325
421.42	29.988
421.77	30.520
422.12	30.420
422.48	30.103
422.83	30.046
423.19	30.192
423.54	30.218
423.90	29.741
424.25	30.884
424.61	30.661
424.96	30.662
425.31	31.369
425.67	30.692
426.02	31.037
426.38	30.996
426.73	31.114
427.09	31.519
427.44	30.824
427.79	30.583
428.15	30.218
428.50	30.466
428.85	31.143
429.21	30.956
429.56	31.051
429.92	30.817
430.27	30.276
430.62	29.692
430.98	30.414
431.33	30.547
431.68	29.409
432.04	31.247
432.39	30.918
432.74	31.690
433.10	31.322
433.45	30.944
433.80	30.412
434.16	30.416
434.51	31.183
434.86	31.591
435.22	30.566
435.57	30.131
435.92	30.539
436.28	30.769
436.63	30.519
436.98	30.301
437.34	30.672
437.69	32.081
438.04	30.826
438.39	31.032
438.75	30.723
439.10	30.843
439.45	31.649
439.81	30.581
440.16	31.532
440.51	31.522
440.86	32.024
441.22	30.486
441.57	29.912
441.92	30.693
442.27	31.208
442.63	31.585
442.98	30.442
443.33	30.774
443.68	30.504
444.03	31.495
444.39	30.398
444.74	31.884
445.09	31.960
445.44	30.655
445.79	32.646
446.15	30.452
446.50	30.616
446.85	32.147
447.20	30.761
447.55	31.696
447.91	31.303
448.26	30.962
448.61	31.146
448.96	31.670
449.31	31.561
449.66	31.707
450.02	31.888
450.37	32.069
450.72	31.386
451.07	32.152
451.42	30.774
451.77	31.947
452.12	30.861
452.47	31.874
452.83	31.331
453.18	32.005
453.53	31.353
453.88	31.026
454.23	31.715
454.58	32.116
454.93	32.410
455.28	31.873
455.63	31.680
455.98	32.171
456.34	32.567
456.69	31.830
457.04	32.892
457.39	31.713
457.74	31.983
458.09	30.724
458.44	31.773
458.79	30.980
459.14	32.037
459.49	32.418
459.84	31.190
460.19	31.007
460.54	32.824
460.89	31.023
461.24	31.242
461.59	31.829
461.94	30.755
462.29	31.785
462.64	31.827
462.99	32.701
463.34	32.128
463.69	31.338
464.04	33.475
464.39	32.080
464.74	31.166
465.09	31.316
465.44	32.141
465.79	31.689
466.14	32.725
466.49	30.707
466.84	32.362
467.19	32.979
467.54	31.737
467.89	32.028
468.24	31.265
468.59	33.206
468.94	31.873
469.29	32.656
469.64	32.604
469.99	33.917
470.34	32.287
470.68	33.408
471.03	33.970
471.38	32.810
471.73	33.333
472.08	31.954
472.43	32.148
472.78	31.597
473.13	33.741
473.48	33.485
473.83	32.939
474.17	32.060
474.52	32.610
474.87	32.606
475.22	33.435
475.57	32.016
475.92	31.706
476.27	32.421
476.61	33.160
476.96	32.571
477.31	33.586
477.66	32.247
478.01	31.668
478.36	31.972
478.70	33.442
479.05	33.242
479.40	32.909
479.75	32.169
480.10	32.616
480.45	32.450
480.79	33.283
481.14	32.736
481.49	31.576
481.84	32.577
482.19	31.993
482.53	32.374
482.88	31.790
483.23	33.109
483.58	31.509
483.92	31.510
484.27	31.404
484.62	32.407
484.97	31.924
485.31	30.311
485.66	29.285
486.01	28.835
486.36	28.743
486.70	29.027
487.05	29.975
487.40	29.860
487.75	30.423
488.09	30.222
488.44	31.465
488.79	31.603
489.13	31.851
489.48	31.894
489.83	31.749
490.17	31.820
490.52	32.656
490.87	31.745
491.22	32.617
491.56	32.780
491.91	31.453
492.26	32.669
492.60	32.150
492.95	32.759
493.30	31.998
493.64	32.564
493.99	32.174
494.34	31.699
494.68	32.000
495.03	32.749
495.37	32.483
495.72	33.115
496.07	31.951
496.41	31.934
496.76	31.875
497.11	32.184
497.45	32.745
497.80	32.795
498.14	31.595
498.49	32.351
498.84	32.884
499.18	33.384
499.53	31.200
499.87	31.615
500.22	32.443
500.56	31.770
500.91	31.576
501.26	31.636
501.60	32.956
501.95	32.994
502.29	31.961
502.64	33.012
502.98	32.610
503.33	31.412
503.67	32.386
504.02	32.454
504.36	33.548
504.71	32.273
505.06	31.907
505.40	31.371
505.75	33.351
506.09	32.032
506.44	32.598
506.78	33.418
507.13	33.557
507.47	32.010
507.82	32.425
508.16	32.964
508.51	32.791
508.85	32.705
509.19	32.571
509.54	33.512
509.88	32.524
510.23	33.244
510.57	32.656
510.92	32.090
511.26	33.552
511.61	33.718
511.95	33.041
512.30	33.703
512.64	33.278
512.98	33.240
513.33	33.912
513.67	33.428
514.02	34.439
514.36	34.629
514.70	33.858
515.05	34.783
515.39	33.589
515.74	35.329
516.08	34.907
516.42	35.571
516.77	34.699
517.11	34.362
517.46	34.351
517.80	35.042
518.14	35.028
518.49	33.894
518.83	34.447
519.17	34.324
519.52	34.695
519.86	34.754
520.20	34.143
520.55	34.271
520.89	35.571
521.23	34.009
521.58	35.773
521.92	36.154
522.26	35.849
522.61	35.130
522.95	36.093
523.29	35.705
523.64	34.816
523.98	35.386
524.32	34.536
524.66	35.659
525.01	35.649
525.35	35.839
525.69	35.219
526.04	34.325
526.38	37.873
526.72	35.971
527.06	34.955
527.41	34.960
527.75	35.121
528.09	35.282
528.43	36.935
528.78	35.842
529.12	35.161
529.46	35.088
529.80	34.136
530.15	36.436
530.49	35.488
530.83	35.978
531.17	35.997
531.51	36.662
531.86	34.942
532.20	35.491
532.54	36.079
532.88	35.661
533.22	35.685
533.57	35.256
533.91	34.922
534.25	36.003
534.59	35.856
534.93	34.172
535.27	33.947
535.62	35.062
535.96	35.290
536.30	35.620
536.64	35.493
536.98	34.007
537.32	35.420
537.66	36.606
538.01	35.524
538.35	34.882
538.69	34.754
539.03	34.450
539.37	34.590
539.71	34.969
540.05	35.370
540.39	35.042
540.73	35.774
541.07	35.359
541.42	34.812
541.76	35.237
542.10	35.788
542.44	34.607
542.78	33.310
543.12	34.135
543.46	35.605
543.80	34.976
544.14	33.511
544.48	34.111
544.82	33.698
545.16	34.973
545.50	34.379
545.84	34.419
546.18	35.106
546.52	36.121
546.86	34.508
547.20	35.980
547.54	32.085
547.88	33.356
548.22	33.728
548.56	32.916
548.90	34.232
549.24	33.471
549.58	33.921
549.92	33.452
550.26	33.626
550.60	35.093
550.94	33.831
551.28	34.235
551.62	36.077
551.96	34.436
552.30	34.211
552.64	33.357
552.98	34.318
553.32	33.096
553.66	32.946
554.00	34.088
554.34	33.900
554.68	34.218
555.02	34.449
555.36	35.228
555.69	32.234
556.03	32.691
556.37	32.384
556.71	33.718
557.05	33.855
557.39	34.424
557.73	33.508
558.07	35.294
558.41	33.614
558.75	33.515
559.08	34.437
559.42	33.968
559.76	33.787
560.10	33.257
560.44	33.730
560.78	32.937
561.12	33.145
561.45	32.748
561.79	33.263
562.13	33.854
562.47	31.655
562.81	34.150
563.15	31.946
563.48	32.603
563.82	32.739
564.16	31.964
564.50	30.878
564.84	32.195
565.17	32.327
565.51	32.719
565.85	32.167
566.19	32.228
566.52	32.306
566.86	32.776
567.20	31.445
567.54	31.083
567.88	31.342
568.21	31.222
568.55	29.837
568.89	29.928
569.23	29.562
569.56	29.159
569.90	29.233
570.24	28.694
570.57	28.182
570.91	28.198
571.25	27.228
571.59	27.063
571.92	26.281
572.26	26.600
572.60	25.860
572.93	27.330
573.27	26.583
573.61	26.730
573.95	26.161
574.28	25.900
574.62	25.909
574.96	25.206
575.29	25.265
575.63	25.369
575.97	25.752
576.30	25.780
576.64	25.722
576.98	25.740
577.31	25.412
577.65	25.161
577.98	25.465
578.32	25.193
578.66	24.393
578.99	24.895
579.33	25.356
579.67	25.385
580.00	25.190
580.34	24.851
580.67	24.951
581.01	25.336
581.35	24.440
581.68	24.424
582.02	24.427
582.35	24.141
582.69	24.289
583.02	24.439
583.36	24.580
583.70	25.052
584.03	25.716
584.37	25.805
584.70	24.890
585.04	24.948
585.37	24.152
585.71	24.735
586.04	23.903
586.38	24.460
586.72	25.079
587.05	25.534
587.39	24.909
587.72	25.314
588.06	24.882
588.39	24.409
588.73	25.427
589.06	25.571
589.40	25.302
589.73	25.739
590.07	26.095
590.40	25.735
590.73	26.277
591.07	26.209
591.40	26.892
591.74	26.968
592.07	26.670
592.41	26.590
592.74	25.289
593.08	24.240
593.41	25.206
593.75	23.716
594.08	24.545
594.41	25.218
594.75	24.695
595.08	25.009
595.42	24.696
595.75	25.235
596.09	25.098
596.42	25.134
596.75	25.933
597.09	25.285
597.42	26.016
597.75	25.928
598.09	25.939
598.42	25.496
598.76	24.753
599.09	25.280
599.42	24.479
599.76	24.266
600.09	24.548
600.42	24.829
600.76	23.848
601.09	24.542
601.42	24.912
601.76	25.010
602.09	24.917
602.42	25.484
602.76	24.703
603.09	24.751
603.42	24.707
603.76	23.790
604.09	24.301
604.42	24.535
604.76	25.768
605.09	25.320
605.42	24.244
605.75	24.562
606.09	24.374
606.42	23.978
606.75	25.671
607.09	24.484
607.42	23.615
607.75	23.934
608.08	24.169
608.42	24.303
608.75	25.060
609.08	24.863
609.41	24.467
609.75	25.756
610.08	24.913
610.41	24.348
610.74	24.281
611.07	24.703
611.41	25.791
611.74	25.906
612.07	25.000
612.40	25.000
612.73	24.972
613.07	24.972
613.40	25.438
613.73	24.678
614.06	25.209
614.39	25.494
614.72	24.482
615.06	24.749
615.39	25.218
615.72	25.081
616.05	24.860
616.38	24.786
616.71	25.933
617.05	24.954
617.38	26.336
617.71	24.403
618.04	26.159
618.37	26.293
618.70	26.403
619.03	26.250
619.36	26.266
619.69	27.066
620.03	27.027
620.36	26.180
620.69	25.696
621.02	25.994
621.35	27.552
621.68	28.231
622.01	26.917
622.34	27.534
622.67	27.681
623.00	26.570
623.33	26.143
623.66	25.879
623.99	25.416
624.32	27.224
624.65	26.391
624.99	26.787
625.32	24.943
625.65	27.416
625.98	28.445
626.31	26.185
626.64	27.210
626.97	27.661
627.30	27.408
627.63	27.643
627.96	26.864
628.29	27.937
628.62	28.614
628.95	28.156
629.28	28.528
629.61	27.119
629.94	28.837
630.26	28.063
630.59	29.553
630.92	28.821
631.25	27.692
631.58	29.736
631.91	28.289
632.24	29.817
632.57	28.182
632.90	29.775
633.23	28.706
633.56	29.345
633.89	28.237
634.22	30.988
634.55	29.479
634.88	30.140
635.20	30.000
635.53	30.000
635.86	28.609
636.19	30.142
636.52	28.189
636.85	27.171
637.18	28.302
637.51	29.182
637.83	29.304
638.16	30.832
638.49	29.564
638.82	30.921
639.15	28.901
639.48	28.336
639.81	31.241
640.13	29.437
640.46	32.362
640.79	29.308
641.12	30.724
641.45	30.180
641.77	29.778
642.10	30.964
642.43	30.064
642.76	30.858
643.09	31.179
643.41	32.201
643.74	29.325
644.07	32.677
644.40	32.432
644.73	32.574
645.05	31.544
645.38	30.511
645.71	32.624
646.04	31.777
646.36	31.383
646.69	33.273
647.02	29.868
647.35	32.090
647.67	33.455
648.00	33.396
648.33	30.375
648.66	28.814
648.98	25.461
649.31	27.769
649.64	27.943
649.96	28.039
650.29	31.346
650.62	30.940
650.94	31.667
651.27	32.216
651.60	32.973
651.92	31.294
652.25	27.176
652.58	29.833
652.90	31.561
653.23	27.899
653.56	27.919
653.88	28.866
654.21	27.145
654.54	28.862
654.86	31.749
655.19	26.170
655.52	24.149
655.84	19.199
656.17	20.293
656.49	26.970
656.82	28.101
657.15	21.241
657.47	16.004
657.80	11.972
658.13	11.903
658.45	18.520
658.78	18.927
659.10	18.883
659.43	20.072
659.75	21.460
660.08	21.793
660.41	24.923
660.73	26.657
661.06	25.823
661.38	29.550
661.71	26.283
662.03	30.687
662.36	31.648
662.68	30.088
663.01	32.969
663.33	30.626
663.66	33.488
663.98	31.163
664.31	28.785
664.63	32.488
664.96	25.435
665.28	27.373
665.61	29.004
665.93	30.652
666.26	30.803
666.58	26.622
666.91	29.647
667.23	30.425
667.56	31.991
667.88	33.094
668.21	31.026
668.53	32.624
668.86	31.604
669.18	30.425
669.50	30.751
669.83	31.395
670.15	31.935
670.48	27.273
670.80	30.184
671.13	28.859
671.45	25.799
671.77	30.472
672.10	28.317
672.42	27.528
672.75	29.840
673.07	28.980
673.39	28.440
673.72	24.655
674.04	25.000
674.37	27.966
674.69	29.336
675.01	32.000
675.34	28.829
675.66	30.556
675.98	30.155
676.31	30.275
676.63	28.741
676.95	29.091
677.28	30.353
677.60	29.880
677.92	25.000
678.25	29.978
678.57	25.325
678.89	27.101
679.22	30.201
679.54	29.116
679.86	24.652
680.18	27.573
680.51	27.083
680.83	26.839
681.15	25.600
681.48	29.098
681.80	28.719
682.12	26.815
682.44	25.941
682.77	27.373
683.09	28.375
683.41	25.682
683.73	29.032
684.06	29.425
684.38	25.806
684.70	29.412
685.02	26.763
685.34	21.542
685.67	24.015
685.99	26.582
686.31	25.664
686.63	24.119
686.96	25.856
687.28	21.414
687.60	21.483
687.92	27.475
688.24	25.605
688.56	26.638
688.89	27.455
689.21	30.667
689.53	27.842
689.85	29.302
690.17	28.795
690.49	27.896
690.82	28.398
691.14	26.667
691.46	28.037
691.78	27.027
692.10	27.312
692.42	26.840
692.74	26.068
693.06	25.901
693.39	25.339
693.71	23.529
694.03	24.480
694.35	27.336
694.67	26.768
694.99	24.021
695.31	27.676
695.63	27.750
695.95	26.515
696.27	25.648
696.59	29.167
696.91	27.451
697.23	24.679
697.56	24.010
697.88	28.172
698.20	27.563
698.52	25.882
698.84	25.120
699.16	27.500
699.48	23.810
699.80	27.047
700.12	26.954
700.44	26.331
700.76	26.163
701.08	25.152
701.40	28.614
701.72	31.481
702.04	31.683
702.36	26.421
702.68	27.027
703.00	28.485
703.32	26.100
703.64	25.706
703.96	27.246
704.28	26.687
704.60	28.889
704.91	26.814
705.23	25.914
705.55	30.389
705.87	33.574
706.19	28.889
706.51	27.835
706.83	28.617
707.15	23.676
707.47	24.090
707.79	22.396
708.11	26.000
708.43	25.250
708.74	25.840
709.06	29.859
709.38	28.746
709.70	27.219
710.02	28.025
710.34	27.245
710.66	21.474
710.98	28.808
711.29	30.492
711.61	30.169
711.93	27.036
712.25	28.522
712.57	24.176
712.89	28.731
713.20	29.412
713.52	31.010
713.84	25.256
714.16	24.399
714.48	26.452
714.80	27.564
715.11	27.660
715.43	21.944
715.75	22.333
716.07	21.595
716.39	27.181
716.70	19.926
717.02	24.809
717.34	28.340
717.66	26.106
717.97	27.826
718.29	27.615
718.61	26.772
718.93	26.744
719.24	25.856
719.56	26.104
719.88	24.399
720.20	26.136
720.51	24.904
720.83	29.344
721.15	26.891
721.46	27.419
721.78	25.692
722.10	22.305
722.42	17.427
722.73	24.898
723.05	27.755
723.37	26.695
723.68	29.730
724.00	27.778
724.32	28.000
724.63	19.091
724.95	26.201
725.27	25.346
725.58	27.542
725.90	21.825
726.22	21.622
726.53	24.746
726.85	26.592
727.16	29.434
727.48	21.457
727.80	20.648
728.11	26.695
728.43	23.922
728.74	22.984
729.06	21.600
729.38	30.075
729.69	23.108
730.01	21.538
730.32	27.612
730.64	25.088
730.96	23.774
731.27	21.333
731.59	20.000
731.90	19.427
732.22	25.868
732.53	22.924
732.85	21.277
733.16	24.579
733.48	24.460
733.80	26.087
734.11	21.017
734.43	21.993
734.74	22.121
735.06	22.150
735.37	22.659
735.69	21.212
736.00	21.603
736.32	22.483
736.63	20.423
736.95	25.256
737.26	16.370
737.58	22.819
737.89	19.414
738.21	24.436
738.52	26.337
738.83	22.707
739.15	21.834
739.46	26.772
739.78	17.582
740.09	20.588
740.41	23.913
740.72	19.291
741.04	26.721
741.35	23.830
741.66	21.327
741.98	20.408
742.29	27.228
742.61	21.466
742.92	22.275
743.23	18.056
743.55	23.077
743.86	24.402
744.18	27.273
744.49	27.128
744.80	23.370
745.12	29.412
745.43	23.902
745.74	29.167
746.06	23.902
746.37	20.419
746.68	27.488
747.00	23.404
747.31	23.881
747.62	23.301
747.94	26.316
748.25	21.782
748.56	25.137
748.88	25.131
749.19	27.660
749.50	28.079
749.82	20.755
750.13	24.312
750.44	26.316
750.75	25.373
751.07	27.372
751.38	21.456
751.69	20.784
752.01	19.767
752.32	25.498
752.63	22.134
752.94	25.000
753.26	28.452
753.57	23.982
753.88	25.221
754.19	21.250
754.51	19.008
754.82	18.623
755.13	27.083
755.44	24.597
755.75	23.047
756.07	22.179
756.38	22.264
756.69	16.858
757.00	21.333
757.31	27.124
757.63	20.122
757.94	21.667
758.25	14.795
758.56	17.287
758.87	19.547
759.18	17.757
759.50	24.000
759.81	24.080
760.12	20.323
760.43	21.212
760.74	20.988
761.05	16.308
761.36	19.886
761.67	19.394
761.99	24.490
762.30	21.455
762.61	19.763
762.92	22.172
763.23	17.117
763.54	17.757
763.85	20.763
764.16	21.577
764.47	20.968
764.78	20.147
765.10	24.242
765.41	18.297
765.72	19.365
766.03	16.541
766.34	20.073
766.65	20.717
766.96	17.677
767.27	19.149
767.58	21.839
767.89	17.730
768.20	23.295
768.51	17.033
768.82	22.660
769.13	20.276
769.44	18.884
769.75	15.982
770.06	22.414
770.37	24.519
770.68	25.381
770.99	19.457
771.30	27.451
771.61	23.529
771.92	22.845
772.23	21.675
772.54	17.742
772.85	22.840
773.16	22.472
773.47	30.719
773.78	22.876
774.09	16.766
774.39	10.667
774.70	27.389
775.01	23.448
775.32	31.429
775.63	22.314
775.94	16.794
776.25	24.409
776.56	23.333
776.87	25.000
777.18	26.496
777.48	27.586
777.79	18.261
778.10	20.000
778.41	16.216
778.72	21.429
779.03	25.564
779.34	26.241
779.65	25.342
779.95	21.233
780.26	22.759
780.57	12.195
780.88	23.622
781.19	18.103
781.50	23.256
781.80	14.793
782.11	11.321
782.42	20.769
782.73	20.144
783.04	22.963
783.34	19.444
783.65	8.547
783.96	21.311
784.27	23.448
784.57	19.512
784.88	19.531
785.19	13.000
785.50	23.000
785.81	25.000
786.11	17.241
786.42	12.621
786.73	27.273
787.04	16.327
787.34	16.964
787.65	17.143
787.96	15.929
788.26	21.818
788.57	17.949
788.88	28.125
789.19	18.254
789.49	13.913
789.80	23.469
790.11	6.061
790.41	19.091
790.72	25.000
791.03	19.318
791.33	27.500
791.64	17.500
791.95	39.535
792.25	25.532
792.56	26.966
792.87	27.397
793.17	17.391
793.48	24.000
793.79	6.250
794.09	41.250
794.40	24.528
794.70	16.505
795.01	12.195
795.32	19.658
795.62	8.571
795.93	27.451
796.23	20.755
796.54	20.833
796.85	16.176
797.15	22.535
797.46	26.389
797.76	28.788
798.07	30.233
798.37	2.632
798.68	15.152
798.99	19.753
799.29	5.714
799.60	21.739
799.90	18.667
800.21	29.508
800.51	32.308
800.82	33.898
801.12	43.478
801.43	37.705
801.73	33.333
802.04	22.000
802.34	26.866
802.65	42.308
802.95	12.500
803.26	13.462
803.56	35.294
803.87	0.000
804.17	24.000
804.48	22.222
804.78	18.519
805.09	15.217
805.39	17.778
805.70	11.111
806.00	10.526
806.30	38.028
806.61	18.571
806.91	18.056
807.22	27.632
807.52	21.333
807.83	12.727
808.13	18.056
808.43	19.118
808.74	13.433
809.04	5.085
809.35	7.692
809.65	31.250
809.95	-32.432
810.26	22.727
810.56	12.329
810.86	21.429
811.17	0.000
811.47	32.653
811.77	0.000
812.08	4.545
812.38	24.528
812.69	30.000
812.99	27.273
813.29	0.000
813.59	-14.286
813.90	34.091
814.20	23.077
814.50	25.000
814.81	33.962
815.11	0.000
815.41	27.119
815.72	11.905
816.02	37.255
816.32	27.083
816.62	-26.829
816.93	5.405
817.23	37.143
817.53	31.250
817.84	13.043
818.14	25.000
818.44	-7.895
818.74	43.478
819.04	20.000
819.35	29.730
819.65	2.941
819.95	13.889
820.25	2.381
820.56	35.000
820.86	-27.586
821.16	37.500
821.46	10.638
821.76	7.500
822.07	25.581
822.37	8.108
822.67	-6.250
822.97	16.667
823.27	46.429
823.57	8.000
823.88	29.630
824.18	57.143
824.48	0.000
824.78	19.355
825.08	47.826
825.38	24.242
825.69	-41.667
825.99	36.842
826.29	16.667
826.59	40.000
826.89	-52.381
827.19	39.130
827.49	20.000
827.79	2.857
828.09	21.429
828.39	24.242
828.70	48.649
829.00	0.000
829.30	14.286
829.60	16.667
829.90	3.125
830.20	0.000
830.50	-7.407
830.80	-17.391
831.10	-9.091
831.40	42.424
831.70	3.226
832.00	57.143
832.30	-23.810
832.60	-25.000
832.90	48.276
833.20	-35.000
833.50	-6.061
833.80	-14.815
834.10	38.462
834.40	40.625
834.70	55.556
835.00	21.053
835.30	65.385
835.60	6.667
835.90	35.484
836.20	13.636
836.50	57.143
836.80	-7.692
837.10	-3.571
837.40	-366.667
837.70	18.182
838.00	-63.636
838.30	-4.348
838.60	-7.692
838.90	18.182
839.19	7.143
839.49	43.333
839.79	-7.692
840.09	-83.333
840.39	46.429
840.69	7.143
840.99	-19.231
841.29	10.526
841.59	50.000
841.88	-54.545
842.18	40.000
842.48	-6.250
842.78	-40.000
843.08	37.037
843.38	-100.000
843.68	13.043
843.97	33.333
844.27	0.000
844.57	-40.000
844.87	16.667
845.17	-14.286
845.47	6.667
845.76	9.524
846.06	41.176
846.36	-30.000
846.66	107.143
846.96	86.667
847.25	-175.000
847.55	-28.571
847.85	-137.500
848.15	-31.818
848.44	0.000
848.74	65.000
849.04	48.148
849.34	27.273
849.63	-33.333
849.93	-20.000
850.23	-33.333
850.53	180.000
850.82	-7.692
851.12	-22.222
851.42	-20.000
851.71	38.462
852.01	-42.857
852.31	75.000
852.61	0.000
852.90	25.000
853.20	5.263
853.50	-50.000
853.79	30.435
854.09	29.167
854.39	-42.105
854.68	41.667
854.98	3.226
855.28	23.077
855.57	-50.000
855.87	-16.667
856.17	25.926
856.46	28.571
856.76	-13.333
857.05	-22.222
857.35	48.000
857.65	11.111
857.94	-76.923
858.24	41.379
858.53	22.222
858.83	22.222
859.13	22.727
859.42	39.130
859.72	100.000
860.01	-300.000
860.31	4.000
860.60	47.619
860.90	-133.333
861.20	-26.667
861.49	-800.000
861.79	-60.000
862.08	15.000
862.38	86.667
862.67	-180.000
862.97	0.000
863.26	8.333
863.56	-16.667
863.85	-300.000
864.15	-16.667
864.44	-60.000
864.74	78.571
865.03	325.000
865.33	-120.000
865.62	16.667
865.92	33.333
866.21	-166.667
866.51	-6.250
866.80	-36.364
867.10	0.000
867.39	50.000
867.69	0.000
867.98	-7.692
868.27	-400.000
868.57	-6.667
868.86	-11.111
869.16	-76.923
869.45	-6.667
869.75	-1000.000
870.04	0.000
870.33	-85.714
870.63	-4.762
870.92	233.333
871.22	-220.000
871.51	100.000
871.80	22.222
872.10	266.667
>>>>>End Processed Spectral Data<<<<<
