SpectraSuite Data File
++++++++++++++++++++++++++++++++++++
Date: Fri May 15 20:46:47 PDT 2015
User: schluterlab
Dark Spectrum Present: Yes
Reference Spectrum Present: Yes
Number of Sampled Component Spectra: 1
Spectrometers: USB2E3373
Integration Time (usec): 3000 (USB2E3373)
Spectra Averaged: 3 (USB2E3373)
Boxcar Smoothing: 0 (USB2E3373)
Correct for Electrical Dark: No (USB2E3373)
Strobe/Lamp Enabled: No (USB2E3373)
Correct for Detector Non-linearity: No (USB2E3373)
Correct for Stray Light: No (USB2E3373)
Number of Pixels in Processed Spectrum: 2048
>>>>>Begin Processed Spectral Data<<<<<
178.53	0.000
178.91	0.000
179.29	137.500
179.67	-450.000
180.04	171.429
180.42	125.000
180.80	-200.000
181.18	266.667
181.56	750.000
181.94	300.000
182.31	1700.000
182.69	-140.000
183.07	-133.333
183.45	-100.000
183.83	166.667
184.20	-63.636
184.58	188.889
184.96	-150.000
185.34	200.000
185.72	-700.000
186.09	115.385
186.47	-1600.000
186.85	83.333
187.23	100.000
187.61	-0.000
187.98	-333.333
188.36	-11.111
188.74	-200.000
189.12	17.647
189.49	61.111
189.87	0.000
190.25	21.429
190.63	-150.000
191.00	-233.333
191.38	10.526
191.76	150.000
192.14	250.000
192.51	0.000
192.89	-33.333
193.27	-28.571
193.65	350.000
194.02	172.727
194.40	10.000
194.78	-162.500
195.15	-75.000
195.53	12.500
195.91	425.000
196.29	-75.000
196.66	146.154
197.04	257.143
197.42	-22.222
197.79	-566.667
198.17	-7.692
198.55	2000.000
198.92	-366.667
199.30	-400.000
199.68	-120.000
200.05	-200.000
200.43	0.000
200.81	-166.667
201.18	300.000
201.56	500.000
201.94	-50.000
202.31	-233.333
202.69	-400.000
203.07	275.000
203.44	200.000
203.82	0.000
204.19	-50.000
204.57	-266.667
204.95	175.000
205.32	-60.000
205.70	14.286
206.08	-300.000
206.45	188.889
206.83	64.286
207.20	-142.857
207.58	200.000
207.96	-433.333
208.33	-20.000
208.71	-100.000
209.08	-300.000
209.46	-1000.000
209.84	100.000
210.21	-500.000
210.59	0.000
210.96	-66.667
211.34	0.000
211.71	53.333
212.09	-142.857
212.46	-1200.000
212.84	0.000
213.22	60.000
213.59	700.000
213.97	15.385
214.34	-54.545
214.72	-16.667
215.09	350.000
215.47	15.385
215.84	-109.091
216.22	-200.000
216.59	-62.500
216.97	-200.000
217.34	-325.000
217.72	-280.000
218.09	-25.000
218.47	125.000
218.84	-1400.000
219.22	-66.667
219.59	-360.000
219.97	433.333
220.34	325.000
220.72	-14.286
221.09	-225.000
221.47	-100.000
221.84	-250.000
222.22	-800.000
222.59	-54.545
222.97	-58.333
223.34	-266.667
223.72	-28.571
224.09	42.857
224.46	3.571
224.84	666.667
225.21	-30.000
225.59	26.667
225.96	0.000
226.34	450.000
226.71	-42.857
227.08	-150.000
227.46	50.000
227.83	-800.000
228.21	0.000
228.58	9.091
228.95	-112.500
229.33	150.000
229.70	-25.000
230.08	-25.000
230.45	-128.571
230.82	71.429
231.20	13.333
231.57	14.286
231.95	-57.143
232.32	-100.000
232.69	50.000
233.07	33.333
233.44	-80.000
233.81	-140.000
234.19	-88.889
234.56	58.824
234.93	250.000
235.31	-50.000
235.68	-420.000
236.05	-46.154
236.43	-15.000
236.80	-23.529
237.17	-18.750
237.55	45.000
237.92	0.000
238.29	22.222
238.67	3.333
239.04	5.882
239.41	-12.195
239.79	3.333
240.16	34.146
240.53	21.053
240.91	19.565
241.28	14.286
241.65	35.714
242.02	20.548
242.40	28.333
242.77	33.898
243.14	10.606
243.51	30.000
243.89	28.736
244.26	18.391
244.63	30.952
245.00	29.897
245.38	28.866
245.75	16.854
246.12	14.655
246.49	25.620
246.87	31.731
247.24	30.252
247.61	21.930
247.98	22.764
248.36	26.250
248.73	23.684
249.10	20.130
249.47	34.810
249.84	25.490
250.22	26.471
250.59	25.490
250.96	33.333
251.33	26.163
251.70	31.176
252.08	28.426
252.45	28.218
252.82	27.136
253.19	32.719
253.56	28.037
253.94	26.126
254.31	30.870
254.68	28.509
255.05	29.921
255.42	27.074
255.79	27.413
256.16	26.459
256.54	32.090
256.91	26.236
257.28	28.625
257.65	29.588
258.02	27.305
258.39	29.293
258.76	32.967
259.14	33.887
259.51	29.773
259.88	27.835
260.25	28.105
260.62	30.903
260.99	28.136
261.36	27.397
261.73	32.911
262.10	27.964
262.47	26.687
262.85	30.721
263.22	28.923
263.59	29.283
263.96	36.335
264.33	31.212
264.70	29.762
265.07	29.167
265.44	33.994
265.81	31.638
266.18	28.142
266.55	29.563
266.92	32.642
267.29	27.415
267.66	32.225
268.03	30.890
268.40	28.982
268.77	29.679
269.14	29.496
269.51	31.362
269.88	28.180
270.25	28.827
270.62	28.049
270.99	31.202
271.36	30.562
271.73	30.751
272.10	30.900
272.47	30.496
272.84	28.713
273.21	29.930
273.58	32.771
273.95	30.664
274.32	26.559
274.69	28.507
275.06	29.911
275.43	26.984
275.80	29.139
276.17	27.816
276.54	28.266
276.91	29.167
277.28	26.638
277.65	28.719
278.02	28.723
278.39	29.540
278.76	28.092
279.13	24.896
279.50	30.672
279.87	28.510
280.23	26.667
280.60	29.435
280.97	30.909
281.34	28.077
281.71	29.569
282.08	26.789
282.45	28.767
282.82	25.483
283.19	28.627
283.56	28.131
283.92	25.996
284.29	29.038
284.66	29.070
285.03	28.487
285.40	25.520
285.77	25.659
286.14	27.437
286.51	28.967
286.87	27.057
287.24	28.913
287.61	27.690
287.98	28.421
288.35	27.383
288.72	28.196
289.08	25.868
289.45	25.835
289.82	27.622
290.19	25.256
290.56	25.901
290.93	26.768
291.29	24.807
291.66	26.614
292.03	25.837
292.40	26.129
292.77	25.678
293.13	23.377
293.50	22.762
293.87	26.412
294.24	23.184
294.60	25.484
294.97	26.190
295.34	24.693
295.71	24.441
296.08	23.019
296.44	22.475
296.81	23.472
297.18	23.623
297.55	24.119
297.91	23.699
298.28	24.538
298.65	22.795
299.02	23.181
299.38	22.572
299.75	23.862
300.12	22.906
300.48	22.925
300.85	23.067
301.22	22.208
301.59	23.553
301.95	22.152
302.32	21.660
302.69	21.517
303.05	23.020
303.42	22.665
303.79	23.014
304.15	22.820
304.52	21.760
304.89	19.649
305.25	22.760
305.62	21.120
305.99	23.275
306.35	22.081
306.72	21.597
307.09	23.261
307.45	21.929
307.82	23.380
308.19	23.345
308.55	22.465
308.92	23.420
309.29	22.235
309.65	22.497
310.02	22.772
310.38	24.588
310.75	24.699
311.12	22.282
311.48	22.800
311.85	23.037
312.22	21.097
312.58	23.461
312.95	22.519
313.31	20.704
313.68	23.141
314.05	22.143
314.41	24.536
314.78	23.608
315.14	24.666
315.51	24.224
315.87	24.385
316.24	25.278
316.61	25.000
316.97	25.000
317.34	25.488
317.70	26.482
318.07	26.442
318.43	26.373
318.80	25.189
319.16	26.074
319.53	25.546
319.89	26.575
320.26	27.126
320.62	28.084
320.99	25.783
321.35	25.591
321.72	27.726
322.08	28.499
322.45	28.528
322.81	26.130
323.18	27.184
323.54	27.510
323.91	27.556
324.27	27.441
324.64	29.682
325.00	27.737
325.37	30.211
325.73	28.740
326.10	29.700
326.46	30.045
326.83	29.659
327.19	30.340
327.56	31.451
327.92	31.074
328.29	30.268
328.65	30.755
329.01	30.515
329.38	30.691
329.74	30.878
330.11	30.399
330.47	29.406
330.84	30.769
331.20	32.034
331.56	30.648
331.93	31.689
332.29	31.989
332.66	30.317
333.02	30.297
333.38	30.064
333.75	30.678
334.11	29.006
334.48	32.094
334.84	31.227
335.20	31.290
335.57	29.646
335.93	32.069
336.29	32.136
336.66	30.790
337.02	30.669
337.38	31.204
337.75	30.727
338.11	30.388
338.47	30.474
338.84	30.869
339.20	31.079
339.56	30.917
339.93	30.081
340.29	31.009
340.65	31.362
341.02	29.610
341.38	31.504
341.74	30.654
342.11	30.329
342.47	31.050
342.83	31.834
343.20	30.314
343.56	31.739
343.92	31.709
344.28	31.085
344.65	31.174
345.01	29.905
345.37	30.193
345.73	31.715
346.10	30.544
346.46	30.446
346.82	32.079
347.19	29.676
347.55	30.075
347.91	32.120
348.27	30.881
348.63	31.857
349.00	30.435
349.36	30.091
349.72	31.758
350.08	31.230
350.45	30.407
350.81	29.983
351.17	31.026
351.53	31.592
351.89	30.801
352.26	31.440
352.62	31.371
352.98	30.040
353.34	30.515
353.70	31.553
354.07	30.887
354.43	30.985
354.79	30.553
355.15	31.746
355.51	31.566
355.87	32.039
356.24	31.321
356.60	32.498
356.96	33.254
357.32	32.748
357.68	30.493
358.04	31.664
358.40	31.672
358.77	33.812
359.13	31.465
359.49	30.817
359.85	31.435
360.21	31.898
360.57	31.370
360.93	31.997
361.29	32.100
361.66	32.367
362.02	32.197
362.38	32.597
362.74	32.173
363.10	32.506
363.46	32.394
363.82	33.208
364.18	31.808
364.54	32.059
364.90	31.541
365.26	33.406
365.62	33.066
365.98	32.918
366.35	33.649
366.71	33.259
367.07	32.729
367.43	32.279
367.79	32.367
368.15	32.879
368.51	32.775
368.87	32.089
369.23	32.202
369.59	32.726
369.95	33.651
370.31	33.454
370.67	33.582
371.03	32.636
371.39	33.552
371.75	32.967
372.11	32.668
372.47	33.728
372.83	33.570
373.19	34.023
373.55	32.491
373.91	33.621
374.27	33.877
374.63	34.745
374.99	33.901
375.35	33.914
375.71	33.427
376.07	34.902
376.42	33.333
376.78	33.893
377.14	33.920
377.50	33.400
377.86	33.802
378.22	33.886
378.58	33.846
378.94	33.774
379.30	34.435
379.66	34.608
380.02	34.028
380.38	33.597
380.74	33.992
381.09	35.337
381.45	33.456
381.81	34.176
382.17	34.454
382.53	34.104
382.89	33.647
383.25	35.657
383.61	34.756
383.97	33.460
384.32	35.335
384.68	34.118
385.04	33.946
385.40	33.230
385.76	34.843
386.12	34.541
386.48	34.802
386.83	34.369
387.19	34.432
387.55	34.191
387.91	34.474
388.27	34.188
388.62	35.053
388.98	34.438
389.34	34.978
389.70	35.115
390.06	34.298
390.42	35.104
390.77	34.925
391.13	34.741
391.49	34.541
391.85	34.308
392.20	34.965
392.56	33.757
392.92	34.410
393.28	33.137
393.64	34.895
393.99	35.298
394.35	34.219
394.71	34.547
395.07	33.941
395.42	33.273
395.78	34.984
396.14	33.607
396.50	33.989
396.85	34.192
397.21	34.273
397.57	34.545
397.92	34.452
398.28	35.287
398.64	34.277
399.00	34.312
399.35	33.578
399.71	33.544
400.07	34.764
400.42	33.905
400.78	33.987
401.14	34.120
401.49	34.306
401.85	34.004
402.21	33.976
402.57	34.062
402.92	32.560
403.28	34.712
403.63	34.363
403.99	33.546
404.35	34.104
404.70	33.452
405.06	33.608
405.42	34.307
405.77	33.236
406.13	33.178
406.49	33.215
406.84	32.702
407.20	33.955
407.55	32.196
407.91	34.291
408.27	32.887
408.62	33.231
408.98	33.703
409.34	33.395
409.69	32.171
410.05	32.512
410.40	32.778
410.76	32.871
411.11	33.625
411.47	34.254
411.83	32.392
412.18	33.526
412.54	32.647
412.89	31.897
413.25	33.093
413.60	32.733
413.96	33.067
414.31	34.085
414.67	32.842
415.03	31.691
415.38	32.245
415.74	33.225
416.09	32.985
416.45	33.153
416.80	32.783
417.16	33.011
417.51	33.511
417.87	32.790
418.22	33.161
418.58	31.906
418.93	34.044
419.29	32.586
419.64	32.988
420.00	33.564
420.35	32.358
420.71	33.171
421.06	32.167
421.42	32.812
421.77	33.121
422.12	32.520
422.48	32.756
422.83	33.179
423.19	32.506
423.54	32.393
423.90	32.391
424.25	32.090
424.61	32.375
424.96	32.753
425.31	33.102
425.67	32.981
426.02	33.157
426.38	33.688
426.73	32.990
427.09	34.494
427.44	33.647
427.79	33.117
428.15	33.010
428.50	33.192
428.85	31.634
429.21	33.843
429.56	33.854
429.92	32.871
430.27	32.331
430.62	32.514
430.98	32.431
431.33	32.440
431.68	32.915
432.04	32.979
432.39	32.288
432.74	32.351
433.10	33.621
433.45	32.915
433.80	33.546
434.16	33.019
434.51	33.333
434.86	34.204
435.22	33.932
435.57	33.812
435.92	33.593
436.28	32.677
436.63	32.459
436.98	32.445
437.34	32.728
437.69	32.976
438.04	33.162
438.39	32.743
438.75	33.515
439.10	32.994
439.45	33.597
439.81	32.416
440.16	33.967
440.51	33.552
440.86	34.985
441.22	33.371
441.57	32.726
441.92	34.575
442.27	33.814
442.63	33.833
442.98	33.831
443.33	33.389
443.68	33.156
444.03	34.327
444.39	33.448
444.74	34.392
445.09	33.686
445.44	33.675
445.79	34.296
446.15	34.086
446.50	32.945
446.85	34.485
447.20	33.316
447.55	33.817
447.91	33.503
448.26	33.978
448.61	33.276
448.96	34.423
449.31	33.410
449.66	34.088
450.02	33.999
450.37	33.491
450.72	32.818
451.07	33.734
451.42	33.521
451.77	33.092
452.12	32.596
452.47	33.162
452.83	33.863
453.18	33.397
453.53	34.008
453.88	34.123
454.23	32.883
454.58	34.068
454.93	33.119
455.28	32.254
455.63	33.416
455.98	33.373
456.34	33.397
456.69	33.736
457.04	33.774
457.39	33.050
457.74	32.950
458.09	32.254
458.44	32.007
458.79	32.661
459.14	33.467
459.49	33.134
459.84	33.559
460.19	32.585
460.54	32.763
460.89	33.182
461.24	33.230
461.59	34.145
461.94	32.201
462.29	34.077
462.64	33.821
462.99	33.920
463.34	32.754
463.69	32.625
464.04	32.203
464.39	32.626
464.74	32.883
465.09	32.938
465.44	32.256
465.79	31.973
466.14	32.953
466.49	32.662
466.84	33.016
467.19	32.290
467.54	32.312
467.89	32.280
468.24	32.117
468.59	33.841
468.94	33.460
469.29	32.656
469.64	33.835
469.99	33.427
470.34	31.945
470.68	34.004
471.03	33.192
471.38	32.668
471.73	32.423
472.08	33.039
472.43	32.617
472.78	31.940
473.13	31.701
473.48	33.420
473.83	32.877
474.17	32.124
474.52	32.419
474.87	32.848
475.22	30.995
475.57	31.846
475.92	32.858
476.27	33.178
476.61	32.697
476.96	32.627
477.31	32.774
477.66	31.742
478.01	32.678
478.36	31.808
478.70	31.756
479.05	32.747
479.40	32.909
479.75	31.335
480.10	32.053
480.45	33.050
480.79	32.679
481.14	33.145
481.49	31.379
481.84	32.481
482.19	31.104
482.53	31.559
482.88	32.554
483.23	32.486
483.58	31.887
483.92	31.655
484.27	31.085
484.62	31.421
484.97	31.509
485.31	30.275
485.66	29.500
486.01	30.269
486.36	30.312
486.70	30.685
487.05	31.427
487.40	30.946
487.75	31.014
488.09	30.717
488.44	31.087
488.79	31.752
489.13	32.652
489.48	31.552
489.83	31.031
490.17	31.910
490.52	31.594
490.87	30.264
491.22	31.184
491.56	30.455
491.91	31.262
492.26	31.211
492.60	30.758
492.95	31.185
493.30	31.510
493.64	30.599
493.99	30.821
494.34	30.971
494.68	30.857
495.03	30.316
495.37	30.716
495.72	30.793
496.07	31.220
496.41	30.189
496.76	30.861
497.11	31.206
497.45	32.029
497.80	31.130
498.14	30.651
498.49	30.980
498.84	30.739
499.18	30.522
499.53	29.861
499.87	30.447
500.22	31.503
500.56	30.661
500.91	31.124
501.26	30.450
501.60	29.661
501.95	30.859
502.29	30.896
502.64	31.515
502.98	30.192
503.33	29.059
503.67	29.928
504.02	30.841
504.36	30.332
504.71	30.354
505.06	30.045
505.40	31.015
505.75	30.722
506.09	30.005
506.44	30.749
506.78	30.918
507.13	30.300
507.47	30.392
507.82	29.701
508.16	30.058
508.51	30.588
508.85	30.455
509.19	29.803
509.54	30.134
509.88	29.342
510.23	30.500
510.57	30.786
510.92	29.744
511.26	30.442
511.61	31.298
511.95	30.521
512.30	30.488
512.64	30.940
512.98	31.050
513.33	31.058
513.67	30.074
514.02	31.922
514.36	31.429
514.70	32.226
515.05	31.610
515.39	30.579
515.74	31.737
516.08	30.903
516.42	31.390
516.77	30.603
517.11	31.039
517.46	31.777
517.80	30.751
518.14	30.557
518.49	30.349
518.83	31.652
519.17	29.958
519.52	30.018
519.86	30.912
520.20	31.349
520.55	31.832
520.89	31.932
521.23	31.476
521.58	31.735
521.92	31.731
522.26	30.904
522.61	31.234
522.95	32.318
523.29	31.067
523.64	31.194
523.98	31.821
524.32	30.477
524.66	31.242
525.01	31.688
525.35	32.469
525.69	30.909
526.04	31.944
526.38	32.296
526.72	31.197
527.06	31.907
527.41	31.464
527.75	31.702
528.09	31.495
528.43	32.546
528.78	30.495
529.12	31.677
529.46	31.384
529.80	31.349
530.15	31.485
530.49	31.852
530.83	30.643
531.17	31.699
531.51	31.464
531.86	30.999
532.20	32.011
532.54	31.178
532.88	31.964
533.22	30.578
533.57	31.127
533.91	30.222
534.25	32.096
534.59	31.238
534.93	29.893
535.27	30.393
535.62	30.331
535.96	31.246
536.30	30.607
536.64	31.358
536.98	31.010
537.32	31.437
537.66	31.136
538.01	30.979
538.35	30.305
538.69	30.626
539.03	29.187
539.37	30.686
539.71	30.539
540.05	30.686
540.39	31.302
540.73	31.172
541.07	29.903
541.42	30.914
541.76	31.521
542.10	30.902
542.44	30.021
542.78	28.906
543.12	29.876
543.46	31.015
543.80	30.257
544.14	28.705
544.48	29.447
544.82	30.144
545.16	31.421
545.50	29.973
545.84	30.949
546.18	30.922
546.52	30.353
546.86	30.338
547.20	30.544
547.54	28.410
547.88	31.046
548.22	29.849
548.56	29.156
548.90	30.863
549.24	28.994
549.58	29.549
549.92	28.663
550.26	30.037
550.60	30.186
550.94	30.471
551.28	30.294
551.62	30.538
551.96	29.248
552.30	29.167
552.64	28.491
552.98	29.677
553.32	28.887
553.66	29.173
554.00	30.073
554.34	29.468
554.68	30.088
555.02	29.762
555.36	27.823
555.69	28.718
556.03	28.837
556.37	28.541
556.71	28.736
557.05	29.306
557.39	28.327
557.73	28.936
558.07	29.110
558.41	29.479
558.75	30.086
559.08	29.236
559.42	28.730
559.76	29.384
560.10	29.052
560.44	28.369
560.78	28.881
561.12	29.126
561.45	27.758
561.79	27.591
562.13	28.673
562.47	28.849
562.81	28.026
563.15	27.856
563.48	27.652
563.82	27.934
564.16	28.203
564.50	27.297
564.84	28.514
565.17	28.236
565.51	29.850
565.85	29.835
566.19	27.785
566.52	28.820
566.86	28.085
567.20	27.584
567.54	27.433
567.88	28.588
568.21	28.281
568.55	27.228
568.89	28.542
569.23	28.021
569.56	27.320
569.90	27.690
570.24	26.610
570.57	27.455
570.91	27.745
571.25	26.669
571.59	26.814
571.92	26.311
572.26	25.876
572.60	26.326
572.93	26.451
573.27	25.831
573.61	26.044
573.95	25.806
574.28	25.874
574.62	25.604
574.96	25.580
575.29	25.517
575.63	25.032
575.97	25.373
576.30	25.330
576.64	24.874
576.98	26.564
577.31	25.829
577.65	25.803
577.98	25.571
578.32	25.464
578.66	24.758
578.99	25.620
579.33	25.106
579.67	25.183
580.00	25.342
580.34	25.149
580.67	24.975
581.01	25.336
581.35	25.000
581.68	24.720
582.02	25.142
582.35	24.717
582.69	24.367
583.02	24.909
583.36	25.172
583.70	24.974
584.03	25.466
584.37	25.861
584.70	25.687
585.04	24.456
585.37	24.545
585.71	24.833
586.04	24.937
586.38	24.593
586.72	25.222
587.05	25.159
587.39	25.636
587.72	25.150
588.06	24.993
588.39	24.751
588.73	25.031
589.06	25.277
589.40	25.406
589.73	25.411
590.07	25.680
590.40	25.697
590.73	25.906
591.07	25.785
591.40	25.423
591.74	25.520
592.07	25.649
592.41	25.442
592.74	25.289
593.08	24.415
593.41	24.481
593.75	24.959
594.08	24.339
594.41	25.109
594.75	23.969
595.08	24.328
595.42	24.954
595.75	24.521
596.09	25.059
596.42	24.804
596.75	24.822
597.09	24.784
597.42	24.752
597.75	25.103
598.09	24.083
598.42	24.684
598.76	23.981
599.09	24.319
599.42	23.456
599.76	24.342
600.09	24.661
600.42	23.806
600.76	23.811
601.09	24.504
601.42	24.128
601.76	23.620
602.09	24.257
602.42	24.979
602.76	24.660
603.09	24.252
603.42	24.373
603.76	23.226
604.09	24.018
604.42	24.450
604.76	24.967
605.09	24.589
605.42	24.244
605.75	23.511
606.09	23.822
606.42	22.852
606.75	23.853
607.09	23.385
607.42	23.261
607.75	23.801
608.08	23.315
608.42	23.664
608.75	24.434
609.08	23.219
609.41	23.858
609.75	23.841
610.08	23.764
610.41	23.575
610.74	23.452
611.07	23.928
611.41	24.027
611.74	24.787
612.07	23.929
612.40	23.961
612.73	24.746
613.07	23.960
613.40	23.906
613.73	24.287
614.06	24.374
614.39	24.027
614.72	23.585
615.06	24.078
615.39	22.980
615.72	23.520
616.05	22.961
616.38	24.046
616.71	24.343
617.05	24.151
617.38	23.444
617.71	23.774
618.04	24.381
618.37	25.221
618.70	24.224
619.03	25.069
619.36	23.444
619.69	24.943
620.03	24.690
620.36	23.820
620.69	23.483
621.02	24.924
621.35	24.398
621.68	25.000
622.01	24.667
622.34	23.943
622.67	23.896
623.00	24.809
623.33	23.476
623.66	23.710
623.99	23.298
624.32	24.639
624.65	23.459
624.99	23.401
625.32	23.882
625.65	23.566
625.98	24.335
626.31	23.940
626.64	24.437
626.97	24.346
627.30	25.131
627.63	24.003
627.96	23.360
628.29	22.572
628.62	24.484
628.95	25.351
629.28	24.698
629.61	24.227
629.94	24.145
630.26	24.012
630.59	22.373
630.92	24.000
631.25	22.462
631.58	24.449
631.91	23.026
632.24	24.541
632.57	24.659
632.90	23.843
633.23	24.588
633.56	25.189
633.89	24.538
634.22	25.309
634.55	25.540
634.88	22.095
635.20	23.974
635.53	23.333
635.86	23.277
636.19	25.614
636.52	23.724
636.85	22.457
637.18	25.031
637.51	25.409
637.83	23.916
638.16	26.467
638.49	23.025
638.82	23.684
639.15	24.559
639.48	23.109
639.81	22.594
640.13	23.377
640.46	24.490
640.79	22.828
641.12	23.634
641.45	24.625
641.77	25.481
642.10	24.487
642.43	24.437
642.76	23.762
643.09	24.556
643.41	23.301
643.74	25.206
644.07	25.452
644.40	25.676
644.73	25.744
645.05	24.832
645.38	25.397
645.71	22.872
646.04	25.853
646.36	24.468
646.69	23.201
647.02	23.819
647.35	26.306
647.67	23.766
648.00	24.813
648.33	23.549
648.66	21.864
648.98	22.948
649.31	21.818
649.64	22.763
649.96	21.556
650.29	23.339
650.62	25.299
650.94	22.593
651.27	22.533
651.60	22.703
651.92	24.126
652.25	22.202
652.58	22.333
652.90	24.528
653.23	24.202
653.56	22.166
653.88	20.962
654.21	19.440
654.54	22.750
654.86	23.939
655.19	21.345
655.52	22.446
655.84	20.739
656.17	23.009
656.49	30.832
656.82	32.445
657.15	24.853
657.47	18.601
657.80	13.795
658.13	13.572
658.45	20.987
658.78	21.505
659.10	20.960
659.43	21.519
659.75	22.496
660.08	22.276
660.41	20.735
660.73	20.994
661.06	25.303
661.38	18.395
661.71	20.123
662.03	25.751
662.36	23.956
662.68	22.345
663.01	24.017
663.33	23.434
663.66	19.767
663.98	20.698
664.31	22.388
664.63	20.507
664.96	20.652
665.28	19.205
665.61	22.294
665.93	25.000
666.26	23.210
666.58	23.490
666.91	20.000
667.23	26.179
667.56	21.327
667.88	22.302
668.21	24.582
668.53	23.404
668.86	25.236
669.18	22.406
669.50	19.855
669.83	23.256
670.15	23.310
670.48	23.206
670.80	23.041
671.13	22.819
671.45	17.580
671.77	23.176
672.10	21.386
672.42	23.408
672.75	23.091
673.07	23.256
673.39	21.651
673.72	18.343
674.04	20.000
674.37	22.669
674.69	20.771
675.01	23.778
675.34	21.622
675.66	23.148
675.98	24.169
676.31	23.394
676.63	21.853
676.95	22.727
677.28	23.294
677.60	25.060
677.92	20.872
678.25	24.289
678.57	22.511
678.89	21.008
679.22	23.490
679.54	22.691
679.86	20.080
680.18	20.971
680.51	20.833
680.83	20.676
681.15	22.000
681.48	20.902
681.80	20.868
682.12	22.581
682.44	21.130
682.77	23.400
683.09	20.824
683.41	17.955
683.73	21.659
684.06	21.681
684.38	19.355
684.70	22.004
685.02	20.539
685.34	21.739
685.67	19.887
685.99	21.157
686.31	21.239
686.63	21.892
686.96	19.392
687.28	19.798
687.60	17.681
687.92	23.838
688.24	20.363
688.56	22.926
688.89	21.429
689.21	23.333
689.53	22.738
689.85	21.163
690.17	21.652
690.49	22.931
690.82	21.359
691.14	18.571
691.46	23.131
691.78	20.045
692.10	21.505
692.42	20.346
692.74	21.368
693.06	23.649
693.39	20.136
693.71	17.873
694.03	18.707
694.35	20.327
694.67	19.444
694.99	17.493
695.31	22.454
695.63	18.750
695.95	19.444
696.27	20.466
696.59	19.722
696.91	21.569
697.23	21.080
697.56	20.545
697.88	18.710
698.20	20.046
698.52	19.294
698.84	18.900
699.16	20.000
699.48	23.058
699.80	21.588
700.12	20.485
700.44	22.689
700.76	19.767
701.08	19.091
701.40	21.386
701.72	23.457
702.04	19.142
702.36	18.395
702.68	18.919
703.00	17.879
703.32	19.941
703.64	18.362
703.96	19.130
704.28	21.472
704.60	22.222
704.91	19.874
705.23	17.276
705.55	20.495
705.87	22.022
706.19	20.370
706.51	19.588
706.83	21.222
707.15	20.249
707.47	20.448
707.79	19.792
708.11	19.250
708.43	20.000
708.74	21.189
709.06	21.408
709.38	20.489
709.70	21.893
710.02	23.567
710.34	20.124
710.66	18.590
710.98	16.556
711.29	21.639
711.61	20.000
711.93	19.218
712.25	21.649
712.57	19.414
712.89	18.284
713.20	25.606
713.52	19.164
713.84	19.795
714.16	19.244
714.48	19.355
714.80	22.436
715.11	21.884
715.43	17.555
715.75	19.000
716.07	17.940
716.39	19.799
716.70	13.284
717.02	17.176
717.34	19.028
717.66	19.027
717.97	16.087
718.29	17.155
718.61	18.898
718.93	20.543
719.24	22.814
719.56	19.277
719.88	19.588
720.20	15.530
720.51	19.923
720.83	18.147
721.15	21.429
721.46	18.548
721.78	15.810
722.10	20.818
722.42	9.544
722.73	21.224
723.05	22.449
723.37	16.949
723.68	23.874
724.00	17.521
724.32	13.333
724.63	17.273
724.95	15.721
725.27	18.433
725.58	20.763
725.90	17.063
726.22	22.394
726.53	21.356
726.85	18.727
727.16	22.264
727.48	19.433
727.80	17.004
728.11	11.864
728.43	20.784
728.74	14.919
729.06	19.600
729.38	22.556
729.69	16.733
730.01	13.462
730.32	19.030
730.64	21.555
730.96	21.509
731.27	17.667
731.59	21.356
731.90	18.153
732.22	19.558
732.53	22.259
732.85	21.277
733.16	21.886
733.48	15.827
733.80	14.493
734.11	16.949
734.43	18.557
734.74	21.515
735.06	15.309
735.37	20.242
735.69	18.519
736.00	14.634
736.32	20.134
736.63	17.606
736.95	18.771
737.26	18.505
737.58	16.779
737.89	16.484
738.21	17.669
738.52	20.576
738.83	15.284
739.15	16.594
739.46	18.504
739.78	16.484
740.09	17.320
740.41	16.667
740.72	14.173
741.04	20.243
741.35	15.745
741.66	11.374
741.98	19.388
742.29	19.802
742.61	16.754
742.92	10.900
743.23	15.741
743.55	16.742
743.86	11.962
744.18	17.225
744.49	12.766
744.80	16.304
745.12	18.182
745.43	12.195
745.74	19.792
746.06	20.976
746.37	13.089
746.68	22.749
747.00	13.830
747.31	18.408
747.62	12.621
747.94	16.746
748.25	15.842
748.56	12.568
748.88	14.660
749.19	19.681
749.50	15.764
749.82	10.849
750.13	17.431
750.44	22.556
750.75	22.388
751.07	22.993
751.38	16.858
751.69	16.863
752.01	20.155
752.32	17.530
752.63	11.858
752.94	14.655
753.26	23.849
753.57	15.837
753.88	18.584
754.19	11.250
754.51	14.463
754.82	14.980
755.13	20.833
755.44	15.726
755.75	19.922
756.07	18.288
756.38	15.472
756.69	13.793
757.00	20.667
757.31	15.686
757.63	16.159
757.94	16.111
758.25	15.068
758.56	15.426
758.87	15.297
759.18	15.888
759.50	13.818
759.81	18.395
760.12	17.419
760.43	16.364
760.74	14.198
761.05	18.769
761.36	17.898
761.67	19.091
761.99	19.728
762.30	16.364
762.61	19.763
762.92	18.100
763.23	12.162
763.54	16.822
763.85	19.068
764.16	19.917
764.47	15.726
764.78	16.484
765.10	20.202
765.41	17.350
765.72	15.873
766.03	12.406
766.34	18.978
766.65	17.530
766.96	16.162
767.27	17.021
767.58	9.195
767.89	17.021
768.20	15.909
768.51	14.835
768.82	15.764
769.13	9.217
769.44	12.017
769.75	15.525
770.06	21.121
770.37	12.981
770.68	16.244
770.99	10.407
771.30	18.627
771.61	19.457
771.92	15.517
772.23	19.212
772.54	23.118
772.85	17.284
773.16	11.236
773.47	17.647
773.78	24.183
774.09	13.174
774.39	14.667
774.70	19.108
775.01	9.655
775.32	17.857
775.63	9.091
775.94	11.450
776.25	12.598
776.56	13.333
776.87	14.423
777.18	17.949
777.48	9.483
777.79	8.696
778.10	-0.952
778.41	11.712
778.72	15.079
779.03	12.782
779.34	9.929
779.65	14.384
779.95	10.274
780.26	11.724
780.57	5.691
780.88	14.961
781.19	10.345
781.50	10.853
781.80	11.243
782.11	13.836
782.42	16.154
782.73	12.950
783.04	20.000
783.34	15.972
783.65	0.000
783.96	16.393
784.27	16.552
784.57	13.008
784.88	12.500
785.19	12.000
785.50	21.000
785.81	11.207
786.11	14.655
786.42	16.505
786.73	22.727
787.04	14.286
787.34	18.750
787.65	13.333
787.96	12.389
788.26	18.182
788.57	20.513
788.88	18.750
789.19	10.317
789.49	8.696
789.80	-5.102
790.11	9.091
790.41	9.091
790.72	25.000
791.03	12.500
791.33	15.000
791.64	16.250
791.95	17.442
792.25	11.702
792.56	28.090
792.87	10.959
793.17	5.797
793.48	2.667
793.79	20.000
794.09	27.500
794.40	13.208
794.70	14.563
795.01	13.008
795.32	6.838
795.62	12.381
795.93	13.725
796.23	14.151
796.54	17.708
796.85	20.588
797.15	8.451
797.46	13.889
797.76	27.273
798.07	15.116
798.37	13.158
798.68	-1.515
798.99	0.000
799.29	1.429
799.60	4.348
799.90	17.333
800.21	8.197
800.51	27.692
800.82	16.949
801.12	23.188
801.43	34.426
801.73	17.460
802.04	16.000
802.34	-4.478
802.65	0.000
802.95	12.500
803.26	-13.462
803.56	7.843
803.87	-23.913
804.17	28.000
804.48	6.349
804.78	24.074
805.09	15.217
805.39	4.444
805.70	7.407
806.00	-5.263
806.30	23.944
806.61	14.286
806.91	0.000
807.22	15.789
807.52	18.667
807.83	0.000
808.13	9.722
808.43	8.824
808.74	1.493
809.04	-5.085
809.35	-1.923
809.65	12.500
809.95	-21.622
810.26	0.000
810.56	8.219
810.86	0.000
811.17	18.000
811.47	28.571
811.77	-7.895
812.08	9.091
812.38	9.434
812.69	0.000
812.99	-3.030
813.29	23.684
813.59	5.714
813.90	11.364
814.20	-30.769
814.50	7.692
814.81	7.547
815.11	-6.383
815.41	6.780
815.72	11.905
816.02	3.922
816.32	6.250
816.62	2.439
816.93	-8.108
817.23	14.286
817.53	25.000
817.84	13.043
818.14	13.462
818.44	2.632
818.74	6.522
819.04	-25.000
819.35	2.703
819.65	-5.882
819.95	2.778
820.25	-2.381
820.56	22.500
820.86	-44.828
821.16	15.000
821.46	17.021
821.76	0.000
822.07	-2.326
822.37	-21.622
822.67	-6.250
822.97	0.000
823.27	-17.857
823.57	-8.000
823.88	0.000
824.18	3.571
824.48	2.941
824.78	6.452
825.08	-30.435
825.38	12.121
825.69	-4.167
825.99	18.421
826.29	-11.111
826.59	-33.333
826.89	-38.095
827.19	8.696
827.49	-7.500
827.79	8.571
828.09	-10.714
828.39	45.455
828.70	48.649
829.00	-10.714
829.30	-61.905
829.60	0.000
829.90	15.625
830.20	0.000
830.50	-7.407
830.80	-21.739
831.10	4.545
831.40	12.121
831.70	25.806
832.00	23.810
832.30	14.286
832.60	-83.333
832.90	-3.448
833.20	-45.000
833.50	15.152
833.80	0.000
834.10	-3.846
834.40	25.000
834.70	33.333
835.00	-31.579
835.30	57.692
835.60	-53.333
835.90	29.032
836.20	27.273
836.50	10.714
836.80	-26.923
837.10	-14.286
837.40	-433.333
837.70	9.091
838.00	-181.818
838.30	-8.696
838.60	0.000
838.90	40.909
839.19	14.286
839.49	-13.333
839.79	7.692
840.09	-133.333
840.39	25.000
840.69	17.857
840.99	-50.000
841.29	-68.421
841.59	-60.000
841.88	-63.636
842.18	-70.000
842.48	-68.750
842.78	-66.667
843.08	0.000
843.38	-110.000
843.68	17.391
843.97	-33.333
844.27	-93.333
844.57	-65.000
844.87	-33.333
845.17	4.762
845.47	-13.333
845.76	-38.095
846.06	-23.529
846.36	50.000
846.66	-85.714
846.96	20.000
847.25	-112.500
847.55	-21.429
847.85	-87.500
848.15	-36.364
848.44	-500.000
848.74	-30.000
849.04	0.000
849.34	-45.455
849.63	-33.333
849.93	-100.000
850.23	22.222
850.53	50.000
850.82	-23.077
851.12	-122.222
851.42	-46.667
851.71	-30.769
852.01	-92.857
852.31	-25.000
852.61	-136.364
852.90	-40.000
853.20	5.263
853.50	-50.000
853.79	8.696
854.09	54.167
854.39	5.263
854.68	-4.167
854.98	32.258
855.28	15.385
855.57	-5.000
855.87	-27.778
856.17	37.037
856.46	-85.714
856.76	13.333
857.05	22.222
857.35	16.000
857.65	-27.778
857.94	7.692
858.24	27.586
858.53	11.111
858.83	0.000
859.13	4.545
859.42	-4.348
859.72	-25.000
860.01	-700.000
860.31	44.000
860.60	-14.286
860.90	-200.000
861.20	-60.000
861.49	-100.000
861.79	-13.333
862.08	-30.000
862.38	53.333
862.67	-280.000
862.97	-300.000
863.26	-33.333
863.56	27.778
863.85	-600.000
864.15	-50.000
864.44	-20.000
864.74	35.714
865.03	250.000
865.33	-40.000
865.62	16.667
865.92	0.000
866.21	-150.000
866.51	-12.500
866.80	-90.909
867.10	-450.000
867.39	16.667
867.69	0.000
867.98	0.000
868.27	-333.333
868.57	13.333
868.86	-55.556
869.16	-69.231
869.45	-6.667
869.75	-1300.000
870.04	0.000
870.33	-57.143
870.63	4.762
870.92	233.333
871.22	-360.000
871.51	-1100.000
871.80	22.222
872.10	366.667
>>>>>End Processed Spectral Data<<<<<
