SpectraSuite Data File
++++++++++++++++++++++++++++++++++++
Date: Fri May 15 20:35:45 PDT 2015
User: schluterlab
Dark Spectrum Present: Yes
Reference Spectrum Present: Yes
Number of Sampled Component Spectra: 1
Spectrometers: USB2E3373
Integration Time (usec): 3000 (USB2E3373)
Spectra Averaged: 3 (USB2E3373)
Boxcar Smoothing: 0 (USB2E3373)
Correct for Electrical Dark: No (USB2E3373)
Strobe/Lamp Enabled: No (USB2E3373)
Correct for Detector Non-linearity: No (USB2E3373)
Correct for Stray Light: No (USB2E3373)
Number of Pixels in Processed Spectrum: 2048
>>>>>Begin Processed Spectral Data<<<<<
178.53	0.000
178.91	0.000
179.29	-12.500
179.67	-700.000
180.04	-0.000
180.42	-25.000
180.80	-100.000
181.18	-66.667
181.56	400.000
181.94	-200.000
182.31	1100.000
182.69	-160.000
183.07	-300.000
183.45	-80.000
183.83	150.000
184.20	-18.182
184.58	100.000
184.96	-0.000
185.34	33.333
185.72	-450.000
186.09	76.923
186.47	-400.000
186.85	-16.667
187.23	177.778
187.61	-400.000
187.98	-533.333
188.36	-77.778
188.74	-366.667
189.12	5.882
189.49	-22.222
189.87	0.000
190.25	85.714
190.63	-250.000
191.00	-566.667
191.38	-21.053
191.76	-300.000
192.14	275.000
192.51	400.000
192.89	-111.111
193.27	-171.429
193.65	333.333
194.02	200.000
194.40	-100.000
194.78	-112.500
195.15	-66.667
195.53	-125.000
195.91	425.000
196.29	-100.000
196.66	46.154
197.04	100.000
197.42	-33.333
197.79	-400.000
198.17	-115.385
198.55	2200.000
198.92	-333.333
199.30	-300.000
199.68	-160.000
200.05	-366.667
200.43	0.000
200.81	-266.667
201.18	-166.667
201.56	1700.000
201.94	-150.000
202.31	166.667
202.69	-300.000
203.07	75.000
203.44	-400.000
203.82	0.000
204.19	-21.429
204.57	-433.333
204.95	212.500
205.32	-20.000
205.70	-42.857
206.08	-75.000
206.45	111.111
206.83	50.000
207.20	0.000
207.58	300.000
207.96	-233.333
208.33	-170.000
208.71	-75.000
209.08	-283.333
209.46	-1500.000
209.84	-120.000
210.21	-500.000
210.59	-85.714
210.96	116.667
211.34	-25.000
211.71	53.333
212.09	-171.429
212.46	-800.000
212.84	0.000
213.22	60.000
213.59	300.000
213.97	76.923
214.34	-9.091
214.72	-166.667
215.09	200.000
215.47	-69.231
215.84	-27.273
216.22	-266.667
216.59	-75.000
216.97	250.000
217.34	0.000
217.72	-280.000
218.09	-12.500
218.47	137.500
218.84	300.000
219.22	-111.111
219.59	-220.000
219.97	500.000
220.34	575.000
220.72	-71.429
221.09	-200.000
221.47	-100.000
221.84	-800.000
222.22	-450.000
222.59	-9.091
222.97	-33.333
223.34	-300.000
223.72	-92.857
224.09	-38.095
224.46	28.571
224.84	500.000
225.21	-70.000
225.59	26.667
225.96	-300.000
226.34	350.000
226.71	28.571
227.08	-216.667
227.46	-87.500
227.83	-750.000
228.21	-55.556
228.58	-72.727
228.95	-50.000
229.33	70.000
229.70	-68.750
230.08	-50.000
230.45	-214.286
230.82	42.857
231.20	-40.000
231.57	-7.143
231.95	-185.714
232.32	-90.000
232.69	21.429
233.07	-66.667
233.44	-180.000
233.81	-150.000
234.19	-77.778
234.56	0.000
234.93	200.000
235.31	-150.000
235.68	-400.000
236.05	-115.385
236.43	-95.000
236.80	-23.529
237.17	12.500
237.55	-5.000
237.92	-51.852
238.29	0.000
238.67	-3.333
239.04	-8.824
239.41	-26.829
239.79	-40.000
240.16	-17.073
240.53	-23.684
240.91	-19.565
241.28	1.587
241.65	3.571
242.02	9.589
242.40	-11.667
242.77	-6.780
243.14	-3.030
243.51	7.500
243.89	8.046
244.26	1.149
244.63	-4.762
245.00	3.093
245.38	7.216
245.75	-13.483
246.12	-2.586
246.49	0.826
246.87	-0.962
247.24	-9.244
247.61	-15.789
247.98	-6.504
248.36	0.625
248.73	3.289
249.10	-2.597
249.47	3.165
249.84	0.000
250.22	0.588
250.59	1.961
250.96	7.042
251.33	0.000
251.70	2.941
252.08	5.584
252.45	2.475
252.82	6.030
253.19	2.304
253.56	-0.935
253.94	4.955
254.31	7.391
254.68	7.895
255.05	3.937
255.42	3.930
255.79	4.633
256.16	3.502
256.54	7.463
256.91	2.662
257.28	3.346
257.65	2.622
258.02	0.709
258.39	4.377
258.76	5.495
259.14	2.658
259.51	1.618
259.88	3.780
260.25	2.614
260.62	6.944
260.99	1.356
261.36	1.027
261.73	5.063
262.10	5.775
262.47	3.988
262.85	5.016
263.22	2.769
263.59	5.296
263.96	5.590
264.33	3.030
264.70	4.167
265.07	3.869
265.44	4.816
265.81	3.107
266.18	6.557
266.55	4.884
266.92	7.772
267.29	4.178
267.66	3.069
268.03	6.021
268.40	4.439
268.77	8.824
269.14	3.837
269.51	6.427
269.88	2.244
270.25	5.102
270.62	1.220
270.99	1.279
271.36	2.689
271.73	7.042
272.10	3.406
272.47	7.092
272.84	4.703
273.21	7.657
273.58	7.711
273.95	6.636
274.32	3.464
274.69	2.036
275.06	4.018
275.43	1.587
275.80	4.857
276.17	4.598
276.54	2.570
276.91	5.921
277.28	3.930
277.65	5.165
278.02	4.681
278.39	3.939
278.76	4.193
279.13	1.037
279.50	5.042
279.87	4.752
280.23	2.151
280.60	3.509
280.97	5.455
281.34	4.808
281.71	6.982
282.08	2.863
282.45	3.523
282.82	4.054
283.19	6.190
283.56	2.697
283.92	4.175
284.29	3.269
284.66	4.264
285.03	3.536
285.40	4.348
285.77	4.394
286.14	4.693
286.51	4.428
286.87	3.108
287.24	3.683
287.61	3.175
287.98	5.088
288.35	2.946
288.72	4.378
289.08	2.778
289.45	4.745
289.82	3.846
290.19	4.096
290.56	5.146
290.93	5.219
291.29	2.619
291.66	5.197
292.03	3.668
292.40	3.387
292.77	3.987
293.13	3.084
293.50	2.731
293.87	4.122
294.24	3.400
294.60	4.620
294.97	5.804
295.34	3.374
295.71	5.663
296.08	4.634
296.44	2.418
296.81	4.306
297.18	3.333
297.55	5.691
297.91	2.466
298.28	5.541
298.65	2.849
299.02	4.987
299.38	0.684
299.75	2.345
300.12	2.880
300.48	2.767
300.85	4.816
301.22	4.026
301.59	3.026
301.95	6.076
302.32	4.929
302.69	3.607
303.05	3.342
303.42	4.981
303.79	3.037
304.15	4.421
304.52	2.140
304.89	3.860
305.25	3.632
305.62	3.151
305.99	3.158
306.35	3.468
306.72	1.800
307.09	3.649
307.45	4.133
307.82	3.356
308.19	3.252
308.55	4.253
308.92	5.447
309.29	3.128
309.65	3.660
310.02	4.180
310.38	4.061
310.75	3.825
311.12	3.122
311.48	4.242
311.85	4.712
312.22	2.954
312.58	5.308
312.95	4.696
313.31	4.141
313.68	4.921
314.05	3.571
314.41	4.742
314.78	3.814
315.14	5.653
315.51	5.901
315.87	5.225
316.24	7.482
316.61	6.988
316.97	6.548
317.34	6.348
317.70	6.883
318.07	7.115
318.43	6.961
318.80	7.955
319.16	8.301
319.53	9.307
319.89	9.252
320.26	8.603
320.62	8.826
320.99	8.246
321.35	9.147
321.72	9.761
322.08	11.581
322.45	10.863
322.81	11.984
323.18	10.795
323.54	11.486
323.91	11.003
324.27	12.305
324.64	13.390
325.00	14.325
325.37	15.243
325.73	12.783
326.10	14.623
326.46	15.516
326.83	15.923
327.19	15.780
327.56	15.986
327.92	17.430
328.29	16.964
328.65	17.075
329.01	17.831
329.38	18.157
329.74	17.847
330.11	18.536
330.47	18.182
330.84	17.019
331.20	21.293
331.56	19.352
331.93	19.543
332.29	20.532
332.66	17.919
333.02	18.773
333.38	18.240
333.75	18.956
334.11	18.442
334.48	21.034
334.84	18.498
335.20	21.043
335.57	18.586
335.93	20.054
336.29	19.705
336.66	19.709
337.02	18.866
337.38	18.796
337.75	19.000
338.11	20.469
338.47	19.982
338.84	20.148
339.20	19.927
339.56	20.275
339.93	18.532
340.29	20.092
340.65	20.430
341.02	20.390
341.38	19.735
341.74	19.700
342.11	18.718
342.47	20.196
342.83	20.675
343.20	19.861
343.56	20.435
343.92	20.549
344.28	19.812
344.65	19.862
345.01	19.101
345.37	20.185
345.73	20.418
346.10	20.966
346.46	20.858
346.82	19.640
347.19	18.953
347.55	20.134
347.91	20.469
348.27	19.159
348.63	20.869
349.00	19.688
349.36	21.197
349.72	20.564
350.08	20.328
350.45	21.149
350.81	20.017
351.17	19.055
351.53	21.714
351.89	20.149
352.26	20.080
352.62	21.855
352.98	19.839
353.34	18.519
353.70	20.955
354.07	20.645
354.43	19.616
354.79	20.314
355.15	20.952
355.51	20.332
355.87	20.712
356.24	19.086
356.60	20.372
356.96	21.349
357.32	20.447
357.68	19.859
358.04	21.486
358.40	20.740
358.77	21.212
359.13	20.496
359.49	20.570
359.85	21.529
360.21	20.654
360.57	20.735
360.93	21.029
361.29	20.242
361.66	21.238
362.02	21.591
362.38	21.554
362.74	20.742
363.10	21.896
363.46	21.942
363.82	22.539
364.18	20.369
364.54	20.294
364.90	21.219
365.26	21.689
365.62	22.847
365.98	23.167
366.35	21.923
366.71	21.064
367.07	22.134
367.43	22.358
367.79	21.413
368.15	21.895
368.51	22.141
368.87	21.895
369.23	21.516
369.59	22.813
369.95	22.947
370.31	22.254
370.67	22.463
371.03	21.509
371.39	21.007
371.75	21.758
372.11	21.826
372.47	22.485
372.83	22.569
373.19	23.324
373.55	23.249
373.91	23.110
374.27	23.884
374.63	24.121
374.99	22.979
375.35	22.493
375.71	23.427
376.07	23.666
376.42	23.401
376.78	24.027
377.14	23.697
377.50	23.572
377.86	23.226
378.22	23.612
378.58	24.359
378.94	23.693
379.30	23.331
379.66	24.890
380.02	24.218
380.38	23.554
380.74	24.237
381.09	25.767
381.45	24.893
381.81	23.874
382.17	25.888
382.53	24.610
382.89	25.361
383.25	24.767
383.61	25.610
383.97	24.889
384.32	25.641
384.68	25.697
385.04	25.306
385.40	24.767
385.76	26.730
386.12	26.714
386.48	26.884
386.83	26.633
387.19	24.908
387.55	26.474
387.91	25.611
388.27	25.275
388.62	27.124
388.98	26.765
389.34	26.733
389.70	27.160
390.06	27.124
390.42	26.295
390.77	26.750
391.13	26.166
391.49	26.520
391.85	27.615
392.20	27.244
392.56	26.510
392.92	27.246
393.28	27.241
393.64	27.147
393.99	27.900
394.35	27.071
394.71	27.522
395.07	26.713
395.42	27.019
395.78	27.883
396.14	27.175
396.50	27.267
396.85	26.980
397.21	27.256
397.57	26.897
397.92	27.262
398.28	27.069
398.64	26.566
399.00	27.709
399.35	27.088
399.71	27.398
400.07	28.900
400.42	28.458
400.78	28.291
401.14	28.131
401.49	28.886
401.85	27.422
402.21	27.590
402.57	28.062
402.92	26.349
403.28	28.885
403.63	27.617
403.99	27.742
404.35	28.670
404.70	27.738
405.06	27.791
405.42	27.408
405.77	27.135
406.13	27.474
406.49	27.353
406.84	28.484
407.20	28.296
407.55	27.560
407.91	26.805
408.27	27.725
408.62	27.938
408.98	27.665
409.34	27.571
409.69	27.390
410.05	27.155
410.40	27.160
410.76	28.347
411.11	28.062
411.47	28.600
411.83	26.616
412.18	27.735
412.54	27.154
412.89	27.401
413.25	28.159
413.60	27.888
413.96	26.933
414.31	28.110
414.67	27.903
415.03	27.630
415.38	27.676
415.74	28.599
416.09	27.825
416.45	28.359
416.80	27.297
417.16	28.453
417.51	27.981
417.87	28.162
418.22	29.016
418.58	27.893
418.93	29.530
419.29	27.209
419.64	29.877
420.00	29.723
420.35	28.299
420.71	28.190
421.06	28.422
421.42	28.846
421.77	28.382
422.12	28.093
422.48	28.966
422.83	28.538
423.19	28.499
423.54	28.748
423.90	27.856
424.25	28.990
424.61	29.498
424.96	28.746
425.31	29.521
425.67	28.345
426.02	30.094
426.38	30.307
426.73	29.358
427.09	30.000
427.44	30.176
427.79	29.817
428.15	30.158
428.50	28.589
428.85	28.256
429.21	29.145
429.56	29.919
429.92	29.635
430.27	29.323
430.62	29.012
430.98	29.512
431.33	30.336
431.68	29.984
432.04	29.961
432.39	28.979
432.74	28.503
433.10	30.460
433.45	28.973
433.80	30.586
434.16	29.474
434.51	29.355
434.86	30.197
435.22	29.557
435.57	31.004
435.92	30.180
436.28	30.292
436.63	29.264
436.98	29.143
437.34	29.583
437.69	30.471
438.04	29.345
438.39	29.872
438.75	31.330
439.10	30.730
439.45	30.310
439.81	29.541
440.16	31.235
440.51	30.388
440.86	31.360
441.22	30.769
441.57	30.077
441.92	30.325
442.27	29.989
442.63	31.049
442.98	30.557
443.33	30.440
443.68	29.602
444.03	30.700
444.39	31.431
444.74	30.881
445.09	30.679
445.44	30.142
445.79	31.253
446.15	31.333
446.50	30.338
446.85	30.393
447.20	29.979
447.55	31.306
447.91	30.231
448.26	31.019
448.61	30.225
448.96	31.325
449.31	31.850
449.66	30.314
450.02	30.462
450.37	31.120
450.72	29.954
451.07	31.582
451.42	30.462
451.77	30.500
452.12	29.725
452.47	30.650
452.83	30.271
453.18	30.424
453.53	30.973
453.88	30.723
454.23	30.424
454.58	30.227
454.93	31.250
455.28	29.587
455.63	29.820
455.98	30.066
456.34	30.396
456.69	31.321
457.04	31.002
457.39	29.222
457.74	29.807
458.09	29.429
458.44	30.018
458.79	29.692
459.14	29.863
459.49	30.149
459.84	29.385
460.19	30.158
460.54	31.112
460.89	30.909
461.24	30.435
461.59	30.404
461.94	29.874
462.29	30.639
462.64	30.233
462.99	29.113
463.34	29.207
463.69	29.537
464.04	29.358
464.39	29.351
464.74	29.387
465.09	29.944
465.44	29.486
465.79	28.685
466.14	29.818
466.49	29.097
466.84	30.399
467.19	28.974
467.54	29.183
467.89	28.869
468.24	28.893
468.59	30.032
468.94	29.016
469.29	29.180
469.64	28.776
469.99	29.643
470.34	29.147
470.68	28.859
471.03	29.016
471.38	28.317
471.73	29.202
472.08	27.883
472.43	27.987
472.78	27.759
473.13	29.184
473.48	28.469
473.83	29.078
474.17	28.821
474.52	28.398
474.87	28.182
475.22	27.639
475.57	28.628
475.92	29.073
476.27	28.347
476.61	29.167
476.96	28.109
477.31	28.935
477.66	28.989
478.01	27.681
478.36	27.669
478.70	28.167
479.05	29.011
479.40	28.829
479.75	27.842
480.10	27.291
480.45	27.850
480.79	28.197
481.14	28.432
481.49	27.291
481.84	28.089
482.19	26.567
482.53	27.962
482.88	28.067
483.23	26.344
483.58	27.028
483.92	28.122
484.27	27.119
484.62	27.387
484.97	26.741
485.31	26.770
485.66	25.927
486.01	27.146
486.36	26.673
486.70	27.441
487.05	27.317
487.40	27.120
487.75	26.789
488.09	26.143
488.44	26.685
488.79	26.522
489.13	26.683
489.48	26.422
489.83	25.964
490.17	25.663
490.52	26.236
490.87	25.590
491.22	26.266
491.56	26.613
491.91	26.099
492.26	25.960
492.60	25.576
492.95	27.152
493.30	25.452
493.64	26.375
493.99	26.522
494.34	25.243
494.68	25.286
495.03	26.083
495.37	25.662
495.72	25.644
496.07	25.512
496.41	25.236
496.76	25.242
497.11	24.499
497.45	25.251
497.80	26.034
498.14	24.342
498.49	24.835
498.84	25.299
499.18	25.100
499.53	24.554
499.87	24.611
500.22	24.481
500.56	25.013
500.91	24.096
501.26	24.469
501.60	24.102
501.95	24.503
502.29	23.535
502.64	24.180
502.98	24.815
503.33	23.919
503.67	23.952
504.02	24.682
504.36	23.998
504.71	23.636
505.06	23.301
505.40	23.858
505.75	24.278
506.09	24.328
506.44	23.973
506.78	24.082
507.13	23.164
507.47	22.663
507.82	23.130
508.16	22.979
508.51	24.292
508.85	23.077
509.19	23.736
509.54	24.236
509.88	23.301
510.23	22.862
510.57	23.036
510.92	21.855
511.26	22.313
511.61	22.717
511.95	22.904
512.30	22.949
512.64	22.760
512.98	22.684
513.33	22.888
513.67	22.570
514.02	23.398
514.36	23.943
514.70	22.494
515.05	22.855
515.39	22.727
515.74	23.353
516.08	22.415
516.42	23.027
516.77	22.060
517.11	22.789
517.46	22.801
517.80	21.633
518.14	20.331
518.49	21.875
518.83	21.567
519.17	20.922
519.52	21.670
519.86	20.528
520.20	21.385
520.55	20.388
520.89	21.895
521.23	21.976
521.58	21.136
521.92	21.667
522.26	20.755
522.61	21.494
522.95	22.119
523.29	21.029
523.64	21.093
523.98	21.063
524.32	19.716
524.66	20.743
525.01	21.688
525.35	21.192
525.69	20.875
526.04	19.841
526.38	21.012
526.72	19.490
527.06	20.817
527.41	20.580
527.75	20.174
528.09	19.668
528.43	21.607
528.78	19.208
529.12	19.742
529.46	19.883
529.80	19.886
530.15	21.254
530.49	19.529
530.83	20.109
531.17	20.215
531.51	20.383
531.86	19.579
532.20	18.580
532.54	20.422
532.88	20.739
533.22	20.228
533.57	19.659
533.91	18.734
534.25	19.987
534.59	19.371
534.93	19.824
535.27	18.655
535.62	18.082
535.96	20.091
536.30	18.799
536.64	19.366
536.98	18.606
537.32	18.990
537.66	18.513
538.01	19.371
538.35	18.100
538.69	18.642
539.03	17.908
539.37	18.573
539.71	18.609
540.05	18.194
540.39	19.114
540.73	19.805
541.07	18.439
541.42	18.952
541.76	19.133
542.10	18.100
542.44	18.624
542.78	17.756
543.12	16.827
543.46	18.289
543.80	18.043
544.14	17.223
544.48	18.388
544.82	18.319
545.16	18.306
545.50	18.825
545.84	18.201
546.18	18.156
546.52	17.592
546.86	17.973
547.20	17.811
547.54	16.396
547.88	17.935
548.22	16.634
548.56	17.480
548.90	17.857
549.24	16.736
549.58	18.124
549.92	16.798
550.26	16.850
550.60	16.803
550.94	17.326
551.28	16.461
551.62	17.077
551.96	16.466
552.30	17.398
552.64	16.855
552.98	16.456
553.32	16.904
553.66	17.344
554.00	16.350
554.34	16.174
554.68	15.634
555.02	16.890
555.36	16.305
555.69	15.092
556.03	15.917
556.37	15.730
556.71	16.895
557.05	16.704
557.39	15.539
557.73	16.717
558.07	17.119
558.41	16.309
558.75	14.965
559.08	15.051
559.42	16.032
559.76	16.013
560.10	16.284
560.44	15.711
560.78	14.825
561.12	15.867
561.45	16.374
561.79	16.176
562.13	15.046
562.47	15.683
562.81	15.634
563.15	16.361
563.48	15.347
563.82	16.060
564.16	15.390
564.50	15.608
564.84	16.265
565.17	14.956
565.51	15.847
565.85	15.021
566.19	15.385
566.52	15.684
566.86	16.581
567.20	15.380
567.54	15.085
567.88	15.466
568.21	16.063
568.55	14.946
568.89	15.862
569.23	15.744
569.56	15.193
569.90	15.631
570.24	15.482
570.57	15.418
570.91	14.918
571.25	14.535
571.59	14.326
571.92	14.726
572.26	14.432
572.60	14.760
572.93	14.716
573.27	14.639
573.61	14.618
573.95	14.773
574.28	14.274
574.62	14.061
574.96	14.410
575.29	14.614
575.63	14.330
575.97	13.960
576.30	14.057
576.64	14.119
576.98	14.054
577.31	14.426
577.65	14.151
577.98	14.624
578.32	13.681
578.66	14.077
578.99	14.319
579.33	13.490
579.67	14.080
580.00	14.253
580.34	13.856
580.67	13.749
581.01	14.049
581.35	14.040
581.68	13.954
582.02	13.544
582.35	13.668
582.69	14.083
583.02	13.907
583.36	14.313
583.70	14.356
584.03	14.095
584.37	14.766
584.70	14.396
585.04	13.031
585.37	13.538
585.71	13.774
586.04	13.767
586.38	13.657
586.72	13.974
587.05	13.749
587.39	13.978
587.72	14.024
588.06	13.839
588.39	13.814
588.73	13.767
589.06	14.384
589.40	13.515
589.73	14.202
590.07	14.464
590.40	13.467
590.73	14.539
591.07	13.953
591.40	13.580
591.74	14.208
592.07	14.100
592.41	13.516
592.74	12.585
593.08	12.993
593.41	13.377
593.75	13.379
594.08	12.908
594.41	12.809
594.75	12.405
595.08	13.243
595.42	12.771
595.75	13.406
596.09	13.839
596.42	13.105
596.75	13.233
597.09	13.576
597.42	13.098
597.75	13.239
598.09	12.902
598.42	12.274
598.76	12.613
599.09	13.101
599.42	12.770
599.76	13.055
600.09	12.971
600.42	12.813
600.76	12.890
601.09	12.748
601.42	12.260
601.76	12.783
602.09	12.583
602.42	13.058
602.76	12.946
603.09	12.542
603.42	13.211
603.76	12.500
604.09	12.677
604.42	12.521
604.76	12.817
605.09	12.751
605.42	12.460
605.75	12.478
606.09	12.314
606.42	12.761
606.75	12.511
607.09	12.659
607.42	12.317
607.75	12.522
608.08	11.680
608.42	12.608
608.75	12.916
609.08	12.357
609.41	12.741
609.75	12.248
610.08	12.581
610.41	11.594
610.74	12.140
611.07	11.628
611.41	12.247
611.74	12.900
612.07	11.938
612.40	12.856
612.73	11.864
613.07	11.136
613.40	12.144
613.73	11.192
614.06	12.131
614.39	12.183
614.72	11.821
615.06	12.514
615.39	11.627
615.72	12.110
616.05	12.682
616.38	11.453
616.71	11.621
617.05	11.736
617.38	11.879
617.71	12.956
618.04	12.444
618.37	12.421
618.70	12.541
619.03	13.333
619.36	11.505
619.69	11.600
620.03	13.294
620.36	11.874
620.69	11.849
621.02	12.385
621.35	11.618
621.68	12.755
622.01	11.583
622.34	12.610
622.67	11.751
623.00	11.868
623.33	12.805
623.66	10.920
623.99	11.498
624.32	11.331
624.65	11.504
624.99	12.566
625.32	10.614
625.65	12.176
625.98	11.926
626.31	11.222
626.64	11.438
626.97	11.780
627.30	12.347
627.63	11.958
627.96	12.219
628.29	11.193
628.62	11.308
628.95	10.721
629.28	10.988
629.61	10.568
629.94	12.903
630.26	12.451
630.59	11.238
630.92	12.308
631.25	11.692
631.58	12.115
631.91	11.623
632.24	10.665
632.57	11.932
632.90	11.032
633.23	10.941
633.56	11.461
633.89	11.221
634.22	11.728
634.55	9.530
634.88	11.750
635.20	11.795
635.53	9.867
635.86	10.273
636.19	12.290
636.52	11.990
636.85	11.414
637.18	10.189
637.51	11.447
637.83	10.775
638.16	12.688
638.49	11.989
638.82	12.237
639.15	9.905
639.48	11.967
639.81	11.158
640.13	11.400
640.46	10.496
640.79	10.162
641.12	9.601
641.45	10.210
641.77	10.963
642.10	11.374
642.43	8.199
642.76	10.231
643.09	11.955
643.41	9.547
643.74	11.367
644.07	12.315
644.40	10.642
644.73	10.858
645.05	10.906
645.38	9.171
645.71	9.929
646.04	10.592
646.36	9.220
646.69	12.050
647.02	10.775
647.35	9.701
647.67	12.614
648.00	12.687
648.33	11.263
648.66	9.492
648.98	8.543
649.31	8.760
649.64	9.733
649.96	9.887
650.29	10.562
650.62	9.573
650.94	10.556
651.27	9.683
651.60	11.892
651.92	11.189
652.25	9.591
652.58	11.000
652.90	10.292
653.23	10.084
653.56	7.953
653.88	9.450
654.21	6.480
654.54	11.036
654.86	11.036
655.19	10.673
655.52	11.765
655.84	10.316
656.17	11.309
656.49	15.442
656.82	16.210
657.15	12.584
657.47	9.505
657.80	6.961
658.13	6.992
658.45	10.483
658.78	11.217
659.10	11.027
659.43	11.031
659.75	10.705
660.08	10.483
660.41	11.032
660.73	9.807
661.06	11.438
661.38	8.415
661.71	7.187
662.03	10.086
662.36	9.670
662.68	9.071
663.01	10.917
663.33	6.497
663.66	7.907
663.98	9.070
664.31	10.661
664.63	11.751
664.96	6.957
665.28	8.168
665.61	9.307
665.93	8.913
666.26	8.894
666.58	8.501
666.91	9.882
667.23	9.670
667.56	9.716
667.88	10.072
668.21	10.024
668.53	10.402
668.86	8.019
669.18	9.906
669.50	10.169
669.83	5.814
670.15	9.790
670.48	9.569
670.80	10.599
671.13	7.383
671.45	7.991
671.77	10.515
672.10	9.505
672.42	8.989
672.75	9.947
673.07	13.059
673.39	11.009
673.72	6.903
674.04	8.333
674.37	10.805
674.69	6.852
675.01	9.778
675.34	8.559
675.66	9.259
675.98	9.756
676.31	9.862
676.63	6.888
676.95	6.364
677.28	10.824
677.60	9.157
677.92	7.110
678.25	11.379
678.57	7.792
678.89	9.874
679.22	8.725
679.54	8.434
679.86	6.362
680.18	9.320
680.51	11.364
680.83	6.362
681.15	8.400
681.48	10.656
681.80	10.950
682.12	7.460
682.44	9.833
682.77	9.713
683.09	8.238
683.41	5.682
683.73	9.677
684.06	6.195
684.38	7.957
684.70	8.715
685.02	5.809
685.34	6.719
685.67	9.006
685.99	12.116
686.31	9.912
686.63	8.905
686.96	7.795
687.28	7.475
687.60	7.605
687.92	9.697
688.24	9.073
688.56	10.044
688.89	6.473
689.21	9.556
689.53	9.745
689.85	6.977
690.17	8.929
690.49	7.092
690.82	9.951
691.14	8.333
691.46	6.542
691.78	8.784
692.10	9.677
692.42	8.442
692.74	10.470
693.06	9.685
693.39	5.656
693.71	7.014
694.03	8.083
694.35	9.346
694.67	5.051
694.99	8.877
695.31	10.705
695.63	8.250
695.95	8.081
696.27	6.218
696.59	8.611
696.91	7.283
697.23	7.455
697.56	6.436
697.88	10.108
698.20	9.795
698.52	9.647
698.84	6.459
699.16	6.000
699.48	11.028
699.80	8.189
700.12	10.782
700.44	7.003
700.76	5.523
701.08	7.576
701.40	6.024
701.72	12.963
702.04	6.931
702.36	5.686
702.68	4.805
703.00	7.576
703.32	7.918
703.64	7.627
703.96	7.536
704.28	8.589
704.60	9.524
704.91	8.202
705.23	7.309
705.55	12.721
705.87	9.386
706.19	5.926
706.51	9.278
706.83	9.646
707.15	7.165
707.47	11.485
707.79	4.948
708.11	11.750
708.43	8.500
708.74	10.336
709.06	10.704
709.38	6.422
709.70	7.988
710.02	8.599
710.34	9.288
710.66	6.731
710.98	3.974
711.29	10.820
711.61	8.814
711.93	9.772
712.25	11.340
712.57	4.762
712.89	3.731
713.20	4.498
713.52	5.923
713.84	8.532
714.16	5.155
714.48	5.806
714.80	8.013
715.11	10.030
715.43	6.897
715.75	8.333
716.07	3.654
716.39	5.705
716.70	8.118
717.02	4.962
717.34	9.312
717.66	7.965
717.97	6.087
718.29	5.858
718.61	9.843
718.93	5.814
719.24	9.886
719.56	4.016
719.88	6.529
720.20	4.167
720.51	4.598
720.83	6.564
721.15	6.303
721.46	4.839
721.78	2.372
722.10	8.550
722.42	5.809
722.73	8.980
723.05	12.245
723.37	11.441
723.68	8.559
724.00	10.684
724.32	4.889
724.63	5.909
724.95	8.734
725.27	5.069
725.58	10.593
725.90	4.762
726.22	13.127
726.53	10.169
726.85	9.738
727.16	9.057
727.48	3.239
727.80	11.336
728.11	6.780
728.43	6.275
728.74	0.806
729.06	4.800
729.38	12.030
729.69	7.968
730.01	2.308
730.32	10.821
730.64	13.074
730.96	7.170
731.27	9.000
731.59	5.424
731.90	6.688
732.22	13.565
732.53	12.292
732.85	5.674
733.16	9.428
733.48	3.237
733.80	5.797
734.11	8.814
734.43	6.873
734.74	7.576
735.06	7.818
735.37	6.344
735.69	6.061
736.00	2.439
736.32	5.705
736.63	8.099
736.95	10.239
737.26	6.050
737.58	2.685
737.89	4.029
738.21	6.767
738.52	9.465
738.83	7.860
739.15	4.803
739.46	11.024
739.78	3.663
740.09	8.170
740.41	10.145
740.72	3.150
741.04	4.858
741.35	3.830
741.66	7.583
741.98	6.633
742.29	4.950
742.61	6.283
742.92	0.000
743.23	3.704
743.55	8.145
743.86	3.349
744.18	8.134
744.49	2.128
744.80	-1.630
745.12	9.091
745.43	4.390
745.74	11.458
746.06	5.854
746.37	6.806
746.68	11.374
747.00	5.319
747.31	9.950
747.62	2.913
747.94	5.263
748.25	3.465
748.56	3.279
748.88	2.094
749.19	10.638
749.50	6.897
749.82	1.415
750.13	-1.835
750.44	8.647
750.75	10.448
751.07	9.489
751.38	7.663
751.69	1.176
752.01	7.752
752.32	7.570
752.63	6.324
752.94	6.466
753.26	12.971
753.57	3.620
753.88	2.655
754.19	4.583
754.51	4.545
754.82	7.287
755.13	9.583
755.44	8.468
755.75	7.422
756.07	7.004
756.38	2.264
756.69	1.533
757.00	8.000
757.31	6.536
757.63	1.829
757.94	8.333
758.25	7.123
758.56	7.713
758.87	5.666
759.18	6.542
759.50	5.818
759.81	9.699
760.12	6.452
760.43	5.455
760.74	7.099
761.05	8.615
761.36	7.955
761.67	8.485
761.99	7.143
762.30	6.545
762.61	8.696
762.92	2.715
763.23	7.207
763.54	1.869
763.85	3.390
764.16	3.734
764.47	8.871
764.78	6.227
765.10	10.101
765.41	7.256
765.72	4.762
766.03	1.128
766.34	9.489
766.65	5.578
766.96	7.071
767.27	7.979
767.58	5.747
767.89	-7.092
768.20	3.977
768.51	7.143
768.82	7.389
769.13	2.765
769.44	3.433
769.75	1.370
770.06	3.448
770.37	5.288
770.68	2.538
770.99	4.525
771.30	7.843
771.61	7.692
771.92	9.052
772.23	3.448
772.54	12.903
772.85	3.086
773.16	5.056
773.47	18.301
773.78	5.882
774.09	5.988
774.39	3.333
774.70	5.096
775.01	11.724
775.32	2.857
775.63	-0.826
775.94	2.290
776.25	11.024
776.56	-2.500
776.87	4.808
777.18	-1.709
777.48	8.621
777.79	6.957
778.10	-4.762
778.41	-1.802
778.72	7.937
779.03	2.256
779.34	6.383
779.65	7.534
779.95	3.425
780.26	2.069
780.57	-2.439
780.88	7.087
781.19	7.759
781.50	1.550
781.80	4.142
782.11	5.660
782.42	2.308
782.73	1.439
783.04	6.667
783.34	-0.694
783.65	-5.128
783.96	7.377
784.27	6.897
784.57	9.756
784.88	7.813
785.19	10.000
785.50	10.000
785.81	12.069
786.11	0.000
786.42	-7.767
786.73	7.273
787.04	-1.020
787.34	1.786
787.65	8.571
787.96	8.850
788.26	2.727
788.57	-2.564
788.88	5.469
789.19	0.794
789.49	8.696
789.80	-2.041
790.11	-1.010
790.41	-0.909
790.72	9.783
791.03	6.818
791.33	13.750
791.64	-5.000
791.95	8.140
792.25	7.447
792.56	1.124
792.87	-15.068
793.17	-4.348
793.48	0.000
793.79	-6.250
794.09	3.750
794.40	-6.604
794.70	0.971
795.01	-9.756
795.32	-3.419
795.62	8.571
795.93	8.824
796.23	7.547
796.54	6.250
796.85	4.412
797.15	-11.268
797.46	12.500
797.76	-1.515
798.07	-2.326
798.37	-7.895
798.68	1.515
798.99	-7.407
799.29	-8.571
799.60	-17.391
799.90	5.333
800.21	-6.557
800.51	-3.077
800.82	-13.559
801.12	-1.449
801.43	-11.475
801.73	0.000
802.04	-12.000
802.34	5.970
802.65	-1.923
802.95	-10.714
803.26	-7.692
803.56	-1.961
803.87	-21.739
804.17	20.000
804.48	-1.587
804.78	-7.407
805.09	-13.043
805.39	-33.333
805.70	-20.370
806.00	-26.316
806.30	14.085
806.61	-5.714
806.91	-12.500
807.22	6.579
807.52	10.667
807.83	-29.091
808.13	6.944
808.43	5.882
808.74	1.493
809.04	-25.424
809.35	-19.231
809.65	-7.812
809.95	-45.946
810.26	-4.545
810.56	4.110
810.86	-21.429
811.17	6.000
811.47	16.327
811.77	-10.526
812.08	2.273
812.38	7.547
812.69	2.500
812.99	-30.303
813.29	5.263
813.59	-25.714
813.90	-6.818
814.20	-25.641
814.50	-5.769
814.81	0.000
815.11	-23.404
815.41	8.475
815.72	-2.381
816.02	7.843
816.32	-18.750
816.62	-12.195
816.93	-18.919
817.23	-17.143
817.53	0.000
817.84	4.348
818.14	0.000
818.44	2.632
818.74	-15.217
819.04	-25.000
819.35	-10.811
819.65	-23.529
819.95	-25.000
820.25	-9.524
820.56	40.000
820.86	-6.897
821.16	15.000
821.46	21.277
821.76	25.000
822.07	11.628
822.37	-2.703
822.67	-34.375
822.97	19.048
823.27	-7.143
823.57	-40.000
823.88	-22.222
824.18	-10.714
824.48	-17.647
824.78	-19.355
825.08	-4.348
825.38	-6.061
825.69	-58.333
825.99	10.526
826.29	5.556
826.59	-80.000
826.89	-80.952
827.19	-8.696
827.49	-5.000
827.79	-37.143
828.09	17.857
828.39	-3.030
828.70	27.027
829.00	-60.714
829.30	-100.000
829.60	-23.333
829.90	-15.625
830.20	-5.263
830.50	-40.741
830.80	-30.435
831.10	-54.545
831.40	3.030
831.70	12.903
832.00	0.000
832.30	-33.333
832.60	-75.000
832.90	10.345
833.20	-50.000
833.50	3.030
833.80	-40.741
834.10	-46.154
834.40	-21.875
834.70	-111.111
835.00	-36.842
835.30	0.000
835.60	53.333
835.90	-3.226
836.20	-54.545
836.50	-17.857
836.80	-42.308
837.10	-21.429
837.40	-533.333
837.70	13.636
838.00	-63.636
838.30	8.696
838.60	7.692
838.90	-27.273
839.19	-7.143
839.49	40.000
839.79	-107.692
840.09	-50.000
840.39	10.714
840.69	3.571
840.99	-26.923
841.29	-63.158
841.59	-170.000
841.88	-27.273
842.18	-80.000
842.48	-31.250
842.78	-46.667
843.08	-7.407
843.38	-150.000
843.68	0.000
843.97	6.667
844.27	-60.000
844.57	-35.000
844.87	-22.222
845.17	-28.571
845.47	13.333
845.76	-47.619
846.06	-35.294
846.36	-100.000
846.66	-78.571
846.96	-20.000
847.25	-250.000
847.55	14.286
847.85	-87.500
848.15	-59.091
848.44	-466.667
848.74	25.000
849.04	-11.111
849.34	-63.636
849.63	-166.667
849.93	-340.000
850.23	-27.778
850.53	20.000
850.82	-15.385
851.12	-44.444
851.42	-13.333
851.71	-11.538
852.01	-42.857
852.31	-250.000
852.61	-118.182
852.90	25.000
853.20	-26.316
853.50	16.667
853.79	-43.478
854.09	-41.667
854.39	-84.211
854.68	4.167
854.98	-12.903
855.28	-3.846
855.57	-10.000
855.87	-27.778
856.17	-14.815
856.46	-7.143
856.76	-80.000
857.05	-22.222
857.35	-12.000
857.65	-72.222
857.94	-7.692
858.24	-20.690
858.53	-11.111
858.83	22.222
859.13	9.091
859.42	-21.739
859.72	-225.000
860.01	-500.000
860.31	-4.000
860.60	-19.048
860.90	-500.000
861.20	-80.000
861.49	-600.000
861.79	-13.333
862.08	20.000
862.38	73.333
862.67	-140.000
862.97	-16.667
863.26	0.000
863.56	83.333
863.85	-333.333
864.15	33.333
864.44	-70.000
864.74	14.286
865.03	550.000
865.33	-240.000
865.62	0.000
865.92	-91.667
866.21	-116.667
866.51	43.750
866.80	-72.727
867.10	-450.000
867.39	66.667
867.69	0.000
867.98	-53.846
868.27	-266.667
868.57	-26.667
868.86	0.000
869.16	-92.308
869.45	-40.000
869.75	-1100.000
870.04	0.000
870.33	-271.429
870.63	-14.286
870.92	500.000
871.22	-240.000
871.51	-900.000
871.80	122.222
872.10	500.000
>>>>>End Processed Spectral Data<<<<<
