SpectraSuite Data File
++++++++++++++++++++++++++++++++++++
Date: Fri May 15 20:58:11 PDT 2015
User: schluterlab
Dark Spectrum Present: Yes
Reference Spectrum Present: Yes
Number of Sampled Component Spectra: 1
Spectrometers: USB2E3373
Integration Time (usec): 3000 (USB2E3373)
Spectra Averaged: 3 (USB2E3373)
Boxcar Smoothing: 0 (USB2E3373)
Correct for Electrical Dark: No (USB2E3373)
Strobe/Lamp Enabled: No (USB2E3373)
Correct for Detector Non-linearity: No (USB2E3373)
Correct for Stray Light: No (USB2E3373)
Number of Pixels in Processed Spectrum: 2048
>>>>>Begin Processed Spectral Data<<<<<
178.53	0.000
178.91	0.000
179.29	50.000
179.67	-500.000
180.04	-57.143
180.42	-25.000
180.80	500.000
181.18	266.667
181.56	500.000
181.94	50.000
182.31	200.000
182.69	100.000
183.07	-566.667
183.45	-220.000
183.83	116.667
184.20	54.545
184.58	233.333
184.96	25.000
185.34	566.667
185.72	-250.000
186.09	84.615
186.47	-500.000
186.85	133.333
187.23	66.667
187.61	-600.000
187.98	-233.333
188.36	-11.111
188.74	-133.333
189.12	52.941
189.49	16.667
189.87	0.000
190.25	35.714
190.63	-300.000
191.00	-233.333
191.38	0.000
191.76	100.000
192.14	-100.000
192.51	-100.000
192.89	-77.778
193.27	-28.571
193.65	83.333
194.02	145.455
194.40	70.000
194.78	-162.500
195.15	-50.000
195.53	-112.500
195.91	400.000
196.29	-150.000
196.66	123.077
197.04	71.429
197.42	11.111
197.79	-700.000
198.17	-138.462
198.55	1300.000
198.92	-333.333
199.30	400.000
199.68	-100.000
200.05	-200.000
200.43	0.000
200.81	-133.333
201.18	-100.000
201.56	1200.000
201.94	-50.000
202.31	200.000
202.69	-20.000
203.07	50.000
203.44	-600.000
203.82	0.000
204.19	21.429
204.57	-400.000
204.95	112.500
205.32	-50.000
205.70	-85.714
206.08	25.000
206.45	133.333
206.83	57.143
207.20	-214.286
207.58	-0.000
207.96	-266.667
208.33	-80.000
208.71	-275.000
209.08	-133.333
209.46	-1200.000
209.84	-60.000
210.21	-800.000
210.59	0.000
210.96	-33.333
211.34	-50.000
211.71	40.000
212.09	-142.857
212.46	-2300.000
212.84	0.000
213.22	110.000
213.59	450.000
213.97	-23.077
214.34	45.455
214.72	-83.333
215.09	375.000
215.47	0.000
215.84	-45.455
216.22	133.333
216.59	-112.500
216.97	300.000
217.34	-100.000
217.72	-160.000
218.09	-37.500
218.47	175.000
218.84	-1000.000
219.22	-144.444
219.59	-180.000
219.97	566.667
220.34	25.000
220.72	71.429
221.09	-225.000
221.47	-200.000
221.84	-500.000
222.22	-600.000
222.59	-45.455
222.97	16.667
223.34	-200.000
223.72	-21.429
224.09	33.333
224.46	10.714
224.84	66.667
225.21	20.000
225.59	6.667
225.96	-200.000
226.34	400.000
226.71	-42.857
227.08	-83.333
227.46	12.500
227.83	-450.000
228.21	-11.111
228.58	100.000
228.95	62.500
229.33	160.000
229.70	31.250
230.08	-87.500
230.45	-171.429
230.82	-14.286
231.20	0.000
231.57	100.000
231.95	-14.286
232.32	-110.000
232.69	50.000
233.07	66.667
233.44	-120.000
233.81	-150.000
234.19	55.556
234.56	-5.882
234.93	50.000
235.31	200.000
235.68	-140.000
236.05	-84.615
236.43	35.000
236.80	35.294
237.17	56.250
237.55	50.000
237.92	-7.407
238.29	25.000
238.67	50.000
239.04	5.882
239.41	-12.195
239.79	13.333
240.16	51.220
240.53	23.684
240.91	6.522
241.28	22.222
241.65	48.214
242.02	28.767
242.40	26.667
242.77	32.203
243.14	28.788
243.51	25.000
243.89	34.483
244.26	31.034
244.63	32.143
245.00	36.082
245.38	27.835
245.75	17.978
246.12	23.276
246.49	33.058
246.87	32.692
247.24	31.092
247.61	17.544
247.98	27.642
248.36	35.625
248.73	24.342
249.10	27.922
249.47	32.911
249.84	32.026
250.22	27.647
250.59	35.294
250.96	37.089
251.33	25.581
251.70	30.588
252.08	28.934
252.45	36.634
252.82	30.151
253.19	37.788
253.56	29.907
253.94	35.135
254.31	33.043
254.68	29.825
255.05	29.921
255.42	34.498
255.79	34.363
256.16	32.685
256.54	38.433
256.91	35.741
257.28	30.855
257.65	30.337
258.02	27.305
258.39	30.976
258.76	38.095
259.14	36.545
259.51	32.039
259.88	32.302
260.25	30.719
260.62	33.333
260.99	27.797
261.36	29.795
261.73	30.696
262.10	31.915
262.47	30.982
262.85	36.364
263.22	35.077
263.59	33.022
263.96	34.161
264.33	33.636
264.70	33.036
265.07	34.821
265.44	35.694
265.81	32.768
266.18	34.699
266.55	34.704
266.92	36.528
267.29	33.943
267.66	31.969
268.03	33.508
268.40	32.898
268.77	35.829
269.14	32.134
269.51	37.018
269.88	29.676
270.25	30.867
270.62	30.732
270.99	30.946
271.36	31.785
271.73	30.986
272.10	34.550
272.47	34.279
272.84	30.198
273.21	32.019
273.58	35.422
273.95	32.265
274.32	33.487
274.69	30.543
275.06	35.045
275.43	31.973
275.80	31.347
276.17	31.954
276.54	32.120
276.91	30.921
277.28	31.659
277.65	31.198
278.02	30.638
278.39	31.729
278.76	32.495
279.13	27.801
279.50	32.773
279.87	29.374
280.23	30.968
280.60	31.969
280.97	34.343
281.34	29.808
281.71	32.238
282.08	33.129
282.45	30.920
282.82	31.081
283.19	30.368
283.56	31.985
283.92	29.981
284.29	31.154
284.66	32.946
285.03	29.862
285.40	29.112
285.77	27.065
286.14	32.310
286.51	30.996
286.87	29.433
287.24	30.018
287.61	30.159
287.98	31.053
288.35	28.769
288.72	31.874
289.08	26.910
289.45	30.756
289.82	28.671
290.19	28.669
290.56	28.645
290.93	27.778
291.29	26.502
291.66	28.819
292.03	27.432
292.40	28.710
292.77	27.751
293.13	25.487
293.50	25.797
293.87	26.870
294.24	27.357
294.60	25.335
294.97	25.595
295.34	25.307
295.71	25.186
296.08	26.906
296.44	24.324
296.81	25.833
297.18	25.217
297.55	26.694
297.91	25.068
298.28	25.726
298.65	23.066
299.02	23.854
299.38	22.025
299.75	23.724
300.12	23.037
300.48	22.925
300.85	24.968
301.22	24.805
301.59	24.079
301.95	23.797
302.32	25.292
302.69	23.881
303.05	24.257
303.42	24.408
303.79	23.832
304.15	23.536
304.52	22.235
304.89	23.860
305.25	23.487
305.62	21.470
305.99	21.637
306.35	23.699
306.72	22.497
307.09	24.059
307.45	24.455
307.82	24.190
308.19	24.158
308.55	23.555
308.92	25.163
309.29	22.235
309.65	23.036
310.02	25.193
310.38	24.588
310.75	25.246
311.12	25.942
311.48	25.133
311.85	25.550
312.22	25.316
312.58	26.645
312.95	25.187
313.31	26.190
313.68	26.492
314.05	26.122
314.41	25.979
314.78	28.144
315.14	29.085
315.51	28.675
315.87	29.713
316.24	28.817
316.61	28.543
316.97	30.258
317.34	28.516
317.70	30.019
318.07	29.712
318.43	31.961
318.80	30.208
319.16	32.910
319.53	31.814
319.89	32.874
320.26	32.389
320.62	32.999
320.99	33.612
321.35	33.607
321.72	34.891
322.08	34.542
322.45	35.127
322.81	34.971
323.18	37.095
323.54	36.486
323.91	37.488
324.27	38.770
324.64	37.640
325.00	40.693
325.37	39.578
325.73	40.163
326.10	40.327
326.46	42.511
326.83	41.732
327.19	42.633
327.56	43.614
327.92	45.687
328.29	43.661
328.65	45.755
329.01	45.680
329.38	46.544
329.74	45.231
330.11	46.617
330.47	46.475
330.84	46.442
331.20	50.000
331.56	47.407
331.93	49.041
332.29	49.313
332.66	48.416
333.02	48.327
333.38	49.313
333.75	49.267
334.11	48.881
334.48	50.589
334.84	48.993
335.20	51.144
335.57	48.957
335.93	50.136
336.29	49.816
336.66	49.955
337.02	50.372
337.38	49.537
337.75	50.455
338.11	48.242
338.47	51.825
338.84	50.185
339.20	49.909
339.56	51.560
339.93	50.313
340.29	51.743
340.65	51.254
341.02	51.862
341.38	49.912
341.74	49.912
342.11	48.440
342.47	51.512
342.83	50.692
343.20	49.739
343.56	50.783
343.92	52.879
344.28	52.092
344.65	51.986
345.01	52.290
345.37	50.294
345.73	50.544
346.10	50.475
346.46	51.051
346.82	50.000
347.19	50.208
347.55	51.629
347.91	51.537
348.27	49.313
348.63	53.066
349.00	52.666
349.36	51.372
349.72	53.151
350.08	51.475
350.45	51.476
350.81	51.993
351.17	51.384
351.53	52.082
351.89	50.702
352.26	51.840
352.62	51.371
352.98	50.763
353.34	50.966
353.70	51.294
354.07	53.306
354.43	50.841
354.79	52.766
355.15	52.222
355.51	53.244
355.87	51.861
356.24	52.692
356.60	53.032
356.96	52.540
357.32	51.278
357.68	52.619
358.04	53.473
358.40	52.733
358.77	54.147
359.13	52.922
359.49	52.003
359.85	53.354
360.21	53.509
360.57	52.793
360.93	52.345
361.29	53.097
361.66	54.389
362.02	54.242
362.38	54.303
362.74	54.504
363.10	55.079
363.46	53.669
363.82	56.499
364.18	54.170
364.54	53.897
364.90	55.627
365.26	54.221
365.62	57.518
365.98	55.572
366.35	56.300
366.71	56.763
367.07	56.241
367.43	54.637
367.79	55.336
368.15	56.066
368.51	55.572
368.87	55.994
369.23	55.162
369.59	56.341
369.95	58.065
370.31	56.647
370.67	57.761
371.03	56.759
371.39	57.039
371.75	57.729
372.11	56.919
372.47	58.802
372.83	57.700
373.19	55.991
373.55	57.112
373.91	57.235
374.27	57.406
374.63	56.640
374.99	57.801
375.35	58.148
375.71	58.811
376.07	58.989
376.42	58.095
376.78	59.195
377.14	58.903
377.50	58.964
377.86	59.772
378.22	58.647
378.58	60.128
378.94	58.727
379.30	59.888
379.66	60.752
380.02	59.595
380.38	60.316
380.74	59.904
381.09	60.000
381.45	60.183
381.81	60.271
382.17	60.977
382.53	60.400
382.89	60.578
383.25	61.854
383.61	61.951
383.97	62.159
384.32	60.913
384.68	61.053
385.04	60.539
385.40	61.605
385.76	62.390
386.12	61.514
386.48	62.452
386.83	62.334
387.19	62.454
387.55	63.425
387.91	62.653
388.27	61.416
388.62	63.499
388.98	62.554
389.34	62.836
389.70	63.083
390.06	63.059
390.42	62.694
390.77	62.721
391.13	63.619
391.49	63.260
391.85	63.158
392.20	62.461
392.56	63.128
392.92	62.889
393.28	64.387
393.64	62.763
393.99	65.392
394.35	64.579
394.71	64.304
395.07	63.042
395.42	63.874
395.78	65.537
396.14	64.880
396.50	66.455
396.85	65.229
397.21	65.414
397.57	65.016
397.92	63.571
398.28	65.862
398.64	64.157
399.00	65.406
399.35	64.616
399.71	64.963
400.07	65.296
400.42	63.097
400.78	65.524
401.14	64.428
401.49	65.575
401.85	64.290
402.21	65.904
402.57	66.438
402.92	65.496
403.28	66.917
403.63	66.646
403.99	66.135
404.35	66.896
404.70	64.405
405.06	64.689
405.42	65.444
405.77	65.776
406.13	66.414
406.49	65.305
406.84	67.604
407.20	67.309
407.55	64.520
407.91	66.578
408.27	66.348
408.62	65.785
408.98	65.373
409.34	66.233
409.69	66.860
410.05	66.010
410.40	66.667
410.76	67.008
411.11	67.062
411.47	66.995
411.83	66.541
412.18	67.889
412.54	66.542
412.89	66.256
413.25	67.329
413.60	66.646
413.96	65.583
414.31	66.524
414.67	66.966
415.03	67.244
415.38	65.992
415.74	67.036
416.09	66.950
416.45	66.779
416.80	68.143
417.16	69.061
417.51	66.489
417.87	66.949
418.22	67.811
418.58	68.094
418.93	68.589
419.29	67.222
419.64	68.633
420.00	69.458
420.35	67.403
420.71	66.889
421.06	67.587
421.42	69.231
421.77	68.439
422.12	66.686
422.48	67.840
422.83	67.053
423.19	67.946
423.54	68.372
423.90	67.373
424.25	69.747
424.61	68.482
424.96	68.467
425.31	70.942
425.67	69.190
426.02	70.141
426.38	70.507
426.73	68.765
427.09	70.380
427.44	69.647
427.79	69.593
428.15	69.296
428.50	68.504
428.85	68.305
429.21	69.213
429.56	69.488
429.92	68.978
430.27	68.321
430.62	68.636
430.98	70.064
431.33	68.191
431.68	68.289
432.04	70.151
432.39	68.967
432.74	68.851
433.10	68.908
433.45	69.534
433.80	68.601
434.16	69.529
434.51	69.194
434.86	70.209
435.22	70.667
435.57	70.618
435.92	68.922
436.28	68.634
436.63	70.108
436.98	69.061
437.34	70.599
437.69	71.855
438.04	70.769
438.39	70.495
438.75	71.767
439.10	70.741
439.45	72.307
439.81	70.459
440.16	71.437
440.51	72.060
440.86	73.172
441.22	70.305
441.57	71.689
441.92	72.718
442.27	71.729
442.63	69.914
442.98	70.419
443.33	70.006
443.68	69.284
444.03	71.187
444.39	70.585
444.74	73.077
445.09	69.878
445.44	71.282
445.79	73.079
446.15	70.925
446.50	71.381
446.85	70.882
447.20	70.542
447.55	72.154
447.91	70.333
448.26	71.713
448.61	72.712
448.96	71.888
449.31	71.098
449.66	70.616
450.02	71.363
450.37	71.429
450.72	71.535
451.07	70.570
451.42	70.100
451.77	71.248
452.12	70.634
452.47	71.346
452.83	70.377
453.18	70.968
453.53	72.061
453.88	71.463
454.23	72.649
454.58	72.733
454.93	71.649
455.28	72.063
455.63	71.854
455.98	71.437
456.34	71.711
456.69	72.109
457.04	72.401
457.39	72.904
457.74	73.035
458.09	71.630
458.44	71.679
458.79	70.924
459.14	71.796
459.49	71.881
459.84	71.292
460.19	72.087
460.54	72.372
460.89	70.966
461.24	72.112
461.59	71.259
461.94	70.314
462.29	71.653
462.64	72.625
462.99	72.715
463.34	72.045
463.69	72.201
464.04	72.397
464.39	72.286
464.74	72.331
465.09	73.113
465.44	72.014
465.79	70.465
466.14	70.410
466.49	71.995
466.84	71.624
467.19	72.215
467.54	70.817
467.89	72.584
468.24	71.776
468.59	72.762
468.94	72.127
469.29	73.115
469.64	72.522
469.99	74.912
470.34	72.969
470.68	75.317
471.03	74.735
471.38	74.108
471.73	74.370
472.08	73.948
472.43	74.430
472.78	72.173
473.13	74.558
473.48	75.309
473.83	72.665
474.17	74.352
474.52	72.431
474.87	72.909
475.22	73.337
475.57	72.840
475.92	73.889
476.27	72.410
476.61	74.595
476.96	70.998
477.31	72.580
477.66	72.360
478.01	73.105
478.36	71.786
478.70	75.258
479.05	74.451
479.40	73.821
479.75	73.879
480.10	73.477
480.45	73.450
480.79	72.910
481.14	74.283
481.49	72.956
481.84	73.649
482.19	73.059
482.53	74.245
482.88	72.029
483.23	72.409
483.58	72.830
483.92	73.282
484.27	71.149
484.62	72.165
484.97	70.730
485.31	69.184
485.66	66.335
486.01	66.215
486.36	65.515
486.70	66.126
487.05	67.724
487.40	67.606
487.75	68.197
488.09	68.511
488.44	69.257
488.79	70.639
489.13	70.513
489.48	72.253
489.83	72.422
490.17	72.360
490.52	72.240
490.87	73.161
491.22	74.212
491.56	73.672
491.91	74.522
492.26	75.109
492.60	73.608
492.95	74.029
493.30	72.594
493.64	75.196
493.99	74.155
494.34	74.029
494.68	72.619
495.03	72.506
495.37	74.779
495.72	75.013
496.07	74.000
496.41	73.443
496.76	72.501
497.11	72.939
497.45	74.988
497.80	75.782
498.14	72.678
498.49	74.759
498.84	73.004
499.18	73.996
499.53	74.058
499.87	73.541
500.22	74.926
500.56	75.139
500.91	74.749
501.26	73.159
501.60	74.668
501.95	73.702
502.29	75.642
502.64	74.469
502.98	75.728
503.33	73.199
503.67	74.217
504.02	74.536
504.36	75.260
504.71	74.495
505.06	74.233
505.40	75.736
505.75	76.443
506.09	74.962
506.44	77.207
506.78	76.020
507.13	74.819
507.47	74.830
507.82	75.694
508.16	75.436
508.51	76.023
508.85	76.609
509.19	76.530
509.54	77.158
509.88	75.944
510.23	76.977
510.57	76.162
510.92	75.213
511.26	76.596
511.61	76.623
511.95	77.096
512.30	77.273
512.64	77.351
512.98	77.765
513.33	77.336
513.67	77.885
514.02	79.176
514.36	78.171
514.70	78.788
515.05	80.846
515.39	80.106
515.74	80.958
516.08	80.215
516.42	80.565
516.77	80.281
517.11	80.890
517.46	81.927
517.80	80.930
518.14	81.751
518.49	79.327
518.83	80.923
519.17	79.624
519.52	79.751
519.86	80.852
520.20	80.377
520.55	80.050
520.89	81.870
521.23	82.711
521.58	82.524
521.92	83.333
522.26	82.694
522.61	82.532
522.95	85.099
523.29	81.004
523.64	83.164
523.98	83.215
524.32	82.925
524.66	83.099
525.01	83.442
525.35	82.437
525.69	83.502
526.04	82.937
526.38	85.798
526.72	81.818
527.06	82.750
527.41	82.916
527.75	82.976
528.09	82.193
528.43	83.727
528.78	82.904
529.12	83.226
529.46	83.626
529.80	81.634
530.15	83.498
530.49	84.377
530.83	83.926
531.17	82.606
531.51	84.337
531.86	83.345
532.20	83.716
532.54	83.935
532.88	82.820
533.22	82.124
533.57	81.979
533.91	81.854
534.25	83.659
534.59	82.104
534.93	82.379
535.27	80.584
535.62	81.011
535.96	83.040
536.30	82.586
536.64	82.908
536.98	81.394
537.32	85.420
537.66	82.749
538.01	83.357
538.35	83.495
538.69	80.559
539.03	80.519
539.37	81.898
539.71	82.209
540.05	82.349
540.39	82.548
540.73	82.915
541.07	82.044
541.42	80.645
541.76	83.689
542.10	82.450
542.44	82.349
542.78	80.110
543.12	80.495
543.46	80.876
543.80	82.651
544.14	78.638
544.48	81.546
544.82	81.750
545.16	81.489
545.50	80.107
545.84	82.365
546.18	82.270
546.52	81.759
546.86	79.583
547.20	81.974
547.54	80.283
547.88	81.318
548.22	78.961
548.56	80.409
548.90	81.806
549.24	78.719
549.58	81.946
549.92	79.986
550.26	81.245
550.60	82.379
550.94	83.570
551.28	83.849
551.62	84.538
551.96	82.180
552.30	81.433
552.64	80.465
552.98	81.575
553.32	80.171
553.66	80.842
554.00	83.650
554.34	82.053
554.68	80.752
555.02	83.185
555.36	82.423
555.69	81.612
556.03	81.941
556.37	79.858
556.71	82.094
557.05	83.221
557.39	80.743
557.73	82.984
558.07	82.881
558.41	83.691
558.75	83.009
559.08	85.500
559.42	86.032
559.76	84.227
560.10	82.034
560.44	81.683
560.78	80.280
561.12	81.312
561.45	81.799
561.79	82.493
562.13	81.334
562.47	81.942
562.81	81.772
563.15	80.113
563.48	80.976
563.82	81.332
564.16	79.387
564.50	79.797
564.84	79.585
565.17	80.215
565.51	82.036
565.85	81.139
566.19	80.172
566.52	78.887
566.86	79.370
567.20	77.522
567.54	77.616
567.88	78.149
568.21	77.149
568.55	76.359
568.89	74.641
569.23	73.375
569.56	72.461
569.90	71.661
570.24	69.297
570.57	69.964
570.91	69.711
571.25	67.576
571.59	67.082
571.92	66.104
572.26	66.365
572.60	65.860
572.93	67.493
573.27	65.235
573.61	65.811
573.95	65.074
574.28	64.566
574.62	64.378
574.96	63.849
575.29	62.973
575.63	62.685
575.97	63.594
576.30	64.240
576.64	62.914
576.98	64.505
577.31	63.750
577.65	63.349
577.98	62.172
578.32	62.461
578.66	61.380
578.99	61.535
579.33	61.729
579.67	61.998
580.00	63.089
580.34	62.935
580.67	62.710
581.01	62.680
581.35	62.102
581.68	60.972
582.02	60.635
582.35	60.910
582.69	61.473
583.02	60.842
583.36	62.101
583.70	62.928
584.03	64.165
584.37	64.286
584.70	63.104
585.04	61.891
585.37	62.187
585.71	62.380
586.04	61.800
586.38	62.363
586.72	64.218
587.05	64.009
587.39	63.321
587.72	64.516
588.06	62.746
588.39	63.144
588.73	63.462
589.06	64.873
589.40	64.570
589.73	65.827
590.07	66.465
590.40	65.712
590.73	68.451
591.07	67.176
591.40	67.854
591.74	67.330
592.07	69.388
592.41	67.845
592.74	65.552
593.08	64.059
593.41	63.624
593.75	64.115
594.08	63.817
594.41	64.847
594.75	64.695
595.08	65.456
595.42	65.550
595.75	64.814
596.09	66.224
596.42	66.432
596.75	67.362
597.09	67.335
597.42	66.983
597.75	67.842
598.09	66.999
598.42	66.426
598.76	65.680
599.09	65.665
599.42	63.850
599.76	64.071
600.09	64.480
600.42	64.443
600.76	63.893
601.09	64.542
601.42	63.964
601.76	65.502
602.09	65.058
602.42	66.596
602.76	66.426
603.09	65.822
603.42	66.890
603.76	64.234
604.09	65.492
604.42	65.525
604.76	66.667
605.09	66.682
605.42	65.869
605.75	65.981
606.09	65.775
606.42	64.387
606.75	65.108
607.09	66.198
607.42	65.751
607.75	65.231
608.08	63.926
608.42	65.692
608.75	66.988
609.08	68.062
609.41	67.107
609.75	65.575
610.08	67.000
610.41	66.039
610.74	66.992
611.07	68.010
611.41	67.359
611.74	69.563
612.07	66.328
612.40	67.560
612.73	69.661
613.07	68.616
613.40	69.584
613.73	68.327
614.06	68.559
614.39	68.302
614.72	67.339
615.06	68.045
615.39	65.611
615.72	67.115
616.05	68.380
616.38	67.009
616.71	69.052
617.05	70.229
617.38	70.773
617.71	70.252
618.04	71.175
618.37	71.122
618.70	72.277
619.03	71.667
619.36	71.563
619.69	74.299
620.03	74.215
620.36	73.176
620.69	73.448
621.02	75.076
621.35	76.266
621.68	76.190
622.01	77.333
622.34	75.020
622.67	73.975
623.00	74.732
623.33	74.238
623.66	73.298
623.99	72.920
624.32	73.308
624.65	73.008
624.99	73.589
625.32	73.237
625.65	75.884
625.98	74.940
626.31	75.145
626.64	76.863
626.97	77.836
627.30	76.795
627.63	77.556
627.96	76.819
628.29	78.816
628.62	80.334
628.95	80.060
629.28	83.266
629.61	79.163
629.94	79.570
630.26	77.273
630.59	81.686
630.92	81.231
631.25	80.308
631.58	83.480
631.91	83.114
632.24	84.633
632.57	86.705
632.90	84.342
633.23	85.647
633.56	88.161
633.89	85.820
634.22	88.272
634.55	88.056
634.88	86.335
635.20	86.795
635.53	91.333
635.86	87.126
636.19	87.063
636.52	86.607
636.85	84.864
637.18	84.906
637.51	85.786
637.83	86.597
638.16	89.359
638.49	84.741
638.82	87.763
639.15	85.889
639.48	87.208
639.81	87.308
640.13	88.312
640.46	88.047
640.79	89.249
641.12	85.820
641.45	88.288
641.77	88.296
642.10	88.468
642.43	89.389
642.76	93.069
643.09	91.761
643.41	89.968
643.74	93.245
644.07	91.461
644.40	90.878
644.73	94.571
645.05	91.611
645.38	94.709
645.71	92.199
646.04	93.896
646.36	94.149
646.69	92.446
647.02	97.353
647.35	94.216
647.67	91.773
648.00	96.642
648.33	92.150
648.66	89.492
648.98	90.620
649.31	88.430
649.64	84.772
649.96	86.386
650.29	89.267
650.62	85.299
650.94	92.407
651.27	92.551
651.60	94.595
651.92	88.462
652.25	87.744
652.58	86.833
652.90	88.336
653.23	87.059
653.56	85.618
653.88	85.739
654.21	86.690
654.54	85.908
654.86	89.304
655.19	80.994
655.52	70.975
655.84	54.442
656.17	57.438
656.49	76.194
656.82	78.007
657.15	60.092
657.47	45.013
657.80	33.913
658.13	33.185
658.45	52.835
658.78	52.647
659.10	52.806
659.43	54.033
659.75	57.967
660.08	61.103
660.41	66.496
660.73	75.691
661.06	83.362
661.38	88.650
661.71	89.733
662.03	94.635
662.36	95.385
662.68	94.027
663.01	93.886
663.33	92.343
663.66	92.326
663.98	92.326
664.31	91.898
664.63	94.931
664.96	87.826
665.28	94.702
665.61	91.558
665.93	89.565
666.26	92.625
666.58	91.275
666.91	95.765
667.23	95.755
667.56	95.498
667.88	96.403
668.21	96.420
668.53	93.853
668.86	92.453
669.18	91.981
669.50	91.041
669.83	87.674
670.15	91.841
670.48	95.694
670.80	92.857
671.13	89.709
671.45	88.584
671.77	89.485
672.10	85.941
672.42	84.082
672.75	80.817
673.07	82.648
673.39	82.202
673.72	83.629
674.04	89.375
674.37	85.381
674.69	85.653
675.01	89.778
675.34	91.892
675.66	89.352
675.98	88.692
676.31	90.596
676.63	91.924
676.95	85.455
677.28	91.059
677.60	87.711
677.92	88.073
678.25	85.558
678.57	85.931
678.89	83.193
679.22	87.248
679.54	81.928
679.86	83.300
680.18	80.388
680.51	82.008
680.83	79.722
681.15	81.200
681.48	81.967
681.80	83.884
682.12	82.258
682.44	80.962
682.77	86.313
683.09	86.270
683.41	82.273
683.73	84.793
684.06	82.301
684.38	80.860
684.70	83.660
685.02	78.838
685.34	81.028
685.67	76.173
685.99	77.215
686.31	75.398
686.63	76.252
686.96	77.186
687.28	80.000
687.60	77.376
687.92	83.232
688.24	79.032
688.56	82.969
688.89	79.911
689.21	82.889
689.53	82.599
689.85	81.860
690.17	81.473
690.49	81.797
690.82	83.738
691.14	84.762
691.46	81.776
691.78	79.279
692.10	79.355
692.42	77.922
692.74	76.923
693.06	75.901
693.39	81.448
693.71	76.018
694.03	80.370
694.35	79.439
694.67	80.303
694.99	86.162
695.31	83.290
695.63	78.500
695.95	82.576
696.27	80.570
696.59	83.889
696.91	84.314
697.23	77.635
697.56	79.703
697.88	76.559
698.20	78.588
698.52	78.118
698.84	75.598
699.16	80.000
699.48	83.208
699.80	76.923
700.12	81.671
700.44	81.513
700.76	79.651
701.08	84.242
701.40	82.831
701.72	84.568
702.04	88.449
702.36	88.294
702.68	81.381
703.00	82.727
703.32	82.698
703.64	75.424
703.96	82.319
704.28	83.742
704.60	83.175
704.91	83.596
705.23	85.714
705.55	89.046
705.87	88.809
706.19	92.222
706.51	85.567
706.83	84.887
707.15	79.439
707.47	80.112
707.79	74.219
708.11	74.250
708.43	73.750
708.74	75.711
709.06	82.254
709.38	79.817
709.70	79.290
710.02	80.573
710.34	77.399
710.66	76.282
710.98	80.132
711.29	81.639
711.61	86.441
711.93	83.388
712.25	84.536
712.57	89.011
712.89	82.090
713.20	80.277
713.52	77.003
713.84	77.816
714.16	82.131
714.48	80.968
714.80	78.846
715.11	75.076
715.43	74.922
715.75	75.667
716.07	73.754
716.39	79.195
716.70	83.395
717.02	83.969
717.34	82.996
717.66	91.150
717.97	91.304
718.29	80.753
718.61	83.465
718.93	78.295
719.24	79.848
719.56	82.731
719.88	71.478
720.20	80.682
720.51	76.245
720.83	81.853
721.15	80.252
721.46	85.887
721.78	75.494
722.10	73.978
722.42	74.689
722.73	78.367
723.05	85.306
723.37	82.627
723.68	80.180
724.00	76.923
724.32	78.667
724.63	81.364
724.95	80.786
725.27	83.410
725.58	82.627
725.90	70.238
726.22	76.448
726.53	70.847
726.85	72.659
727.16	76.604
727.48	76.923
727.80	78.543
728.11	73.729
728.43	73.725
728.74	71.774
729.06	77.600
729.38	76.692
729.69	69.721
730.01	69.231
730.32	79.478
730.64	74.912
730.96	72.453
731.27	70.667
731.59	70.169
731.90	68.790
732.22	69.716
732.53	67.442
732.85	69.149
733.16	70.707
733.48	67.626
733.80	68.116
734.11	70.169
734.43	69.416
734.74	64.242
735.06	68.078
735.37	63.746
735.69	68.350
736.00	66.899
736.32	67.785
736.63	70.423
736.95	69.966
737.26	66.192
737.58	59.732
737.89	69.963
738.21	62.030
738.52	72.428
738.83	76.419
739.15	71.616
739.46	70.472
739.78	64.469
740.09	64.052
740.41	66.304
740.72	65.748
741.04	76.923
741.35	64.681
741.66	74.882
741.98	76.020
742.29	75.248
742.61	84.293
742.92	61.611
743.23	67.130
743.55	68.778
743.86	78.469
744.18	75.120
744.49	70.745
744.80	82.609
745.12	79.679
745.43	64.878
745.74	82.812
746.06	71.707
746.37	76.440
746.68	73.460
747.00	68.617
747.31	80.597
747.62	75.243
747.94	72.727
748.25	71.782
748.56	79.235
748.88	79.058
749.19	80.319
749.50	70.936
749.82	70.755
750.13	71.101
750.44	65.038
750.75	64.925
751.07	65.328
751.38	61.303
751.69	69.020
752.01	66.279
752.32	66.534
752.63	65.217
752.94	68.103
753.26	70.711
753.57	70.588
753.88	71.239
754.19	63.333
754.51	66.942
754.82	65.992
755.13	70.833
755.44	66.532
755.75	62.109
756.07	65.370
756.38	64.906
756.69	65.900
757.00	58.667
757.31	56.863
757.63	56.098
757.94	58.889
758.25	54.247
758.56	55.585
758.87	50.425
759.18	55.452
759.50	61.091
759.81	63.545
760.12	60.968
760.43	56.364
760.74	61.420
761.05	59.385
761.36	58.239
761.67	59.697
761.99	58.503
762.30	56.727
762.61	60.079
762.92	61.086
763.23	62.613
763.54	63.084
763.85	68.220
764.16	62.656
764.47	60.081
764.78	57.509
765.10	59.933
765.41	54.890
765.72	58.413
766.03	59.023
766.34	57.664
766.65	62.948
766.96	66.162
767.27	70.213
767.58	63.218
767.89	66.667
768.20	64.773
768.51	67.582
768.82	62.562
769.13	59.908
769.44	55.794
769.75	62.100
770.06	59.483
770.37	63.942
770.68	58.883
770.99	57.014
771.30	72.059
771.61	56.109
771.92	61.638
772.23	63.054
772.54	60.215
772.85	66.049
773.16	65.730
773.47	81.046
773.78	69.935
774.09	60.479
774.39	58.667
774.70	67.516
775.01	70.345
775.32	65.714
775.63	61.157
775.94	64.885
776.25	68.504
776.56	67.500
776.87	83.654
777.18	65.812
777.48	54.310
777.79	71.304
778.10	57.143
778.41	60.360
778.72	69.841
779.03	62.406
779.34	67.376
779.65	67.808
779.95	60.959
780.26	66.897
780.57	63.415
780.88	57.480
781.19	68.966
781.50	68.217
781.80	52.663
782.11	52.201
782.42	64.615
782.73	62.590
783.04	57.037
783.34	53.472
783.65	63.248
783.96	57.377
784.27	58.621
784.57	62.602
784.88	53.906
785.19	71.000
785.50	79.000
785.81	59.483
786.11	55.172
786.42	60.194
786.73	69.091
787.04	69.388
787.34	66.071
787.65	61.905
787.96	55.752
788.26	62.727
788.57	50.427
788.88	67.969
789.19	52.381
789.49	61.739
789.80	56.122
790.11	68.687
790.41	54.545
790.72	67.391
791.03	72.727
791.33	67.500
791.64	61.250
791.95	72.093
792.25	71.277
792.56	62.921
792.87	46.575
793.17	49.275
793.48	62.667
793.79	67.500
794.09	70.000
794.40	56.604
794.70	50.485
795.01	47.154
795.32	46.154
795.62	63.810
795.93	53.922
796.23	52.830
796.54	50.000
796.85	76.471
797.15	54.930
797.46	73.611
797.76	60.606
798.07	55.814
798.37	60.526
798.68	46.970
798.99	60.494
799.29	54.286
799.60	57.971
799.90	69.333
800.21	63.934
800.51	61.538
800.82	74.576
801.12	59.420
801.43	65.574
801.73	71.429
802.04	86.000
802.34	64.179
802.65	65.385
802.95	53.571
803.26	61.538
803.56	60.784
803.87	60.870
804.17	42.667
804.48	65.079
804.78	55.556
805.09	58.696
805.39	75.556
805.70	61.111
806.00	50.877
806.30	47.887
806.61	52.857
806.91	47.222
807.22	56.579
807.52	60.000
807.83	56.364
808.13	47.222
808.43	54.412
808.74	41.791
809.04	32.203
809.35	51.923
809.65	67.188
809.95	43.243
810.26	54.545
810.56	49.315
810.86	40.476
811.17	68.000
811.47	63.265
811.77	81.579
812.08	59.091
812.38	45.283
812.69	67.500
812.99	36.364
813.29	71.053
813.59	37.143
813.90	72.727
814.20	41.026
814.50	44.231
814.81	62.264
815.11	23.404
815.41	57.627
815.72	54.762
816.02	54.902
816.32	58.333
816.62	43.902
816.93	37.838
817.23	62.857
817.53	66.667
817.84	45.652
818.14	46.154
818.44	52.632
818.74	47.826
819.04	30.000
819.35	35.135
819.65	47.059
819.95	61.111
820.25	61.905
820.56	70.000
820.86	13.793
821.16	55.000
821.46	65.957
821.76	67.500
822.07	44.186
822.37	56.757
822.67	31.250
822.97	71.429
823.27	10.714
823.57	84.000
823.88	18.519
824.18	60.714
824.48	38.235
824.78	70.968
825.08	26.087
825.38	33.333
825.69	20.833
825.99	57.895
826.29	63.889
826.59	113.333
826.89	-9.524
827.19	67.391
827.49	47.500
827.79	54.286
828.09	82.143
828.39	45.455
828.70	72.973
829.00	32.143
829.30	33.333
829.60	80.000
829.90	37.500
830.20	47.368
830.50	33.333
830.80	26.087
831.10	86.364
831.40	57.576
831.70	32.258
832.00	71.429
832.30	14.286
832.60	58.333
832.90	48.276
833.20	35.000
833.50	63.636
833.80	66.667
834.10	26.923
834.40	53.125
834.70	55.556
835.00	63.158
835.30	100.000
835.60	140.000
835.90	48.387
836.20	63.636
836.50	71.429
836.80	-19.231
837.10	39.286
837.40	366.667
837.70	59.091
838.00	100.000
838.30	21.739
838.60	61.538
838.90	68.182
839.19	14.286
839.49	50.000
839.79	69.231
840.09	-8.333
840.39	60.714
840.69	21.429
840.99	26.923
841.29	26.316
841.59	30.000
841.88	54.545
842.18	110.000
842.48	37.500
842.78	100.000
843.08	22.222
843.38	-50.000
843.68	39.130
843.97	120.000
844.27	40.000
844.57	35.000
844.87	11.111
845.17	19.048
845.47	60.000
845.76	33.333
846.06	76.471
846.36	100.000
846.66	57.143
846.96	53.333
847.25	25.000
847.55	114.286
847.85	87.500
848.15	-9.091
848.44	-200.000
848.74	10.000
849.04	29.630
849.34	90.909
849.63	-66.667
849.93	-200.000
850.23	16.667
850.53	210.000
850.82	46.154
851.12	55.556
851.42	120.000
851.71	61.538
852.01	114.286
852.31	50.000
852.61	18.182
852.90	-25.000
853.20	47.368
853.50	25.000
853.79	52.174
854.09	87.500
854.39	31.579
854.68	0.000
854.98	19.355
855.28	69.231
855.57	35.000
855.87	66.667
856.17	51.852
856.46	14.286
856.76	46.667
857.05	77.778
857.35	52.000
857.65	5.556
857.94	-7.692
858.24	44.828
858.53	22.222
858.83	81.481
859.13	40.909
859.42	26.087
859.72	50.000
860.01	-366.667
860.31	12.000
860.60	23.810
860.90	-100.000
861.20	26.667
861.49	-550.000
861.79	-33.333
862.08	0.000
862.38	46.667
862.67	0.000
862.97	66.667
863.26	-75.000
863.56	66.667
863.85	-300.000
864.15	-5.556
864.44	-20.000
864.74	142.857
865.03	50.000
865.33	-180.000
865.62	16.667
865.92	-33.333
866.21	-66.667
866.51	68.750
866.80	18.182
867.10	-450.000
867.39	100.000
867.69	0.000
867.98	7.692
868.27	33.333
868.57	26.667
868.86	72.222
869.16	0.000
869.45	60.000
869.75	200.000
870.04	0.000
870.33	-57.143
870.63	47.619
870.92	300.000
871.22	-220.000
871.51	-700.000
871.80	-44.444
872.10	433.333
>>>>>End Processed Spectral Data<<<<<
