SpectraSuite Data File
++++++++++++++++++++++++++++++++++++
Date: Fri May 15 21:03:16 PDT 2015
User: schluterlab
Dark Spectrum Present: Yes
Reference Spectrum Present: Yes
Number of Sampled Component Spectra: 1
Spectrometers: USB2E3373
Integration Time (usec): 3000 (USB2E3373)
Spectra Averaged: 3 (USB2E3373)
Boxcar Smoothing: 0 (USB2E3373)
Correct for Electrical Dark: No (USB2E3373)
Strobe/Lamp Enabled: No (USB2E3373)
Correct for Detector Non-linearity: No (USB2E3373)
Correct for Stray Light: No (USB2E3373)
Number of Pixels in Processed Spectrum: 2048
>>>>>Begin Processed Spectral Data<<<<<
178.53	0.000
178.91	0.000
179.29	-12.500
179.67	-800.000
180.04	142.857
180.42	100.000
180.80	-600.000
181.18	-33.333
181.56	900.000
181.94	-100.000
182.31	1200.000
182.69	-140.000
183.07	-400.000
183.45	-20.000
183.83	283.333
184.20	-72.727
184.58	111.111
184.96	100.000
185.34	-0.000
185.72	-550.000
186.09	100.000
186.47	-600.000
186.85	200.000
187.23	155.556
187.61	900.000
187.98	-266.667
188.36	-44.444
188.74	-500.000
189.12	58.824
189.49	-5.556
189.87	0.000
190.25	-7.143
190.63	-400.000
191.00	-166.667
191.38	-21.053
191.76	150.000
192.14	475.000
192.51	-250.000
192.89	-22.222
193.27	-85.714
193.65	283.333
194.02	245.455
194.40	10.000
194.78	-137.500
195.15	0.000
195.53	-175.000
195.91	325.000
196.29	-200.000
196.66	107.692
197.04	171.429
197.42	-77.778
197.79	-500.000
198.17	-53.846
198.55	1500.000
198.92	-266.667
199.30	200.000
199.68	-120.000
200.05	-533.333
200.43	0.000
200.81	-66.667
201.18	-333.333
201.56	1400.000
201.94	-550.000
202.31	-166.667
202.69	-300.000
203.07	350.000
203.44	-1700.000
203.82	0.000
204.19	-42.857
204.57	-666.667
204.95	112.500
205.32	-20.000
205.70	-157.143
206.08	-200.000
206.45	177.778
206.83	14.286
207.20	-57.143
207.58	600.000
207.96	-400.000
208.33	-120.000
208.71	-50.000
209.08	-283.333
209.46	-2300.000
209.84	-300.000
210.21	-900.000
210.59	157.143
210.96	-100.000
211.34	-125.000
211.71	13.333
212.09	-228.571
212.46	-2100.000
212.84	0.000
213.22	110.000
213.59	450.000
213.97	0.000
214.34	-27.273
214.72	-133.333
215.09	550.000
215.47	-46.154
215.84	9.091
216.22	-400.000
216.59	-112.500
216.97	-100.000
217.34	-275.000
217.72	-160.000
218.09	-112.500
218.47	200.000
218.84	-600.000
219.22	-166.667
219.59	-60.000
219.97	433.333
220.34	300.000
220.72	-14.286
221.09	-275.000
221.47	-800.000
221.84	-850.000
222.22	-900.000
222.59	-36.364
222.97	-8.333
223.34	-466.667
223.72	0.000
224.09	-47.619
224.46	32.143
224.84	566.667
225.21	-60.000
225.59	-20.000
225.96	-550.000
226.34	500.000
226.71	-185.714
227.08	-200.000
227.46	-87.500
227.83	-500.000
228.21	22.222
228.58	-45.455
228.95	-25.000
229.33	80.000
229.70	-12.500
230.08	-87.500
230.45	-142.857
230.82	-185.714
231.20	0.000
231.57	28.571
231.95	-85.714
232.32	-70.000
232.69	-21.429
233.07	-333.333
233.44	-180.000
233.81	-60.000
234.19	55.556
234.56	-35.294
234.93	-200.000
235.31	-75.000
235.68	-220.000
236.05	-61.538
236.43	-35.000
236.80	-47.059
237.17	3.125
237.55	-15.000
237.92	-18.519
238.29	8.333
238.67	-10.000
239.04	-5.882
239.41	12.195
239.79	-20.000
240.16	24.390
240.53	-5.263
240.91	-10.870
241.28	19.048
241.65	17.857
242.02	6.849
242.40	6.667
242.77	-5.085
243.14	10.606
243.51	27.500
243.89	29.885
244.26	11.494
244.63	23.810
245.00	17.526
245.38	20.619
245.75	7.865
246.12	18.966
246.49	25.620
246.87	30.769
247.24	16.807
247.61	7.895
247.98	19.512
248.36	19.375
248.73	22.368
249.10	22.078
249.47	22.785
249.84	24.837
250.22	17.059
250.59	24.837
250.96	27.700
251.33	23.256
251.70	26.471
252.08	29.949
252.45	17.327
252.82	23.116
253.19	26.267
253.56	21.963
253.94	31.532
254.31	25.652
254.68	25.439
255.05	22.835
255.42	24.891
255.79	27.027
256.16	31.128
256.54	26.493
256.91	26.616
257.28	25.279
257.65	22.097
258.02	26.596
258.39	27.946
258.76	27.106
259.14	25.914
259.51	28.155
259.88	24.399
260.25	24.837
260.62	29.861
260.99	23.051
261.36	22.945
261.73	25.633
262.10	27.964
262.47	24.233
262.85	26.019
263.22	24.615
263.59	31.153
263.96	29.193
264.33	25.758
264.70	25.595
265.07	27.679
265.44	27.762
265.81	24.294
266.18	29.235
266.55	25.450
266.92	24.611
267.29	26.371
267.66	25.575
268.03	25.131
268.40	23.499
268.77	29.947
269.14	25.180
269.51	27.506
269.88	28.678
270.25	28.061
270.62	24.146
270.99	23.274
271.36	25.428
271.73	28.638
272.10	26.764
272.47	27.187
272.84	25.743
273.21	28.538
273.58	23.614
273.95	24.027
274.32	24.942
274.69	23.756
275.06	28.348
275.43	27.438
275.80	27.373
276.17	25.057
276.54	25.482
276.91	26.535
277.28	25.983
277.65	25.826
278.02	24.255
278.39	25.821
278.76	26.205
279.13	22.822
279.50	26.891
279.87	25.918
280.23	24.086
280.60	26.511
280.97	25.657
281.34	25.000
281.71	27.926
282.08	22.699
282.45	23.679
282.82	24.710
283.19	26.886
283.56	24.085
283.92	23.529
284.29	22.692
284.66	24.225
285.03	24.361
285.40	25.142
285.77	23.550
286.14	24.007
286.51	26.753
286.87	22.486
287.24	25.230
287.61	22.928
287.98	23.333
288.35	22.704
288.72	25.569
289.08	22.222
289.45	24.605
289.82	23.951
290.19	22.014
290.56	22.813
290.93	22.391
291.29	19.414
291.66	23.150
292.03	22.807
292.40	22.097
292.77	22.967
293.13	18.994
293.50	22.155
293.87	21.679
294.24	23.338
294.60	20.119
294.97	20.238
295.34	20.245
295.71	22.355
296.08	19.731
296.44	18.065
296.81	19.028
297.18	19.565
297.55	21.138
297.91	20.137
298.28	21.240
298.65	18.725
299.02	17.520
299.38	17.510
299.75	19.172
300.12	17.932
300.48	18.182
300.85	17.871
301.22	21.039
301.59	18.421
301.95	18.228
302.32	18.807
302.69	20.149
303.05	18.688
303.42	18.680
303.79	20.444
304.15	18.877
304.52	18.074
304.89	18.246
305.25	17.918
305.62	17.970
305.99	17.778
306.35	17.803
306.72	16.985
307.09	18.358
307.45	18.140
307.82	17.130
308.19	17.422
308.55	17.121
308.92	19.608
309.29	17.318
309.65	16.146
310.02	17.822
310.38	19.210
310.75	18.798
311.12	19.591
311.48	17.603
311.85	17.382
312.22	18.671
312.58	19.958
312.95	17.823
313.31	19.462
313.68	18.534
314.05	19.388
314.41	19.381
314.78	19.588
315.14	21.069
315.51	20.704
315.87	21.209
316.24	21.234
316.61	21.949
316.97	21.925
317.34	21.777
317.70	21.989
318.07	21.442
318.43	23.725
318.80	22.348
319.16	22.266
319.53	23.932
319.89	23.425
320.26	23.482
320.62	26.179
320.99	24.008
321.35	24.358
321.72	27.726
322.08	26.385
322.45	25.787
322.81	28.389
323.18	27.478
323.54	27.510
323.91	28.432
324.27	30.273
324.64	30.243
325.00	30.201
325.37	31.221
325.73	30.734
326.10	31.608
326.46	32.377
326.83	32.371
327.19	31.299
327.56	33.623
327.92	33.803
328.29	33.839
328.65	33.868
329.01	34.835
329.38	35.760
329.74	34.655
330.11	35.032
330.47	35.993
330.84	34.808
331.20	36.597
331.56	36.019
331.93	34.977
332.29	37.489
332.66	37.919
333.02	35.502
333.38	36.114
333.75	35.623
334.11	35.184
334.48	36.627
334.84	37.363
335.20	36.688
335.57	34.814
335.93	36.676
336.29	35.912
336.66	36.966
337.02	36.617
337.38	36.667
337.75	37.455
338.11	36.700
338.47	37.409
338.84	37.061
339.20	36.746
339.56	37.339
339.93	37.422
340.29	36.881
340.65	36.738
341.02	36.791
341.38	37.080
341.74	36.396
342.11	36.049
342.47	37.189
342.83	37.197
343.20	36.760
343.56	36.957
343.92	37.290
344.28	37.062
344.65	35.665
345.01	35.869
345.37	36.249
345.73	35.983
346.10	36.670
346.46	35.997
346.82	34.943
347.19	34.913
347.55	36.007
347.91	35.437
348.27	34.762
348.63	36.797
349.00	36.341
349.36	35.661
349.72	35.655
350.08	35.164
350.45	34.796
350.81	35.050
351.17	34.935
351.53	35.837
351.89	36.086
352.26	34.400
352.62	36.371
352.98	34.779
353.34	34.944
353.70	36.327
354.07	33.871
354.43	35.308
354.79	35.673
355.15	34.921
355.51	35.918
355.87	34.385
356.24	33.768
356.60	34.681
356.96	35.476
357.32	35.144
357.68	34.715
358.04	34.087
358.40	34.325
358.77	34.928
359.13	34.508
359.49	33.898
359.85	34.633
360.21	35.247
360.57	33.894
360.93	34.115
361.29	34.743
361.66	35.266
362.02	35.606
362.38	35.720
362.74	35.882
363.10	35.365
363.46	34.248
363.82	36.063
364.18	33.948
364.54	33.824
364.90	35.412
365.26	34.716
365.62	34.453
365.98	34.604
366.35	35.106
366.71	35.403
367.07	34.180
367.43	34.220
367.79	34.700
368.15	34.673
368.51	34.887
368.87	33.812
369.23	33.141
369.59	34.767
369.95	34.604
370.31	35.260
370.67	34.552
371.03	34.578
371.39	33.698
371.75	35.311
372.11	33.238
372.47	34.689
372.83	34.209
373.19	34.165
373.55	32.635
373.91	33.909
374.27	35.294
374.63	34.314
374.99	34.113
375.35	35.237
375.71	34.406
376.07	34.199
376.42	34.830
376.78	35.570
377.14	33.852
377.50	33.997
377.86	34.538
378.22	33.504
378.58	33.974
378.94	34.152
379.30	33.437
379.66	34.545
380.02	35.132
380.38	34.023
380.74	33.692
381.09	34.908
381.45	33.761
381.81	34.176
382.17	34.391
382.53	33.417
382.89	34.777
383.25	33.852
383.61	34.817
383.97	34.095
384.32	34.334
384.68	33.127
385.04	34.436
385.40	32.607
385.76	34.340
386.12	34.994
386.48	34.930
386.83	33.354
387.19	34.615
387.55	34.693
387.91	33.496
388.27	35.287
388.62	34.865
388.98	33.886
389.34	34.354
389.70	34.431
390.06	33.040
390.42	33.938
390.77	33.551
391.13	34.615
391.49	33.829
391.85	34.763
392.20	34.149
392.56	34.774
392.92	34.058
393.28	33.962
393.64	33.814
393.99	35.423
394.35	33.650
394.71	34.227
395.07	33.187
395.42	33.151
395.78	34.853
396.14	34.111
396.50	34.052
396.85	34.385
397.21	34.524
397.57	34.671
397.92	33.913
398.28	34.023
398.64	33.133
399.00	33.691
399.35	33.804
399.71	33.314
400.07	34.039
400.42	33.843
400.78	34.599
401.14	34.664
401.49	33.175
401.85	34.613
402.21	32.892
402.57	33.938
402.92	33.187
403.28	35.338
403.63	34.994
403.99	34.120
404.35	34.478
404.70	33.690
405.06	33.784
405.42	33.561
405.77	34.282
406.13	34.109
406.49	33.629
406.84	33.985
407.20	34.738
407.55	33.548
407.91	33.957
408.27	33.142
408.62	35.138
408.98	34.381
409.34	35.750
409.69	34.625
410.05	32.943
410.40	33.642
410.76	34.560
411.11	34.375
411.47	33.925
411.83	33.710
412.18	33.977
412.54	33.770
412.89	32.451
413.25	34.717
413.60	33.665
413.96	32.822
414.31	34.268
414.67	32.970
415.03	33.888
415.38	33.877
415.74	33.550
416.09	33.638
416.45	33.693
416.80	34.237
417.16	33.909
417.51	34.044
417.87	33.898
418.22	34.845
418.58	33.980
418.93	33.918
419.29	31.562
419.64	33.182
420.00	34.887
420.35	33.015
420.71	33.657
421.06	34.316
421.42	34.555
421.77	33.237
422.12	33.655
422.48	33.460
422.83	33.875
423.19	35.045
423.54	34.156
423.90	33.981
424.25	33.984
424.61	33.660
424.96	33.217
425.31	33.795
425.67	34.859
426.02	33.981
426.38	34.878
426.73	35.291
427.09	34.367
427.44	34.235
427.79	34.826
428.15	33.374
428.50	34.282
428.85	32.862
429.21	33.503
429.56	34.663
429.92	33.744
430.27	34.286
430.62	33.194
430.98	33.174
431.33	34.753
431.68	33.961
432.04	34.265
432.39	33.885
432.74	33.794
433.10	34.885
433.45	34.886
433.80	34.068
434.16	33.906
434.51	34.086
434.86	34.379
435.22	34.324
435.57	33.874
435.92	34.132
436.28	32.737
436.63	33.885
436.98	32.561
437.34	33.999
437.69	33.989
438.04	34.131
438.39	33.965
438.75	34.366
439.10	33.447
439.45	34.875
439.81	33.517
440.16	33.848
440.51	34.269
440.86	36.012
441.22	33.258
441.57	34.547
441.92	33.998
442.27	34.257
442.63	33.672
442.98	34.118
443.33	34.224
443.68	34.005
444.03	34.526
444.39	33.694
444.74	35.061
445.09	34.298
445.44	34.245
445.79	35.946
446.15	33.205
446.50	33.555
446.85	35.388
447.20	33.368
447.55	35.156
447.91	33.446
448.26	34.263
448.61	33.736
448.96	34.596
449.31	34.046
449.66	33.740
450.02	33.885
450.37	34.321
450.72	33.505
451.07	34.494
451.42	33.458
451.77	35.081
452.12	32.775
452.47	34.514
452.83	34.335
453.18	34.409
453.53	33.818
453.88	33.940
454.23	34.050
454.58	35.202
454.93	35.052
455.28	33.460
455.63	34.656
455.98	35.057
456.34	34.930
456.69	34.689
457.04	35.413
457.39	34.022
457.74	34.885
458.09	33.549
458.44	33.236
458.79	34.342
459.14	34.668
459.49	34.866
459.84	33.672
460.19	35.073
460.54	35.575
460.89	34.545
461.24	33.789
461.59	34.798
461.94	34.403
462.29	35.283
462.64	33.953
462.99	34.123
463.34	33.519
463.69	34.363
464.04	34.383
464.39	34.627
464.74	33.067
465.09	34.747
465.44	34.218
465.79	34.410
466.14	33.922
466.49	34.388
466.84	34.087
467.19	34.418
467.54	33.397
467.89	33.418
468.24	33.577
468.59	34.857
468.94	34.032
469.29	34.492
469.64	34.450
469.99	35.179
470.34	33.925
470.68	35.421
471.03	34.607
471.38	33.595
471.73	34.104
472.08	33.039
472.43	33.893
472.78	33.105
473.13	33.469
473.48	33.094
473.83	33.562
474.17	34.845
474.52	33.759
474.87	32.970
475.22	33.801
475.57	33.371
475.92	34.010
476.27	34.109
476.61	34.144
476.96	32.683
477.31	34.776
477.66	33.315
478.01	33.745
478.36	33.824
478.70	33.714
479.05	33.352
479.40	34.658
479.75	34.046
480.10	33.026
480.45	33.400
480.79	33.787
481.14	34.170
481.49	33.054
481.84	34.604
482.19	33.302
482.53	34.149
482.88	33.413
483.23	33.541
483.58	33.255
483.92	32.962
484.27	32.224
484.62	33.303
484.97	32.919
485.31	33.201
485.66	32.080
486.01	32.607
486.36	32.849
486.70	33.333
487.05	33.996
487.40	33.480
487.75	33.155
488.09	33.189
488.44	32.565
488.79	32.499
489.13	32.893
489.48	32.749
489.83	33.049
490.17	33.034
490.52	31.824
490.87	32.207
491.22	33.286
491.56	33.112
491.91	33.413
492.26	33.787
492.60	33.541
492.95	34.333
493.30	32.242
493.64	33.301
493.99	33.913
494.34	32.184
494.68	33.095
495.03	32.263
495.37	33.366
495.72	33.014
496.07	33.561
496.41	32.972
496.76	33.072
497.11	33.116
497.45	33.652
497.80	33.754
498.14	32.538
498.49	32.758
498.84	32.385
499.18	32.530
499.53	33.185
499.87	32.636
500.22	32.344
500.56	32.526
500.91	33.082
501.26	32.378
501.60	32.415
501.95	33.479
502.29	32.107
502.64	33.736
502.98	33.399
503.33	31.988
503.67	32.289
504.02	32.454
504.36	32.509
504.71	31.515
505.06	32.209
505.40	32.183
505.75	33.144
506.09	32.337
506.44	32.495
506.78	32.959
507.13	32.575
507.47	31.279
507.82	32.692
508.16	31.590
508.51	33.106
508.85	31.920
509.19	32.092
509.54	31.903
509.88	31.230
510.23	32.437
510.57	32.122
510.92	31.023
511.26	31.860
511.61	33.223
511.95	31.890
512.30	32.206
512.64	32.109
512.98	31.162
513.33	32.009
513.67	32.405
514.02	32.952
514.36	31.943
514.70	32.984
515.05	32.021
515.39	31.936
515.74	33.473
516.08	32.875
516.42	32.744
516.77	32.417
517.11	32.760
517.46	31.718
517.80	32.658
518.14	30.925
518.49	32.091
518.83	32.199
519.17	30.928
519.52	31.557
519.86	31.333
520.20	32.199
520.55	31.520
520.89	31.995
521.23	31.349
521.58	32.240
521.92	32.051
522.26	32.010
522.61	32.597
522.95	32.649
523.29	32.020
523.64	32.592
523.98	31.367
524.32	30.219
524.66	31.946
525.01	31.494
525.35	31.627
525.69	30.976
526.04	31.746
526.38	32.750
526.72	31.197
527.06	30.220
527.41	31.860
527.75	30.898
528.09	30.831
528.43	32.613
528.78	31.683
529.12	31.355
529.46	31.254
529.80	30.146
530.15	32.277
530.49	30.909
530.83	32.490
531.17	31.095
531.51	31.532
531.86	30.048
532.20	30.202
532.54	31.042
532.88	31.280
533.22	31.788
533.57	30.734
533.91	30.679
534.25	30.794
534.59	31.238
534.93	30.648
535.27	29.505
535.62	30.071
535.96	30.528
536.30	31.728
536.64	31.633
536.98	30.244
537.32	31.223
537.66	31.136
538.01	31.469
538.35	30.374
538.69	29.427
539.03	31.100
539.37	30.686
539.71	30.539
540.05	30.618
540.39	31.233
540.73	30.404
541.07	31.354
541.42	31.183
541.76	31.108
542.10	30.557
542.44	31.272
542.78	30.420
543.12	31.113
543.46	30.598
543.80	30.812
544.14	30.441
544.48	30.446
544.82	30.007
545.16	31.216
545.50	30.641
545.84	30.170
546.18	30.496
546.52	30.858
546.86	31.129
547.20	30.043
547.54	29.965
547.88	29.755
548.22	29.915
548.56	30.211
548.90	29.717
549.24	28.444
549.58	30.042
549.92	29.378
550.26	29.670
550.60	29.219
550.94	29.724
551.28	29.830
551.62	31.000
551.96	29.023
552.30	30.994
552.64	29.196
552.98	29.887
553.32	29.815
553.66	28.955
554.00	29.927
554.34	30.502
554.68	28.909
555.02	29.762
555.36	28.871
555.69	29.084
556.03	28.979
556.37	29.039
556.71	27.798
557.05	28.561
557.39	27.658
557.73	29.535
558.07	29.713
558.41	29.326
558.75	27.981
559.08	29.157
559.42	27.937
559.76	29.384
560.10	28.517
560.44	28.295
560.78	29.510
561.12	28.984
561.45	29.093
561.79	29.062
562.13	29.383
562.47	28.489
562.81	29.827
563.15	29.055
563.48	29.279
563.82	28.209
564.16	29.318
564.50	28.176
564.84	29.518
565.17	29.108
565.51	29.713
565.85	28.464
566.19	29.178
566.52	29.558
566.86	29.627
567.20	27.958
567.54	29.623
567.88	28.705
568.21	29.242
568.55	28.804
568.89	29.569
569.23	27.588
569.56	29.072
569.90	28.583
570.24	28.619
570.57	28.145
570.91	29.000
571.25	27.853
571.59	27.935
571.92	27.674
572.26	27.687
572.60	27.442
572.93	27.204
573.27	27.053
573.61	27.178
573.95	27.553
574.28	27.595
574.62	27.257
574.96	27.275
575.29	27.158
575.63	26.276
575.97	27.352
576.30	27.186
576.64	26.781
576.98	27.516
577.31	27.476
577.65	27.523
577.98	27.134
578.32	27.278
578.66	26.478
578.99	26.837
579.33	26.930
579.67	26.394
580.00	27.342
580.34	27.289
580.67	26.954
581.01	26.801
581.35	27.003
581.68	26.786
582.02	26.665
582.35	26.277
582.69	27.152
583.02	27.174
583.36	26.946
583.70	27.440
584.03	27.634
584.37	27.753
584.70	26.731
585.04	26.347
585.37	26.241
585.71	26.561
586.04	26.626
586.38	26.460
586.72	27.145
587.05	27.325
587.39	27.230
587.72	27.146
588.06	26.654
588.39	26.830
588.73	26.832
589.06	27.071
589.40	26.443
589.73	27.784
590.07	27.002
590.40	27.012
590.73	27.348
591.07	26.378
591.40	26.714
591.74	26.606
592.07	27.226
592.41	26.988
592.74	26.922
593.08	25.882
593.41	26.425
593.75	26.300
594.08	25.953
594.41	26.747
594.75	27.061
595.08	26.145
595.42	26.610
595.75	26.587
596.09	26.701
596.42	27.036
596.75	26.332
597.09	25.877
597.42	26.107
597.75	25.744
598.09	25.034
598.42	26.038
598.76	26.469
599.09	26.162
599.42	25.805
599.76	25.884
600.09	26.131
600.42	26.118
600.76	25.037
601.09	25.191
601.42	25.499
601.76	26.518
602.09	26.238
602.42	26.580
602.76	25.806
603.09	25.955
603.42	27.258
603.76	26.653
604.09	25.962
604.42	26.184
604.76	26.480
605.09	25.731
605.42	25.959
605.75	26.007
606.09	25.180
606.42	25.855
606.75	25.758
607.09	26.242
607.42	24.634
607.75	25.133
608.08	25.472
608.42	25.171
608.75	25.060
609.08	25.760
609.41	25.685
609.75	25.403
610.08	26.011
610.41	25.362
610.74	24.915
611.07	26.357
611.41	26.155
611.74	26.652
612.07	25.696
612.40	26.204
612.73	25.763
613.07	25.028
613.40	25.821
613.73	25.070
614.06	25.932
614.39	25.437
614.72	24.538
615.06	25.028
615.39	25.764
615.72	24.704
616.05	25.810
616.38	24.900
616.71	25.382
617.05	26.004
617.38	26.461
617.71	24.780
618.04	26.540
618.37	25.977
618.70	25.809
619.03	25.347
619.36	24.602
619.69	26.839
620.03	26.150
620.36	25.536
620.69	25.054
621.02	25.382
621.35	27.801
621.68	25.340
622.01	25.417
622.34	25.938
622.67	25.710
623.00	26.187
623.33	24.238
623.66	25.580
623.99	24.811
624.32	26.160
624.65	25.188
624.99	26.336
625.32	24.337
625.65	26.394
625.98	25.141
626.31	25.270
626.64	25.563
626.97	25.654
627.30	25.919
627.63	25.823
627.96	26.056
628.29	25.994
628.62	26.057
628.95	24.349
629.28	25.101
629.61	24.427
629.94	26.100
630.26	25.099
630.59	25.494
630.92	24.103
631.25	24.923
631.58	24.339
631.91	24.232
632.24	23.739
632.57	26.364
632.90	25.979
633.23	24.941
633.56	25.189
633.89	24.168
634.22	26.420
634.55	24.778
634.88	25.926
635.20	25.000
635.53	27.067
635.86	24.577
636.19	28.331
636.52	25.510
636.85	23.077
637.18	25.409
637.51	25.031
637.83	22.996
638.16	25.784
638.49	23.706
638.82	27.105
639.15	23.474
639.48	23.109
639.81	26.220
640.13	26.551
640.46	24.781
640.79	23.417
641.12	23.781
641.45	23.724
641.77	26.370
642.10	23.855
642.43	24.437
642.76	25.743
643.09	24.394
643.41	26.214
643.74	25.535
644.07	24.959
644.40	25.676
644.73	25.569
645.05	22.315
645.38	26.631
645.71	24.823
646.04	26.212
646.36	25.177
646.69	23.921
647.02	27.221
647.35	25.933
647.67	22.669
648.00	25.187
648.33	24.744
648.66	24.237
648.98	23.451
649.31	22.479
649.64	22.763
649.96	24.311
650.29	25.724
650.62	24.786
650.94	20.741
651.27	21.974
651.60	23.604
651.92	23.951
652.25	22.202
652.58	23.333
652.90	26.415
653.23	24.874
653.56	24.873
653.88	23.883
654.21	23.643
654.54	24.958
654.86	24.109
655.19	23.538
655.52	25.929
655.84	22.879
656.17	25.726
656.49	34.933
656.82	36.678
657.15	28.074
657.47	20.986
657.80	15.550
658.13	15.346
658.45	23.533
658.78	23.595
659.10	23.429
659.43	22.387
659.75	23.187
660.08	22.138
660.41	22.676
660.73	22.514
661.06	21.837
661.38	22.505
661.71	22.382
662.03	23.605
662.36	25.934
662.68	26.106
663.01	22.926
663.33	23.202
663.66	22.326
663.98	21.628
664.31	21.322
664.63	21.889
664.96	21.304
665.28	19.426
665.61	23.810
665.93	24.783
666.26	26.464
666.58	21.924
666.91	22.588
667.23	22.877
667.56	24.171
667.88	23.022
668.21	24.344
668.53	24.350
668.86	25.000
669.18	23.821
669.50	22.518
669.83	22.558
670.15	22.844
670.48	22.727
670.80	26.267
671.13	22.148
671.45	20.320
671.77	25.107
672.10	23.564
672.42	22.097
672.75	23.446
673.07	25.045
673.39	23.486
673.72	19.527
674.04	21.458
674.37	24.364
674.69	21.627
675.01	23.556
675.34	22.297
675.66	23.380
675.98	22.173
676.31	23.165
676.63	20.428
676.95	21.364
677.28	25.176
677.60	22.892
677.92	22.936
678.25	22.538
678.57	20.779
678.89	21.849
679.22	23.490
679.54	21.486
679.86	19.881
680.18	23.883
680.51	22.727
680.83	19.682
681.15	22.800
681.48	25.205
681.80	21.694
682.12	22.984
682.44	20.293
682.77	22.737
683.09	21.739
683.41	20.227
683.73	20.968
684.06	21.903
684.38	20.860
684.70	21.786
685.02	21.162
685.34	21.542
685.67	22.702
685.99	22.604
686.31	20.708
686.63	21.521
686.96	21.483
687.28	18.182
687.60	20.913
687.92	20.808
688.24	20.565
688.56	23.362
688.89	22.768
689.21	22.000
689.53	20.186
689.85	20.465
690.17	20.313
690.49	22.931
690.82	18.204
691.14	21.190
691.46	19.393
691.78	20.721
692.10	22.581
692.42	17.532
692.74	22.650
693.06	19.820
693.39	20.588
693.71	19.231
694.03	21.709
694.35	21.262
694.67	20.455
694.99	18.277
695.31	21.671
695.63	24.000
695.95	17.172
696.27	20.725
696.59	22.500
696.91	17.927
697.23	18.509
697.56	19.802
697.88	20.430
698.20	19.134
698.52	21.412
698.84	18.182
699.16	20.750
699.48	24.060
699.80	20.347
700.12	23.181
700.44	23.810
700.76	19.186
701.08	17.879
701.40	19.578
701.72	25.617
702.04	20.792
702.36	24.415
702.68	19.520
703.00	21.212
703.32	19.941
703.64	17.232
703.96	22.319
704.28	21.779
704.60	24.444
704.91	17.350
705.23	18.937
705.55	25.442
705.87	23.105
706.19	18.148
706.51	19.244
706.83	22.508
707.15	17.445
707.47	20.168
707.79	19.531
708.11	22.750
708.43	23.500
708.74	20.155
709.06	20.282
709.38	24.159
709.70	22.189
710.02	19.427
710.34	24.458
710.66	18.910
710.98	18.543
711.29	20.656
711.61	19.661
711.93	21.824
712.25	24.742
712.57	17.949
712.89	18.657
713.20	23.875
713.52	21.951
713.84	21.843
714.16	16.838
714.48	17.742
714.80	20.833
715.11	21.581
715.43	13.793
715.75	17.000
716.07	19.269
716.39	18.121
716.70	14.022
717.02	16.794
717.34	21.862
717.66	15.044
717.97	20.435
718.29	19.247
718.61	17.717
718.93	20.543
719.24	20.152
719.56	17.269
719.88	20.275
720.20	21.970
720.51	14.559
720.83	18.919
721.15	21.429
721.46	18.952
721.78	15.415
722.10	17.844
722.42	19.087
722.73	20.408
723.05	23.265
723.37	20.339
723.68	22.072
724.00	20.513
724.32	16.444
724.63	21.818
724.95	17.031
725.27	16.590
725.58	17.373
725.90	15.873
726.22	24.324
726.53	20.339
726.85	20.225
727.16	21.887
727.48	16.194
727.80	21.457
728.11	16.525
728.43	20.000
728.74	11.694
729.06	23.200
729.38	24.060
729.69	13.546
730.01	13.077
730.32	17.910
730.64	19.081
730.96	20.377
731.27	17.333
731.59	17.627
731.90	14.331
732.22	21.767
732.53	16.611
732.85	20.213
733.16	21.886
733.48	15.468
733.80	18.478
734.11	17.966
734.43	20.962
734.74	17.879
735.06	15.961
735.37	20.242
735.69	21.212
736.00	19.512
736.32	22.148
736.63	17.606
736.95	17.747
737.26	13.167
737.58	19.799
737.89	15.385
738.21	12.406
738.52	23.457
738.83	20.961
739.15	11.354
739.46	22.441
739.78	17.582
740.09	20.915
740.41	20.652
740.72	18.504
741.04	19.838
741.35	18.723
741.66	18.009
741.98	13.265
742.29	13.861
742.61	17.801
742.92	13.270
743.23	10.185
743.55	16.742
743.86	20.096
744.18	18.660
744.49	17.553
744.80	12.500
745.12	22.995
745.43	16.585
745.74	20.312
746.06	21.951
746.37	13.089
746.68	19.905
747.00	12.766
747.31	26.368
747.62	14.078
747.94	21.531
748.25	22.772
748.56	20.765
748.88	13.613
749.19	23.404
749.50	22.660
749.82	13.208
750.13	18.349
750.44	20.301
750.75	20.149
751.07	22.263
751.38	15.326
751.69	16.471
752.01	18.217
752.32	18.725
752.63	18.182
752.94	13.793
753.26	25.105
753.57	21.267
753.88	17.257
754.19	16.667
754.51	11.983
754.82	12.551
755.13	22.917
755.44	20.565
755.75	17.578
756.07	20.623
756.38	17.358
756.69	11.494
757.00	15.000
757.31	20.588
757.63	19.207
757.94	18.056
758.25	17.808
758.56	15.426
758.87	14.731
759.18	17.445
759.50	19.273
759.81	18.060
760.12	16.774
760.43	18.485
760.74	21.605
761.05	17.846
761.36	18.750
761.67	23.030
761.99	20.068
762.30	16.000
762.61	17.787
762.92	16.742
763.23	16.216
763.54	14.486
763.85	19.492
764.16	14.108
764.47	19.355
764.78	14.652
765.10	22.559
765.41	17.035
765.72	18.413
766.03	14.286
766.34	18.248
766.65	22.709
766.96	15.657
767.27	17.553
767.58	13.218
767.89	6.383
768.20	15.909
768.51	18.132
768.82	19.212
769.13	13.364
769.44	13.734
769.75	14.612
770.06	17.241
770.37	17.308
770.68	16.244
770.99	14.027
771.30	19.608
771.61	11.765
771.92	16.379
772.23	17.241
772.54	19.355
772.85	17.901
773.16	15.730
773.47	15.686
773.78	11.111
774.09	14.371
774.39	14.000
774.70	10.828
775.01	23.448
775.32	14.286
775.63	12.397
775.94	19.847
776.25	15.748
776.56	16.667
776.87	5.769
777.18	14.530
777.48	12.931
777.79	8.696
778.10	10.476
778.41	9.910
778.72	21.429
779.03	17.293
779.34	13.475
779.65	13.014
779.95	15.753
780.26	9.655
780.57	3.252
780.88	11.024
781.19	12.069
781.50	23.256
781.80	11.834
782.11	14.465
782.42	13.077
782.73	7.194
783.04	22.222
783.34	4.861
783.65	1.709
783.96	12.295
784.27	12.414
784.57	15.447
784.88	9.375
785.19	12.000
785.50	29.000
785.81	13.793
786.11	16.379
786.42	7.767
786.73	23.636
787.04	9.184
787.34	11.607
787.65	12.381
787.96	11.504
788.26	16.364
788.57	11.966
788.88	17.188
789.19	19.841
789.49	11.304
789.80	7.143
790.11	14.141
790.41	3.636
790.72	22.826
791.03	6.818
791.33	13.750
791.64	13.750
791.95	9.302
792.25	6.383
792.56	7.865
792.87	6.849
793.17	1.449
793.48	16.000
793.79	3.750
794.09	21.250
794.40	0.000
794.70	12.621
795.01	9.756
795.32	8.547
795.62	6.667
795.93	5.882
796.23	18.868
796.54	7.292
796.85	16.176
797.15	5.634
797.46	15.278
797.76	12.121
798.07	9.302
798.37	3.947
798.68	-3.030
798.99	16.049
799.29	8.571
799.60	8.696
799.90	10.667
800.21	21.311
800.51	4.615
800.82	-8.475
801.12	24.638
801.43	-1.639
801.73	3.175
802.04	4.000
802.34	4.478
802.65	5.769
802.95	-10.714
803.26	0.000
803.56	17.647
803.87	-17.391
804.17	10.667
804.48	31.746
804.78	-1.852
805.09	-6.522
805.39	-4.444
805.70	16.667
806.00	-1.754
806.30	19.718
806.61	11.429
806.91	-2.778
807.22	25.000
807.52	14.667
807.83	-5.455
808.13	4.167
808.43	17.647
808.74	-8.955
809.04	-6.780
809.35	-21.154
809.65	1.563
809.95	-18.919
810.26	-27.273
810.56	12.329
810.86	21.429
811.17	4.000
811.47	4.082
811.77	-21.053
812.08	2.273
812.38	3.774
812.69	-2.500
812.99	-15.152
813.29	10.526
813.59	-48.571
813.90	15.909
814.20	-41.026
814.50	15.385
814.81	1.887
815.11	-6.383
815.41	27.119
815.72	2.381
816.02	-1.961
816.32	-2.083
816.62	4.878
816.93	-16.216
817.23	0.000
817.53	31.250
817.84	10.870
818.14	15.385
818.44	-5.263
818.74	4.348
819.04	-25.000
819.35	-10.811
819.65	-14.706
819.95	-27.778
820.25	-7.143
820.56	5.000
820.86	-31.034
821.16	22.500
821.46	6.383
821.76	12.500
822.07	4.651
822.37	-21.622
822.67	-12.500
822.97	-4.762
823.27	-14.286
823.57	4.000
823.88	-3.704
824.18	28.571
824.48	-35.294
824.78	3.226
825.08	-17.391
825.38	-21.212
825.69	-50.000
825.99	-7.895
826.29	-16.667
826.59	-100.000
826.89	-38.095
827.19	17.391
827.49	-5.000
827.79	-2.857
828.09	-3.571
828.39	15.152
828.70	35.135
829.00	10.714
829.30	-33.333
829.60	6.667
829.90	9.375
830.20	-13.158
830.50	-22.222
830.80	-13.043
831.10	22.727
831.40	6.061
831.70	9.677
832.00	4.762
832.30	-57.143
832.60	-116.667
832.90	-37.931
833.20	-45.000
833.50	-3.030
833.80	-22.222
834.10	3.846
834.40	18.750
834.70	-133.333
835.00	-15.789
835.30	15.385
835.60	0.000
835.90	-19.355
836.20	4.545
836.50	-25.000
836.80	-53.846
837.10	14.286
837.40	-266.667
837.70	-4.545
838.00	-63.636
838.30	-52.174
838.60	53.846
838.90	-18.182
839.19	14.286
839.49	13.333
839.79	-76.923
840.09	-50.000
840.39	14.286
840.69	-3.571
840.99	-84.615
841.29	-73.684
841.59	-120.000
841.88	-109.091
842.18	-130.000
842.48	-37.500
842.78	-80.000
843.08	-3.704
843.38	-170.000
843.68	-21.739
843.97	73.333
844.27	-20.000
844.57	-35.000
844.87	-27.778
845.17	-42.857
845.47	-33.333
845.76	-23.810
846.06	-64.706
846.36	-80.000
846.66	28.571
846.96	-46.667
847.25	-212.500
847.55	21.429
847.85	-150.000
848.15	-45.455
848.44	-500.000
848.74	-25.000
849.04	11.111
849.34	-63.636
849.63	-166.667
849.93	-420.000
850.23	-66.667
850.53	-40.000
850.82	-61.538
851.12	-111.111
851.42	-40.000
851.71	-23.077
852.01	-21.429
852.31	-350.000
852.61	-18.182
852.90	-20.000
853.20	-15.789
853.50	-133.333
853.79	4.348
854.09	12.500
854.39	0.000
854.68	-20.833
854.98	19.355
855.28	-3.846
855.57	-60.000
855.87	22.222
856.17	25.926
856.46	-57.143
856.76	-60.000
857.05	-22.222
857.35	20.000
857.65	-33.333
857.94	-30.769
858.24	34.483
858.53	-22.222
858.83	-11.111
859.13	-27.273
859.42	26.087
859.72	-275.000
860.01	-600.000
860.31	12.000
860.60	-4.762
860.90	-400.000
861.20	-66.667
861.49	-400.000
861.79	-60.000
862.08	-10.000
862.38	40.000
862.67	-80.000
862.97	-116.667
863.26	-50.000
863.56	-50.000
863.85	-633.333
864.15	-22.222
864.44	-20.000
864.74	7.143
865.03	150.000
865.33	-320.000
865.62	-100.000
865.92	-100.000
866.21	-166.667
866.51	-6.250
866.80	-54.545
867.10	-500.000
867.39	-33.333
867.69	0.000
867.98	-23.077
868.27	-466.667
868.57	-33.333
868.86	-27.778
869.16	-107.692
869.45	66.667
869.75	-2600.000
870.04	0.000
870.33	-142.857
870.63	33.333
870.92	633.333
871.22	-300.000
871.51	-1700.000
871.80	0.000
872.10	833.333
>>>>>End Processed Spectral Data<<<<<
