SpectraSuite Data File
++++++++++++++++++++++++++++++++++++
Date: Fri May 15 20:55:01 PDT 2015
User: schluterlab
Dark Spectrum Present: Yes
Reference Spectrum Present: Yes
Number of Sampled Component Spectra: 1
Spectrometers: USB2E3373
Integration Time (usec): 3000 (USB2E3373)
Spectra Averaged: 3 (USB2E3373)
Boxcar Smoothing: 0 (USB2E3373)
Correct for Electrical Dark: No (USB2E3373)
Strobe/Lamp Enabled: No (USB2E3373)
Correct for Detector Non-linearity: No (USB2E3373)
Correct for Stray Light: No (USB2E3373)
Number of Pixels in Processed Spectrum: 2048
>>>>>Begin Processed Spectral Data<<<<<
178.53	0.000
178.91	0.000
179.29	137.500
179.67	-650.000
180.04	57.143
180.42	-50.000
180.80	-300.000
181.18	-0.000
181.56	250.000
181.94	300.000
182.31	400.000
182.69	-40.000
183.07	-300.000
183.45	0.000
183.83	100.000
184.20	-18.182
184.58	55.556
184.96	125.000
185.34	200.000
185.72	-550.000
186.09	84.615
186.47	-500.000
186.85	83.333
187.23	200.000
187.61	200.000
187.98	-33.333
188.36	-11.111
188.74	-266.667
189.12	52.941
189.49	5.556
189.87	0.000
190.25	57.143
190.63	-500.000
191.00	-466.667
191.38	42.105
191.76	550.000
192.14	100.000
192.51	0.000
192.89	-22.222
193.27	-71.429
193.65	83.333
194.02	100.000
194.40	110.000
194.78	-50.000
195.15	75.000
195.53	-75.000
195.91	250.000
196.29	175.000
196.66	130.769
197.04	128.571
197.42	0.000
197.79	-466.667
198.17	-100.000
198.55	1200.000
198.92	-400.000
199.30	-500.000
199.68	-140.000
200.05	100.000
200.43	0.000
200.81	-133.333
201.18	266.667
201.56	900.000
201.94	-300.000
202.31	-333.333
202.69	-240.000
203.07	-0.000
203.44	1700.000
203.82	0.000
204.19	100.000
204.57	-333.333
204.95	37.500
205.32	-20.000
205.70	114.286
206.08	-75.000
206.45	155.556
206.83	121.429
207.20	-57.143
207.58	500.000
207.96	-233.333
208.33	-60.000
208.71	-150.000
209.08	-83.333
209.46	0.000
209.84	-120.000
210.21	-1200.000
210.59	0.000
210.96	-183.333
211.34	-200.000
211.71	60.000
212.09	-157.143
212.46	-1500.000
212.84	0.000
213.22	-50.000
213.59	250.000
213.97	-15.385
214.34	9.091
214.72	-50.000
215.09	175.000
215.47	15.385
215.84	36.364
216.22	-200.000
216.59	25.000
216.97	0.000
217.34	-75.000
217.72	-280.000
218.09	12.500
218.47	112.500
218.84	-400.000
219.22	-88.889
219.59	-160.000
219.97	233.333
220.34	50.000
220.72	71.429
221.09	-175.000
221.47	150.000
221.84	-700.000
222.22	-850.000
222.59	36.364
222.97	8.333
223.34	-33.333
223.72	14.286
224.09	-4.762
224.46	28.571
224.84	733.333
225.21	20.000
225.59	26.667
225.96	-100.000
226.34	375.000
226.71	-28.571
227.08	83.333
227.46	-25.000
227.83	-500.000
228.21	66.667
228.58	-27.273
228.95	-50.000
229.33	90.000
229.70	56.250
230.08	-187.500
230.45	-128.571
230.82	-57.143
231.20	13.333
231.57	7.143
231.95	85.714
232.32	-80.000
232.69	107.143
233.07	266.667
233.44	-20.000
233.81	-50.000
234.19	-77.778
234.56	58.824
234.93	-0.000
235.31	200.000
235.68	-100.000
236.05	-23.077
236.43	-30.000
236.80	58.824
237.17	34.375
237.55	30.000
237.92	-11.111
238.29	2.778
238.67	0.000
239.04	5.882
239.41	-12.195
239.79	20.000
240.16	14.634
240.53	28.947
240.91	10.870
241.28	6.349
241.65	39.286
242.02	23.288
242.40	13.333
242.77	3.390
243.14	3.030
243.51	21.250
243.89	21.839
244.26	12.644
244.63	14.286
245.00	11.340
245.38	24.742
245.75	11.236
246.12	18.966
246.49	19.835
246.87	25.962
247.24	19.328
247.61	14.912
247.98	22.764
248.36	18.750
248.73	15.789
249.10	21.429
249.47	18.987
249.84	21.569
250.22	14.118
250.59	20.261
250.96	22.535
251.33	18.605
251.70	26.471
252.08	26.396
252.45	25.743
252.82	24.121
253.19	29.032
253.56	15.421
253.94	22.072
254.31	23.478
254.68	26.754
255.05	23.622
255.42	24.891
255.79	23.552
256.16	24.125
256.54	28.358
256.91	21.293
257.28	21.933
257.65	22.472
258.02	20.922
258.39	25.253
258.76	24.542
259.14	24.917
259.51	23.948
259.88	20.962
260.25	23.203
260.62	26.042
260.99	20.339
261.36	22.260
261.73	24.051
262.10	26.140
262.47	24.540
262.85	19.122
263.22	20.923
263.59	21.495
263.96	25.466
264.33	22.727
264.70	20.238
265.07	24.405
265.44	26.062
265.81	23.164
266.18	25.137
266.55	23.136
266.92	24.352
267.29	24.021
267.66	23.018
268.03	25.131
268.40	23.499
268.77	24.064
269.14	23.741
269.51	23.907
269.88	25.187
270.25	22.959
270.62	21.951
270.99	23.018
271.36	22.005
271.73	23.709
272.10	24.574
272.47	21.513
272.84	24.257
273.21	22.970
273.58	22.169
273.95	24.485
274.32	21.247
274.69	20.136
275.06	23.438
275.43	19.955
275.80	24.062
276.17	22.299
276.54	24.197
276.91	21.491
277.28	20.961
277.65	23.140
278.02	22.766
278.39	21.663
278.76	22.851
279.13	22.199
279.50	22.269
279.87	20.086
280.23	21.935
280.60	24.366
280.97	25.859
281.34	22.885
281.71	23.409
282.08	19.427
282.45	21.918
282.82	22.780
283.19	21.857
283.56	21.195
283.92	21.442
284.29	22.115
284.66	22.674
285.03	20.629
285.40	21.550
285.77	20.035
286.14	21.300
286.51	24.354
286.87	20.658
287.24	20.258
287.61	20.106
287.98	21.754
288.35	23.397
288.72	21.191
289.08	19.097
289.45	22.320
289.82	21.154
290.19	18.601
290.56	19.039
290.93	19.192
291.29	19.106
291.66	20.000
292.03	17.703
292.40	20.000
292.77	19.458
293.13	17.695
293.50	17.754
293.87	18.626
294.24	19.011
294.60	19.672
294.97	18.452
295.34	16.718
295.71	19.076
296.08	16.741
296.44	15.505
296.81	17.639
297.18	18.261
297.55	18.699
297.91	17.397
298.28	18.338
298.65	17.503
299.02	17.520
299.38	16.142
299.75	16.966
300.12	16.754
300.48	16.864
300.85	17.744
301.22	17.662
301.59	16.974
301.95	16.835
302.32	18.158
302.69	17.662
303.05	16.708
303.42	17.559
303.79	17.173
304.15	17.085
304.52	15.220
304.89	16.608
305.25	16.707
305.62	16.803
305.99	15.789
306.35	15.029
306.72	14.398
307.09	16.990
307.45	16.877
307.82	15.625
308.19	17.305
308.55	16.467
308.92	17.647
309.29	15.754
309.65	16.039
310.02	15.952
310.38	17.344
310.75	17.377
311.12	17.761
311.48	15.376
311.85	16.335
312.22	15.612
312.58	16.879
312.95	16.222
313.31	17.598
313.68	16.859
314.05	16.939
314.41	17.010
314.78	17.216
315.14	17.061
315.51	18.012
315.87	17.008
316.24	18.200
316.61	17.717
316.97	17.956
317.34	18.262
317.70	17.878
318.07	17.500
318.43	18.431
318.80	17.140
319.16	19.336
319.53	20.133
319.89	18.996
320.26	19.636
320.62	19.960
320.99	18.267
321.35	19.938
321.72	21.911
322.08	21.148
322.45	21.624
322.81	21.709
323.18	22.179
323.54	20.077
323.91	20.643
324.27	21.289
324.64	22.191
325.00	22.172
325.37	23.232
325.73	22.575
326.10	22.888
326.46	23.857
326.83	23.622
327.19	23.191
327.56	24.240
327.92	25.616
328.29	23.036
328.65	24.057
329.01	23.805
329.38	25.991
329.74	25.118
330.11	25.116
330.47	24.119
330.84	25.000
331.20	27.757
331.56	26.389
331.93	26.941
332.29	26.581
332.66	26.787
333.02	25.186
333.38	26.489
333.75	26.648
334.11	25.336
334.48	26.745
334.84	27.473
335.20	26.167
335.57	26.292
335.93	26.829
336.29	26.980
336.66	25.704
337.02	26.673
337.38	26.667
337.75	26.182
338.11	28.494
338.47	27.372
338.84	27.172
339.20	26.691
339.56	27.615
339.93	28.827
340.29	27.248
340.65	27.151
341.02	27.305
341.38	26.991
341.74	26.413
342.11	27.123
342.47	28.203
342.83	28.114
343.20	25.697
343.56	27.130
343.92	27.369
344.28	29.206
344.65	27.288
345.01	27.571
345.37	27.586
345.73	28.033
346.10	27.179
346.46	26.577
346.82	27.087
347.19	27.016
347.55	28.488
347.91	28.074
348.27	26.677
348.63	28.109
349.00	26.661
349.36	28.512
349.72	28.690
350.08	27.623
350.45	28.093
350.81	27.326
351.17	27.524
351.53	28.571
351.89	26.920
352.26	28.960
352.62	28.629
352.98	28.594
353.34	27.053
353.70	27.994
354.07	28.065
354.43	27.382
354.79	29.810
355.15	29.206
355.51	28.797
355.87	27.994
356.24	27.977
356.60	27.971
356.96	30.000
357.32	27.875
357.68	27.209
358.04	28.433
358.40	29.180
358.77	28.947
359.13	28.183
359.49	28.428
359.85	29.485
360.21	28.628
360.57	29.227
360.93	29.652
361.29	28.021
361.66	28.683
362.02	29.470
362.38	29.779
362.74	29.977
363.10	30.098
363.46	29.281
363.82	29.977
364.18	30.111
364.54	29.853
364.90	29.677
365.26	30.713
365.62	32.044
365.98	31.012
366.35	31.173
366.71	31.559
367.07	30.334
367.43	29.691
367.79	30.671
368.15	30.940
368.51	31.391
368.87	29.792
369.23	30.253
369.59	31.706
369.95	31.818
370.31	30.780
370.67	31.493
371.03	30.545
371.39	30.343
371.75	31.502
372.11	31.170
372.47	32.470
372.83	32.079
373.19	31.526
373.55	31.841
373.91	31.174
374.27	32.176
374.63	31.802
374.99	32.766
375.35	32.521
375.71	33.846
376.07	33.708
376.42	32.449
376.78	33.221
377.14	32.295
377.50	33.798
377.86	34.404
378.22	33.184
378.58	34.359
378.94	33.459
379.30	33.874
379.66	35.047
380.02	33.170
380.38	32.928
380.74	33.573
381.09	34.969
381.45	34.557
381.81	33.991
382.17	35.533
382.53	34.728
382.89	34.714
383.25	36.092
383.61	35.549
383.97	36.381
384.32	35.397
384.68	34.985
385.04	35.233
385.40	35.781
385.76	37.296
386.12	36.481
386.48	36.782
386.83	35.637
387.19	36.996
387.55	37.516
387.91	37.225
388.27	37.179
388.62	36.438
388.98	36.587
389.34	37.039
389.70	37.850
390.06	37.004
390.42	37.500
390.77	38.784
391.13	38.903
391.49	37.387
391.85	38.726
392.20	38.544
392.56	39.034
392.92	38.520
393.28	38.679
393.64	39.099
393.99	39.937
394.35	39.405
394.71	40.102
395.07	38.843
395.42	39.162
395.78	39.479
396.14	39.912
396.50	40.330
396.85	40.631
397.21	39.348
397.57	40.439
397.92	40.144
398.28	40.977
398.64	39.337
399.00	41.366
399.35	40.463
399.71	41.068
400.07	41.294
400.42	40.698
400.78	42.560
401.14	41.863
401.49	41.513
401.85	40.707
402.21	41.446
402.57	42.062
402.92	41.970
403.28	42.105
403.63	41.740
403.99	42.411
404.35	43.910
404.70	41.429
405.06	42.773
405.42	42.573
405.77	41.778
406.13	43.539
406.49	42.037
406.84	42.910
407.20	43.949
407.55	43.014
407.91	43.717
408.27	44.168
408.62	44.985
408.98	42.575
409.34	44.176
409.69	42.765
410.05	42.796
410.40	43.642
410.76	43.185
411.11	43.687
411.47	44.313
411.83	43.315
412.18	44.337
412.54	44.132
412.89	43.658
413.25	44.164
413.60	44.037
413.96	44.908
414.31	46.098
414.67	43.874
415.03	45.340
415.38	43.473
415.74	45.603
416.09	45.591
416.45	45.375
416.80	45.473
417.16	47.238
417.51	46.103
417.87	45.437
418.22	47.215
418.58	47.425
418.93	46.834
419.29	46.799
419.64	46.338
420.00	48.866
420.35	46.448
420.71	47.266
421.06	46.470
421.42	46.635
421.77	46.936
422.12	45.800
422.48	46.887
422.83	47.274
423.19	48.307
423.54	48.031
423.90	47.998
424.25	47.072
424.61	49.327
424.96	48.432
425.31	49.047
425.67	48.826
426.02	48.057
426.38	50.031
426.73	48.426
427.09	50.443
427.44	49.176
427.79	49.617
428.15	49.393
428.50	49.546
428.85	48.771
429.21	48.727
429.56	50.512
429.92	49.101
430.27	48.571
430.62	48.719
430.98	48.461
431.33	48.948
431.68	50.131
432.04	50.475
432.39	49.401
432.74	49.429
433.10	50.747
433.45	51.613
433.80	50.377
434.16	50.471
434.51	50.645
434.86	50.755
435.22	51.206
435.57	51.778
435.92	51.198
436.28	50.805
436.63	51.683
436.98	50.290
437.34	52.087
437.69	51.222
438.04	51.909
438.39	51.497
438.75	52.884
439.10	51.047
439.45	53.013
439.81	51.560
440.16	52.613
440.51	53.015
440.86	54.260
441.22	52.658
441.57	51.987
441.92	52.991
442.27	54.435
442.63	53.319
442.98	54.394
443.33	52.365
443.68	52.361
444.03	52.757
444.39	51.795
444.74	54.236
445.09	55.011
445.44	54.074
445.79	53.945
446.15	53.910
446.50	53.966
446.85	53.879
447.20	52.815
447.55	54.185
447.91	54.315
448.26	54.582
448.61	54.462
448.96	54.676
449.31	54.566
449.66	54.297
450.02	52.653
450.37	55.898
450.72	53.265
451.07	55.886
451.42	53.371
451.77	54.189
452.12	54.127
452.47	54.218
452.83	54.888
453.18	54.839
453.53	55.247
453.88	55.556
454.23	55.747
454.58	56.171
454.93	55.606
455.28	54.159
455.63	56.169
455.98	57.847
456.34	56.258
456.69	55.464
457.04	56.963
457.39	56.379
457.74	56.046
458.09	54.208
458.44	56.407
458.79	56.639
459.14	55.950
459.49	56.418
459.84	55.668
460.19	56.978
460.54	57.090
460.89	56.932
461.24	56.646
461.59	56.591
461.94	56.289
462.29	56.996
462.64	57.143
462.99	57.075
463.34	57.232
463.69	56.950
464.04	56.416
464.39	56.458
464.74	55.706
465.09	56.956
465.44	57.530
465.79	55.442
466.14	56.556
466.49	55.894
466.84	56.752
467.19	57.384
467.54	56.769
467.89	57.865
468.24	57.725
468.59	57.968
468.94	57.968
469.29	58.033
469.64	57.621
469.99	59.005
470.34	58.840
470.68	60.030
471.03	60.156
471.38	59.272
471.73	59.384
472.08	59.159
472.43	58.389
472.78	58.328
473.13	58.707
473.48	58.306
473.83	57.970
474.17	59.003
474.52	59.221
474.87	58.364
475.22	59.426
475.57	58.046
475.92	57.926
476.27	58.615
476.61	58.796
476.96	57.780
477.31	59.113
477.66	57.978
478.01	59.742
478.36	58.932
478.70	59.489
479.05	59.011
479.40	59.618
479.75	58.394
480.10	58.372
480.45	58.650
480.79	59.718
481.14	59.016
481.49	59.064
481.84	59.459
482.19	58.840
482.53	58.273
482.88	59.379
483.23	59.165
483.58	59.811
483.92	59.197
484.27	58.888
484.62	57.777
484.97	58.624
485.31	57.442
485.66	54.648
486.01	54.587
486.36	54.448
486.70	55.514
487.05	57.159
487.40	57.756
487.75	57.690
488.09	57.849
488.44	59.491
488.79	59.694
489.13	59.054
489.48	59.299
489.83	59.821
490.17	59.506
490.52	59.169
490.87	58.584
491.22	60.363
491.56	60.294
491.91	60.277
492.26	62.227
492.60	60.605
492.95	62.076
493.30	60.088
493.64	61.591
493.99	60.338
494.34	60.437
494.68	60.143
495.03	60.341
495.37	61.825
495.72	61.686
496.07	62.390
496.41	61.557
496.76	60.249
497.11	60.829
497.45	61.671
497.80	62.260
498.14	61.103
498.49	62.164
498.84	61.577
499.18	61.094
499.53	61.756
499.87	60.895
500.22	60.682
500.56	62.935
500.91	60.592
501.26	59.763
501.60	61.485
501.95	60.747
502.29	61.259
502.64	62.114
502.98	62.013
503.33	60.855
503.67	61.590
504.02	62.121
504.36	61.356
504.71	62.626
505.06	62.859
505.40	62.183
505.75	63.660
506.09	63.051
506.44	63.912
506.78	62.959
507.13	62.151
507.47	62.768
507.82	62.286
508.16	62.758
508.51	62.697
508.85	62.899
509.19	63.225
509.54	63.753
509.88	62.352
510.23	64.228
510.57	63.923
510.92	62.473
511.26	63.666
511.61	64.136
511.95	64.493
512.30	64.579
512.64	64.274
512.98	64.290
513.33	65.361
513.67	64.355
514.02	66.648
514.36	67.086
514.70	66.084
515.05	67.450
515.39	66.470
515.74	67.545
516.08	67.663
516.42	67.020
516.77	66.121
517.11	67.478
517.46	66.667
517.80	66.865
518.14	66.687
518.49	66.887
518.83	67.315
519.17	66.950
519.52	67.200
519.86	66.867
520.20	67.801
520.55	67.667
520.89	68.444
521.23	68.714
521.58	69.022
521.92	69.231
522.26	70.787
522.61	68.571
522.95	71.391
523.29	68.234
523.64	68.869
523.98	69.734
524.32	68.814
524.66	69.782
525.01	70.779
525.35	70.058
525.69	71.178
526.04	69.180
526.38	70.947
526.72	68.542
527.06	69.455
527.41	69.789
527.75	70.710
528.09	70.365
528.43	72.181
528.78	69.901
529.12	69.419
529.46	70.240
529.80	70.424
530.15	70.891
530.49	70.236
530.83	71.819
531.17	70.584
531.51	73.735
531.86	69.748
532.20	71.468
532.54	72.022
532.88	71.116
533.22	70.027
533.57	70.380
533.91	69.974
534.25	71.159
534.59	70.494
534.93	67.841
535.27	69.162
535.62	69.994
535.96	69.341
536.30	70.449
536.64	72.088
536.98	70.592
537.32	70.768
537.66	72.370
538.01	72.168
538.35	70.804
538.69	68.975
539.03	70.062
539.37	70.121
539.71	69.666
540.05	69.993
540.39	70.706
540.73	71.478
541.07	70.994
541.42	70.296
541.76	71.438
542.10	70.750
542.44	71.786
542.78	69.305
543.12	70.192
543.46	70.932
543.80	70.298
544.14	68.558
544.48	68.954
544.82	71.497
545.16	71.038
545.50	69.559
545.84	70.822
546.18	71.560
546.52	72.026
546.86	71.316
547.20	69.742
547.54	68.834
547.88	69.837
548.22	67.850
548.56	68.602
548.90	70.957
549.24	69.215
549.58	70.381
549.92	70.550
550.26	72.088
550.60	70.706
550.94	71.322
551.28	72.025
551.62	74.000
551.96	71.880
552.30	70.249
552.64	70.240
552.98	69.902
553.32	70.613
553.66	70.610
554.00	72.044
554.34	70.458
554.68	71.829
555.02	71.726
555.36	71.653
555.69	70.403
556.03	68.665
556.37	68.968
556.71	71.336
557.05	72.632
557.39	71.747
557.73	70.315
558.07	72.474
558.41	72.282
558.75	71.707
559.08	72.577
559.42	72.381
559.76	73.018
560.10	69.954
560.44	69.620
560.78	68.182
561.12	70.310
561.45	70.766
561.79	71.008
562.13	70.334
562.47	70.360
562.81	70.965
563.15	69.746
563.48	70.721
563.82	69.389
564.16	70.056
564.50	69.392
564.84	68.206
565.17	68.075
565.51	71.380
565.85	70.988
566.19	70.424
566.52	69.370
566.86	67.931
567.20	68.306
567.54	68.796
567.88	68.366
568.21	66.742
568.55	68.098
568.89	65.708
569.23	64.805
569.56	63.835
569.90	65.164
570.24	62.598
570.57	62.618
570.91	63.297
571.25	61.493
571.59	60.666
571.92	59.733
572.26	61.021
572.60	60.496
572.93	61.343
573.27	60.627
573.61	60.173
573.95	60.568
574.28	59.137
574.62	58.937
574.96	58.863
575.29	58.910
575.63	57.942
575.97	59.067
576.30	59.235
576.64	58.808
576.98	59.279
577.31	59.499
577.65	59.151
577.98	58.305
578.32	57.623
578.66	56.738
578.99	57.534
579.33	58.206
579.67	58.390
580.00	58.709
580.34	58.856
580.67	58.457
581.01	58.549
581.35	57.106
581.68	56.367
582.02	55.607
582.35	56.806
582.69	57.226
583.02	58.043
583.36	58.032
583.70	59.605
584.03	61.329
584.37	60.107
584.70	59.341
585.04	57.306
585.37	57.568
585.71	57.936
586.04	57.791
586.38	58.015
586.72	58.106
587.05	59.388
587.39	57.926
587.72	60.033
588.06	58.151
588.39	59.128
588.73	59.188
589.06	59.817
589.40	59.972
589.73	60.935
590.07	61.178
590.40	60.952
590.73	62.232
591.07	61.705
591.40	61.175
591.74	62.579
592.07	62.941
592.41	61.661
592.74	59.618
593.08	58.435
593.41	58.484
593.75	58.620
594.08	57.604
594.41	58.770
594.75	59.847
595.08	59.818
595.42	59.257
595.75	60.383
596.09	60.672
596.42	61.058
596.75	60.790
597.09	60.410
597.42	60.750
597.75	61.475
598.09	59.982
598.42	60.063
598.76	59.846
599.09	59.335
599.42	58.924
599.76	58.653
600.09	57.919
600.42	57.240
600.76	57.578
601.09	58.397
601.42	58.441
601.76	58.476
602.09	60.809
602.42	60.489
602.76	59.932
603.09	60.299
603.42	60.702
603.76	59.718
604.09	58.607
604.42	60.110
604.76	61.371
605.09	60.558
605.42	59.684
605.75	59.413
606.09	58.981
606.42	58.424
606.75	59.394
607.09	58.857
607.42	57.510
607.75	59.769
608.08	58.535
608.42	58.017
608.75	60.627
609.08	60.787
609.41	60.761
609.75	59.728
610.08	61.058
610.41	59.130
610.74	58.898
611.07	61.085
611.41	60.664
611.74	61.087
612.07	60.011
612.40	61.707
612.73	60.960
613.07	60.124
613.40	59.628
613.73	61.388
614.06	60.267
614.39	60.857
614.72	60.392
615.06	60.056
615.39	59.170
615.72	58.558
616.05	60.056
616.38	58.803
616.71	59.755
617.05	60.284
617.38	61.974
617.71	61.824
618.04	60.127
618.37	62.043
618.70	63.498
619.03	63.542
619.36	62.518
619.69	65.201
620.03	63.915
620.36	63.448
620.69	61.599
621.02	63.226
621.35	65.394
621.68	66.412
622.01	65.250
622.34	64.086
622.67	62.855
623.00	61.792
623.33	62.652
623.66	62.528
623.99	63.313
624.32	63.802
624.65	62.481
624.99	62.829
625.32	61.562
625.65	64.258
625.98	65.270
626.31	63.259
626.64	64.471
626.97	65.271
627.30	65.499
627.63	65.251
627.96	65.768
628.29	67.715
628.62	65.093
628.95	66.032
629.28	67.641
629.61	66.700
629.94	66.862
630.26	65.020
630.59	68.158
630.92	68.205
631.25	65.641
631.58	68.282
631.91	68.750
632.24	70.642
632.57	69.205
632.90	70.344
633.23	70.235
633.56	70.781
633.89	70.037
634.22	68.519
634.55	70.648
634.88	71.137
635.20	69.231
635.53	72.133
635.86	68.921
636.19	70.763
636.52	69.133
636.85	65.385
637.18	67.421
637.51	69.308
637.83	69.382
638.16	71.623
638.49	67.575
638.82	68.289
639.15	69.471
639.48	71.389
639.81	71.409
640.13	69.697
640.46	72.303
640.79	72.901
641.12	69.276
641.45	69.369
641.77	69.778
642.10	74.408
642.43	71.061
642.76	69.637
643.09	71.890
643.41	71.845
643.74	72.488
644.07	71.264
644.40	72.973
644.73	73.030
645.05	71.980
645.38	74.427
645.71	73.582
646.04	73.429
646.36	72.518
646.69	72.302
647.02	74.102
647.35	73.881
647.67	72.029
648.00	74.627
648.33	70.137
648.66	69.322
648.98	68.677
649.31	69.091
649.64	66.562
649.96	67.747
650.29	69.847
650.62	70.256
650.94	73.148
651.27	71.508
651.60	70.270
651.92	69.231
652.25	70.870
652.58	67.833
652.90	68.611
653.23	67.563
653.56	66.159
653.88	68.041
654.21	69.177
654.54	65.874
654.86	68.591
655.19	64.181
655.52	58.359
655.84	46.159
656.17	50.013
656.49	67.411
656.82	71.474
657.15	56.130
657.47	42.850
657.80	32.243
658.13	32.478
658.45	51.383
658.78	52.880
659.10	52.918
659.43	54.069
659.75	56.833
660.08	56.276
660.41	60.368
660.73	63.950
661.06	70.537
661.38	70.841
661.71	68.583
662.03	71.245
662.36	69.670
662.68	67.035
663.01	73.144
663.33	73.550
663.66	71.860
663.98	70.698
664.31	71.429
664.63	68.433
664.96	66.087
665.28	65.342
665.61	68.831
665.93	69.348
666.26	70.716
666.58	67.785
666.91	72.706
667.23	72.877
667.56	71.801
667.88	70.504
668.21	74.940
668.53	72.104
668.86	67.689
669.18	69.811
669.50	69.734
669.83	70.930
670.15	68.298
670.48	68.182
670.80	64.516
671.13	64.653
671.45	65.753
671.77	65.451
672.10	64.554
672.42	64.794
672.75	63.766
673.07	63.685
673.39	61.468
673.72	63.511
674.04	61.667
674.37	66.949
674.69	65.739
675.01	68.667
675.34	68.243
675.66	69.444
675.98	66.519
676.31	68.349
676.63	64.608
676.95	64.318
677.28	70.118
677.60	73.253
677.92	67.890
678.25	62.144
678.57	63.636
678.89	61.555
679.22	67.114
679.54	60.241
679.86	61.829
680.18	61.942
680.51	62.689
680.83	59.642
681.15	63.600
681.48	64.139
681.80	64.050
682.12	59.677
682.44	61.715
682.77	65.121
683.09	65.217
683.41	65.227
683.73	62.212
684.06	59.071
684.38	58.280
684.70	64.706
685.02	60.166
685.34	57.708
685.67	61.914
685.99	58.951
686.31	56.814
686.63	58.071
686.96	58.175
687.28	55.960
687.60	59.316
687.92	61.010
688.24	58.065
688.56	60.699
688.89	59.598
689.21	62.000
689.53	61.021
689.85	61.163
690.17	64.062
690.49	64.066
690.82	61.408
691.14	58.333
691.46	60.280
691.78	60.135
692.10	60.430
692.42	58.225
692.74	58.974
693.06	59.234
693.39	58.371
693.71	55.882
694.03	58.199
694.35	61.449
694.67	56.061
694.99	59.008
695.31	60.052
695.63	61.000
695.95	56.818
696.27	57.513
696.59	61.111
696.91	60.504
697.23	59.383
697.56	59.158
697.88	53.118
698.20	55.353
698.52	57.176
698.84	53.828
699.16	56.750
699.48	58.647
699.80	55.583
700.12	60.916
700.44	59.944
700.76	59.012
701.08	58.485
701.40	62.651
701.72	63.580
702.04	64.356
702.36	62.876
702.68	59.760
703.00	61.212
703.32	56.305
703.64	56.780
703.96	55.072
704.28	60.736
704.60	60.317
704.91	56.151
705.23	63.455
705.55	63.251
705.87	67.509
706.19	63.704
706.51	59.794
706.83	63.987
707.15	55.763
707.47	59.384
707.79	52.604
708.11	54.750
708.43	56.250
708.74	56.072
709.06	56.620
709.38	57.187
709.70	58.876
710.02	56.051
710.34	57.276
710.66	53.205
710.98	57.285
711.29	65.246
711.61	58.305
711.93	55.700
712.25	57.732
712.57	61.172
712.89	58.209
713.20	57.093
713.52	59.930
713.84	54.608
714.16	57.732
714.48	52.903
714.80	57.051
715.11	55.015
715.43	54.232
715.75	56.667
716.07	52.492
716.39	55.705
716.70	53.875
717.02	57.634
717.34	55.061
717.66	65.044
717.97	56.522
718.29	58.159
718.61	55.906
718.93	56.202
719.24	57.414
719.56	57.831
719.88	49.485
720.20	49.621
720.51	49.808
720.83	56.757
721.15	63.445
721.46	59.677
721.78	56.522
722.10	54.647
722.42	52.697
722.73	57.143
723.05	57.551
723.37	53.814
723.68	58.559
724.00	57.692
724.32	59.111
724.63	52.727
724.95	53.712
725.27	59.908
725.58	53.390
725.90	50.000
726.22	53.668
726.53	49.831
726.85	52.060
727.16	56.604
727.48	51.012
727.80	53.846
728.11	53.390
728.43	50.980
728.74	49.194
729.06	56.000
729.38	53.759
729.69	50.199
730.01	44.231
730.32	54.851
730.64	51.237
730.96	53.962
731.27	47.333
731.59	49.831
731.90	47.771
732.22	46.688
732.53	50.166
732.85	51.418
733.16	49.495
733.48	47.122
733.80	48.551
734.11	49.153
734.43	47.423
734.74	50.303
735.06	47.557
735.37	47.130
735.69	51.178
736.00	43.206
736.32	45.973
736.63	51.408
736.95	49.488
737.26	49.110
737.58	45.973
737.89	49.817
738.21	49.624
738.52	50.206
738.83	48.908
739.15	50.655
739.46	47.638
739.78	48.718
740.09	45.425
740.41	44.565
740.72	48.819
741.04	46.154
741.35	44.255
741.66	50.237
741.98	47.959
742.29	53.465
742.61	48.168
742.92	41.706
743.23	49.074
743.55	49.321
743.86	45.455
744.18	45.455
744.49	44.681
744.80	52.174
745.12	54.011
745.43	47.805
745.74	48.958
746.06	51.707
746.37	48.691
746.68	46.445
747.00	52.660
747.31	51.741
747.62	44.175
747.94	47.368
748.25	45.545
748.56	51.366
748.88	47.120
749.19	53.191
749.50	53.202
749.82	48.113
750.13	48.165
750.44	46.617
750.75	49.627
751.07	51.460
751.38	48.659
751.69	43.922
752.01	50.000
752.32	46.215
752.63	45.455
752.94	45.259
753.26	51.464
753.57	48.416
753.88	47.788
754.19	44.167
754.51	45.041
754.82	52.632
755.13	46.667
755.44	49.597
755.75	42.969
756.07	44.747
756.38	46.792
756.69	43.678
757.00	39.000
757.31	44.771
757.63	41.463
757.94	37.222
758.25	39.452
758.56	40.160
758.87	37.394
759.18	35.826
759.50	40.364
759.81	41.806
760.12	42.581
760.43	39.697
760.74	41.975
761.05	36.923
761.36	40.057
761.67	43.030
761.99	42.177
762.30	40.364
762.61	43.478
762.92	40.724
763.23	46.396
763.54	43.458
763.85	44.492
764.16	41.079
764.47	41.935
764.78	42.857
765.10	42.424
765.41	37.539
765.72	42.540
766.03	39.850
766.34	40.876
766.65	44.622
766.96	42.929
767.27	48.936
767.58	42.529
767.89	44.681
768.20	48.295
768.51	45.055
768.82	44.828
769.13	40.092
769.44	39.485
769.75	40.639
770.06	42.672
770.37	38.462
770.68	42.640
770.99	44.796
771.30	47.059
771.61	40.724
771.92	42.672
772.23	37.931
772.54	37.097
772.85	53.086
773.16	48.315
773.47	48.366
773.78	49.020
774.09	40.120
774.39	48.667
774.70	40.764
775.01	49.655
775.32	46.429
775.63	43.802
775.94	43.511
776.25	37.795
776.56	50.000
776.87	50.962
777.18	40.171
777.48	41.379
777.79	38.261
778.10	35.238
778.41	34.234
778.72	45.238
779.03	35.338
779.34	41.135
779.65	46.575
779.95	47.260
780.26	38.621
780.57	39.024
780.88	34.646
781.19	47.414
781.50	49.612
781.80	41.420
782.11	37.736
782.42	46.154
782.73	40.288
783.04	40.000
783.34	35.417
783.65	26.496
783.96	41.803
784.27	41.379
784.57	34.959
784.88	39.844
785.19	54.000
785.50	53.000
785.81	39.655
786.11	36.207
786.42	39.806
786.73	37.273
787.04	38.776
787.34	38.393
787.65	43.810
787.96	28.319
788.26	46.364
788.57	41.026
788.88	41.406
789.19	36.508
789.49	35.652
789.80	50.000
790.11	32.323
790.41	24.545
790.72	48.913
791.03	26.136
791.33	45.000
791.64	35.000
791.95	38.372
792.25	29.787
792.56	31.461
792.87	32.877
793.17	47.826
793.48	34.667
793.79	30.000
794.09	38.750
794.40	33.019
794.70	34.951
795.01	35.772
795.32	35.897
795.62	35.238
795.93	47.059
796.23	44.340
796.54	40.625
796.85	25.000
797.15	30.986
797.46	37.500
797.76	50.000
798.07	46.512
798.37	28.947
798.68	28.788
798.99	30.864
799.29	32.857
799.60	33.333
799.90	38.667
800.21	34.426
800.51	33.846
800.82	47.458
801.12	21.739
801.43	49.180
801.73	44.444
802.04	24.000
802.34	28.358
802.65	51.923
802.95	21.429
803.26	34.615
803.56	29.412
803.87	32.609
804.17	29.333
804.48	34.921
804.78	35.185
805.09	32.609
805.39	31.111
805.70	50.000
806.00	28.070
806.30	36.620
806.61	24.286
806.91	19.444
807.22	34.211
807.52	40.000
807.83	25.455
808.13	27.778
808.43	39.706
808.74	26.866
809.04	20.339
809.35	23.077
809.65	42.187
809.95	18.919
810.26	29.545
810.56	26.027
810.86	4.762
811.17	22.000
811.47	34.694
811.77	36.842
812.08	43.182
812.38	22.642
812.69	55.000
812.99	48.485
813.29	50.000
813.59	-31.429
813.90	36.364
814.20	41.026
814.50	40.385
814.81	39.623
815.11	38.298
815.41	52.542
815.72	35.714
816.02	54.902
816.32	50.000
816.62	36.585
816.93	18.919
817.23	25.714
817.53	31.250
817.84	17.391
818.14	25.000
818.44	36.842
818.74	39.130
819.04	-7.500
819.35	48.649
819.65	23.529
819.95	22.222
820.25	21.429
820.56	57.500
820.86	-6.897
821.16	62.500
821.46	34.043
821.76	47.500
822.07	27.907
822.37	5.405
822.67	9.375
822.97	42.857
823.27	39.286
823.57	20.000
823.88	-37.037
824.18	35.714
824.48	52.941
824.78	29.032
825.08	17.391
825.38	24.242
825.69	-12.500
825.99	21.053
826.29	16.667
826.59	40.000
826.89	-14.286
827.19	19.565
827.49	45.000
827.79	34.286
828.09	14.286
828.39	42.424
828.70	45.946
829.00	57.143
829.30	28.571
829.60	23.333
829.90	31.250
830.20	42.105
830.50	-3.704
830.80	13.043
831.10	31.818
831.40	51.515
831.70	22.581
832.00	38.095
832.30	-33.333
832.60	-50.000
832.90	-3.448
833.20	35.000
833.50	24.242
833.80	22.222
834.10	-3.846
834.40	37.500
834.70	-77.778
835.00	-5.263
835.30	92.308
835.60	46.667
835.90	12.903
836.20	45.455
836.50	71.429
836.80	-19.231
837.10	10.714
837.40	-133.333
837.70	36.364
838.00	9.091
838.30	4.348
838.60	-23.077
838.90	45.455
839.19	-17.857
839.49	40.000
839.79	-15.385
840.09	-25.000
840.39	75.000
840.69	17.857
840.99	-38.462
841.29	-10.526
841.59	10.000
841.88	45.455
842.18	80.000
842.48	31.250
842.78	33.333
843.08	33.333
843.38	-80.000
843.68	47.826
843.97	53.333
844.27	-13.333
844.57	35.000
844.87	16.667
845.17	-9.524
845.47	6.667
845.76	-14.286
846.06	11.765
846.36	60.000
846.66	-21.429
846.96	60.000
847.25	-75.000
847.55	71.429
847.85	-25.000
848.15	9.091
848.44	-333.333
848.74	0.000
849.04	29.630
849.34	45.455
849.63	-116.667
849.93	-60.000
850.23	27.778
850.53	-20.000
850.82	53.846
851.12	-11.111
851.42	-26.667
851.71	19.231
852.01	78.571
852.31	150.000
852.61	-54.545
852.90	-10.000
853.20	52.632
853.50	-8.333
853.79	-4.348
854.09	37.500
854.39	-10.526
854.68	20.833
854.98	32.258
855.28	53.846
855.57	25.000
855.87	27.778
856.17	51.852
856.46	50.000
856.76	-26.667
857.05	100.000
857.35	32.000
857.65	-16.667
857.94	61.538
858.24	31.034
858.53	50.000
858.83	81.481
859.13	54.545
859.42	17.391
859.72	-25.000
860.01	-333.333
860.31	24.000
860.60	-9.524
860.90	-133.333
861.20	-20.000
861.49	-500.000
861.79	-93.333
862.08	40.000
862.38	73.333
862.67	-60.000
862.97	-200.000
863.26	33.333
863.56	44.444
863.85	-333.333
864.15	38.889
864.44	-30.000
864.74	28.571
865.03	-150.000
865.33	-240.000
865.62	-66.667
865.92	-16.667
866.21	-266.667
866.51	12.500
866.80	-45.455
867.10	-300.000
867.39	108.333
867.69	0.000
867.98	15.385
868.27	-666.667
868.57	26.667
868.86	-5.556
869.16	7.692
869.45	-20.000
869.75	-500.000
870.04	0.000
870.33	-100.000
870.63	28.571
870.92	200.000
871.22	-120.000
871.51	0.000
871.80	-22.222
872.10	133.333
>>>>>End Processed Spectral Data<<<<<
