SpectraSuite Data File
++++++++++++++++++++++++++++++++++++
Date: Fri May 15 21:01:21 PDT 2015
User: schluterlab
Dark Spectrum Present: Yes
Reference Spectrum Present: Yes
Number of Sampled Component Spectra: 1
Spectrometers: USB2E3373
Integration Time (usec): 3000 (USB2E3373)
Spectra Averaged: 3 (USB2E3373)
Boxcar Smoothing: 0 (USB2E3373)
Correct for Electrical Dark: No (USB2E3373)
Strobe/Lamp Enabled: No (USB2E3373)
Correct for Detector Non-linearity: No (USB2E3373)
Correct for Stray Light: No (USB2E3373)
Number of Pixels in Processed Spectrum: 2048
>>>>>Begin Processed Spectral Data<<<<<
178.53	0.000
178.91	0.000
179.29	0.000
179.67	-650.000
180.04	85.714
180.42	-150.000
180.80	-1500.000
181.18	33.333
181.56	350.000
181.94	-500.000
182.31	700.000
182.69	-60.000
183.07	-100.000
183.45	-260.000
183.83	116.667
184.20	-63.636
184.58	100.000
184.96	-0.000
185.34	300.000
185.72	-900.000
186.09	100.000
186.47	-800.000
186.85	216.667
187.23	188.889
187.61	700.000
187.98	-333.333
188.36	-88.889
188.74	-633.333
189.12	-58.824
189.49	16.667
189.87	0.000
190.25	57.143
190.63	-50.000
191.00	-233.333
191.38	10.526
191.76	400.000
192.14	25.000
192.51	150.000
192.89	-44.444
193.27	-271.429
193.65	250.000
194.02	145.455
194.40	-80.000
194.78	-150.000
195.15	-66.667
195.53	-100.000
195.91	150.000
196.29	-225.000
196.66	61.538
197.04	57.143
197.42	0.000
197.79	-366.667
198.17	-130.769
198.55	1900.000
198.92	-466.667
199.30	-300.000
199.68	-140.000
200.05	-500.000
200.43	0.000
200.81	-333.333
201.18	-66.667
201.56	900.000
201.94	-50.000
202.31	233.333
202.69	-360.000
203.07	275.000
203.44	-900.000
203.82	0.000
204.19	35.714
204.57	-400.000
204.95	262.500
205.32	-70.000
205.70	-57.143
206.08	-150.000
206.45	55.556
206.83	50.000
207.20	-71.429
207.58	1200.000
207.96	-233.333
208.33	-110.000
208.71	-125.000
209.08	-150.000
209.46	-700.000
209.84	-100.000
210.21	-1200.000
210.59	-85.714
210.96	-100.000
211.34	-125.000
211.71	6.667
212.09	-157.143
212.46	-1800.000
212.84	0.000
213.22	-10.000
213.59	750.000
213.97	38.462
214.34	127.273
214.72	-116.667
215.09	400.000
215.47	-61.538
215.84	-18.182
216.22	-433.333
216.59	150.000
216.97	-250.000
217.34	-200.000
217.72	-220.000
218.09	-12.500
218.47	137.500
218.84	-300.000
219.22	-155.556
219.59	-180.000
219.97	600.000
220.34	100.000
220.72	-142.857
221.09	-225.000
221.47	-350.000
221.84	-950.000
222.22	-1000.000
222.59	27.273
222.97	-16.667
223.34	-333.333
223.72	-71.429
224.09	-9.524
224.46	35.714
224.84	500.000
225.21	0.000
225.59	13.333
225.96	0.000
226.34	100.000
226.71	-100.000
227.08	100.000
227.46	-137.500
227.83	-600.000
228.21	11.111
228.58	36.364
228.95	-137.500
229.33	120.000
229.70	-37.500
230.08	-137.500
230.45	-85.714
230.82	57.143
231.20	-60.000
231.57	78.571
231.95	-14.286
232.32	-130.000
232.69	57.143
233.07	-100.000
233.44	-120.000
233.81	-90.000
234.19	-88.889
234.56	5.882
234.93	450.000
235.31	100.000
235.68	-160.000
236.05	-46.154
236.43	-30.000
236.80	-29.412
237.17	9.375
237.55	50.000
237.92	-14.815
238.29	13.889
238.67	40.000
239.04	2.941
239.41	4.878
239.79	20.000
240.16	17.073
240.53	0.000
240.91	17.391
241.28	25.397
241.65	37.500
242.02	28.767
242.40	25.000
242.77	35.593
243.14	15.152
243.51	22.500
243.89	27.586
244.26	26.437
244.63	32.143
245.00	37.113
245.38	34.021
245.75	30.337
246.12	15.517
246.49	38.017
246.87	35.577
247.24	29.412
247.61	33.333
247.98	35.772
248.36	28.125
248.73	28.947
249.10	33.117
249.47	39.873
249.84	40.523
250.22	35.882
250.59	39.869
250.96	31.925
251.33	33.140
251.70	37.059
252.08	38.579
252.45	31.683
252.82	37.688
253.19	39.631
253.56	29.907
253.94	36.937
254.31	33.913
254.68	41.228
255.05	35.039
255.42	36.681
255.79	39.768
256.16	37.354
256.54	37.313
256.91	33.840
257.28	35.688
257.65	40.075
258.02	34.752
258.39	35.017
258.76	37.729
259.14	41.860
259.51	36.893
259.88	37.113
260.25	36.275
260.62	39.583
260.99	38.305
261.36	38.699
261.73	35.443
262.10	36.170
262.47	34.356
262.85	38.558
263.22	37.846
263.59	36.760
263.96	41.304
264.33	40.606
264.70	43.155
265.07	35.714
265.44	38.810
265.81	40.395
266.18	40.437
266.55	36.247
266.92	40.155
267.29	36.031
267.66	37.852
268.03	39.529
268.40	36.292
268.77	39.572
269.14	37.170
269.51	38.817
269.88	37.406
270.25	35.204
270.62	35.610
270.99	35.806
271.36	37.164
271.73	41.080
272.10	37.713
272.47	39.716
272.84	41.089
273.21	36.659
273.58	38.795
273.95	36.384
274.32	34.180
274.69	31.900
275.06	36.161
275.43	37.868
275.80	36.203
276.17	37.701
276.54	35.546
276.91	37.281
277.28	34.498
277.65	38.843
278.02	35.957
278.39	36.761
278.76	36.059
279.13	33.402
279.50	39.076
279.87	33.477
280.23	34.194
280.60	36.842
280.97	37.374
281.34	36.154
281.71	36.140
282.08	35.174
282.45	33.855
282.82	34.942
283.19	36.170
283.56	35.838
283.92	36.433
284.29	34.231
284.66	35.465
285.03	35.953
285.40	34.783
285.77	32.865
286.14	32.852
286.51	36.347
286.87	32.541
287.24	36.280
287.61	33.862
287.98	34.035
288.35	34.315
288.72	35.377
289.08	30.208
289.45	31.810
289.82	32.692
290.19	30.887
290.56	32.933
290.93	31.145
291.29	28.814
291.66	31.654
292.03	30.463
292.40	31.935
292.77	32.057
293.13	29.221
293.50	28.983
293.87	32.214
294.24	28.439
294.60	29.359
294.97	29.762
295.34	28.988
295.71	26.826
296.08	28.999
296.44	25.889
296.81	29.167
297.18	28.551
297.55	28.862
297.91	27.945
298.28	29.947
298.65	27.137
299.02	26.550
299.38	25.718
299.75	26.345
300.12	25.262
300.48	25.428
300.85	26.996
301.22	26.753
301.59	25.921
301.95	24.937
302.32	26.459
302.69	26.244
303.05	25.000
303.42	25.280
303.79	26.402
304.15	25.568
304.52	25.565
304.89	25.146
305.25	24.697
305.62	23.454
305.99	24.211
306.35	25.780
306.72	22.385
307.09	24.515
307.45	23.766
307.82	26.042
308.19	25.784
308.55	24.755
308.92	26.035
309.29	25.698
309.65	25.619
310.02	24.202
310.38	23.930
310.75	26.230
311.12	25.188
311.48	24.178
311.85	24.398
312.22	24.473
312.58	26.115
312.95	23.372
313.31	22.981
313.68	25.654
314.05	25.510
314.41	25.773
314.78	25.670
315.14	24.974
315.51	26.708
315.87	25.820
316.24	26.491
316.61	26.870
316.97	26.984
317.34	26.855
317.70	26.386
318.07	26.827
318.43	27.647
318.80	27.746
319.16	27.734
319.53	30.579
319.89	29.528
320.26	29.960
320.62	31.494
320.99	29.749
321.35	29.805
321.72	32.503
322.08	31.521
322.45	32.284
322.81	30.747
323.18	32.777
323.54	32.625
323.91	31.938
324.27	32.813
324.64	33.052
325.00	32.026
325.37	35.445
325.73	34.089
326.10	36.149
326.46	35.874
326.83	35.871
327.19	35.658
327.56	36.838
327.92	38.116
328.29	37.321
328.65	39.434
329.01	37.408
329.38	38.341
329.74	37.016
330.11	38.091
330.47	37.384
330.84	37.981
331.20	41.255
331.56	37.222
331.93	39.178
332.29	40.055
332.66	39.005
333.02	39.312
333.38	38.955
333.75	41.209
334.11	38.854
334.48	39.619
334.84	40.476
335.20	39.707
335.57	39.166
335.93	40.379
336.29	39.595
336.66	40.327
337.02	40.056
337.38	38.519
337.75	40.727
338.11	39.495
338.47	39.872
338.84	40.388
339.20	40.402
339.56	39.083
339.93	41.450
340.29	40.734
340.65	40.412
341.02	40.603
341.38	39.292
341.74	38.251
342.11	38.908
342.47	39.680
342.83	40.571
343.20	39.634
343.56	39.826
343.92	40.478
344.28	40.820
344.65	39.896
345.01	39.412
345.37	38.688
345.73	41.004
346.10	40.811
346.46	40.202
346.82	40.671
347.19	39.568
347.55	38.764
347.91	38.997
348.27	38.723
348.63	39.523
349.00	40.443
349.36	40.565
349.72	39.801
350.08	38.934
350.45	40.862
350.81	39.618
351.17	37.622
351.53	39.429
351.89	38.811
352.26	39.520
352.62	39.677
352.98	37.831
353.34	39.050
353.70	38.916
354.07	38.790
354.43	38.991
354.79	39.389
355.15	40.873
355.51	39.320
355.87	41.100
356.24	38.989
356.60	39.935
356.96	40.079
357.32	40.016
357.68	39.562
358.04	39.742
358.40	40.113
358.77	39.234
359.13	38.030
359.49	39.291
359.85	38.924
360.21	39.793
360.57	39.327
360.93	39.788
361.29	39.275
361.66	40.596
362.02	39.545
362.38	39.756
362.74	39.667
363.10	40.105
363.46	39.956
363.82	41.548
364.18	39.852
364.54	39.118
364.90	39.785
365.26	39.884
365.62	42.117
365.98	42.082
366.35	40.859
366.71	40.503
367.07	40.493
367.43	39.468
367.79	41.131
368.15	40.345
368.51	39.621
368.87	40.560
369.23	41.661
369.59	40.889
369.95	40.982
370.31	41.329
370.67	41.940
371.03	40.030
371.39	40.846
371.75	39.927
372.11	40.442
372.47	42.308
372.83	40.738
373.19	42.011
373.55	41.588
373.91	41.685
374.27	42.736
374.63	43.503
374.99	42.695
375.35	42.061
375.71	42.378
376.07	42.978
376.42	42.585
376.78	44.027
377.14	43.196
377.50	42.497
377.86	41.968
378.22	42.374
378.58	43.462
378.94	42.596
379.30	43.169
379.66	43.824
380.02	42.305
380.38	43.640
380.74	42.908
381.09	44.233
381.45	43.364
381.81	44.170
382.17	43.528
382.53	42.598
382.89	44.696
383.25	44.555
383.61	44.573
383.97	44.190
384.32	43.527
384.68	44.334
385.04	43.995
385.40	44.244
385.76	45.912
386.12	45.472
386.48	46.679
386.83	45.529
387.19	45.238
387.55	46.487
387.91	44.804
388.27	44.567
388.62	46.193
388.98	44.444
389.34	45.347
389.70	46.613
390.06	44.430
390.42	46.114
390.77	45.389
391.13	44.451
391.49	45.731
391.85	48.018
392.20	46.139
392.56	45.010
392.92	46.271
393.28	46.521
393.64	45.465
393.99	47.398
394.35	46.932
394.71	46.679
395.07	45.443
395.42	45.173
395.78	46.319
396.14	46.721
396.50	45.276
396.85	46.362
397.21	45.990
397.57	45.016
397.92	46.315
398.28	46.494
398.64	44.518
399.00	46.163
399.35	45.655
399.71	45.491
400.07	46.735
400.42	44.737
400.78	45.928
401.14	45.433
401.49	45.920
401.85	44.485
402.21	44.819
402.57	44.750
402.92	44.291
403.28	44.674
403.63	44.956
403.99	44.643
404.35	46.034
404.70	43.452
405.06	43.713
405.42	44.127
405.77	44.335
406.13	44.412
406.49	43.991
406.84	45.355
407.20	44.913
407.55	43.271
407.91	44.184
408.27	44.423
408.62	43.938
408.98	44.794
409.34	45.105
409.69	43.798
410.05	43.411
410.40	44.444
410.76	43.848
411.11	44.500
411.47	43.853
411.83	43.440
412.18	44.466
412.54	42.884
412.89	42.057
413.25	43.803
413.60	42.919
413.96	42.086
414.31	44.024
414.67	42.591
415.03	43.475
415.38	42.950
415.74	44.039
416.09	43.305
416.45	42.674
416.80	42.631
417.16	44.544
417.51	43.371
417.87	44.198
418.22	43.847
418.58	44.147
418.93	44.389
419.29	42.125
419.64	43.227
420.00	44.270
420.35	43.403
420.71	43.864
421.06	43.646
421.42	43.029
421.77	44.624
422.12	43.814
422.48	44.342
422.83	44.200
423.19	44.074
423.54	43.445
423.90	44.229
424.25	44.719
424.61	44.737
424.96	44.599
425.31	45.465
425.67	44.836
426.02	45.819
426.38	45.836
426.73	45.278
427.09	45.253
427.44	46.000
427.79	45.669
428.15	45.813
428.50	45.548
428.85	45.762
429.21	45.218
429.56	46.253
429.92	46.020
430.27	44.561
430.62	45.217
430.98	45.329
431.33	45.952
431.68	46.049
432.04	45.277
432.39	45.009
432.74	44.859
433.10	46.264
433.45	45.818
433.80	47.185
434.16	45.319
434.51	46.237
434.86	46.632
435.22	46.663
435.57	47.224
435.92	46.886
436.28	45.736
436.63	46.149
436.98	46.060
437.34	46.763
437.69	48.778
438.04	46.667
438.39	47.037
438.75	47.662
439.10	46.689
439.45	48.022
439.81	47.951
440.16	48.931
440.51	49.075
440.86	49.547
441.22	47.907
441.57	48.234
441.92	49.056
442.27	49.612
442.63	48.769
442.98	48.937
443.33	48.748
443.68	49.072
444.03	48.882
444.39	49.385
444.74	51.282
445.09	49.220
445.44	49.915
445.79	50.954
446.15	49.504
446.50	49.085
446.85	48.990
447.20	50.834
447.55	50.725
447.91	49.633
448.26	49.004
448.61	49.511
448.96	50.430
449.31	50.000
449.66	49.303
450.02	50.656
450.37	50.207
450.72	50.057
451.07	50.949
451.42	50.562
451.77	49.970
452.12	48.923
452.47	49.066
452.83	50.648
453.18	51.107
453.53	51.327
453.88	50.759
454.23	50.830
454.58	50.819
454.93	50.966
455.28	49.333
455.63	51.209
455.98	51.112
456.34	51.213
456.69	49.809
457.04	51.103
457.39	50.972
457.74	51.330
458.09	49.500
458.44	49.503
458.79	49.692
459.14	51.259
459.49	50.567
459.84	49.351
460.19	51.214
460.54	50.244
460.89	51.080
461.24	49.379
461.59	50.713
461.94	49.937
462.29	49.940
462.64	51.096
462.99	49.289
463.34	49.096
463.69	49.421
464.04	51.211
464.39	50.879
464.74	49.632
465.09	49.470
465.44	50.317
465.79	48.016
466.14	49.088
466.49	49.971
466.84	49.494
467.19	49.437
467.54	48.787
467.89	50.790
468.24	48.418
468.59	49.651
468.94	48.254
469.29	49.246
469.64	49.897
469.99	50.175
470.34	48.874
470.68	50.410
471.03	51.026
471.38	49.929
471.73	48.739
472.08	48.304
472.43	50.403
472.78	48.115
473.13	49.592
473.48	48.599
473.83	49.938
474.17	49.158
474.52	48.756
474.87	49.333
475.22	48.566
475.57	49.351
475.92	50.357
476.27	49.709
476.61	49.537
476.96	47.630
477.31	48.783
477.66	47.640
478.01	48.961
478.36	48.203
478.70	49.429
479.05	49.890
479.40	48.861
479.75	48.540
480.10	48.438
480.45	47.550
480.79	49.396
481.14	49.590
481.49	47.241
481.84	48.407
482.19	48.690
482.53	47.626
482.88	47.542
483.23	47.457
483.58	46.651
483.92	46.757
484.27	45.943
484.62	46.795
484.97	46.061
485.31	46.496
485.66	44.734
486.01	45.630
486.36	46.036
486.70	46.883
487.05	47.308
487.40	46.122
487.75	46.479
488.09	45.365
488.44	45.048
488.79	45.162
489.13	46.114
489.48	45.960
489.83	46.502
490.17	46.157
490.52	45.635
490.87	45.627
491.22	45.941
491.56	44.924
491.91	46.080
492.26	45.698
492.60	46.689
492.95	46.975
493.30	45.725
493.64	46.464
493.99	45.362
494.34	45.583
494.68	45.333
495.03	45.255
495.37	45.731
495.72	45.129
496.07	45.122
496.41	45.094
496.76	45.739
497.11	44.853
497.45	45.680
497.80	46.165
498.14	45.256
498.49	45.353
498.84	44.561
499.18	45.884
499.53	44.494
499.87	44.504
500.22	44.016
500.56	46.193
500.91	45.331
501.26	43.500
501.60	44.958
501.95	44.250
502.29	44.504
502.64	44.402
502.98	44.697
503.33	44.428
503.67	43.663
504.02	44.966
504.36	44.780
504.71	43.081
505.06	43.634
505.40	43.452
505.75	44.536
506.09	44.501
506.44	45.072
506.78	44.286
507.13	44.105
507.47	42.402
507.82	43.323
508.16	43.582
508.51	43.652
508.85	44.427
509.19	43.534
509.54	43.271
509.88	43.204
510.23	43.733
510.57	43.185
510.92	41.471
511.26	42.935
511.61	43.564
511.95	42.959
512.30	42.794
512.64	43.016
512.98	41.887
513.33	43.760
513.67	41.899
514.02	43.993
514.36	43.600
514.70	43.531
515.05	44.007
515.39	43.270
515.74	44.431
516.08	42.857
516.42	43.404
516.77	43.242
517.11	42.789
517.46	43.447
517.80	42.491
518.14	42.437
518.49	42.188
518.83	42.770
519.17	43.238
519.52	42.333
519.86	42.497
520.20	43.621
520.55	42.089
520.89	42.785
521.23	41.862
521.58	43.722
521.92	42.372
522.26	42.225
522.61	41.364
522.95	42.252
523.29	42.694
523.64	42.186
523.98	43.033
524.32	41.559
524.66	42.510
525.01	41.494
525.35	42.061
525.69	41.414
526.04	41.204
526.38	42.607
526.72	39.699
527.06	40.726
527.41	39.644
527.75	39.410
528.09	41.462
528.43	40.918
528.78	40.792
529.12	41.548
529.46	40.611
529.80	40.659
530.15	41.386
530.49	40.337
530.83	41.450
531.17	40.900
531.51	41.518
531.86	40.449
532.20	40.640
532.54	40.504
532.88	41.136
533.22	40.255
533.57	39.843
533.91	39.164
534.25	40.234
534.59	39.962
534.93	39.018
535.27	39.213
535.62	39.663
535.96	40.313
536.30	39.182
536.64	41.282
536.98	39.443
537.32	40.185
537.66	39.832
538.01	39.720
538.35	39.875
538.69	38.881
539.03	39.303
539.37	39.166
539.71	39.673
540.05	39.851
540.39	39.751
540.73	40.028
541.07	39.019
541.42	38.038
541.76	38.266
542.10	38.679
542.44	39.472
542.78	37.509
543.12	38.049
543.46	38.248
543.80	38.931
544.14	37.383
544.48	39.241
544.82	38.483
545.16	38.866
545.50	38.051
545.84	39.093
546.18	40.284
546.52	38.068
546.86	36.377
547.20	38.984
547.54	37.456
547.88	37.976
548.22	37.475
548.56	37.533
548.90	38.612
549.24	36.846
549.58	37.236
549.92	36.669
550.26	38.168
550.60	38.067
550.94	37.341
551.28	37.249
551.62	38.462
551.96	37.744
552.30	36.988
552.64	37.094
552.98	37.131
553.32	37.447
553.66	36.284
554.00	37.226
554.34	37.149
554.68	36.431
555.02	38.244
555.36	36.724
555.69	35.458
556.03	36.117
556.37	36.157
556.71	37.545
557.05	36.987
557.39	35.688
557.73	37.331
558.07	37.934
558.41	36.907
558.75	36.867
559.08	36.958
559.42	36.667
559.76	36.990
560.10	36.850
560.44	36.039
560.78	35.734
561.12	36.671
561.45	37.175
561.79	36.275
562.13	37.757
562.47	36.403
562.81	37.032
563.15	36.953
563.48	36.704
563.82	37.749
564.16	36.699
564.50	36.149
564.84	36.546
565.17	36.419
565.51	38.320
565.85	37.449
566.19	36.472
566.52	37.332
566.86	36.954
567.20	35.679
567.54	36.192
567.88	36.731
568.21	36.821
568.55	36.685
568.89	36.499
569.23	37.121
569.56	35.814
569.90	36.338
570.24	36.249
570.57	36.109
570.91	36.424
571.25	35.975
571.59	35.223
571.92	34.874
572.26	35.024
572.60	35.380
572.93	34.766
573.27	34.483
573.61	35.501
573.95	35.636
574.28	35.249
574.62	34.884
574.96	35.153
575.29	34.528
575.63	33.739
575.97	34.318
576.30	34.861
576.64	33.960
576.98	34.749
577.31	34.996
577.65	34.404
577.98	35.228
578.32	34.578
578.66	34.021
578.99	34.300
579.33	34.499
579.67	33.409
580.00	34.203
580.34	34.353
580.67	33.828
581.01	33.982
581.35	33.506
581.68	34.383
582.02	34.520
582.35	34.689
582.69	34.846
583.02	34.458
583.36	35.155
583.70	35.177
584.03	34.640
584.37	35.093
584.70	34.643
585.04	33.834
585.37	34.226
585.71	33.992
586.04	34.266
586.38	34.142
586.72	34.175
587.05	35.326
587.39	34.386
587.72	35.402
588.06	35.289
588.39	34.435
588.73	34.341
589.06	35.421
589.40	35.465
589.73	34.465
590.07	34.819
590.40	35.217
590.73	35.667
591.07	34.902
591.40	34.996
591.74	34.932
592.07	35.668
592.41	34.143
592.74	34.448
593.08	34.230
593.41	34.267
593.75	34.184
594.08	33.951
594.41	34.170
594.75	34.351
595.08	34.506
595.42	34.928
595.75	34.660
596.09	34.206
596.42	34.146
596.75	35.835
597.09	34.351
597.42	34.734
597.75	35.639
598.09	33.952
598.42	34.567
598.76	33.805
599.09	34.014
599.42	33.573
599.76	33.860
600.09	33.635
600.42	34.155
600.76	33.915
601.09	34.084
601.42	33.686
601.76	33.426
602.09	34.901
602.42	34.878
602.76	33.956
603.09	34.718
603.42	35.870
603.76	34.113
604.09	33.333
604.42	34.602
604.76	34.490
605.09	34.186
605.42	33.995
605.75	34.720
606.09	34.140
606.42	33.945
606.75	34.762
607.09	33.758
607.42	33.363
607.75	33.703
608.08	33.423
608.42	33.394
608.75	34.506
609.08	33.931
609.41	34.061
609.75	33.165
610.08	34.099
610.41	33.961
610.74	34.178
611.07	34.419
611.41	34.561
611.74	34.009
612.07	34.154
612.40	34.573
612.73	34.689
613.07	34.196
613.40	33.698
613.73	33.912
614.06	34.168
614.39	34.067
614.72	33.277
615.06	33.799
615.39	34.279
615.72	34.015
616.05	33.631
616.38	32.422
616.71	34.128
617.05	34.280
617.38	34.004
617.71	33.774
618.04	34.794
618.37	33.985
618.70	33.003
619.03	35.278
619.36	34.298
619.69	34.344
620.03	34.770
620.36	33.906
620.69	34.190
621.02	34.404
621.35	34.772
621.68	34.099
622.01	33.750
622.34	34.477
622.67	34.779
623.00	32.466
623.33	33.994
623.66	32.835
623.99	33.359
624.32	35.361
624.65	33.534
624.99	34.236
625.32	33.662
625.65	35.192
625.98	35.133
626.31	33.001
626.64	35.095
626.97	34.031
627.30	33.888
627.63	34.402
627.96	34.322
628.29	33.858
628.62	33.628
628.95	34.269
629.28	33.669
629.61	32.602
629.94	34.702
630.26	34.091
630.59	34.755
630.92	34.564
631.25	33.231
631.58	33.921
631.91	32.785
632.24	33.830
632.57	35.682
632.90	32.503
633.23	35.059
633.56	32.494
633.89	33.662
634.22	33.210
634.55	32.402
634.88	34.738
635.20	32.564
635.53	34.000
635.86	32.640
636.19	33.247
636.52	34.949
636.85	31.886
637.18	32.579
637.51	33.585
637.83	34.166
638.16	35.061
638.49	32.016
638.82	34.211
639.15	33.243
639.48	33.012
639.81	33.054
640.13	34.199
640.46	33.382
640.79	34.168
641.12	30.576
641.45	32.733
641.77	31.704
642.10	34.597
642.43	32.315
642.76	33.663
643.09	32.472
643.41	32.524
643.74	31.631
644.07	34.483
644.40	32.939
644.73	34.151
645.05	32.718
645.38	32.451
645.71	33.156
646.04	33.393
646.36	34.397
646.69	32.374
647.02	33.081
647.35	35.634
647.67	33.090
648.00	34.515
648.33	31.741
648.66	33.559
648.98	33.166
649.31	31.901
649.64	32.653
649.96	31.929
650.29	33.901
650.62	30.256
650.94	32.593
651.27	33.706
651.60	30.991
651.92	32.517
652.25	33.037
652.58	32.500
652.90	33.619
653.23	32.773
653.56	28.934
653.88	33.505
654.21	31.699
654.54	30.390
654.86	34.635
655.19	32.456
655.52	34.598
655.84	32.717
656.17	35.885
656.49	49.002
656.82	50.426
657.15	38.792
657.47	28.916
657.80	21.259
658.13	20.733
658.45	31.868
658.78	31.259
659.10	30.247
659.43	30.163
659.75	30.044
660.08	29.931
660.41	30.848
660.73	30.387
661.06	31.369
661.38	31.311
661.71	32.444
662.03	31.760
662.36	32.967
662.68	32.301
663.01	32.096
663.33	33.179
663.66	32.326
663.98	31.395
664.31	31.343
664.63	30.645
664.96	29.565
665.28	29.581
665.61	33.117
665.93	31.739
666.26	30.369
666.58	29.306
666.91	29.882
667.23	34.670
667.56	31.280
667.88	30.216
668.21	29.833
668.53	32.624
668.86	33.962
669.18	30.189
669.50	26.634
669.83	32.326
670.15	32.867
670.48	32.536
670.80	34.562
671.13	28.635
671.45	27.397
671.77	33.262
672.10	31.881
672.42	30.712
672.75	31.083
673.07	31.664
673.39	32.477
673.72	28.008
674.04	30.000
674.37	30.508
674.69	32.120
675.01	32.222
675.34	28.829
675.66	33.333
675.98	31.042
676.31	31.422
676.63	32.067
676.95	30.227
677.28	35.059
677.60	30.602
677.92	25.917
678.25	32.604
678.57	29.654
678.89	31.092
679.22	31.320
679.54	30.723
679.86	28.032
680.18	31.456
680.51	29.356
680.83	30.616
681.15	33.400
681.48	32.172
681.80	33.471
682.12	30.847
682.44	28.870
682.77	30.684
683.09	31.121
683.41	30.455
683.73	32.488
684.06	30.531
684.38	28.817
684.70	30.501
685.02	30.705
685.34	27.866
685.67	30.394
685.99	32.007
686.31	28.850
686.63	30.241
686.96	30.228
687.28	29.899
687.60	28.517
687.92	31.313
688.24	29.234
688.56	32.314
688.89	31.696
689.21	32.000
689.53	31.787
689.85	29.535
690.17	32.589
690.49	29.314
690.82	29.369
691.14	29.048
691.46	30.841
691.78	28.378
692.10	31.828
692.42	29.221
692.74	30.983
693.06	29.955
693.39	27.376
693.71	29.186
694.03	30.716
694.35	29.439
694.67	32.828
694.99	28.460
695.31	30.287
695.63	28.500
695.95	26.768
696.27	30.570
696.59	32.500
696.91	31.653
697.23	29.049
697.56	29.703
697.88	31.828
698.20	30.068
698.52	29.176
698.84	25.359
699.16	27.250
699.48	29.323
699.80	32.258
700.12	31.536
700.44	32.493
700.76	31.977
701.08	28.485
701.40	30.723
701.72	33.333
702.04	33.333
702.36	26.756
702.68	28.529
703.00	27.273
703.32	29.619
703.64	26.554
703.96	28.986
704.28	30.061
704.60	31.429
704.91	27.445
705.23	26.246
705.55	32.862
705.87	31.047
706.19	29.630
706.51	27.835
706.83	31.833
707.15	26.480
707.47	28.011
707.79	28.385
708.11	32.750
708.43	28.250
708.74	26.873
709.06	32.113
709.38	28.746
709.70	28.698
710.02	31.847
710.34	33.127
710.66	26.923
710.98	28.808
711.29	30.164
711.61	29.492
711.93	29.316
712.25	34.364
712.57	28.938
712.89	26.493
713.20	30.450
713.52	26.481
713.84	26.962
714.16	27.835
714.48	30.323
714.80	27.564
715.11	30.395
715.43	29.467
715.75	27.333
716.07	26.910
716.39	28.523
716.70	25.092
717.02	27.481
717.34	29.555
717.66	24.779
717.97	26.522
718.29	30.544
718.61	33.465
718.93	25.194
719.24	26.996
719.56	32.932
719.88	30.928
720.20	28.788
720.51	19.923
720.83	31.660
721.15	29.832
721.46	29.435
721.78	24.901
722.10	23.420
722.42	25.311
722.73	25.714
723.05	23.265
723.37	31.356
723.68	27.928
724.00	25.641
724.32	20.444
724.63	29.545
724.95	27.948
725.27	29.493
725.58	27.542
725.90	24.206
726.22	32.819
726.53	29.831
726.85	31.461
727.16	29.811
727.48	23.077
727.80	29.150
728.11	27.966
728.43	29.020
728.74	19.355
729.06	27.600
729.38	33.835
729.69	26.693
730.01	21.538
730.32	26.119
730.64	31.095
730.96	26.415
731.27	27.333
731.59	29.831
731.90	28.662
732.22	31.546
732.53	30.897
732.85	31.206
733.16	33.333
733.48	21.223
733.80	27.899
734.11	31.525
734.43	28.522
734.74	26.667
735.06	28.339
735.37	30.514
735.69	32.997
736.00	30.314
736.32	25.168
736.63	31.338
736.95	30.717
737.26	27.758
737.58	26.510
737.89	27.839
738.21	27.444
738.52	30.041
738.83	23.581
739.15	24.017
739.46	27.953
739.78	24.908
740.09	29.412
740.41	25.362
740.72	25.984
741.04	26.721
741.35	23.830
741.66	26.540
741.98	27.041
742.29	26.238
742.61	24.607
742.92	19.905
743.23	24.537
743.55	28.054
743.86	27.751
744.18	29.187
744.49	19.681
744.80	23.913
745.12	32.086
745.43	27.805
745.74	27.604
746.06	33.659
746.37	23.560
746.68	28.910
747.00	19.149
747.31	34.328
747.62	27.184
747.94	29.665
748.25	25.743
748.56	27.869
748.88	28.272
749.19	28.191
749.50	24.138
749.82	25.472
750.13	26.606
750.44	28.195
750.75	26.493
751.07	33.577
751.38	28.736
751.69	25.490
752.01	36.434
752.32	27.092
752.63	25.296
752.94	27.155
753.26	28.452
753.57	24.434
753.88	28.319
754.19	22.083
754.51	24.380
754.82	19.838
755.13	30.000
755.44	26.613
755.75	28.516
756.07	31.128
756.38	24.528
756.69	25.670
757.00	27.000
757.31	24.837
757.63	27.134
757.94	28.333
758.25	27.397
758.56	26.862
758.87	21.530
759.18	22.741
759.50	25.455
759.81	27.425
760.12	26.129
760.43	27.273
760.74	28.395
761.05	26.769
761.36	26.705
761.67	28.788
761.99	30.272
762.30	22.545
762.61	23.320
762.92	21.267
763.23	22.523
763.54	19.159
763.85	25.424
764.16	26.556
764.47	24.194
764.78	23.443
765.10	30.303
765.41	22.397
765.72	27.619
766.03	20.301
766.34	22.993
766.65	29.880
766.96	26.263
767.27	25.000
767.58	24.713
767.89	25.532
768.20	22.727
768.51	23.077
768.82	23.645
769.13	19.816
769.44	23.176
769.75	26.027
770.06	24.569
770.37	22.115
770.68	29.442
770.99	26.697
771.30	22.549
771.61	26.244
771.92	28.448
772.23	28.571
772.54	31.183
772.85	27.160
773.16	26.404
773.47	27.451
773.78	18.954
774.09	19.760
774.39	19.333
774.70	23.567
775.01	33.793
775.32	26.429
775.63	23.140
775.94	22.901
776.25	14.173
776.56	21.667
776.87	19.231
777.18	29.915
777.48	29.310
777.79	15.652
778.10	1.905
778.41	18.018
778.72	29.365
779.03	16.541
779.34	34.043
779.65	28.082
779.95	19.863
780.26	28.276
780.57	21.138
780.88	18.110
781.19	25.862
781.50	36.434
781.80	20.118
782.11	22.642
782.42	30.769
782.73	21.583
783.04	21.481
783.34	21.528
783.65	15.385
783.96	23.770
784.27	31.034
784.57	26.829
784.88	19.531
785.19	25.000
785.50	28.000
785.81	20.690
786.11	22.414
786.42	26.214
786.73	34.545
787.04	12.245
787.34	23.214
787.65	21.905
787.96	30.973
788.26	27.273
788.57	11.966
788.88	28.125
789.19	18.254
789.49	19.130
789.80	15.306
790.11	17.172
790.41	19.091
790.72	26.087
791.03	22.727
791.33	27.500
791.64	5.000
791.95	16.279
792.25	26.596
792.56	28.090
792.87	16.438
793.17	17.391
793.48	28.000
793.79	18.750
794.09	27.500
794.40	20.755
794.70	33.010
795.01	26.016
795.32	15.385
795.62	22.857
795.93	16.667
796.23	22.642
796.54	19.792
796.85	30.882
797.15	9.859
797.46	38.889
797.76	15.152
798.07	12.791
798.37	3.947
798.68	25.758
798.99	17.284
799.29	31.429
799.60	23.188
799.90	29.333
800.21	22.951
800.51	7.692
800.82	13.559
801.12	11.594
801.43	14.754
801.73	22.222
802.04	18.000
802.34	-4.478
802.65	9.615
802.95	5.357
803.26	21.154
803.56	13.725
803.87	13.043
804.17	20.000
804.48	33.333
804.78	0.000
805.09	21.739
805.39	24.444
805.70	24.074
806.00	19.298
806.30	22.535
806.61	24.286
806.91	6.944
807.22	25.000
807.52	26.667
807.83	9.091
808.13	26.389
808.43	29.412
808.74	11.940
809.04	13.559
809.35	-9.615
809.65	23.437
809.95	5.405
810.26	6.818
810.56	9.589
810.86	19.048
811.17	10.000
811.47	22.449
811.77	-7.895
812.08	-9.091
812.38	-1.887
812.69	7.500
812.99	-18.182
813.29	5.263
813.59	-20.000
813.90	22.727
814.20	-5.128
814.50	17.308
814.81	26.415
815.11	-4.255
815.41	13.559
815.72	2.381
816.02	21.569
816.32	2.083
816.62	21.951
816.93	5.405
817.23	-11.429
817.53	33.333
817.84	-10.870
818.14	13.462
818.44	-10.526
818.74	23.913
819.04	-17.500
819.35	8.108
819.65	23.529
819.95	-2.778
820.25	16.667
820.56	30.000
820.86	-6.897
821.16	37.500
821.46	27.660
821.76	15.000
822.07	6.977
822.37	-18.919
822.67	21.875
822.97	9.524
823.27	-17.857
823.57	4.000
823.88	-18.519
824.18	-3.571
824.48	17.647
824.78	-3.226
825.08	30.435
825.38	-3.030
825.69	-25.000
825.99	13.158
826.29	-11.111
826.59	-60.000
826.89	-52.381
827.19	26.087
827.49	5.000
827.79	25.714
828.09	3.571
828.39	39.394
828.70	35.135
829.00	17.857
829.30	-28.571
829.60	6.667
829.90	9.375
830.20	5.263
830.50	-22.222
830.80	-17.391
831.10	31.818
831.40	24.242
831.70	25.806
832.00	-14.286
832.30	-28.571
832.60	-100.000
832.90	-3.448
833.20	-65.000
833.50	-15.152
833.80	11.111
834.10	38.462
834.40	-6.250
834.70	-188.889
835.00	15.789
835.30	57.692
835.60	-26.667
835.90	16.129
836.20	-27.273
836.50	25.000
836.80	19.231
837.10	-10.714
837.40	-266.667
837.70	4.545
838.00	-100.000
838.30	8.696
838.60	-123.077
838.90	22.727
839.19	25.000
839.49	-10.000
839.79	7.692
840.09	-66.667
840.39	57.143
840.69	-10.714
840.99	7.692
841.29	-21.053
841.59	-120.000
841.88	-90.909
842.18	-20.000
842.48	-25.000
842.78	-6.667
843.08	-40.741
843.38	-50.000
843.68	8.696
843.97	-53.333
844.27	-6.667
844.57	-20.000
844.87	22.222
845.17	-19.048
845.47	-40.000
845.76	-28.571
846.06	-11.765
846.36	-170.000
846.66	-35.714
846.96	-20.000
847.25	-175.000
847.55	35.714
847.85	-75.000
848.15	4.545
848.44	-366.667
848.74	-30.000
849.04	33.333
849.34	-81.818
849.63	-100.000
849.93	-280.000
850.23	-33.333
850.53	10.000
850.82	-115.385
851.12	-77.778
851.42	0.000
851.71	-42.308
852.01	42.857
852.31	-325.000
852.61	-63.636
852.90	-45.000
853.20	-31.579
853.50	-83.333
853.79	0.000
854.09	16.667
854.39	-47.368
854.68	-33.333
854.98	-3.226
855.28	30.769
855.57	5.000
855.87	-83.333
856.17	18.519
856.46	-64.286
856.76	-106.667
857.05	66.667
857.35	-12.000
857.65	22.222
857.94	-23.077
858.24	6.897
858.53	44.444
858.83	14.815
859.13	-4.545
859.42	-60.870
859.72	-125.000
860.01	-466.667
860.31	12.000
860.60	-19.048
860.90	-333.333
861.20	-40.000
861.49	-550.000
861.79	33.333
862.08	15.000
862.38	6.667
862.67	-320.000
862.97	-33.333
863.26	16.667
863.56	11.111
863.85	-533.333
864.15	16.667
864.44	-120.000
864.74	-21.429
865.03	225.000
865.33	-300.000
865.62	-33.333
865.92	-58.333
866.21	-183.333
866.51	31.250
866.80	-45.455
867.10	-700.000
867.39	58.333
867.69	0.000
867.98	-30.769
868.27	-466.667
868.57	-20.000
868.86	-38.889
869.16	-100.000
869.45	13.333
869.75	-1900.000
870.04	0.000
870.33	-200.000
870.63	-9.524
870.92	300.000
871.22	-300.000
871.51	-500.000
871.80	-11.111
872.10	366.667
>>>>>End Processed Spectral Data<<<<<
