SpectraSuite Data File
++++++++++++++++++++++++++++++++++++
Date: Fri May 15 20:59:21 PDT 2015
User: schluterlab
Dark Spectrum Present: Yes
Reference Spectrum Present: Yes
Number of Sampled Component Spectra: 1
Spectrometers: USB2E3373
Integration Time (usec): 3000 (USB2E3373)
Spectra Averaged: 3 (USB2E3373)
Boxcar Smoothing: 0 (USB2E3373)
Correct for Electrical Dark: No (USB2E3373)
Strobe/Lamp Enabled: No (USB2E3373)
Correct for Detector Non-linearity: No (USB2E3373)
Correct for Stray Light: No (USB2E3373)
Number of Pixels in Processed Spectrum: 2048
>>>>>Begin Processed Spectral Data<<<<<
178.53	0.000
178.91	0.000
179.29	62.500
179.67	-850.000
180.04	171.429
180.42	-200.000
180.80	400.000
181.18	100.000
181.56	400.000
181.94	250.000
182.31	1000.000
182.69	-120.000
183.07	-233.333
183.45	-180.000
183.83	183.333
184.20	54.545
184.58	133.333
184.96	-100.000
185.34	233.333
185.72	-500.000
186.09	38.462
186.47	-1500.000
186.85	233.333
187.23	111.111
187.61	-100.000
187.98	-366.667
188.36	-22.222
188.74	-266.667
189.12	76.471
189.49	27.778
189.87	0.000
190.25	42.857
190.63	-250.000
191.00	-200.000
191.38	-36.842
191.76	200.000
192.14	225.000
192.51	-50.000
192.89	-133.333
193.27	-171.429
193.65	200.000
194.02	136.364
194.40	-10.000
194.78	-125.000
195.15	-16.667
195.53	-200.000
195.91	175.000
196.29	-100.000
196.66	123.077
197.04	28.571
197.42	44.444
197.79	-600.000
198.17	-115.385
198.55	1800.000
198.92	-366.667
199.30	-1600.000
199.68	-60.000
200.05	-300.000
200.43	0.000
200.81	-166.667
201.18	-200.000
201.56	700.000
201.94	-500.000
202.31	166.667
202.69	-120.000
203.07	75.000
203.44	0.000
203.82	0.000
204.19	-14.286
204.57	-433.333
204.95	87.500
205.32	-50.000
205.70	114.286
206.08	125.000
206.45	266.667
206.83	42.857
207.20	-71.429
207.58	200.000
207.96	-300.000
208.33	-120.000
208.71	25.000
209.08	-116.667
209.46	-1200.000
209.84	-60.000
210.21	-500.000
210.59	85.714
210.96	-133.333
211.34	-25.000
211.71	-20.000
212.09	-42.857
212.46	-2100.000
212.84	0.000
213.22	-20.000
213.59	550.000
213.97	-15.385
214.34	45.455
214.72	-100.000
215.09	600.000
215.47	-23.077
215.84	-54.545
216.22	-600.000
216.59	-25.000
216.97	350.000
217.34	-25.000
217.72	-200.000
218.09	62.500
218.47	175.000
218.84	-1200.000
219.22	-122.222
219.59	-180.000
219.97	700.000
220.34	300.000
220.72	-114.286
221.09	-75.000
221.47	-150.000
221.84	-450.000
222.22	-450.000
222.59	0.000
222.97	0.000
223.34	-533.333
223.72	14.286
224.09	28.571
224.46	25.000
224.84	633.333
225.21	-80.000
225.59	0.000
225.96	100.000
226.34	275.000
226.71	-57.143
227.08	-66.667
227.46	-12.500
227.83	-550.000
228.21	11.111
228.58	72.727
228.95	12.500
229.33	130.000
229.70	37.500
230.08	-137.500
230.45	-71.429
230.82	-14.286
231.20	-60.000
231.57	64.286
231.95	-114.286
232.32	20.000
232.69	21.429
233.07	-33.333
233.44	-200.000
233.81	-50.000
234.19	-44.444
234.56	-17.647
234.93	300.000
235.31	-225.000
235.68	-160.000
236.05	7.692
236.43	-40.000
236.80	0.000
237.17	56.250
237.55	0.000
237.92	-11.111
238.29	16.667
238.67	50.000
239.04	0.000
239.41	0.000
239.79	6.667
240.16	58.537
240.53	18.421
240.91	19.565
241.28	44.444
241.65	58.929
242.02	39.726
242.40	40.000
242.77	37.288
243.14	24.242
243.51	37.500
243.89	42.529
244.26	27.586
244.63	33.333
245.00	44.330
245.38	37.113
245.75	28.090
246.12	31.897
246.49	42.975
246.87	32.692
247.24	30.252
247.61	44.737
247.98	39.024
248.36	32.500
248.73	34.211
249.10	39.610
249.47	37.342
249.84	43.791
250.22	41.765
250.59	44.444
250.96	41.315
251.33	31.977
251.70	42.941
252.08	39.594
252.45	37.129
252.82	36.683
253.19	41.014
253.56	42.056
253.94	43.243
254.31	43.043
254.68	43.860
255.05	44.488
255.42	41.921
255.79	39.382
256.16	41.634
256.54	42.164
256.91	37.643
257.28	39.405
257.65	40.824
258.02	41.489
258.39	41.751
258.76	41.758
259.14	41.528
259.51	47.249
259.88	39.519
260.25	41.503
260.62	44.444
260.99	38.305
261.36	44.178
261.73	42.722
262.10	43.161
262.47	39.877
262.85	38.558
263.22	40.000
263.59	44.860
263.96	45.652
264.33	42.121
264.70	42.560
265.07	42.262
265.44	45.042
265.81	39.831
266.18	42.350
266.55	41.388
266.92	41.969
267.29	40.992
267.66	43.223
268.03	45.026
268.40	41.514
268.77	48.930
269.14	38.849
269.51	44.216
269.88	41.646
270.25	41.327
270.62	37.805
270.99	42.967
271.36	40.587
271.73	42.254
272.10	40.633
272.47	38.771
272.84	42.327
273.21	42.691
273.58	42.892
273.95	38.902
274.32	38.106
274.69	34.842
275.06	43.304
275.43	40.363
275.80	41.280
276.17	41.609
276.54	39.400
276.91	41.667
277.28	37.118
277.65	39.876
278.02	39.362
278.39	42.232
278.76	40.671
279.13	37.552
279.50	40.336
279.87	37.365
280.23	37.204
280.60	42.300
280.97	41.818
281.34	36.538
281.71	42.094
282.08	38.446
282.45	38.552
282.82	38.031
283.19	40.812
283.56	39.499
283.92	37.571
284.29	38.269
284.66	37.984
285.03	39.686
285.40	39.698
285.77	38.489
286.14	38.628
286.51	40.959
286.87	35.649
287.24	39.042
287.61	37.919
287.98	40.175
288.35	38.302
288.72	37.478
289.08	35.069
289.45	36.555
289.82	37.937
290.19	34.983
290.56	36.364
290.93	37.710
291.29	34.052
291.66	35.591
292.03	34.769
292.40	33.548
292.77	33.333
293.13	31.656
293.50	33.232
293.87	32.977
294.24	33.849
294.60	33.234
294.97	31.250
295.34	32.362
295.71	31.595
296.08	29.447
296.44	27.881
296.81	30.000
297.18	31.449
297.55	29.675
297.91	29.863
298.28	31.135
298.65	29.851
299.02	29.111
299.38	27.770
299.75	28.828
300.12	28.010
300.48	30.040
300.85	28.771
301.22	27.922
301.59	26.711
301.95	28.987
302.32	29.831
302.69	28.234
303.05	27.723
303.42	29.265
303.79	28.505
304.15	27.838
304.52	27.586
304.89	27.135
305.25	28.814
305.62	27.421
305.99	27.485
306.35	28.439
306.72	26.209
307.09	26.796
307.45	27.325
307.82	27.431
308.19	26.249
308.55	25.736
308.92	27.015
309.29	25.922
309.65	24.973
310.02	25.413
310.38	27.442
310.75	26.667
311.12	26.480
311.48	26.405
311.85	26.387
312.22	25.422
312.58	26.221
312.95	25.507
313.31	25.569
313.68	24.921
314.05	25.408
314.41	26.495
314.78	24.433
315.14	26.002
315.51	25.880
315.87	25.307
316.24	25.581
316.61	26.575
316.97	26.190
317.34	25.195
317.70	25.335
318.07	25.577
318.43	24.902
318.80	23.864
319.16	25.000
319.53	26.021
319.89	25.591
320.26	26.417
320.62	26.680
320.99	25.574
321.35	26.208
321.72	26.168
322.08	25.881
322.45	25.584
322.81	25.737
323.18	26.104
323.54	25.676
323.91	25.122
324.27	25.781
324.64	27.060
325.00	24.270
325.37	26.814
325.73	23.753
326.10	25.341
326.46	25.740
326.83	25.897
327.19	25.545
327.56	25.195
327.92	26.056
328.29	25.804
328.65	26.604
329.01	26.379
329.38	25.806
329.74	26.062
330.11	25.209
330.47	23.933
330.84	24.904
331.20	25.951
331.56	25.278
331.93	25.936
332.29	25.023
332.66	25.973
333.02	24.628
333.38	25.115
333.75	25.183
334.11	23.903
334.48	25.476
334.84	24.817
335.20	24.886
335.57	25.023
335.93	26.378
336.29	25.138
336.66	24.069
337.02	24.071
337.38	24.444
337.75	25.000
338.11	25.609
338.47	23.996
338.84	24.214
339.20	24.771
339.56	25.321
339.93	24.261
340.29	25.505
340.65	25.358
341.02	24.911
341.38	23.186
341.74	24.205
342.11	22.790
342.47	24.110
342.83	24.827
343.20	24.303
343.56	24.870
343.92	23.649
344.28	24.167
344.65	23.921
345.01	23.509
345.37	23.465
345.73	24.854
346.10	23.210
346.46	24.306
346.82	22.995
347.19	21.945
347.55	24.060
347.91	23.544
348.27	23.686
348.63	24.361
349.00	22.806
349.36	22.860
349.72	24.627
350.08	23.689
350.45	23.863
350.81	23.588
351.17	23.046
351.53	23.510
351.89	22.626
352.26	22.960
352.62	23.306
352.98	21.767
353.34	22.464
353.70	23.786
354.07	24.032
354.43	22.098
354.79	21.718
355.15	23.175
355.51	23.813
355.87	22.896
356.24	21.697
356.60	22.635
356.96	23.095
357.32	22.444
357.68	22.596
358.04	23.506
358.40	23.392
358.77	23.285
359.13	23.379
359.49	22.573
359.85	20.983
360.21	23.285
360.57	21.576
360.93	22.769
361.29	21.752
361.66	23.433
362.02	22.424
362.38	22.163
362.74	22.559
363.10	22.573
363.46	22.683
363.82	21.713
364.18	21.771
364.54	21.618
364.90	22.294
365.26	22.416
365.62	23.285
365.98	21.114
366.35	22.724
366.71	22.395
367.07	22.496
367.43	21.855
367.79	21.979
368.15	22.254
368.51	21.122
368.87	22.182
369.23	20.939
369.59	22.157
369.95	22.507
370.31	21.965
370.67	21.716
371.03	22.031
371.39	21.590
371.75	22.418
372.11	21.255
372.47	22.115
372.83	21.930
373.19	21.113
373.55	21.805
373.91	21.814
374.27	22.750
374.63	21.895
374.99	22.411
375.35	22.006
375.71	21.748
376.07	20.014
376.42	22.381
376.78	22.013
377.14	21.666
377.50	21.647
377.86	22.289
378.22	20.932
378.58	22.115
378.94	21.172
379.30	21.460
379.66	21.505
380.02	21.459
380.38	21.242
380.74	21.245
381.09	21.288
381.45	21.284
381.81	21.283
382.17	21.066
382.53	20.237
382.89	21.532
383.25	21.469
383.61	21.524
383.97	20.571
384.32	20.826
384.68	20.805
385.04	20.833
385.40	20.846
385.76	21.132
386.12	20.440
386.48	21.201
386.83	21.370
387.19	21.551
387.55	21.644
387.91	21.638
388.27	21.368
388.62	22.026
388.98	20.994
389.34	21.112
389.70	21.753
390.06	19.824
390.42	19.948
390.77	20.667
391.13	20.177
391.49	21.669
391.85	21.183
392.20	20.841
392.56	20.852
392.92	21.433
393.28	21.050
393.64	19.880
393.99	21.379
394.35	20.367
394.71	20.307
395.07	20.176
395.42	20.522
395.78	20.065
396.14	20.429
396.50	21.306
396.85	20.155
397.21	21.303
397.57	20.000
397.92	20.671
398.28	21.034
398.64	19.940
399.00	20.993
399.35	20.485
399.71	20.735
400.07	21.342
400.42	20.930
400.78	21.004
401.14	21.234
401.49	20.965
401.85	19.927
402.21	20.783
402.57	21.250
402.92	20.263
403.28	21.930
403.63	21.185
403.99	20.344
404.35	20.987
404.70	20.893
405.06	20.740
405.42	20.261
405.77	20.569
406.13	20.431
406.49	19.361
406.84	20.477
407.20	20.891
407.55	20.283
407.91	20.321
408.27	20.268
408.62	21.169
408.98	20.641
409.34	21.004
409.69	20.672
410.05	19.643
410.40	20.679
410.76	20.024
411.11	21.437
411.47	21.696
411.83	20.088
412.18	20.849
412.54	20.412
412.89	20.382
413.25	19.856
413.60	20.621
413.96	21.166
414.31	20.549
414.67	21.488
415.03	20.573
415.38	20.692
415.74	21.173
416.09	21.489
416.45	20.999
416.80	20.621
417.16	21.271
417.51	21.452
417.87	21.382
418.22	21.632
418.58	20.870
418.93	21.693
419.29	19.334
419.64	20.804
420.00	21.788
420.35	20.955
420.71	21.446
421.06	20.810
421.42	20.913
421.77	21.098
422.12	20.545
422.48	20.736
422.83	20.940
423.19	21.332
423.54	20.400
423.90	20.848
424.25	21.068
424.61	22.154
424.96	21.022
425.31	21.779
425.67	21.479
426.02	21.260
426.38	20.977
426.73	22.215
427.09	21.709
427.44	21.529
427.79	21.391
428.15	21.177
428.50	21.623
428.85	20.946
429.21	21.109
429.56	21.402
429.92	21.572
430.27	21.353
430.62	20.596
430.98	21.125
431.33	21.399
431.68	20.513
432.04	21.297
432.39	20.593
432.74	20.565
433.10	22.184
433.45	21.446
433.80	21.764
434.16	20.111
434.51	21.237
434.86	21.254
435.22	21.032
435.57	22.021
435.92	21.317
436.28	21.169
436.63	21.905
436.98	20.857
437.34	21.053
437.69	21.407
438.04	21.766
438.39	20.831
438.75	21.190
439.10	21.845
439.45	22.094
439.81	22.324
440.16	22.150
440.51	21.791
440.86	22.900
441.22	21.041
441.57	21.689
441.92	22.613
442.27	21.896
442.63	22.698
442.98	21.252
443.33	21.592
443.68	21.698
444.03	22.305
444.39	22.036
444.74	22.241
445.09	21.659
445.44	22.336
445.79	22.383
446.15	22.302
446.50	21.963
446.85	21.998
447.20	22.471
447.55	22.879
447.91	22.843
448.26	22.311
448.61	22.453
448.96	22.490
449.31	21.214
449.66	22.184
450.02	22.076
450.37	21.517
450.72	22.222
451.07	21.899
451.42	22.659
451.77	22.966
452.12	22.189
452.47	21.571
452.83	21.555
453.18	22.138
453.53	22.882
453.88	22.465
454.23	22.680
454.58	23.048
454.93	23.196
455.28	22.159
455.63	22.567
455.98	23.572
456.34	22.861
456.69	23.761
457.04	22.432
457.39	23.147
457.74	22.249
458.09	21.778
458.44	23.171
458.79	22.353
459.14	24.199
459.49	22.925
459.84	22.617
460.19	22.573
460.54	23.227
460.89	22.443
461.24	23.043
461.59	24.050
461.94	22.704
462.29	23.522
462.64	23.920
462.99	23.900
463.34	23.296
463.69	23.359
464.04	22.821
464.39	23.287
464.74	22.761
465.09	23.394
465.44	23.485
465.79	22.619
466.14	23.888
466.49	23.347
466.84	23.319
467.19	24.218
467.54	22.478
467.89	22.615
468.24	22.384
468.59	24.063
468.94	23.937
469.29	24.000
469.64	24.675
469.99	24.036
470.34	23.823
470.68	24.758
471.03	24.275
471.38	25.107
471.73	23.669
472.08	24.016
472.43	23.154
472.78	23.578
473.13	24.694
473.48	24.691
473.83	23.288
474.17	24.417
474.52	23.867
474.87	24.909
475.22	24.039
475.57	23.151
475.92	24.355
476.27	24.505
476.61	24.479
476.96	23.090
477.31	24.283
477.66	23.876
478.01	23.695
478.36	24.129
478.70	23.926
479.05	23.901
479.40	24.430
479.75	24.035
480.10	24.834
480.45	24.000
480.79	25.126
481.14	24.078
481.49	23.744
481.84	23.600
482.19	23.714
482.53	23.981
482.88	24.535
483.23	24.376
483.58	24.575
483.92	24.153
484.27	24.294
484.62	23.980
484.97	23.176
485.31	22.868
485.66	22.300
486.01	21.744
486.36	21.716
486.70	22.757
487.05	23.386
487.40	22.958
487.75	23.042
488.09	23.733
488.44	23.693
488.79	24.244
489.13	24.880
489.48	24.369
489.83	24.305
490.17	24.494
490.52	24.249
490.87	24.618
491.22	25.883
491.56	25.047
491.91	24.761
492.26	25.231
492.60	25.288
492.95	25.086
493.30	25.208
493.64	25.737
493.99	24.928
494.34	24.466
494.68	25.333
495.03	24.331
495.37	25.074
495.72	24.987
496.07	25.220
496.41	24.528
496.76	24.228
497.11	24.965
497.45	26.062
497.80	25.227
498.14	25.584
498.49	25.394
498.84	25.050
499.18	25.904
499.53	25.099
499.87	24.611
500.22	25.025
500.56	25.013
500.91	25.753
501.26	25.012
501.60	25.381
501.95	25.230
502.29	24.939
502.64	25.676
502.98	26.147
503.33	25.216
503.67	25.108
504.02	25.513
504.36	25.433
504.71	25.404
505.06	25.466
505.40	25.990
505.75	25.722
506.09	26.001
506.44	26.797
506.78	26.020
507.13	26.215
507.47	25.744
507.82	25.588
508.16	25.990
508.51	26.285
508.85	25.432
509.19	25.546
509.54	26.702
509.88	25.297
510.23	26.197
510.57	26.403
510.92	25.160
511.26	25.586
511.61	26.238
511.95	26.959
512.30	26.497
512.64	26.544
512.98	26.165
513.33	26.693
513.67	26.379
514.02	27.231
514.36	27.886
514.70	27.506
515.05	28.026
515.39	27.273
515.74	28.802
516.08	27.077
516.42	27.267
516.77	27.384
517.11	27.596
517.46	28.486
517.80	28.725
518.14	27.250
518.49	27.524
518.83	27.400
519.17	26.925
519.52	26.880
519.86	26.891
520.20	28.007
520.55	26.579
520.89	28.105
521.23	27.802
521.58	28.770
521.92	28.269
522.26	27.586
522.61	26.948
522.95	29.470
523.29	28.907
523.64	28.590
523.98	27.868
524.32	27.448
524.66	29.257
525.01	28.247
525.35	28.581
525.69	28.754
526.04	28.241
526.38	29.183
526.72	28.188
527.06	29.053
527.41	29.090
527.75	28.083
528.09	28.239
528.43	30.182
528.78	27.525
529.12	28.774
529.46	28.525
529.80	28.562
530.15	29.901
530.49	28.013
530.83	28.591
531.17	28.073
531.51	29.412
531.86	28.212
532.20	28.323
532.54	28.523
532.88	28.063
533.22	28.293
533.57	28.637
533.91	27.611
534.25	29.102
534.59	27.518
534.93	27.061
535.27	27.728
535.62	27.414
535.96	28.571
536.30	29.551
536.64	28.532
536.98	27.875
537.32	29.516
537.66	28.892
538.01	28.601
538.35	28.294
538.69	28.695
539.03	28.366
539.37	28.668
539.71	28.630
540.05	27.699
540.39	29.571
540.73	28.173
541.07	27.693
541.42	29.906
541.76	29.456
542.10	27.598
542.44	28.700
542.78	27.942
543.12	28.159
543.46	28.025
543.80	28.799
544.14	27.570
544.48	28.248
544.82	28.093
545.16	30.191
545.50	28.905
545.84	28.399
546.18	28.936
546.52	29.344
546.86	28.181
547.20	29.256
547.54	26.926
547.88	27.242
548.22	26.496
548.56	27.573
548.90	28.774
549.24	28.168
549.58	28.632
549.92	28.377
550.26	29.084
550.60	30.037
550.94	29.724
551.28	29.907
551.62	30.154
551.96	28.647
552.30	29.532
552.64	28.632
552.98	29.255
553.32	28.959
553.66	28.447
554.00	29.270
554.34	29.764
554.68	29.130
555.02	29.762
555.36	28.945
555.69	29.084
556.03	29.408
556.37	28.470
556.71	29.170
557.05	28.859
557.39	28.401
557.73	28.786
558.07	30.317
558.41	29.250
558.75	30.086
559.08	28.605
559.42	29.127
559.76	29.624
560.10	29.893
560.44	27.774
560.78	29.441
561.12	28.702
561.45	29.304
561.79	29.202
562.13	28.957
562.47	28.777
562.81	29.827
563.15	28.984
563.48	29.137
563.82	28.758
564.16	27.786
564.50	28.378
564.84	28.380
565.17	28.437
565.51	28.757
565.85	29.492
566.19	29.576
566.52	29.088
566.86	29.177
567.20	28.020
567.54	27.859
567.88	27.241
568.21	28.450
568.55	27.717
568.89	27.567
569.23	27.732
569.56	26.445
569.90	26.553
570.24	26.014
570.57	25.891
570.91	25.967
571.25	24.630
571.59	24.478
571.92	24.504
572.26	24.396
572.60	24.620
572.93	24.506
573.27	24.608
573.61	24.732
573.95	24.577
574.28	23.941
574.62	23.595
574.96	23.635
575.29	23.650
575.63	23.115
575.97	24.017
576.30	24.065
576.64	23.338
576.98	24.170
577.31	24.011
577.65	23.853
577.98	23.288
578.32	23.191
578.66	23.404
578.99	23.538
579.33	23.632
579.67	23.442
580.00	23.266
580.34	24.204
580.67	23.566
581.01	23.487
581.35	23.191
581.68	22.988
582.02	22.775
582.35	22.841
582.69	22.789
583.02	23.392
583.36	24.202
583.70	24.611
584.03	24.965
584.37	24.816
584.70	24.698
585.04	23.057
585.37	23.907
585.71	23.821
586.04	23.197
586.38	23.206
586.72	24.735
587.05	24.177
587.39	24.266
587.72	24.658
588.06	24.329
588.39	24.808
588.73	24.359
589.06	24.886
589.40	24.784
589.73	26.031
590.07	25.906
590.40	25.580
590.73	25.824
591.07	25.657
591.40	25.868
591.74	26.380
592.07	26.160
592.41	25.707
592.74	25.607
593.08	23.926
593.41	24.514
593.75	24.403
594.08	24.133
594.41	25.036
594.75	24.237
595.08	24.972
595.42	24.512
595.75	25.798
596.09	25.254
596.42	25.300
596.75	26.155
597.09	26.059
597.42	26.197
597.75	25.470
598.09	26.075
598.42	25.496
598.76	25.354
599.09	25.000
599.42	24.744
599.76	24.868
600.09	24.887
600.42	24.640
600.76	23.737
601.09	24.504
601.42	24.403
601.76	24.692
602.09	24.670
602.42	25.990
602.76	25.212
603.09	25.540
603.42	25.585
603.76	24.556
604.09	24.990
604.42	26.058
604.76	26.480
605.09	25.640
605.42	25.508
605.75	25.350
606.09	25.817
606.42	24.437
606.75	25.195
607.09	24.703
607.42	25.255
607.75	24.956
608.08	24.978
608.42	25.400
608.75	25.687
609.08	25.710
609.41	26.548
609.75	26.008
610.08	25.761
610.41	24.831
610.74	25.549
611.07	26.098
611.41	26.155
611.74	27.026
612.07	26.606
612.40	25.766
612.73	26.667
613.07	25.534
613.40	26.094
613.73	26.693
614.06	25.097
614.39	26.847
614.72	25.490
615.06	26.145
615.39	25.437
615.72	25.188
616.05	25.531
616.38	25.698
616.71	26.300
617.05	26.992
617.38	26.587
617.71	27.107
618.04	27.492
618.37	27.554
618.70	27.987
619.03	27.917
619.36	26.918
619.69	29.719
620.03	28.269
620.36	28.183
620.69	27.552
621.02	27.752
621.35	27.967
621.68	29.847
622.01	29.167
622.34	28.013
622.67	29.022
623.00	28.790
623.33	27.744
623.66	28.197
623.99	27.610
624.32	28.669
624.65	26.541
624.99	27.916
625.32	27.672
625.65	28.594
625.98	29.976
626.31	29.426
626.64	30.069
626.97	30.105
627.30	30.035
627.63	30.156
627.96	30.548
628.29	30.342
628.62	30.678
628.95	30.962
629.28	30.544
629.61	29.212
629.94	30.792
630.26	29.545
630.59	31.842
630.92	29.436
631.25	30.359
631.58	30.837
631.91	30.921
632.24	31.537
632.57	32.955
632.90	32.740
633.23	31.176
633.56	31.108
633.89	32.429
634.22	32.963
634.55	33.291
634.88	33.078
635.20	31.282
635.53	33.067
635.86	32.120
636.19	32.471
636.52	33.546
636.85	32.382
637.18	30.566
637.51	32.830
637.83	32.457
638.16	33.288
638.49	31.063
638.82	34.211
639.15	32.972
639.48	33.563
639.81	32.218
640.13	34.921
640.46	31.778
640.79	30.928
641.12	32.792
641.45	35.435
641.77	34.370
642.10	34.913
642.43	34.244
642.76	34.488
643.09	34.249
643.41	33.333
643.74	33.114
644.07	34.154
644.40	36.655
644.73	37.303
645.05	34.564
645.38	35.450
645.71	31.560
646.04	33.573
646.36	35.993
646.69	36.511
647.02	35.917
647.35	33.396
647.67	34.004
648.00	37.127
648.33	35.495
648.66	33.220
648.98	31.491
649.31	32.066
649.64	32.182
649.96	30.794
650.29	34.412
650.62	33.846
650.94	34.444
651.27	34.823
651.60	34.595
651.92	33.741
652.25	32.860
652.58	33.667
652.90	33.791
653.23	32.269
653.56	31.472
653.88	32.818
654.21	31.874
654.54	33.277
654.86	34.295
655.19	31.433
655.52	28.483
655.84	20.924
656.17	22.899
656.49	30.969
656.82	32.675
657.15	25.731
657.47	19.675
657.80	14.963
658.13	14.977
658.45	23.831
658.78	24.570
659.10	24.355
659.43	25.606
659.75	26.492
660.08	27.931
660.41	29.316
660.73	28.591
661.06	33.276
661.38	33.072
661.71	33.265
662.03	37.339
662.36	36.044
662.68	35.398
663.01	37.773
663.33	32.483
663.66	33.953
663.98	38.372
664.31	33.475
664.63	32.719
664.96	32.391
665.28	34.216
665.61	33.333
665.93	35.217
666.26	36.659
666.58	31.544
666.91	33.882
667.23	37.264
667.56	32.938
667.88	38.369
668.21	35.561
668.53	36.407
668.86	36.792
669.18	31.840
669.50	33.172
669.83	31.860
670.15	34.266
670.48	33.971
670.80	36.406
671.13	33.333
671.45	31.050
671.77	36.695
672.10	33.465
672.42	30.712
672.75	30.728
673.07	32.200
673.39	33.578
673.72	31.558
674.04	33.333
674.37	32.839
674.69	34.904
675.01	33.778
675.34	37.162
675.66	34.722
675.98	34.146
676.31	35.550
676.63	33.729
676.95	30.682
677.28	35.294
677.60	36.145
677.92	33.486
678.25	34.136
678.57	32.251
678.89	33.613
679.22	33.110
679.54	31.124
679.86	27.038
680.18	32.621
680.51	32.576
680.83	29.225
681.15	30.600
681.48	30.123
681.80	34.091
682.12	32.863
682.44	29.289
682.77	33.775
683.09	27.918
683.41	32.273
683.73	34.793
684.06	29.204
684.38	30.968
684.70	33.551
685.02	31.535
685.34	29.051
685.67	30.206
685.99	29.295
686.31	29.381
686.63	28.015
686.96	28.517
687.28	31.111
687.60	29.848
687.92	32.929
688.24	30.242
688.56	31.004
688.89	32.143
689.21	36.444
689.53	29.466
689.85	29.302
690.17	31.920
690.49	30.969
690.82	33.495
691.14	29.286
691.46	33.178
691.78	30.856
692.10	32.258
692.42	30.519
692.74	31.624
693.06	30.631
693.39	29.864
693.71	27.602
694.03	27.252
694.35	32.944
694.67	32.576
694.99	30.548
695.31	30.809
695.63	30.750
695.95	31.061
696.27	27.461
696.59	32.778
696.91	31.092
697.23	28.792
697.56	32.178
697.88	32.043
698.20	31.207
698.52	29.176
698.84	28.469
699.16	29.000
699.48	28.822
699.80	32.258
700.12	30.189
700.44	34.454
700.76	33.430
701.08	31.212
701.40	31.627
701.72	36.420
702.04	34.983
702.36	34.783
702.68	29.730
703.00	35.152
703.32	29.326
703.64	24.859
703.96	29.855
704.28	34.356
704.60	31.746
704.91	30.599
705.23	34.219
705.55	37.809
705.87	35.379
706.19	34.074
706.51	36.082
706.83	31.511
707.15	24.922
707.47	30.532
707.79	28.385
708.11	31.750
708.43	30.500
708.74	27.649
709.06	32.676
709.38	28.440
709.70	34.024
710.02	31.210
710.34	29.721
710.66	22.115
710.98	28.808
711.29	32.787
711.61	27.797
711.93	31.270
712.25	32.990
712.57	31.868
712.89	29.478
713.20	31.834
713.52	32.753
713.84	31.399
714.16	29.553
714.48	29.032
714.80	33.654
715.11	31.915
715.43	26.959
715.75	26.000
716.07	29.568
716.39	29.866
716.70	28.044
717.02	28.244
717.34	32.389
717.66	30.973
717.97	33.478
718.29	28.452
718.61	27.165
718.93	28.295
719.24	34.221
719.56	31.325
719.88	28.522
720.20	29.545
720.51	29.885
720.83	32.432
721.15	30.672
721.46	31.048
721.78	29.644
722.10	28.996
722.42	27.386
722.73	30.204
723.05	31.837
723.37	32.203
723.68	29.279
724.00	29.487
724.32	28.000
724.63	30.909
724.95	28.821
725.27	33.180
725.58	27.966
725.90	25.000
726.22	29.344
726.53	32.203
726.85	29.213
727.16	33.962
727.48	24.696
727.80	33.198
728.11	31.356
728.43	25.490
728.74	25.403
729.06	34.400
729.38	32.707
729.69	29.880
730.01	25.385
730.32	28.731
730.64	30.035
730.96	28.679
731.27	26.333
731.59	27.119
731.90	28.662
732.22	29.653
732.53	26.578
732.85	28.369
733.16	31.987
733.48	23.381
733.80	30.072
734.11	26.102
734.43	27.491
734.74	25.455
735.06	25.081
735.37	28.701
735.69	26.936
736.00	23.693
736.32	28.188
736.63	29.577
736.95	26.962
737.26	23.488
737.58	26.510
737.89	24.176
738.21	25.564
738.52	28.395
738.83	29.258
739.15	21.834
739.46	27.559
739.78	21.612
740.09	27.778
740.41	27.536
740.72	29.134
741.04	27.935
741.35	29.362
741.66	23.223
741.98	31.633
742.29	31.683
742.61	26.178
742.92	23.223
743.23	25.000
743.55	25.792
743.86	24.402
744.18	28.230
744.49	33.511
744.80	25.543
745.12	29.947
745.43	28.293
745.74	28.646
746.06	30.732
746.37	27.225
746.68	25.118
747.00	34.574
747.31	30.348
747.62	30.097
747.94	32.536
748.25	24.257
748.56	27.869
748.88	25.654
749.19	30.851
749.50	32.512
749.82	21.226
750.13	23.853
750.44	30.075
750.75	29.104
751.07	31.387
751.38	25.670
751.69	23.137
752.01	27.519
752.32	25.100
752.63	21.739
752.94	28.017
753.26	34.310
753.57	29.864
753.88	23.009
754.19	23.333
754.51	28.512
754.82	22.672
755.13	32.917
755.44	24.194
755.75	28.516
756.07	26.459
756.38	23.019
756.69	26.437
757.00	23.667
757.31	23.529
757.63	23.780
757.94	23.333
758.25	18.356
758.56	22.606
758.87	21.813
759.18	21.495
759.50	22.909
759.81	24.080
760.12	25.161
760.43	23.939
760.74	23.148
761.05	26.769
761.36	25.284
761.67	25.455
761.99	26.871
762.30	25.091
762.61	28.063
762.92	24.887
763.23	25.676
763.54	22.430
763.85	24.576
764.16	22.407
764.47	20.968
764.78	26.374
765.10	23.906
765.41	23.028
765.72	26.349
766.03	23.308
766.34	26.642
766.65	27.092
766.96	30.303
767.27	30.319
767.58	31.034
767.89	19.858
768.20	20.455
768.51	21.429
768.82	21.182
769.13	21.659
769.44	21.888
769.75	18.721
770.06	29.310
770.37	23.077
770.68	20.305
770.99	25.339
771.30	21.078
771.61	22.624
771.92	22.414
772.23	26.601
772.54	29.570
772.85	30.864
773.16	27.528
773.47	29.412
773.78	28.105
774.09	22.754
774.39	30.667
774.70	29.299
775.01	26.207
775.32	22.857
775.63	20.661
775.94	28.244
776.25	29.134
776.56	23.333
776.87	34.615
777.18	12.821
777.48	21.552
777.79	16.522
778.10	7.619
778.41	25.225
778.72	26.190
779.03	28.571
779.34	24.823
779.65	27.397
779.95	20.548
780.26	26.207
780.57	13.008
780.88	25.984
781.19	26.724
781.50	20.930
781.80	21.893
782.11	20.126
782.42	27.692
782.73	21.583
783.04	22.222
783.34	26.389
783.65	5.128
783.96	23.770
784.27	26.207
784.57	32.520
784.88	28.906
785.19	22.000
785.50	26.000
785.81	15.517
786.11	13.793
786.42	22.330
786.73	35.455
787.04	27.551
787.34	15.179
787.65	19.048
787.96	26.549
788.26	23.636
788.57	15.385
788.88	23.438
789.19	23.810
789.49	18.261
789.80	19.388
790.11	22.222
790.41	19.091
790.72	20.652
791.03	19.318
791.33	21.250
791.64	10.000
791.95	36.047
792.25	28.723
792.56	31.461
792.87	36.986
793.17	17.391
793.48	29.333
793.79	17.500
794.09	28.750
794.40	12.264
794.70	17.476
795.01	17.886
795.32	11.966
795.62	21.905
795.93	26.471
796.23	24.528
796.54	21.875
796.85	35.294
797.15	32.394
797.46	15.278
797.76	30.303
798.07	26.744
798.37	9.211
798.68	13.636
798.99	17.284
799.29	22.857
799.60	17.391
799.90	14.667
800.21	27.869
800.51	27.692
800.82	25.424
801.12	34.783
801.43	19.672
801.73	28.571
802.04	16.000
802.34	1.493
802.65	25.000
802.95	12.500
803.26	19.231
803.56	21.569
803.87	17.391
804.17	26.667
804.48	19.048
804.78	20.370
805.09	10.870
805.39	6.667
805.70	25.926
806.00	5.263
806.30	23.944
806.61	37.143
806.91	20.833
807.22	19.737
807.52	21.333
807.83	27.273
808.13	22.222
808.43	11.765
808.74	11.940
809.04	8.475
809.35	-3.846
809.65	12.500
809.95	-5.405
810.26	-2.273
810.56	21.918
810.86	-2.381
811.17	26.000
811.47	32.653
811.77	7.895
812.08	9.091
812.38	5.660
812.69	-7.500
812.99	-21.212
813.29	5.263
813.59	-5.714
813.90	29.545
814.20	-15.385
814.50	21.154
814.81	16.981
815.11	4.255
815.41	33.898
815.72	-4.762
816.02	17.647
816.32	10.417
816.62	17.073
816.93	0.000
817.23	37.143
817.53	29.167
817.84	23.913
818.14	17.308
818.44	5.263
818.74	19.565
819.04	-27.500
819.35	29.730
819.65	5.882
819.95	16.667
820.25	30.952
820.56	60.000
820.86	-13.793
821.16	17.500
821.46	10.638
821.76	37.500
822.07	-9.302
822.37	-24.324
822.67	-34.375
822.97	28.571
823.27	-3.571
823.57	-20.000
823.88	-3.704
824.18	-7.143
824.48	-2.941
824.78	-9.677
825.08	8.696
825.38	-12.121
825.69	-8.333
825.99	0.000
826.29	8.333
826.59	46.667
826.89	-52.381
827.19	30.435
827.49	-22.500
827.79	25.714
828.09	25.000
828.39	54.545
828.70	32.432
829.00	-10.714
829.30	-9.524
829.60	-23.333
829.90	3.125
830.20	2.632
830.50	-22.222
830.80	-26.087
831.10	-40.909
831.40	9.091
831.70	19.355
832.00	38.095
832.30	-9.524
832.60	-41.667
832.90	-24.138
833.20	-35.000
833.50	33.333
833.80	14.815
834.10	34.615
834.40	31.250
834.70	-66.667
835.00	47.368
835.30	42.308
835.60	66.667
835.90	25.806
836.20	45.455
836.50	21.429
836.80	3.846
837.10	17.857
837.40	33.333
837.70	-13.636
838.00	-36.364
838.30	17.391
838.60	-69.231
838.90	59.091
839.19	25.000
839.49	30.000
839.79	-23.077
840.09	-58.333
840.39	50.000
840.69	-17.857
840.99	-7.692
841.29	-63.158
841.59	-110.000
841.88	-18.182
842.18	-20.000
842.48	-6.250
842.78	0.000
843.08	11.111
843.38	-120.000
843.68	39.130
843.97	-6.667
844.27	-13.333
844.57	25.000
844.87	11.111
845.17	-4.762
845.47	46.667
845.76	-71.429
846.06	17.647
846.36	40.000
846.66	-7.143
846.96	6.667
847.25	0.000
847.55	-28.571
847.85	-25.000
848.15	4.545
848.44	-533.333
848.74	10.000
849.04	66.667
849.34	-18.182
849.63	-133.333
849.93	-320.000
850.23	11.111
850.53	20.000
850.82	-7.692
851.12	11.111
851.42	73.333
851.71	-34.615
852.01	21.429
852.31	-25.000
852.61	-27.273
852.90	-35.000
853.20	15.789
853.50	-66.667
853.79	13.043
854.09	45.833
854.39	-36.842
854.68	-29.167
854.98	32.258
855.28	7.692
855.57	-35.000
855.87	33.333
856.17	33.333
856.46	28.571
856.76	-13.333
857.05	66.667
857.35	8.000
857.65	-33.333
857.94	-123.077
858.24	3.448
858.53	5.556
858.83	18.519
859.13	40.909
859.42	-26.087
859.72	25.000
860.01	-300.000
860.31	-20.000
860.60	19.048
860.90	-33.333
861.20	-66.667
861.49	-450.000
861.79	6.667
862.08	45.000
862.38	33.333
862.67	-180.000
862.97	-100.000
863.26	-25.000
863.56	16.667
863.85	-400.000
864.15	5.556
864.44	-60.000
864.74	28.571
865.03	275.000
865.33	40.000
865.62	-133.333
865.92	-41.667
866.21	-300.000
866.51	0.000
866.80	-81.818
867.10	-500.000
867.39	100.000
867.69	0.000
867.98	15.385
868.27	-166.667
868.57	-13.333
868.86	16.667
869.16	-23.077
869.45	40.000
869.75	-1800.000
870.04	0.000
870.33	-42.857
870.63	4.762
870.92	500.000
871.22	-200.000
871.51	-1400.000
871.80	0.000
872.10	433.333
>>>>>End Processed Spectral Data<<<<<
