SpectraSuite Data File
++++++++++++++++++++++++++++++++++++
Date: Fri May 15 20:56:26 PDT 2015
User: schluterlab
Dark Spectrum Present: Yes
Reference Spectrum Present: Yes
Number of Sampled Component Spectra: 1
Spectrometers: USB2E3373
Integration Time (usec): 3000 (USB2E3373)
Spectra Averaged: 3 (USB2E3373)
Boxcar Smoothing: 0 (USB2E3373)
Correct for Electrical Dark: No (USB2E3373)
Strobe/Lamp Enabled: No (USB2E3373)
Correct for Detector Non-linearity: No (USB2E3373)
Correct for Stray Light: No (USB2E3373)
Number of Pixels in Processed Spectrum: 2048
>>>>>Begin Processed Spectral Data<<<<<
178.53	0.000
178.91	0.000
179.29	112.500
179.67	-100.000
180.04	85.714
180.42	-75.000
180.80	-1100.000
181.18	200.000
181.56	500.000
181.94	-50.000
182.31	300.000
182.69	0.000
183.07	66.667
183.45	-180.000
183.83	133.333
184.20	-63.636
184.58	155.556
184.96	-175.000
185.34	-366.667
185.72	-650.000
186.09	38.462
186.47	-800.000
186.85	133.333
187.23	55.556
187.61	-100.000
187.98	-133.333
188.36	88.889
188.74	-166.667
189.12	23.529
189.49	5.556
189.87	0.000
190.25	-28.571
190.63	50.000
191.00	-33.333
191.38	-5.263
191.76	-250.000
192.14	325.000
192.51	850.000
192.89	-33.333
193.27	-157.143
193.65	166.667
194.02	136.364
194.40	-20.000
194.78	-187.500
195.15	-50.000
195.53	-37.500
195.91	275.000
196.29	-25.000
196.66	69.231
197.04	114.286
197.42	-44.444
197.79	-566.667
198.17	-38.462
198.55	1600.000
198.92	-300.000
199.30	-700.000
199.68	-100.000
200.05	-500.000
200.43	0.000
200.81	0.000
201.18	33.333
201.56	800.000
201.94	50.000
202.31	400.000
202.69	-80.000
203.07	375.000
203.44	600.000
203.82	0.000
204.19	7.143
204.57	-366.667
204.95	112.500
205.32	-20.000
205.70	42.857
206.08	25.000
206.45	0.000
206.83	135.714
207.20	-157.143
207.58	1200.000
207.96	33.333
208.33	-50.000
208.71	-100.000
209.08	-83.333
209.46	-500.000
209.84	-60.000
210.21	-500.000
210.59	42.857
210.96	-150.000
211.34	150.000
211.71	13.333
212.09	-128.571
212.46	-1000.000
212.84	0.000
213.22	160.000
213.59	350.000
213.97	61.538
214.34	36.364
214.72	-100.000
215.09	425.000
215.47	38.462
215.84	-45.455
216.22	-400.000
216.59	-12.500
216.97	-150.000
217.34	50.000
217.72	-120.000
218.09	-25.000
218.47	50.000
218.84	-500.000
219.22	44.444
219.59	-60.000
219.97	300.000
220.34	450.000
220.72	-28.571
221.09	-125.000
221.47	-300.000
221.84	-800.000
222.22	-650.000
222.59	27.273
222.97	25.000
223.34	-200.000
223.72	-14.286
224.09	0.000
224.46	3.571
224.84	266.667
225.21	-80.000
225.59	60.000
225.96	-50.000
226.34	225.000
226.71	-142.857
227.08	33.333
227.46	-112.500
227.83	-800.000
228.21	-11.111
228.58	18.182
228.95	-37.500
229.33	80.000
229.70	37.500
230.08	-75.000
230.45	-185.714
230.82	42.857
231.20	-6.667
231.57	64.286
231.95	42.857
232.32	0.000
232.69	78.571
233.07	-333.333
233.44	-100.000
233.81	10.000
234.19	-22.222
234.56	5.882
234.93	100.000
235.31	-75.000
235.68	-220.000
236.05	-38.462
236.43	0.000
236.80	29.412
237.17	59.375
237.55	-10.000
237.92	7.407
238.29	11.111
238.67	26.667
239.04	5.882
239.41	17.073
239.79	13.333
240.16	43.902
240.53	15.789
240.91	43.478
241.28	33.333
241.65	42.857
242.02	32.877
242.40	33.333
242.77	28.814
243.14	28.788
243.51	41.250
243.89	43.678
244.26	25.287
244.63	30.952
245.00	28.866
245.38	39.175
245.75	30.337
246.12	27.586
246.49	40.496
246.87	30.769
247.24	31.092
247.61	26.316
247.98	36.585
248.36	36.250
248.73	42.763
249.10	36.364
249.47	41.139
249.84	34.641
250.22	33.529
250.59	41.830
250.96	35.681
251.33	27.326
251.70	38.824
252.08	31.472
252.45	36.139
252.82	32.161
253.19	38.710
253.56	32.710
253.94	38.288
254.31	40.000
254.68	37.281
255.05	33.858
255.42	37.118
255.79	36.293
256.16	34.630
256.54	38.433
256.91	35.741
257.28	37.175
257.65	36.330
258.02	37.589
258.39	36.364
258.76	38.095
259.14	37.874
259.51	35.599
259.88	42.955
260.25	39.216
260.62	40.278
260.99	35.593
261.36	36.301
261.73	42.405
262.10	37.386
262.47	34.356
262.85	37.304
263.22	34.154
263.59	38.318
263.96	37.267
264.33	37.576
264.70	37.798
265.07	37.798
265.44	40.510
265.81	39.266
266.18	37.978
266.55	38.303
266.92	38.860
267.29	38.903
267.66	34.783
268.03	36.911
268.40	36.031
268.77	41.444
269.14	35.971
269.51	38.817
269.88	36.409
270.25	36.224
270.62	34.146
270.99	37.852
271.36	33.252
271.73	38.498
272.10	39.173
272.47	37.825
272.84	37.129
273.21	36.195
273.58	39.518
273.95	35.698
274.32	34.411
274.69	35.973
275.06	37.500
275.43	35.601
275.80	35.099
276.17	33.793
276.54	35.118
276.91	35.965
277.28	34.934
277.65	34.917
278.02	35.957
278.39	36.324
278.76	34.382
279.13	35.477
279.50	37.395
279.87	34.125
280.23	33.763
280.60	33.723
280.97	34.747
281.34	34.615
281.71	36.550
282.08	34.765
282.45	33.464
282.82	35.907
283.19	37.331
283.56	35.838
283.92	33.966
284.29	35.192
284.66	37.984
285.03	34.578
285.40	32.703
285.77	31.634
286.14	33.755
286.51	35.793
286.87	33.090
287.24	35.543
287.61	30.864
287.98	33.684
288.35	32.756
288.72	34.676
289.08	31.597
289.45	33.040
289.82	33.042
290.19	31.911
290.56	31.904
290.93	31.481
291.29	28.043
291.66	32.283
292.03	29.506
292.40	31.452
292.77	29.027
293.13	28.084
293.50	28.680
293.87	28.550
294.24	26.893
294.60	28.763
294.97	29.762
295.34	27.607
295.71	28.614
296.08	29.447
296.44	27.027
296.81	27.222
297.18	28.406
297.55	28.184
297.91	26.986
298.28	27.441
298.65	26.459
299.02	25.741
299.38	24.077
299.75	25.103
300.12	26.571
300.48	26.877
300.85	25.349
301.22	26.104
301.59	25.132
301.95	26.962
302.32	27.108
302.69	24.005
303.05	24.629
303.42	24.159
303.79	23.598
304.15	26.284
304.52	24.257
304.89	24.211
305.25	24.576
305.62	24.154
305.99	23.392
306.35	23.468
306.72	23.847
307.09	24.629
307.45	25.144
307.82	24.653
308.19	25.203
308.55	23.228
308.92	24.401
309.29	23.799
309.65	23.466
310.02	23.762
310.38	24.040
310.75	23.169
311.12	23.251
311.48	22.906
311.85	23.665
312.22	22.996
312.58	23.673
312.95	22.946
313.31	23.085
313.68	21.990
314.05	23.163
314.41	24.742
314.78	22.990
315.14	23.741
315.51	23.602
315.87	23.053
316.24	23.862
316.61	23.622
316.97	22.917
317.34	23.535
317.70	22.658
318.07	22.404
318.43	22.647
318.80	23.674
319.16	23.926
319.53	24.311
319.89	24.114
320.26	23.381
320.62	23.972
320.99	22.443
321.35	22.199
321.72	22.845
322.08	21.853
322.45	23.046
322.81	24.165
323.18	22.571
323.54	22.780
323.91	22.687
324.27	23.242
324.64	24.251
325.00	23.358
325.37	24.242
325.73	23.028
326.10	23.887
326.46	23.498
326.83	23.272
327.19	23.278
327.56	23.632
327.92	22.887
328.29	21.696
328.65	23.396
329.01	23.254
329.38	23.502
329.74	21.530
330.11	21.965
330.47	22.171
330.84	22.019
331.20	23.669
331.56	21.759
331.93	23.288
332.29	22.823
332.66	22.896
333.02	22.862
333.38	21.448
333.75	22.619
334.11	21.844
334.48	22.575
334.84	23.626
335.20	22.598
335.57	22.031
335.93	23.577
336.29	21.731
336.66	21.526
337.02	21.933
337.38	21.667
337.75	22.091
338.11	20.830
338.47	21.807
338.84	21.719
339.20	22.669
339.56	22.294
339.93	22.113
340.29	21.468
340.65	22.491
341.02	20.035
341.38	21.239
341.74	21.996
342.11	21.231
342.47	20.819
342.83	22.318
343.20	21.603
343.56	20.870
343.92	21.435
344.28	21.093
344.65	22.280
345.01	21.867
345.37	21.615
345.73	22.176
346.10	21.311
346.46	20.774
346.82	21.686
347.19	20.283
347.55	21.303
347.91	21.197
348.27	21.261
348.63	21.210
349.00	21.083
349.36	21.862
349.72	22.637
350.08	20.738
350.45	21.868
350.81	21.512
351.17	21.091
351.53	20.735
351.89	19.983
352.26	21.840
352.62	22.016
352.98	20.803
353.34	20.370
353.70	21.197
354.07	20.726
354.43	20.977
354.79	20.974
355.15	21.111
355.51	20.174
355.87	20.955
356.24	20.392
356.60	20.776
356.96	21.508
357.32	20.367
357.68	20.094
358.04	20.598
358.40	20.659
358.77	21.053
359.13	20.176
359.49	20.031
359.85	19.969
360.21	20.813
360.57	19.587
360.93	20.651
361.29	19.864
361.66	20.925
362.02	20.303
362.38	19.878
362.74	19.909
363.10	20.316
363.46	20.237
363.82	20.736
364.18	19.262
364.54	19.485
364.90	19.498
365.26	20.233
365.62	22.701
365.98	20.088
366.35	20.830
366.71	20.769
367.07	19.956
367.43	19.267
367.79	20.141
368.15	19.885
368.51	20.685
368.87	19.885
369.23	19.422
369.59	20.335
369.95	20.235
370.31	19.147
370.67	19.776
371.03	19.417
371.39	19.475
371.75	19.194
372.11	20.471
372.47	20.414
372.83	19.730
373.19	19.757
373.55	18.700
373.91	19.510
374.27	19.986
374.63	20.531
374.99	18.936
375.35	18.733
375.71	19.930
376.07	19.944
376.42	20.272
376.78	19.664
377.14	19.160
377.50	19.190
377.86	19.210
378.22	19.272
378.58	18.846
378.94	18.778
379.30	19.276
379.66	20.439
380.02	17.903
380.38	18.990
380.74	18.133
381.09	19.264
381.45	19.755
381.81	18.816
382.17	19.036
382.53	19.113
382.89	19.209
383.25	19.913
383.61	19.695
383.97	18.159
384.32	19.074
384.68	19.381
385.04	19.056
385.40	18.419
385.76	20.818
386.12	20.052
386.48	19.668
386.83	18.897
387.19	19.109
387.55	19.887
387.91	19.193
388.27	19.536
388.62	19.006
388.98	17.680
389.34	19.363
389.70	18.956
390.06	18.628
390.42	18.329
390.77	18.901
391.13	18.474
391.49	19.017
391.85	19.623
392.20	19.209
392.56	18.945
392.92	18.967
393.28	18.691
393.64	18.859
393.99	19.248
394.35	18.912
394.71	18.519
395.07	18.165
395.42	17.911
395.78	18.306
396.14	18.726
396.50	19.214
396.85	18.287
397.21	19.110
397.57	19.185
397.92	18.933
398.28	18.908
398.64	18.735
399.00	19.413
399.35	18.059
399.71	18.955
400.07	19.407
400.42	18.727
400.78	19.535
401.14	19.177
401.49	19.178
401.85	18.282
402.21	18.373
402.57	19.062
402.92	17.566
403.28	18.922
403.63	18.033
403.99	18.814
404.35	19.425
404.70	17.440
405.06	18.508
405.42	18.210
405.77	18.013
406.13	18.510
406.49	18.472
406.84	17.726
407.20	18.362
407.55	17.514
407.91	17.981
408.27	18.419
408.62	18.338
408.98	18.669
409.34	19.145
409.69	18.734
410.05	18.288
410.40	18.457
410.76	18.758
411.11	19.062
411.47	19.395
411.83	18.016
412.18	18.211
412.54	18.414
412.89	18.534
413.25	18.893
413.60	18.447
413.96	18.405
414.31	19.390
414.67	18.473
415.03	17.577
415.38	17.755
415.74	19.218
416.09	18.811
416.45	18.366
416.80	19.101
417.16	19.061
417.51	18.721
417.87	18.318
418.22	17.876
418.58	19.532
418.93	18.934
419.29	17.798
419.64	17.693
420.00	19.018
420.35	17.791
420.71	18.530
421.06	18.416
421.42	18.510
421.77	18.671
422.12	17.991
422.48	18.083
422.83	18.329
423.19	18.736
423.54	18.754
423.90	17.962
424.25	19.001
424.61	19.155
424.96	18.351
425.31	19.122
425.67	18.897
426.02	18.905
426.38	19.411
426.73	18.765
427.09	18.924
427.44	18.647
427.79	18.857
428.15	18.871
428.50	18.292
428.85	17.506
429.21	19.185
429.56	18.868
429.92	18.233
430.27	18.346
430.62	18.191
430.98	19.055
431.33	18.822
431.68	18.158
432.04	18.670
432.39	17.855
432.74	17.378
433.10	18.736
433.45	18.280
433.80	18.862
434.16	18.116
434.51	18.333
434.86	18.641
435.22	17.891
435.57	18.590
435.92	18.144
436.28	18.784
436.63	18.483
436.98	17.729
437.34	18.270
437.69	19.320
438.04	18.006
438.39	18.204
438.75	18.458
439.10	18.166
439.45	18.685
439.81	18.043
440.16	19.121
440.51	18.746
440.86	19.094
441.22	19.344
441.57	18.985
441.92	19.203
442.27	19.124
442.63	19.058
442.98	19.242
443.33	18.420
443.68	17.241
444.03	18.877
444.39	18.544
444.74	19.008
445.09	19.488
445.44	18.974
445.79	19.649
446.15	19.163
446.50	17.970
446.85	19.341
447.20	19.187
447.55	19.531
447.91	19.515
448.26	18.839
448.61	19.286
448.96	19.392
449.31	19.191
449.66	18.757
450.02	18.825
450.37	18.969
450.72	18.614
451.07	19.241
451.42	17.978
451.77	19.892
452.12	18.840
452.47	19.124
452.83	18.846
453.18	18.786
453.53	19.975
453.88	19.611
454.23	19.668
454.58	19.395
454.93	19.652
455.28	18.476
455.63	19.033
455.98	19.543
456.34	18.966
456.69	18.933
457.04	20.542
457.39	19.259
457.74	19.770
458.09	18.717
458.44	18.958
458.79	18.936
459.14	19.851
459.49	19.582
459.84	19.741
460.19	18.993
460.54	19.315
460.89	19.943
461.24	18.882
461.59	19.477
461.94	19.560
462.29	19.602
462.64	20.332
462.99	19.702
463.34	19.471
463.69	19.562
464.04	19.370
464.39	19.345
464.74	19.202
465.09	20.337
465.44	20.196
465.79	19.048
466.14	18.985
466.49	18.919
466.84	19.334
467.19	19.775
467.54	19.476
467.89	18.572
468.24	19.221
468.59	20.127
468.94	19.429
469.29	20.197
469.64	19.549
469.99	19.201
470.34	18.430
470.68	20.209
471.03	20.028
471.38	19.330
471.73	19.468
472.08	19.335
472.43	19.329
472.78	18.300
473.13	18.980
473.48	20.000
473.83	19.427
474.17	20.596
474.52	19.400
474.87	19.394
475.22	19.524
475.57	19.424
475.92	19.748
476.27	19.674
476.61	20.023
476.96	19.241
477.31	19.578
477.66	19.719
478.01	19.371
478.36	19.662
478.70	19.956
479.05	20.110
479.40	19.979
479.75	19.552
480.10	19.764
480.45	18.900
480.79	20.040
481.14	20.031
481.49	19.360
481.84	19.546
482.19	19.411
482.53	19.472
482.88	19.523
483.23	18.906
483.58	19.104
483.92	19.119
484.27	19.143
484.62	20.170
484.97	18.367
485.31	18.858
485.66	19.398
486.01	19.760
486.36	19.312
486.70	19.802
487.05	19.656
487.40	19.157
487.75	19.352
488.09	18.974
488.44	18.845
488.79	18.566
489.13	19.992
489.48	19.923
489.83	19.283
490.17	19.416
490.52	19.861
490.87	19.852
491.22	20.010
491.56	19.497
491.91	19.598
492.26	19.592
492.60	19.434
492.95	20.020
493.30	19.443
493.64	19.646
493.99	19.758
494.34	19.223
494.68	19.238
495.03	18.881
495.37	18.793
495.72	20.141
496.07	20.000
496.41	19.764
496.76	19.576
497.11	19.609
497.45	19.761
497.80	19.173
498.14	19.970
498.49	20.213
498.84	19.361
499.18	19.829
499.53	19.444
499.87	19.796
500.22	19.535
500.56	19.869
500.91	19.528
501.26	19.723
501.60	19.921
501.95	19.651
502.29	20.145
502.64	19.305
502.98	19.586
503.33	19.164
503.67	19.904
504.02	19.892
504.36	20.435
504.71	20.253
505.06	19.678
505.40	19.340
505.75	20.052
506.09	19.818
506.44	20.329
506.78	20.051
507.13	20.165
507.47	19.791
507.82	19.444
508.16	19.757
508.51	20.252
508.85	20.879
509.19	19.372
509.54	20.054
509.88	19.471
510.23	19.688
510.57	20.631
510.92	18.550
511.26	19.149
511.61	20.572
511.95	20.274
512.30	19.900
512.64	20.312
512.98	19.596
513.33	21.041
513.67	19.727
514.02	20.309
514.36	19.600
514.70	21.096
515.05	21.269
515.39	20.248
515.74	20.659
516.08	21.160
516.42	20.082
516.77	20.538
517.11	20.653
517.46	20.407
517.80	20.679
518.14	20.024
518.49	20.853
518.83	20.778
519.17	19.770
519.52	20.012
519.86	20.168
520.20	20.656
520.55	19.387
520.89	20.514
521.23	20.393
521.58	20.883
521.92	21.090
522.26	20.625
522.61	21.169
522.95	20.993
523.29	20.203
523.64	20.584
523.98	21.322
524.32	19.008
524.66	20.038
525.01	20.909
525.35	21.192
525.69	20.337
526.04	20.767
526.38	21.790
526.72	19.817
527.06	20.363
527.41	22.230
527.75	19.839
528.09	20.664
528.43	21.472
528.78	20.462
529.12	21.032
529.46	21.118
529.80	20.963
530.15	21.056
530.49	20.404
530.83	20.930
531.17	20.819
531.51	21.956
531.86	20.734
532.20	20.042
532.54	20.899
532.88	20.876
533.22	21.102
533.57	21.691
533.91	20.496
534.25	21.484
534.59	20.590
534.93	20.327
535.27	20.812
535.62	20.350
535.96	21.657
536.30	21.174
536.64	21.365
536.98	20.418
537.32	21.195
537.66	21.599
538.01	20.839
538.35	20.804
538.69	21.105
539.03	20.232
539.37	20.659
539.71	21.745
540.05	21.453
540.39	21.884
540.73	20.084
541.07	20.856
541.42	21.573
541.76	21.542
542.10	20.028
542.44	21.126
542.78	19.477
543.12	20.673
543.46	21.697
543.80	21.513
544.14	19.760
544.48	20.053
544.82	21.189
545.16	21.653
545.50	21.562
545.84	21.317
546.18	21.277
546.52	21.485
546.86	20.705
547.20	21.888
547.54	20.848
547.88	22.147
548.22	20.907
548.56	20.712
548.90	21.631
549.24	19.904
549.58	21.932
549.92	20.372
550.26	19.780
550.60	19.926
550.94	21.135
551.28	21.329
551.62	21.000
551.96	22.256
552.30	19.810
552.64	21.016
552.98	21.519
553.32	21.041
553.66	19.666
554.00	20.292
554.34	21.713
554.68	20.796
555.02	20.908
555.36	21.391
555.69	20.513
556.03	19.986
556.37	21.068
556.71	21.444
557.05	21.029
557.39	20.297
557.73	20.015
558.07	22.474
558.41	21.822
558.75	20.655
559.08	21.592
559.42	21.667
559.76	20.416
560.10	21.177
560.44	20.104
560.78	21.538
561.12	21.298
561.45	21.012
561.79	21.429
562.13	20.937
562.47	21.511
562.81	21.542
563.15	21.227
563.48	20.934
563.82	21.482
564.16	20.822
564.50	20.946
564.84	21.352
565.17	20.188
565.51	21.721
565.85	21.468
566.19	21.021
566.52	21.180
566.86	21.272
567.20	20.735
567.54	20.985
567.88	21.558
568.21	21.097
568.55	20.761
568.89	20.226
569.23	20.896
569.56	20.622
569.90	21.478
570.24	20.543
570.57	21.055
570.91	21.680
571.25	20.454
571.59	20.212
571.92	20.326
572.26	20.290
572.60	19.938
572.93	19.862
573.27	20.125
573.61	20.495
573.95	20.453
574.28	20.180
574.62	19.959
574.96	20.194
575.29	19.788
575.63	19.850
575.97	19.789
576.30	19.651
576.64	19.550
576.98	20.154
577.31	20.005
577.65	20.436
577.98	20.351
578.32	19.875
578.66	19.278
578.99	19.537
579.33	19.910
579.67	19.657
580.00	19.873
580.34	19.552
580.67	20.252
581.01	20.173
581.35	20.177
581.68	20.016
582.02	20.150
582.35	20.297
582.69	20.160
583.02	19.697
583.36	20.322
583.70	20.145
584.03	20.211
584.37	20.271
584.70	19.863
585.04	19.067
585.37	20.049
585.71	20.193
586.04	20.323
586.38	19.499
586.72	20.172
587.05	20.364
587.39	20.324
587.72	20.640
588.06	19.845
588.39	20.108
588.73	20.116
589.06	20.222
589.40	20.083
589.73	20.372
590.07	20.808
590.40	20.666
590.73	20.964
591.07	20.399
591.40	20.258
591.74	20.452
592.07	21.243
592.41	20.627
592.74	19.912
593.08	20.119
593.41	20.527
593.75	20.347
594.08	20.014
594.41	20.633
594.75	20.038
595.08	20.393
595.42	20.464
595.75	20.240
596.09	20.250
596.42	20.711
596.75	20.293
597.09	19.909
597.42	19.422
597.75	19.973
598.09	20.552
598.42	20.894
598.76	20.292
599.09	21.034
599.42	20.349
599.76	20.354
600.09	20.739
600.42	20.318
600.76	19.502
601.09	19.962
601.42	20.760
601.76	20.286
602.09	20.380
602.42	20.640
602.76	20.331
603.09	20.640
603.42	20.318
603.76	19.839
604.09	19.522
604.42	20.728
604.76	20.961
605.09	20.567
605.42	19.865
605.75	20.622
606.09	21.146
606.42	19.850
606.75	19.784
607.09	20.484
607.42	20.337
607.75	20.737
608.08	19.721
608.42	20.192
608.75	21.060
609.08	20.528
609.41	20.355
609.75	19.758
610.08	20.769
610.41	20.531
610.74	20.234
611.07	19.948
611.41	20.861
611.74	21.429
612.07	20.289
612.40	20.405
612.73	20.395
613.07	20.079
613.40	21.280
613.73	19.698
614.06	20.646
614.39	20.981
614.72	20.896
615.06	21.006
615.39	19.978
615.72	19.645
616.05	20.670
616.38	20.000
616.71	20.306
617.05	21.124
617.38	21.684
617.71	20.126
618.04	20.952
618.37	20.681
618.70	20.924
619.03	21.528
619.36	20.912
619.69	20.318
620.03	22.133
620.36	20.601
620.69	21.199
621.02	21.254
621.35	20.664
621.68	21.854
622.01	21.000
622.34	21.708
622.67	21.372
623.00	21.746
623.33	19.970
623.66	20.494
623.99	20.575
624.32	21.673
624.65	20.376
624.99	20.767
625.32	20.470
625.65	22.231
625.98	21.676
626.31	19.119
626.64	20.971
626.97	21.728
627.30	21.366
627.63	21.144
627.96	21.384
628.29	20.444
628.62	21.829
628.95	21.242
629.28	21.774
629.61	20.339
629.94	21.505
630.26	23.024
630.59	21.540
630.92	20.103
631.25	21.744
631.58	21.145
631.91	21.053
632.24	21.560
632.57	22.727
632.90	21.234
633.23	22.588
633.56	22.544
633.89	22.565
634.22	22.963
634.55	21.093
634.88	21.201
635.20	21.282
635.53	20.800
635.86	21.326
636.19	23.157
636.52	21.684
636.85	21.588
637.18	21.761
637.51	22.013
637.83	20.105
638.16	24.420
638.49	20.163
638.82	23.421
639.15	19.946
639.48	22.971
639.81	21.757
640.13	22.655
640.46	23.469
640.79	21.797
641.12	20.827
641.45	21.471
641.77	22.667
642.10	22.749
642.43	22.508
642.76	22.112
643.09	24.233
643.41	22.330
643.74	21.911
644.07	23.317
644.40	23.649
644.73	22.767
645.05	24.497
645.38	24.162
645.71	21.277
646.04	23.519
646.36	24.113
646.69	22.842
647.02	23.062
647.35	23.694
647.67	22.303
648.00	23.134
648.33	23.549
648.66	21.695
648.98	19.933
649.31	19.669
649.64	22.135
649.96	20.259
650.29	22.317
650.62	22.393
650.94	22.407
651.27	23.277
651.60	23.063
651.92	22.378
652.25	20.782
652.58	22.000
652.90	23.499
653.23	22.857
653.56	21.658
653.88	19.759
654.21	20.490
654.54	21.562
654.86	20.374
655.19	19.737
655.52	23.994
655.84	21.339
656.17	24.065
656.49	31.745
656.82	32.053
657.15	24.027
657.47	17.656
657.80	13.003
658.13	12.653
658.45	18.779
658.78	18.486
659.10	17.761
659.43	17.396
659.75	18.204
660.08	17.724
660.41	19.510
660.73	19.337
661.06	21.490
661.38	19.765
661.71	20.945
662.03	25.107
662.36	20.879
662.68	21.903
663.01	23.362
663.33	22.042
663.66	22.093
663.98	21.628
664.31	23.241
664.63	21.429
664.96	18.261
665.28	19.868
665.61	23.160
665.93	24.130
666.26	21.692
666.58	21.700
666.91	21.882
667.23	23.585
667.56	21.564
667.88	21.583
668.21	23.389
668.53	23.877
668.86	22.642
669.18	20.519
669.50	22.760
669.83	24.419
670.15	23.543
670.48	21.770
670.80	20.046
671.13	21.253
671.45	16.438
671.77	25.107
672.10	22.178
672.42	22.285
672.75	24.512
673.07	23.614
673.39	22.936
673.72	20.316
674.04	21.667
674.37	21.610
674.69	20.128
675.01	22.000
675.34	22.072
675.66	22.685
675.98	21.286
676.31	23.165
676.63	21.615
676.95	22.727
677.28	24.471
677.60	25.060
677.92	21.101
678.25	22.757
678.57	19.913
678.89	23.950
679.22	19.463
679.54	22.490
679.86	21.670
680.18	22.718
680.51	21.212
680.83	22.465
681.15	23.600
681.48	24.590
681.80	22.521
682.12	18.952
682.44	24.059
682.77	24.503
683.09	22.654
683.41	19.318
683.73	21.659
684.06	23.894
684.38	21.505
684.70	21.351
685.02	23.029
685.34	20.751
685.67	18.949
685.99	22.785
686.31	21.947
686.63	20.408
686.96	20.722
687.28	20.404
687.60	20.722
687.92	21.212
688.24	19.960
688.56	23.581
688.89	22.098
689.21	23.111
689.53	20.418
689.85	20.233
690.17	22.098
690.49	19.858
690.82	20.631
691.14	19.286
691.46	22.430
691.78	23.649
692.10	19.570
692.42	20.779
692.74	23.291
693.06	19.595
693.39	19.005
693.71	21.041
694.03	21.709
694.35	19.860
694.67	23.232
694.99	21.671
695.31	25.849
695.63	23.000
695.95	20.202
696.27	21.244
696.59	24.167
696.91	20.448
697.23	21.080
697.56	22.030
697.88	22.366
698.20	22.779
698.52	22.353
698.84	19.139
699.16	20.750
699.48	19.799
699.80	20.099
700.12	21.294
700.44	24.930
700.76	21.221
701.08	16.667
701.40	21.386
701.72	25.000
702.04	22.442
702.36	24.749
702.68	21.021
703.00	24.242
703.32	14.956
703.64	16.949
703.96	19.130
704.28	22.393
704.60	20.952
704.91	21.767
705.23	16.944
705.55	25.442
705.87	23.105
706.19	22.963
706.51	21.306
706.83	19.936
707.15	21.184
707.47	21.849
707.79	20.052
708.11	23.500
708.43	24.000
708.74	22.222
709.06	25.070
709.38	18.654
709.70	24.260
710.02	26.752
710.34	24.149
710.66	18.910
710.98	20.861
711.29	20.984
711.61	20.000
711.93	27.362
712.25	24.742
712.57	23.077
712.89	23.134
713.20	22.145
713.52	17.770
713.84	20.137
714.16	23.024
714.48	24.516
714.80	24.679
715.11	23.404
715.43	19.122
715.75	19.333
716.07	21.595
716.39	22.819
716.70	23.985
717.02	18.702
717.34	25.911
717.66	22.566
717.97	22.174
718.29	23.431
718.61	22.835
718.93	22.868
719.24	21.293
719.56	22.490
719.88	23.368
720.20	25.758
720.51	18.391
720.83	20.077
721.15	21.008
721.46	21.774
721.78	18.577
722.10	18.587
722.42	17.012
722.73	24.082
723.05	29.388
723.37	25.424
723.68	27.027
724.00	22.650
724.32	22.667
724.63	21.818
724.95	22.707
725.27	23.502
725.58	24.153
725.90	16.270
726.22	22.780
726.53	21.356
726.85	26.217
727.16	22.264
727.48	20.648
727.80	22.267
728.11	23.305
728.43	21.569
728.74	16.532
729.06	23.600
729.38	26.692
729.69	21.514
730.01	19.615
730.32	21.642
730.64	21.201
730.96	24.151
731.27	21.000
731.59	21.695
731.90	21.975
732.22	21.767
732.53	22.591
732.85	23.050
733.16	23.232
733.48	17.626
733.80	18.841
734.11	20.339
734.43	20.962
734.74	21.818
735.06	18.893
735.37	21.450
735.69	21.886
736.00	19.164
736.32	20.134
736.63	26.056
736.95	25.256
737.26	20.285
737.58	18.792
737.89	21.612
738.21	19.925
738.52	27.984
738.83	24.017
739.15	21.397
739.46	23.228
739.78	18.681
740.09	20.261
740.41	19.928
740.72	19.291
741.04	23.887
741.35	17.447
741.66	22.749
741.98	23.469
742.29	17.822
742.61	18.325
742.92	15.640
743.23	17.593
743.55	15.837
743.86	18.182
744.18	23.923
744.49	17.021
744.80	22.283
745.12	24.064
745.43	19.024
745.74	26.562
746.06	26.341
746.37	23.560
746.68	25.118
747.00	15.957
747.31	25.373
747.62	20.388
747.94	24.402
748.25	18.317
748.56	19.126
748.88	19.372
749.19	25.000
749.50	25.616
749.82	19.340
750.13	22.018
750.44	25.188
750.75	26.493
751.07	27.007
751.38	22.989
751.69	23.922
752.01	23.256
752.32	21.116
752.63	19.763
752.94	19.397
753.26	23.849
753.57	26.244
753.88	25.221
754.19	19.583
754.51	19.421
754.82	19.838
755.13	25.417
755.44	18.952
755.75	24.609
756.07	18.677
756.38	19.245
756.69	18.774
757.00	18.667
757.31	18.954
757.63	22.866
757.94	20.278
758.25	20.000
758.56	22.074
758.87	18.980
759.18	18.380
759.50	17.818
759.81	22.074
760.12	21.935
760.43	20.909
760.74	24.074
761.05	20.308
761.36	23.011
761.67	22.727
761.99	22.449
762.30	18.545
762.61	21.344
762.92	15.837
763.23	16.667
763.54	11.215
763.85	22.034
764.16	19.917
764.47	17.742
764.78	17.216
765.10	22.559
765.41	20.189
765.72	20.952
766.03	13.534
766.34	19.708
766.65	21.514
766.96	19.697
767.27	17.553
767.58	15.517
767.89	14.894
768.20	17.614
768.51	20.330
768.82	21.675
769.13	19.816
769.44	18.884
769.75	15.982
770.06	23.276
770.37	20.192
770.68	15.228
770.99	14.027
771.30	19.118
771.61	17.647
771.92	23.276
772.23	22.167
772.54	25.269
772.85	24.074
773.16	24.157
773.47	24.183
773.78	22.876
774.09	21.557
774.39	20.667
774.70	17.197
775.01	24.828
775.32	18.571
775.63	21.488
775.94	20.611
776.25	19.685
776.56	15.000
776.87	19.231
777.18	22.222
777.48	27.586
777.79	17.391
778.10	9.524
778.41	22.523
778.72	16.667
779.03	27.820
779.34	20.567
779.65	20.548
779.95	15.068
780.26	22.069
780.57	15.447
780.88	19.685
781.19	12.069
781.50	18.605
781.80	19.527
782.11	25.157
782.42	19.231
782.73	23.741
783.04	17.037
783.34	10.417
783.65	2.564
783.96	27.049
784.27	24.138
784.57	23.577
784.88	28.125
785.19	25.000
785.50	22.000
785.81	18.966
786.11	16.379
786.42	22.330
786.73	33.636
787.04	17.347
787.34	29.464
787.65	22.857
787.96	13.274
788.26	17.273
788.57	16.239
788.88	28.125
789.19	21.429
789.49	17.391
789.80	12.245
790.11	11.111
790.41	30.000
790.72	22.826
791.03	21.591
791.33	20.000
791.64	20.000
791.95	20.930
792.25	22.340
792.56	24.719
792.87	17.808
793.17	33.333
793.48	2.667
793.79	13.750
794.09	20.000
794.40	15.094
794.70	11.650
795.01	22.764
795.32	21.368
795.62	13.333
795.93	14.706
796.23	20.755
796.54	22.917
796.85	26.471
797.15	15.493
797.46	19.444
797.76	19.697
798.07	17.442
798.37	10.526
798.68	12.121
798.99	22.222
799.29	24.286
799.60	15.942
799.90	28.000
800.21	16.393
800.51	15.385
800.82	20.339
801.12	27.536
801.43	18.033
801.73	20.635
802.04	6.000
802.34	10.448
802.65	32.692
802.95	14.286
803.26	32.692
803.56	11.765
803.87	23.913
804.17	16.000
804.48	22.222
804.78	35.185
805.09	21.739
805.39	-2.222
805.70	18.519
806.00	-1.754
806.30	25.352
806.61	12.857
806.91	22.222
807.22	30.263
807.52	24.000
807.83	5.455
808.13	12.500
808.43	27.941
808.74	10.448
809.04	18.644
809.35	19.231
809.65	18.750
809.95	-32.432
810.26	15.909
810.56	9.589
810.86	23.810
811.17	22.000
811.47	30.612
811.77	18.421
812.08	25.000
812.38	26.415
812.69	37.500
812.99	-3.030
813.29	34.211
813.59	-28.571
813.90	6.818
814.20	10.256
814.50	9.615
814.81	20.755
815.11	0.000
815.41	25.424
815.72	21.429
816.02	15.686
816.32	20.833
816.62	12.195
816.93	-10.811
817.23	20.000
817.53	22.917
817.84	21.739
818.14	9.615
818.44	7.895
818.74	39.130
819.04	2.500
819.35	2.703
819.65	2.941
819.95	16.667
820.25	21.429
820.56	30.000
820.86	-13.793
821.16	45.000
821.46	4.255
821.76	35.000
822.07	25.581
822.37	-2.703
822.67	-15.625
822.97	19.048
823.27	-3.571
823.57	4.000
823.88	-33.333
824.18	7.143
824.48	-17.647
824.78	0.000
825.08	-21.739
825.38	18.182
825.69	-29.167
825.99	23.684
826.29	-13.889
826.59	13.333
826.89	-80.952
827.19	10.870
827.49	2.500
827.79	20.000
828.09	25.000
828.39	18.182
828.70	37.838
829.00	-10.714
829.30	-4.762
829.60	23.333
829.90	31.250
830.20	7.895
830.50	-3.704
830.80	-21.739
831.10	22.727
831.40	21.212
831.70	12.903
832.00	57.143
832.30	-38.095
832.60	0.000
832.90	6.897
833.20	10.000
833.50	-3.030
833.80	33.333
834.10	3.846
834.40	31.250
834.70	-11.111
835.00	26.316
835.30	50.000
835.60	-73.333
835.90	22.581
836.20	27.273
836.50	25.000
836.80	-19.231
837.10	-7.143
837.40	233.333
837.70	-4.545
838.00	27.273
838.30	4.348
838.60	-92.308
838.90	4.545
839.19	25.000
839.49	40.000
839.79	-7.692
840.09	-50.000
840.39	82.143
840.69	-14.286
840.99	-19.231
841.29	-131.579
841.59	-110.000
841.88	-27.273
842.18	20.000
842.48	-50.000
842.78	-33.333
843.08	11.111
843.38	-130.000
843.68	17.391
843.97	53.333
844.27	-26.667
844.57	25.000
844.87	-5.556
845.17	-23.810
845.47	40.000
845.76	-14.286
846.06	41.176
846.36	10.000
846.66	-35.714
846.96	46.667
847.25	-87.500
847.55	21.429
847.85	-37.500
848.15	-45.455
848.44	-666.667
848.74	40.000
849.04	51.852
849.34	100.000
849.63	-183.333
849.93	-180.000
850.23	-5.556
850.53	-10.000
850.82	-46.154
851.12	-33.333
851.42	-6.667
851.71	7.692
852.01	-92.857
852.31	-200.000
852.61	9.091
852.90	0.000
853.20	-31.579
853.50	0.000
853.79	26.087
854.09	33.333
854.39	-57.895
854.68	-4.167
854.98	12.903
855.28	46.154
855.57	30.000
855.87	0.000
856.17	29.630
856.46	50.000
856.76	26.667
857.05	144.444
857.35	-4.000
857.65	-5.556
857.94	-61.538
858.24	55.172
858.53	0.000
858.83	22.222
859.13	9.091
859.42	0.000
859.72	-75.000
860.01	-333.333
860.31	24.000
860.60	4.762
860.90	-233.333
861.20	13.333
861.49	-800.000
861.79	0.000
862.08	15.000
862.38	86.667
862.67	-120.000
862.97	-300.000
863.26	8.333
863.56	-16.667
863.85	-766.667
864.15	44.444
864.44	-30.000
864.74	0.000
865.03	-0.000
865.33	-140.000
865.62	-50.000
865.92	-50.000
866.21	-266.667
866.51	0.000
866.80	0.000
867.10	50.000
867.39	66.667
867.69	0.000
867.98	23.077
868.27	33.333
868.57	73.333
868.86	-5.556
869.16	-15.385
869.45	73.333
869.75	-2100.000
870.04	0.000
870.33	-100.000
870.63	9.524
870.92	166.667
871.22	-120.000
871.51	-500.000
871.80	0.000
872.10	266.667
>>>>>End Processed Spectral Data<<<<<
