SpectraSuite Data File
++++++++++++++++++++++++++++++++++++
Date: Fri May 15 20:44:19 PDT 2015
User: schluterlab
Dark Spectrum Present: Yes
Reference Spectrum Present: Yes
Number of Sampled Component Spectra: 1
Spectrometers: USB2E3373
Integration Time (usec): 3000 (USB2E3373)
Spectra Averaged: 3 (USB2E3373)
Boxcar Smoothing: 0 (USB2E3373)
Correct for Electrical Dark: No (USB2E3373)
Strobe/Lamp Enabled: No (USB2E3373)
Correct for Detector Non-linearity: No (USB2E3373)
Correct for Stray Light: No (USB2E3373)
Number of Pixels in Processed Spectrum: 2048
>>>>>Begin Processed Spectral Data<<<<<
178.53	0.000
178.91	0.000
179.29	0.000
179.67	-700.000
180.04	42.857
180.42	325.000
180.80	-600.000
181.18	200.000
181.56	350.000
181.94	100.000
182.31	400.000
182.69	-40.000
183.07	-233.333
183.45	20.000
183.83	83.333
184.20	-127.273
184.58	177.778
184.96	100.000
185.34	133.333
185.72	-300.000
186.09	84.615
186.47	-700.000
186.85	116.667
187.23	200.000
187.61	200.000
187.98	-200.000
188.36	33.333
188.74	-400.000
189.12	52.941
189.49	38.889
189.87	0.000
190.25	64.286
190.63	-350.000
191.00	100.000
191.38	5.263
191.76	400.000
192.14	150.000
192.51	250.000
192.89	-44.444
193.27	-57.143
193.65	100.000
194.02	63.636
194.40	60.000
194.78	-75.000
195.15	-58.333
195.53	-75.000
195.91	125.000
196.29	-50.000
196.66	46.154
197.04	42.857
197.42	44.444
197.79	-333.333
198.17	-130.769
198.55	1300.000
198.92	-466.667
199.30	500.000
199.68	-80.000
200.05	-233.333
200.43	0.000
200.81	-300.000
201.18	0.000
201.56	1100.000
201.94	-50.000
202.31	166.667
202.69	-120.000
203.07	150.000
203.44	900.000
203.82	0.000
204.19	7.143
204.57	-266.667
204.95	12.500
205.32	0.000
205.70	-28.571
206.08	-125.000
206.45	44.444
206.83	57.143
207.20	-171.429
207.58	-600.000
207.96	-233.333
208.33	-90.000
208.71	-50.000
209.08	-33.333
209.46	-100.000
209.84	-120.000
210.21	-500.000
210.59	-85.714
210.96	16.667
211.34	-50.000
211.71	20.000
212.09	-85.714
212.46	-1500.000
212.84	0.000
213.22	90.000
213.59	50.000
213.97	30.769
214.34	45.455
214.72	83.333
215.09	200.000
215.47	-38.462
215.84	-100.000
216.22	-166.667
216.59	-75.000
216.97	100.000
217.34	-75.000
217.72	-80.000
218.09	-150.000
218.47	112.500
218.84	-1000.000
219.22	-66.667
219.59	20.000
219.97	-166.667
220.34	150.000
220.72	-114.286
221.09	-325.000
221.47	350.000
221.84	-400.000
222.22	-450.000
222.59	72.727
222.97	100.000
223.34	-300.000
223.72	28.571
224.09	19.048
224.46	46.429
224.84	300.000
225.21	0.000
225.59	0.000
225.96	-250.000
226.34	400.000
226.71	14.286
227.08	-166.667
227.46	87.500
227.83	-150.000
228.21	-11.111
228.58	-18.182
228.95	-112.500
229.33	130.000
229.70	25.000
230.08	-112.500
230.45	-100.000
230.82	42.857
231.20	-40.000
231.57	78.571
231.95	-14.286
232.32	20.000
232.69	92.857
233.07	-200.000
233.44	-120.000
233.81	-30.000
234.19	-11.111
234.56	-5.882
234.93	-100.000
235.31	-150.000
235.68	-40.000
236.05	-7.692
236.43	15.000
236.80	76.471
237.17	15.625
237.55	-30.000
237.92	25.926
238.29	41.667
238.67	53.333
239.04	50.000
239.41	7.317
239.79	16.667
240.16	14.634
240.53	31.579
240.91	28.261
241.28	33.333
241.65	33.929
242.02	41.096
242.40	23.333
242.77	42.373
243.14	16.667
243.51	36.250
243.89	35.632
244.26	24.138
244.63	20.238
245.00	39.175
245.38	36.082
245.75	40.449
246.12	39.655
246.49	37.190
246.87	42.308
247.24	35.294
247.61	32.456
247.98	42.276
248.36	34.375
248.73	35.526
249.10	33.117
249.47	36.076
249.84	41.176
250.22	33.529
250.59	45.752
250.96	37.559
251.33	36.047
251.70	39.412
252.08	37.563
252.45	35.644
252.82	40.201
253.19	39.631
253.56	39.720
253.94	39.189
254.31	37.826
254.68	39.474
255.05	37.008
255.42	38.865
255.79	35.907
256.16	39.689
256.54	41.791
256.91	33.460
257.28	37.175
257.65	39.326
258.02	38.298
258.39	38.721
258.76	37.363
259.14	37.874
259.51	35.922
259.88	37.457
260.25	37.255
260.62	39.931
260.99	37.966
261.36	39.041
261.73	38.291
262.10	40.729
262.47	38.037
262.85	39.498
263.22	39.385
263.59	38.941
263.96	43.168
264.33	38.485
264.70	40.179
265.07	43.155
265.44	39.943
265.81	40.395
266.18	41.257
266.55	37.789
266.92	39.378
267.29	38.120
267.66	38.875
268.03	38.220
268.40	39.164
268.77	41.176
269.14	38.369
269.51	38.046
269.88	39.152
270.25	38.010
270.62	37.317
270.99	38.363
271.36	36.430
271.73	35.915
272.10	40.633
272.47	39.007
272.84	37.871
273.21	39.443
273.58	39.277
273.95	37.300
274.32	37.875
274.69	33.937
275.06	40.848
275.43	36.281
275.80	37.969
276.17	40.230
276.54	35.332
276.91	41.667
277.28	38.646
277.65	37.810
278.02	36.383
278.39	39.825
278.76	36.268
279.13	33.817
279.50	40.756
279.87	41.037
280.23	36.559
280.60	37.037
280.97	40.202
281.34	39.423
281.71	39.630
282.08	35.992
282.45	36.791
282.82	35.521
283.19	37.331
283.56	37.958
283.92	37.002
284.29	34.808
284.66	35.659
285.03	34.774
285.40	37.618
285.77	37.434
286.14	37.004
286.51	39.483
286.87	35.832
287.24	36.464
287.61	36.332
287.98	37.018
288.35	33.102
288.72	36.427
289.08	34.375
289.45	36.204
289.82	36.364
290.19	34.642
290.56	33.791
290.93	34.848
291.29	29.738
291.66	33.228
292.03	32.057
292.40	32.258
292.77	32.376
293.13	30.519
293.50	32.777
293.87	31.908
294.24	31.685
294.60	30.402
294.97	31.696
295.34	31.135
295.71	31.297
296.08	30.045
296.44	27.312
296.81	30.972
297.18	29.565
297.55	30.894
297.91	29.726
298.28	30.475
298.65	29.579
299.02	28.841
299.38	26.265
299.75	28.828
300.12	28.403
300.48	28.458
300.85	29.404
301.22	28.571
301.59	28.947
301.95	27.595
302.32	31.128
302.69	27.612
303.05	27.723
303.42	27.522
303.79	28.505
304.15	28.076
304.52	26.159
304.89	27.719
305.25	27.603
305.62	26.138
305.99	26.667
306.35	26.936
306.72	25.984
307.09	26.910
307.45	28.473
307.82	27.431
308.19	27.991
308.55	28.135
308.92	28.758
309.29	27.151
309.65	27.449
310.02	28.163
310.38	28.430
310.75	28.743
311.12	27.879
311.48	27.678
311.85	27.644
312.22	27.848
312.58	27.919
312.95	29.242
313.31	28.571
313.68	27.853
314.05	29.796
314.41	29.897
314.78	30.309
315.14	29.702
315.51	31.988
315.87	28.586
316.24	30.233
316.61	31.890
316.97	31.349
317.34	32.324
317.70	31.740
318.07	33.365
318.43	32.059
318.80	31.913
319.16	34.277
319.53	34.188
319.89	34.547
320.26	35.628
320.62	36.810
320.99	34.864
321.35	35.149
321.72	36.656
322.08	38.066
322.45	37.970
322.81	38.507
323.18	39.549
323.54	40.734
323.91	39.533
324.27	42.090
324.64	41.948
325.00	42.518
325.37	43.710
325.73	42.792
326.10	45.322
326.46	46.368
326.83	45.757
327.19	45.597
327.56	45.352
327.92	47.447
328.29	46.875
328.65	48.396
329.01	47.794
329.38	48.203
329.74	48.820
330.11	48.193
330.47	47.959
330.84	50.769
331.20	52.186
331.56	49.722
331.93	51.050
332.29	51.146
332.66	52.127
333.02	50.836
333.38	51.237
333.75	53.205
334.11	49.597
334.48	51.949
334.84	51.099
335.20	52.699
335.57	52.040
335.93	52.394
336.29	54.328
336.66	54.223
337.02	51.952
337.38	51.019
337.75	52.364
338.11	52.480
338.47	52.737
338.84	55.730
339.20	54.113
339.56	55.413
339.93	54.073
340.29	55.046
340.65	53.136
341.02	53.546
341.38	54.248
341.74	52.473
342.11	53.293
342.47	55.605
342.83	54.844
343.20	54.007
343.56	56.783
343.92	54.207
344.28	55.423
344.65	56.477
345.01	56.180
345.37	54.752
345.73	57.238
346.10	58.067
346.46	54.247
346.82	53.519
347.19	55.278
347.55	55.639
347.91	55.906
348.27	55.376
348.63	56.388
349.00	56.768
349.36	56.941
349.72	58.789
350.08	55.738
350.45	55.706
350.81	57.309
351.17	56.922
351.53	58.367
351.89	55.656
352.26	56.240
352.62	57.339
352.98	56.466
353.34	56.683
353.70	57.282
354.07	57.661
354.43	57.966
354.79	59.042
355.15	59.524
355.51	59.177
355.87	59.223
356.24	58.809
356.60	58.367
356.96	59.921
357.32	57.987
357.68	59.187
358.04	60.097
358.40	59.807
358.77	59.968
359.13	61.649
359.49	58.937
359.85	59.828
360.21	61.483
360.57	60.138
360.93	59.455
361.29	58.686
361.66	61.677
362.02	62.121
362.38	61.538
362.74	63.058
363.10	62.603
363.46	61.156
363.82	63.186
364.18	60.148
364.54	60.221
364.90	60.789
365.26	60.553
365.62	62.701
365.98	62.390
366.35	63.292
366.71	63.119
367.07	63.135
367.43	63.911
367.79	61.272
368.15	62.383
368.51	62.782
368.87	62.814
369.23	63.394
369.59	64.140
369.95	64.736
370.31	64.451
370.67	64.478
371.03	64.078
371.39	63.968
371.75	64.469
372.11	63.267
372.47	63.757
372.83	64.301
373.19	64.051
373.55	63.394
373.91	65.227
374.27	64.918
374.63	64.968
374.99	63.475
375.35	65.042
375.71	65.524
376.07	67.275
376.42	66.259
376.78	64.094
377.14	66.215
377.50	66.534
377.86	65.462
378.22	64.901
378.58	66.090
378.94	65.406
379.30	66.376
379.66	65.831
380.02	65.113
380.38	65.916
380.74	66.308
381.09	66.442
381.45	66.911
381.81	66.194
382.17	66.180
382.53	65.959
382.89	67.608
383.25	68.388
383.61	67.134
383.97	66.667
384.32	65.729
384.68	68.235
385.04	66.176
385.40	67.206
385.76	68.365
386.12	67.853
386.48	69.093
386.83	67.343
387.19	68.071
387.55	67.566
387.91	67.421
388.27	65.934
388.62	68.408
388.98	67.833
389.34	68.020
389.70	68.117
390.06	67.086
390.42	66.710
390.77	68.476
391.13	68.600
391.49	68.241
391.85	69.396
392.20	66.792
392.56	67.896
392.92	67.763
393.28	67.925
393.64	67.748
393.99	68.777
394.35	67.868
394.71	66.411
395.07	68.133
395.42	66.120
395.78	68.795
396.14	66.583
396.50	68.611
396.85	69.543
397.21	67.419
397.57	67.837
397.92	66.687
398.28	67.356
398.64	65.120
399.00	68.341
399.35	65.971
399.71	65.882
400.07	66.505
400.42	65.728
400.78	66.748
401.14	67.574
401.49	66.111
401.85	66.423
402.21	65.422
402.57	66.125
402.92	65.621
403.28	66.541
403.63	66.141
403.99	65.816
404.35	67.270
404.70	64.702
405.06	65.922
405.42	65.009
405.77	65.718
406.13	64.843
406.49	64.121
406.84	66.809
407.20	65.924
407.55	65.035
407.91	64.773
408.27	64.627
408.62	64.615
408.98	65.250
409.34	64.560
409.69	63.566
410.05	64.901
410.40	63.148
410.76	65.139
411.11	63.937
411.47	64.826
411.83	64.093
412.18	65.122
412.54	62.797
412.89	63.177
413.25	63.779
413.60	62.112
413.96	61.902
414.31	63.232
414.67	62.091
415.03	63.782
415.38	62.402
415.74	63.974
416.09	64.533
416.45	62.795
416.80	62.789
417.16	65.193
417.51	63.158
417.87	62.842
418.22	63.990
418.58	62.676
418.93	64.326
419.29	61.204
419.64	63.577
420.00	63.917
420.35	61.851
420.71	63.123
421.06	62.370
421.42	63.341
421.77	62.543
422.12	61.407
422.48	62.805
422.83	63.573
423.19	63.431
423.54	62.669
423.90	62.721
424.25	63.433
424.61	62.852
424.96	62.311
425.31	64.587
425.67	62.676
426.02	63.958
426.38	64.746
426.73	63.862
427.09	64.810
427.44	62.471
427.79	63.170
428.15	63.774
428.50	64.082
428.85	62.776
429.21	63.328
429.56	63.396
429.92	61.428
430.27	61.905
430.62	62.729
430.98	62.739
431.33	61.882
431.68	61.852
432.04	63.164
432.39	61.552
432.74	61.756
433.10	64.195
433.45	61.947
433.80	62.797
434.16	62.604
434.51	62.742
434.86	62.834
435.22	61.526
435.57	62.196
435.92	62.754
436.28	62.910
436.63	63.548
436.98	61.877
437.34	62.916
437.69	62.970
438.04	61.311
438.39	61.148
438.75	63.388
439.10	61.517
439.45	64.212
439.81	61.101
440.16	64.252
440.51	62.687
440.86	63.867
441.22	61.821
441.57	62.086
441.92	63.064
442.27	63.359
442.63	63.651
442.98	62.837
443.33	60.545
443.68	62.228
444.03	62.643
444.39	61.879
444.74	63.601
445.09	63.641
445.44	63.191
445.79	62.816
446.15	62.225
446.50	60.399
446.85	63.124
447.20	61.262
447.55	62.667
447.91	62.042
448.26	61.070
448.61	62.522
448.96	62.880
449.31	62.543
449.66	62.253
450.02	62.008
450.37	61.766
450.72	62.715
451.07	63.228
451.42	62.297
451.77	62.266
452.12	59.749
452.47	59.884
452.83	61.307
453.18	61.733
453.53	62.516
453.88	61.749
454.23	61.340
454.58	61.587
454.93	60.374
455.28	59.302
455.63	60.260
455.98	61.094
456.34	60.536
456.69	61.753
457.04	62.256
457.39	60.875
457.74	60.701
458.09	58.858
458.44	60.269
458.79	59.888
459.14	61.384
459.49	59.642
459.84	60.293
460.19	60.437
460.54	61.553
460.89	60.795
461.24	59.565
461.59	58.610
461.94	59.748
462.29	60.676
462.64	60.864
462.99	59.174
463.34	57.858
463.69	59.395
464.04	59.806
464.39	59.551
464.74	58.344
465.09	59.014
465.44	59.261
465.79	57.596
466.14	59.008
466.49	57.619
466.84	59.012
467.19	57.885
467.54	58.876
467.89	59.697
468.24	58.212
468.59	59.683
468.94	58.349
469.29	58.557
469.64	58.442
469.99	59.005
470.34	57.679
470.68	59.881
471.03	59.023
471.38	58.131
471.73	59.804
472.08	58.073
472.43	58.792
472.78	57.162
473.13	57.755
473.48	57.134
473.83	56.849
474.17	56.995
474.52	56.286
474.87	57.333
475.22	56.742
475.57	56.635
475.92	56.336
476.27	57.101
476.61	57.465
476.96	55.549
477.31	56.409
477.66	57.416
478.01	55.755
478.36	55.283
478.70	57.368
479.05	55.604
479.40	56.386
479.75	55.214
480.10	54.736
480.45	55.000
480.79	56.042
481.14	55.891
481.49	53.941
481.84	56.274
482.19	53.789
482.53	54.868
482.88	54.463
483.23	54.702
483.58	54.057
483.92	53.679
484.27	54.786
484.62	54.012
484.97	52.529
485.31	52.926
485.66	51.370
486.01	52.347
486.36	52.929
486.70	52.973
487.05	53.697
487.40	53.464
487.75	52.563
488.09	53.183
488.44	53.026
488.79	52.634
489.13	51.883
489.48	52.715
489.83	53.274
490.17	52.764
490.52	52.794
490.87	52.800
491.22	52.627
491.56	52.230
491.91	52.677
492.26	52.504
492.60	52.015
492.95	53.074
493.30	50.904
493.64	51.817
493.99	52.560
494.34	51.019
494.68	52.238
495.03	51.290
495.37	52.061
495.72	51.893
496.07	51.854
496.41	51.132
496.76	51.773
497.11	51.281
497.45	50.453
497.80	51.968
498.14	50.373
498.49	51.905
498.84	50.100
499.18	51.556
499.53	51.637
499.87	50.389
500.22	50.940
500.56	51.185
500.91	50.351
501.26	49.629
501.60	50.762
501.95	50.801
502.29	49.734
502.64	50.965
502.98	50.419
503.33	48.751
503.67	49.687
504.02	48.534
504.36	50.520
504.71	48.838
505.06	49.673
505.40	49.036
505.75	49.124
506.09	48.708
506.44	50.257
506.78	49.949
507.13	49.328
507.47	47.520
507.82	48.932
508.16	48.442
508.51	48.531
508.85	49.294
509.19	48.590
509.54	49.115
509.88	48.598
510.23	49.597
510.57	48.958
510.92	47.175
511.26	48.336
511.61	48.735
511.95	48.767
512.30	48.614
512.64	48.414
512.98	48.231
513.33	48.685
513.67	48.778
514.02	49.085
514.36	49.086
514.70	49.126
515.05	48.649
515.39	48.347
515.74	48.503
516.08	49.014
516.42	47.644
516.77	49.035
517.11	48.724
517.46	48.474
517.80	48.212
518.14	47.397
518.49	47.596
518.83	47.448
519.17	46.513
519.52	46.596
519.86	46.519
520.20	47.388
520.55	48.030
520.89	48.306
521.23	46.738
521.58	47.319
521.92	47.244
522.26	47.951
522.61	46.494
522.95	49.007
523.29	47.522
523.64	46.569
523.98	47.051
524.32	46.327
524.66	48.271
525.01	46.623
525.35	46.662
525.69	46.061
526.04	47.354
526.38	47.147
526.72	45.782
527.06	46.304
527.41	47.493
527.75	45.845
528.09	46.777
528.43	47.400
528.78	46.337
529.12	46.387
529.46	46.004
529.80	45.218
530.15	46.865
530.49	45.993
530.83	46.854
531.17	44.594
531.51	45.554
531.86	45.071
532.20	45.303
532.54	45.269
532.88	44.764
533.22	43.414
533.57	45.085
533.91	44.909
534.25	46.159
534.59	45.350
534.93	43.738
535.27	43.401
535.62	45.237
535.96	45.271
536.30	44.195
536.64	46.795
536.98	45.087
537.32	44.381
537.66	45.372
538.01	44.196
538.35	44.244
538.69	44.607
539.03	43.404
539.37	44.549
539.71	44.172
540.05	43.381
540.39	45.291
540.73	44.351
541.07	44.682
541.42	45.161
541.76	44.322
542.10	44.529
542.44	44.475
542.78	43.290
543.12	41.758
543.46	43.394
543.80	43.997
544.14	42.991
544.48	43.038
544.82	41.900
545.16	43.852
545.50	42.924
545.84	43.555
546.18	43.759
546.52	42.970
546.86	42.919
547.20	42.275
547.54	42.332
547.88	42.799
548.22	41.552
548.56	41.359
548.90	43.396
549.24	41.391
549.58	43.300
549.92	41.530
550.26	42.784
550.60	42.974
550.94	42.420
551.28	40.804
551.62	42.077
551.96	41.278
552.30	41.374
552.64	40.973
552.98	42.053
553.32	42.796
553.66	40.784
554.00	42.044
554.34	42.836
554.68	42.404
555.02	41.146
555.36	42.708
555.69	41.538
556.03	41.470
556.37	40.427
556.71	40.939
557.05	41.163
557.39	39.628
557.73	40.405
558.07	41.554
558.41	41.501
558.75	40.530
559.08	40.662
559.42	42.063
559.76	41.713
560.10	40.826
560.44	41.698
560.78	40.699
561.12	40.973
561.45	40.759
561.79	40.616
562.13	41.448
562.47	40.288
562.81	41.066
563.15	40.409
563.48	41.089
563.82	41.386
564.16	41.713
564.50	38.784
564.84	39.692
565.17	40.241
565.51	41.735
565.85	40.878
566.19	40.252
566.52	40.147
566.86	40.231
567.20	39.726
567.54	39.720
567.88	41.301
568.21	40.611
568.55	39.022
568.89	40.144
569.23	40.250
569.56	39.536
569.90	39.911
570.24	39.077
570.57	39.673
570.91	39.700
571.25	38.902
571.59	38.804
571.92	38.222
572.26	38.949
572.60	38.264
572.93	38.218
573.27	38.025
573.61	38.335
573.95	38.585
574.28	37.606
574.62	38.419
574.96	37.497
575.29	36.825
575.63	36.901
575.97	36.758
576.30	37.728
576.64	36.742
576.98	37.812
577.31	38.068
577.65	38.119
577.98	37.891
578.32	37.247
578.66	37.073
578.99	36.617
579.33	37.072
579.67	37.068
580.00	37.038
580.34	37.114
580.67	36.721
581.01	37.320
581.35	36.822
581.68	37.138
582.02	36.851
582.35	36.620
582.69	36.930
583.02	37.471
583.36	36.953
583.70	37.669
584.03	37.976
584.37	37.945
584.70	36.896
585.04	36.321
585.37	36.511
585.71	36.855
586.04	36.460
586.38	36.943
586.72	36.442
587.05	36.944
587.39	37.909
587.72	37.780
588.06	36.839
588.39	36.799
588.73	36.447
589.06	38.063
589.40	36.951
589.73	37.934
590.07	37.085
590.40	37.810
590.73	39.044
591.07	37.150
591.40	37.622
591.74	37.828
592.07	37.430
592.41	36.617
592.74	36.997
593.08	35.941
593.41	36.409
593.75	36.016
594.08	36.011
594.41	36.281
594.75	36.260
595.08	36.928
595.42	35.848
595.75	36.500
596.09	36.630
596.42	36.709
596.75	37.345
597.09	35.809
597.42	36.360
597.75	36.738
598.09	36.125
598.42	35.469
598.76	35.693
599.09	35.657
599.42	35.354
599.76	35.252
600.09	35.370
600.42	36.012
600.76	34.918
601.09	35.649
601.42	35.018
601.76	35.728
602.09	35.437
602.42	36.226
602.76	35.696
603.09	36.005
603.42	35.995
603.76	35.565
604.09	35.237
604.42	36.041
604.76	36.315
605.09	35.192
605.42	34.989
605.75	35.377
606.09	35.117
606.42	34.696
606.75	34.719
607.09	35.253
607.42	35.357
607.75	34.725
608.08	34.501
608.42	34.445
608.75	35.422
609.08	35.127
609.41	34.924
609.75	34.929
610.08	35.896
610.41	34.106
610.74	34.861
611.07	35.452
611.41	36.326
611.74	36.514
612.07	34.636
612.40	35.394
612.73	35.819
613.07	34.814
613.40	34.902
613.73	34.975
614.06	35.893
614.39	34.687
614.72	34.230
615.06	34.749
615.39	34.007
615.72	34.177
616.05	33.966
616.38	33.504
616.71	33.272
617.05	35.392
617.38	34.632
617.71	35.409
618.04	35.238
618.37	34.741
618.70	35.116
619.03	35.347
619.36	34.298
619.69	35.027
620.03	35.573
620.36	34.764
620.69	34.690
621.02	34.480
621.35	36.515
621.68	35.714
622.01	34.500
622.34	34.477
622.67	33.912
623.00	34.456
623.33	35.137
623.66	33.882
623.99	33.283
624.32	34.297
624.65	33.910
624.99	34.688
625.32	32.828
625.65	34.407
625.98	34.972
626.31	33.001
626.64	35.789
626.97	34.729
627.30	34.588
627.63	35.095
627.96	34.142
628.29	35.060
628.62	33.923
628.95	33.467
629.28	33.871
629.61	32.802
629.94	34.897
630.26	34.387
630.59	35.692
630.92	34.256
631.25	32.513
631.58	34.581
631.91	33.772
632.24	32.913
632.57	34.545
632.90	32.622
633.23	32.941
633.56	32.872
633.89	32.552
634.22	35.802
634.55	34.180
634.88	35.121
635.20	33.077
635.53	32.667
635.86	32.120
636.19	33.635
636.52	34.056
636.85	32.754
637.18	33.962
637.51	33.836
637.83	32.852
638.16	34.925
638.49	31.608
638.82	35.263
639.15	33.514
639.48	33.287
639.81	32.636
640.13	33.911
640.46	34.111
640.79	31.222
641.12	33.383
641.45	31.682
641.77	33.926
642.10	32.701
642.43	33.280
642.76	32.178
643.09	35.057
643.41	29.935
643.74	31.631
644.07	33.498
644.40	33.784
644.73	34.326
645.05	32.215
645.38	34.039
645.71	32.801
646.04	33.752
646.36	31.738
646.69	34.892
647.02	35.161
647.35	32.090
647.67	32.541
648.00	33.769
648.33	31.911
648.66	31.525
648.98	28.811
649.31	32.893
649.64	32.653
649.96	31.605
650.29	33.220
650.62	32.821
650.94	29.259
651.27	30.912
651.60	32.613
651.92	31.643
652.25	30.728
652.58	32.000
652.90	32.590
653.23	31.765
653.56	31.472
653.88	31.787
654.21	30.823
654.54	32.937
654.86	34.635
655.19	31.433
655.52	34.056
655.84	31.655
656.17	34.983
656.49	47.706
656.82	49.864
657.15	38.673
657.47	28.745
657.80	21.174
658.13	20.934
658.45	32.286
658.78	32.536
659.10	31.818
659.43	32.260
659.75	31.919
660.08	31.862
660.41	31.767
660.73	32.044
661.06	30.676
661.38	32.485
661.71	28.747
662.03	32.189
662.36	31.429
662.68	29.425
663.01	32.314
663.33	27.610
663.66	32.558
663.98	32.326
664.31	30.064
664.63	29.032
664.96	28.261
665.28	28.477
665.61	32.900
665.93	30.870
666.26	32.538
666.58	30.201
666.91	28.941
667.23	31.840
667.56	31.991
667.88	33.094
668.21	31.026
668.53	31.678
668.86	29.953
669.18	32.075
669.50	30.993
669.83	30.698
670.15	29.604
670.48	30.383
670.80	31.106
671.13	28.412
671.45	26.256
671.77	30.687
672.10	29.901
672.42	28.839
672.75	29.663
673.07	33.095
673.39	31.009
673.72	26.430
674.04	29.792
674.37	31.780
674.69	29.550
675.01	31.556
675.34	30.405
675.66	28.472
675.98	30.377
676.31	28.899
676.63	30.404
676.95	30.227
677.28	33.647
677.60	30.120
677.92	31.422
678.25	29.759
678.57	28.571
678.89	31.933
679.22	29.978
679.54	27.108
679.86	29.225
680.18	29.320
680.51	32.008
680.83	29.225
681.15	29.800
681.48	33.197
681.80	31.612
682.12	29.435
682.44	26.987
682.77	30.684
683.09	29.748
683.41	27.273
683.73	28.341
684.06	27.876
684.38	27.527
684.70	31.808
685.02	28.216
685.34	28.261
685.67	29.081
685.99	31.465
686.31	29.204
686.63	30.427
686.96	28.137
687.28	26.465
687.60	27.947
687.92	31.313
688.24	29.839
688.56	31.223
688.89	30.357
689.21	28.000
689.53	29.002
689.85	29.070
690.17	31.473
690.49	29.551
690.82	30.097
691.14	25.000
691.46	31.542
691.78	30.180
692.10	30.323
692.42	28.139
692.74	31.838
693.06	30.180
693.39	26.471
693.71	25.792
694.03	28.406
694.35	29.907
694.67	30.051
694.99	27.676
695.31	29.504
695.63	28.500
695.95	27.273
696.27	25.907
696.59	29.167
696.91	28.852
697.23	25.707
697.56	28.465
697.88	30.968
698.20	27.335
698.52	28.941
698.84	27.512
699.16	25.250
699.48	31.579
699.80	28.040
700.12	27.763
700.44	31.933
700.76	27.326
701.08	26.061
701.40	28.313
701.72	30.247
702.04	28.053
702.36	28.094
702.68	33.033
703.00	29.697
703.32	28.446
703.64	27.401
703.96	31.014
704.28	28.834
704.60	28.571
704.91	23.659
705.23	26.578
705.55	30.742
705.87	31.047
706.19	31.111
706.51	27.491
706.83	27.331
707.15	26.791
707.47	31.653
707.79	26.823
708.11	27.750
708.43	30.000
708.74	29.974
709.06	30.704
709.38	29.969
709.70	28.698
710.02	28.025
710.34	29.102
710.66	24.679
710.98	28.477
711.29	27.869
711.61	28.475
711.93	30.293
712.25	30.584
712.57	25.641
712.89	23.881
713.20	29.066
713.52	28.571
713.84	28.328
714.16	28.866
714.48	30.645
714.80	24.359
715.11	27.964
715.43	24.451
715.75	27.333
716.07	25.581
716.39	27.181
716.70	25.092
717.02	26.718
717.34	31.579
717.66	31.858
717.97	26.522
718.29	25.941
718.61	26.772
718.93	23.256
719.24	29.658
719.56	26.908
719.88	27.148
720.20	28.788
720.51	25.670
720.83	29.730
721.15	26.471
721.46	27.016
721.78	26.087
722.10	27.881
722.42	20.747
722.73	26.531
723.05	29.388
723.37	29.237
723.68	32.883
724.00	25.641
724.32	26.222
724.63	22.273
724.95	27.074
725.27	26.728
725.58	25.847
725.90	25.000
726.22	26.641
726.53	29.153
726.85	24.345
727.16	29.057
727.48	23.887
727.80	28.340
728.11	23.729
728.43	23.922
728.74	20.161
729.06	26.000
729.38	30.075
729.69	24.701
730.01	24.231
730.32	28.731
730.64	30.742
730.96	28.302
731.27	26.667
731.59	28.814
731.90	29.936
732.22	32.177
732.53	28.239
732.85	29.078
733.16	30.303
733.48	23.381
733.80	23.188
734.11	26.780
734.43	21.993
734.74	27.879
735.06	27.687
735.37	31.722
735.69	30.303
736.00	25.436
736.32	29.195
736.63	25.000
736.95	27.645
737.26	24.555
737.58	26.846
737.89	25.275
738.21	28.571
738.52	30.864
738.83	24.017
739.15	29.694
739.46	23.228
739.78	22.344
740.09	23.529
740.41	25.362
740.72	22.835
741.04	27.530
741.35	29.787
741.66	27.014
741.98	28.571
742.29	27.723
742.61	22.513
742.92	20.853
743.23	25.463
743.55	25.792
743.86	23.445
744.18	22.967
744.49	22.872
744.80	26.630
745.12	34.225
745.43	20.488
745.74	31.771
746.06	23.902
746.37	23.560
746.68	30.332
747.00	22.872
747.31	32.836
747.62	21.359
747.94	21.053
748.25	28.218
748.56	27.869
748.88	25.131
749.19	32.447
749.50	27.094
749.82	20.755
750.13	25.229
750.44	27.820
750.75	32.836
751.07	31.022
751.38	23.372
751.69	23.922
752.01	30.233
752.32	26.693
752.63	24.506
752.94	21.552
753.26	29.707
753.57	21.719
753.88	24.336
754.19	24.583
754.51	28.926
754.82	23.482
755.13	27.500
755.44	25.000
755.75	29.687
756.07	29.183
756.38	21.887
756.69	22.989
757.00	23.000
757.31	23.203
757.63	24.695
757.94	24.444
758.25	22.740
758.56	25.532
758.87	23.229
759.18	20.249
759.50	24.364
759.81	26.756
760.12	29.677
760.43	26.061
760.74	29.938
761.05	27.077
761.36	25.284
761.67	26.970
761.99	27.891
762.30	22.545
762.61	21.739
762.92	25.339
763.23	25.225
763.54	27.570
763.85	27.542
764.16	23.237
764.47	20.565
764.78	21.612
765.10	26.599
765.41	24.921
765.72	23.492
766.03	22.556
766.34	23.358
766.65	25.896
766.96	22.727
767.27	18.085
767.58	22.989
767.89	22.695
768.20	18.182
768.51	21.429
768.82	24.138
769.13	21.659
769.44	24.464
769.75	19.178
770.06	24.138
770.37	22.596
770.68	23.858
770.99	22.172
771.30	29.412
771.61	24.434
771.92	25.000
772.23	25.123
772.54	27.419
772.85	22.222
773.16	24.719
773.47	29.412
773.78	22.876
774.09	29.940
774.39	23.333
774.70	24.841
775.01	31.034
775.32	15.714
775.63	20.661
775.94	20.611
776.25	22.835
776.56	25.833
776.87	19.231
777.18	19.658
777.48	25.000
777.79	12.174
778.10	10.476
778.41	19.820
778.72	23.810
779.03	24.812
779.34	23.404
779.65	20.548
779.95	18.493
780.26	22.759
780.57	9.756
780.88	18.110
781.19	23.276
781.50	23.256
781.80	21.302
782.11	15.094
782.42	23.846
782.73	15.108
783.04	25.185
783.34	17.361
783.65	10.256
783.96	15.574
784.27	29.655
784.57	20.325
784.88	27.344
785.19	23.000
785.50	32.000
785.81	17.241
786.11	25.000
786.42	6.796
786.73	24.545
787.04	27.551
787.34	25.893
787.65	12.381
787.96	30.088
788.26	19.091
788.57	15.385
788.88	26.563
789.19	15.079
789.49	17.391
789.80	17.347
790.11	20.202
790.41	12.727
790.72	30.435
791.03	19.318
791.33	25.000
791.64	21.250
791.95	16.279
792.25	20.213
792.56	28.090
792.87	17.808
793.17	18.841
793.48	2.667
793.79	7.500
794.09	31.250
794.40	21.698
794.70	13.592
795.01	25.203
795.32	22.222
795.62	10.476
795.93	24.510
796.23	23.585
796.54	21.875
796.85	26.471
797.15	-5.634
797.46	26.389
797.76	15.152
798.07	19.767
798.37	14.474
798.68	21.212
798.99	14.815
799.29	21.429
799.60	15.942
799.90	18.667
800.21	8.197
800.51	23.077
800.82	11.864
801.12	24.638
801.43	14.754
801.73	23.810
802.04	26.000
802.34	14.925
802.65	21.154
802.95	3.571
803.26	5.769
803.56	35.294
803.87	-17.391
804.17	14.667
804.48	34.921
804.78	16.667
805.09	8.696
805.39	37.778
805.70	35.185
806.00	-3.509
806.30	19.718
806.61	30.000
806.91	12.500
807.22	19.737
807.52	30.667
807.83	5.455
808.13	15.278
808.43	22.059
808.74	5.970
809.04	-10.169
809.35	-1.923
809.65	18.750
809.95	-13.514
810.26	38.636
810.56	23.288
810.86	23.810
811.17	14.000
811.47	36.735
811.77	0.000
812.08	22.727
812.38	20.755
812.69	12.500
812.99	21.212
813.29	-10.526
813.59	-34.286
813.90	11.364
814.20	-7.692
814.50	19.231
814.81	43.396
815.11	17.021
815.41	27.119
815.72	26.190
816.02	33.333
816.32	10.417
816.62	14.634
816.93	13.514
817.23	-17.143
817.53	31.250
817.84	2.174
818.14	13.462
818.44	-13.158
818.74	17.391
819.04	5.000
819.35	-16.216
819.65	0.000
819.95	2.778
820.25	-7.143
820.56	32.500
820.86	0.000
821.16	40.000
821.46	25.532
821.76	45.000
822.07	11.628
822.37	-24.324
822.67	-31.250
822.97	30.952
823.27	-10.714
823.57	-12.000
823.88	-44.444
824.18	50.000
824.48	29.412
824.78	9.677
825.08	0.000
825.38	27.273
825.69	-54.167
825.99	5.263
826.29	5.556
826.59	40.000
826.89	-47.619
827.19	13.043
827.49	-2.500
827.79	34.286
828.09	10.714
828.39	15.152
828.70	21.622
829.00	-10.714
829.30	19.048
829.60	0.000
829.90	15.625
830.20	31.579
830.50	-18.519
830.80	-26.087
831.10	40.909
831.40	24.242
831.70	0.000
832.00	42.857
832.30	-52.381
832.60	25.000
832.90	-51.724
833.20	-30.000
833.50	42.424
833.80	-40.741
834.10	-3.846
834.40	15.625
834.70	11.111
835.00	-26.316
835.30	46.154
835.60	-40.000
835.90	6.452
836.20	-18.182
836.50	7.143
836.80	-57.692
837.10	-3.571
837.40	-233.333
837.70	0.000
838.00	-90.909
838.30	17.391
838.60	-30.769
838.90	22.727
839.19	14.286
839.49	30.000
839.79	-7.692
840.09	-133.333
840.39	71.429
840.69	35.714
840.99	-42.308
841.29	-84.211
841.59	-50.000
841.88	-27.273
842.18	60.000
842.48	6.250
842.78	-46.667
843.08	-3.704
843.38	-60.000
843.68	4.348
843.97	13.333
844.27	-80.000
844.57	0.000
844.87	-88.889
845.17	-14.286
845.47	0.000
845.76	-28.571
846.06	58.824
846.36	-20.000
846.66	7.143
846.96	13.333
847.25	-50.000
847.55	14.286
847.85	-87.500
848.15	0.000
848.44	-533.333
848.74	-10.000
849.04	29.630
849.34	-27.273
849.63	-283.333
849.93	-120.000
850.23	-33.333
850.53	-30.000
850.82	-7.692
851.12	0.000
851.42	13.333
851.71	3.846
852.01	-100.000
852.31	-75.000
852.61	-36.364
852.90	-5.000
853.20	-15.789
853.50	-41.667
853.79	4.348
854.09	16.667
854.39	10.526
854.68	-8.333
854.98	38.710
855.28	23.077
855.57	20.000
855.87	27.778
856.17	51.852
856.46	-42.857
856.76	20.000
857.05	44.444
857.35	-4.000
857.65	-5.556
857.94	-53.846
858.24	37.931
858.53	5.556
858.83	37.037
859.13	-9.091
859.42	17.391
859.72	-200.000
860.01	-266.667
860.31	-16.000
860.60	-28.571
860.90	-533.333
861.20	-40.000
861.49	-600.000
861.79	-53.333
862.08	10.000
862.38	93.333
862.67	-220.000
862.97	-100.000
863.26	16.667
863.56	50.000
863.85	-433.333
864.15	27.778
864.44	-60.000
864.74	28.571
865.03	125.000
865.33	-80.000
865.62	16.667
865.92	-41.667
866.21	-33.333
866.51	25.000
866.80	-81.818
867.10	-400.000
867.39	66.667
867.69	0.000
867.98	-61.538
868.27	-300.000
868.57	-46.667
868.86	33.333
869.16	-53.846
869.45	-13.333
869.75	-700.000
870.04	0.000
870.33	-285.714
870.63	28.571
870.92	433.333
871.22	-260.000
871.51	-600.000
871.80	133.333
872.10	566.667
>>>>>End Processed Spectral Data<<<<<
