SpectraSuite Data File
++++++++++++++++++++++++++++++++++++
Date: Fri May 15 20:52:52 PDT 2015
User: schluterlab
Dark Spectrum Present: Yes
Reference Spectrum Present: Yes
Number of Sampled Component Spectra: 1
Spectrometers: USB2E3373
Integration Time (usec): 3000 (USB2E3373)
Spectra Averaged: 3 (USB2E3373)
Boxcar Smoothing: 0 (USB2E3373)
Correct for Electrical Dark: No (USB2E3373)
Strobe/Lamp Enabled: No (USB2E3373)
Correct for Detector Non-linearity: No (USB2E3373)
Correct for Stray Light: No (USB2E3373)
Number of Pixels in Processed Spectrum: 2048
>>>>>Begin Processed Spectral Data<<<<<
178.53	0.000
178.91	0.000
179.29	75.000
179.67	-200.000
180.04	28.571
180.42	75.000
180.80	200.000
181.18	233.333
181.56	250.000
181.94	-200.000
182.31	-400.000
182.69	-80.000
183.07	-100.000
183.45	-40.000
183.83	233.333
184.20	-18.182
184.58	66.667
184.96	-0.000
185.34	33.333
185.72	-550.000
186.09	38.462
186.47	-600.000
186.85	183.333
187.23	133.333
187.61	400.000
187.98	-66.667
188.36	11.111
188.74	-133.333
189.12	17.647
189.49	16.667
189.87	0.000
190.25	14.286
190.63	-50.000
191.00	-133.333
191.38	26.316
191.76	300.000
192.14	25.000
192.51	350.000
192.89	-100.000
193.27	-128.571
193.65	116.667
194.02	163.636
194.40	20.000
194.78	-125.000
195.15	-83.333
195.53	25.000
195.91	525.000
196.29	-250.000
196.66	123.077
197.04	114.286
197.42	0.000
197.79	-833.333
198.17	46.154
198.55	700.000
198.92	-300.000
199.30	-500.000
199.68	-260.000
200.05	-500.000
200.43	0.000
200.81	0.000
201.18	266.667
201.56	1100.000
201.94	-200.000
202.31	33.333
202.69	-180.000
203.07	500.000
203.44	-300.000
203.82	0.000
204.19	-14.286
204.57	-366.667
204.95	175.000
205.32	-30.000
205.70	0.000
206.08	-175.000
206.45	144.444
206.83	64.286
207.20	-200.000
207.58	500.000
207.96	100.000
208.33	-70.000
208.71	25.000
209.08	-216.667
209.46	-800.000
209.84	-180.000
210.21	-1300.000
210.59	-14.286
210.96	-150.000
211.34	-25.000
211.71	-53.333
212.09	-28.571
212.46	-1300.000
212.84	0.000
213.22	80.000
213.59	800.000
213.97	53.846
214.34	18.182
214.72	-133.333
215.09	175.000
215.47	-46.154
215.84	9.091
216.22	-400.000
216.59	-37.500
216.97	300.000
217.34	-125.000
217.72	-160.000
218.09	75.000
218.47	187.500
218.84	-700.000
219.22	33.333
219.59	40.000
219.97	366.667
220.34	225.000
220.72	71.429
221.09	-100.000
221.47	100.000
221.84	-1000.000
222.22	-450.000
222.59	18.182
222.97	50.000
223.34	-100.000
223.72	-71.429
224.09	28.571
224.46	14.286
224.84	500.000
225.21	-50.000
225.59	46.667
225.96	-400.000
226.34	425.000
226.71	-42.857
227.08	-66.667
227.46	-75.000
227.83	-400.000
228.21	22.222
228.58	27.273
228.95	-100.000
229.33	70.000
229.70	-25.000
230.08	-137.500
230.45	-100.000
230.82	157.143
231.20	-13.333
231.57	14.286
231.95	-114.286
232.32	-90.000
232.69	-14.286
233.07	66.667
233.44	-100.000
233.81	-10.000
234.19	-33.333
234.56	-35.294
234.93	350.000
235.31	25.000
235.68	-380.000
236.05	-23.077
236.43	-45.000
236.80	-5.882
237.17	9.375
237.55	30.000
237.92	3.704
238.29	5.556
238.67	46.667
239.04	2.941
239.41	-4.878
239.79	0.000
240.16	21.951
240.53	2.632
240.91	8.696
241.28	31.746
241.65	41.071
242.02	20.548
242.40	18.333
242.77	16.949
243.14	22.727
243.51	36.250
243.89	40.230
244.26	19.540
244.63	25.000
245.00	28.866
245.38	23.711
245.75	11.236
246.12	20.690
246.49	18.182
246.87	29.808
247.24	18.487
247.61	18.421
247.98	17.073
248.36	22.500
248.73	26.974
249.10	18.831
249.47	25.316
249.84	28.758
250.22	20.000
250.59	22.222
250.96	20.657
251.33	20.930
251.70	21.765
252.08	17.766
252.45	20.297
252.82	23.116
253.19	31.336
253.56	18.224
253.94	24.324
254.31	21.304
254.68	19.737
255.05	22.441
255.42	21.834
255.79	25.097
256.16	22.179
256.54	24.627
256.91	22.053
257.28	22.677
257.65	20.225
258.02	19.149
258.39	21.549
258.76	27.473
259.14	26.910
259.51	23.948
259.88	24.399
260.25	21.569
260.62	20.833
260.99	23.051
261.36	18.493
261.73	22.468
262.10	21.884
262.47	24.233
262.85	19.436
263.22	21.231
263.59	24.299
263.96	24.534
264.33	23.636
264.70	22.619
265.07	23.512
265.44	22.663
265.81	24.576
266.18	22.404
266.55	23.136
266.92	25.130
267.29	25.065
267.66	24.041
268.03	24.084
268.40	21.410
268.77	26.203
269.14	20.384
269.51	25.193
269.88	20.948
270.25	21.429
270.62	19.024
270.99	20.972
271.36	20.293
271.73	23.709
272.10	22.871
272.47	25.059
272.84	19.554
273.21	25.754
273.58	19.759
273.95	24.256
274.32	21.940
274.69	19.457
275.06	25.000
275.43	21.088
275.80	23.179
276.17	22.989
276.54	20.985
276.91	22.368
277.28	19.214
277.65	23.967
278.02	22.766
278.39	22.538
278.76	20.964
279.13	17.842
279.50	20.588
279.87	22.462
280.23	20.000
280.60	22.612
280.97	23.030
281.34	21.154
281.71	22.587
282.08	20.245
282.45	22.309
282.82	22.973
283.19	21.277
283.56	21.965
283.92	21.632
284.29	19.808
284.66	19.961
285.03	19.843
285.40	21.739
285.77	17.926
286.14	21.480
286.51	19.926
286.87	18.830
287.24	18.969
287.61	19.753
287.98	22.281
288.35	19.931
288.72	21.891
289.08	21.528
289.45	20.035
289.82	19.406
290.19	20.990
290.56	19.554
290.93	20.370
291.29	17.257
291.66	20.315
292.03	19.458
292.40	17.742
292.77	18.341
293.13	15.422
293.50	16.844
293.87	18.015
294.24	18.547
294.60	18.629
294.97	18.006
295.34	18.252
295.71	18.331
296.08	17.638
296.44	16.216
296.81	16.111
297.18	17.101
297.55	18.293
297.91	17.534
298.28	19.261
298.65	16.825
299.02	16.577
299.38	15.869
299.75	16.552
300.12	16.230
300.48	16.996
300.85	16.223
301.22	15.974
301.59	15.789
301.95	15.949
302.32	19.196
302.69	16.169
303.05	17.079
303.42	17.559
303.79	16.822
304.15	17.563
304.52	16.171
304.89	15.673
305.25	15.738
305.62	16.453
305.99	16.023
306.35	16.069
306.72	15.523
307.09	17.560
307.45	16.648
307.82	17.593
308.19	18.583
308.55	15.594
308.92	18.301
309.29	16.983
309.65	15.931
310.02	17.162
310.38	17.892
310.75	16.940
311.12	16.685
311.48	17.603
311.85	16.649
312.22	17.511
312.58	15.287
312.95	16.435
313.31	15.114
313.68	17.382
314.05	18.571
314.41	18.454
314.78	18.041
315.14	18.808
315.51	18.116
315.87	17.111
316.24	19.009
316.61	18.307
316.97	20.040
317.34	18.555
317.70	19.503
318.07	19.423
318.43	19.510
318.80	17.519
319.16	20.410
319.53	20.418
319.89	19.193
320.26	20.243
320.62	20.261
320.99	20.251
321.35	20.966
321.72	20.976
322.08	21.551
322.45	21.218
322.81	21.120
323.18	20.412
323.54	21.042
323.91	22.103
324.27	21.582
324.64	22.285
325.00	22.993
325.37	23.600
325.73	21.578
326.10	24.432
326.46	24.036
326.83	23.710
327.19	23.017
327.56	24.153
327.92	24.472
328.29	24.375
328.65	24.151
329.01	24.908
329.38	24.516
329.74	22.285
330.11	25.857
330.47	24.119
330.84	24.904
331.20	26.806
331.56	24.259
331.93	26.575
332.29	25.298
332.66	26.154
333.02	25.186
333.38	25.665
333.75	27.198
334.11	25.067
334.48	26.020
334.84	26.190
335.20	24.977
335.57	24.660
335.93	25.565
336.29	25.691
336.66	25.522
337.02	25.558
337.38	24.537
337.75	25.636
338.11	26.150
338.47	26.551
338.84	25.046
339.20	25.868
339.56	25.046
339.93	27.305
340.29	26.330
340.65	26.523
341.02	26.950
341.38	25.487
341.74	25.442
342.11	25.217
342.47	25.267
342.83	26.038
343.20	25.784
343.56	26.000
343.92	25.952
344.28	25.448
344.65	25.389
345.01	26.102
345.37	25.147
345.73	25.690
346.10	27.524
346.46	27.334
346.82	25.123
347.19	24.855
347.55	25.731
347.91	26.861
348.27	25.546
348.63	26.746
349.00	24.610
349.36	25.436
349.72	26.534
350.08	25.984
350.45	26.097
350.81	26.080
351.17	25.244
351.53	26.449
351.89	24.773
352.26	25.840
352.62	26.290
352.98	24.578
353.34	25.604
353.70	26.052
354.07	26.532
354.43	25.140
354.79	25.186
355.15	26.508
355.51	26.028
355.87	26.375
356.24	25.612
356.60	24.252
356.96	27.143
357.32	25.639
357.68	25.489
358.04	26.252
358.40	26.447
358.77	26.794
359.13	26.101
359.49	26.348
359.85	25.897
360.21	26.316
360.57	25.708
360.93	27.005
361.29	25.453
361.66	25.549
362.02	27.121
362.38	26.885
362.74	25.889
363.10	27.464
363.46	26.464
363.82	27.348
364.18	27.011
364.54	26.691
364.90	27.742
365.26	26.274
365.62	27.445
365.98	27.346
366.35	26.948
366.71	27.421
367.07	28.012
367.43	27.247
367.79	26.996
368.15	27.782
368.51	25.710
368.87	27.064
369.23	26.787
369.59	27.405
369.95	27.053
370.31	28.324
370.67	27.761
371.03	26.587
371.39	27.279
371.75	27.839
372.11	27.532
372.47	28.402
372.83	28.815
373.19	28.745
373.55	28.087
373.91	28.366
374.27	28.987
374.63	29.289
374.99	27.234
375.35	29.248
375.71	29.790
376.07	29.143
376.42	28.844
376.78	29.128
377.14	27.962
377.50	29.283
377.86	30.120
378.22	28.590
378.58	29.551
378.94	28.922
379.30	29.694
379.66	30.533
380.02	29.859
380.38	28.850
380.74	28.845
381.09	30.859
381.45	30.581
381.81	30.167
382.17	29.695
382.53	30.543
382.89	31.513
383.25	29.932
383.61	30.427
383.97	29.651
384.32	29.706
384.68	30.279
385.04	29.657
385.40	30.492
385.76	32.201
386.12	31.113
386.48	31.737
386.83	30.755
387.19	31.380
387.55	32.434
387.91	30.623
388.27	31.136
388.62	31.970
388.98	31.185
389.34	31.355
389.70	31.697
390.06	30.334
390.42	31.218
390.77	32.178
391.13	31.778
391.49	32.406
391.85	32.619
392.20	31.011
392.56	31.405
392.92	31.180
393.28	31.663
393.64	31.051
393.99	32.727
394.35	31.879
394.71	32.248
395.07	31.113
395.42	32.423
395.78	31.987
396.14	31.526
396.50	32.594
396.85	32.196
397.21	32.581
397.57	31.975
397.92	31.576
398.28	31.034
398.64	32.048
399.00	31.659
399.35	31.038
399.71	33.199
400.07	32.044
400.42	31.946
400.78	32.394
401.14	31.700
401.49	32.341
401.85	31.261
402.21	32.048
402.57	31.938
402.92	31.368
403.28	31.955
403.63	31.652
403.99	31.441
404.35	33.542
404.70	30.774
405.06	31.199
405.42	31.324
405.77	31.145
406.13	31.665
406.49	31.676
406.84	32.029
407.20	30.765
407.55	31.423
407.91	30.816
408.27	30.848
408.62	31.200
408.98	32.286
409.34	32.280
409.69	31.654
410.05	31.158
410.40	31.790
410.76	31.785
411.11	31.063
411.47	32.479
411.83	31.199
412.18	31.403
412.54	31.211
412.89	30.665
413.25	31.528
413.60	31.304
413.96	30.920
414.31	31.098
414.67	31.046
415.03	31.358
415.38	31.658
415.74	31.792
416.09	31.287
416.45	31.600
416.80	30.800
417.16	31.492
417.51	31.113
417.87	31.421
418.22	32.966
418.58	31.505
418.93	32.476
419.29	30.218
419.64	32.016
420.00	32.620
420.35	31.582
420.71	31.774
421.06	31.799
421.42	31.971
421.77	31.965
422.12	30.931
422.48	31.456
422.83	31.323
423.19	31.998
423.54	31.158
423.90	31.213
424.25	32.549
424.61	32.069
424.96	32.114
425.31	33.507
425.67	31.749
426.02	33.098
426.38	31.309
426.73	32.627
427.09	33.228
427.44	32.471
427.79	31.939
428.15	32.524
428.50	32.162
428.85	32.248
429.21	32.654
429.56	33.154
429.92	32.871
430.27	32.682
430.62	32.201
430.98	32.803
431.33	33.438
431.68	32.862
432.04	32.979
432.39	31.489
432.74	31.569
433.10	33.966
433.45	32.796
433.80	32.966
434.16	32.355
434.51	32.634
434.86	33.914
435.22	32.866
435.57	33.624
435.92	34.012
436.28	32.856
436.63	33.143
436.98	31.981
437.34	33.273
437.69	33.333
438.04	32.251
438.39	32.376
438.75	33.455
439.10	32.881
439.45	34.145
439.81	32.538
440.16	33.967
440.51	34.030
440.86	34.562
441.22	33.428
441.57	33.168
441.92	35.152
442.27	33.647
442.63	34.529
442.98	34.406
443.33	34.057
443.68	33.846
444.03	33.830
444.39	34.137
444.74	34.894
445.09	33.853
445.44	34.758
445.79	35.482
446.15	33.811
446.50	34.387
446.85	33.688
447.20	34.567
447.55	34.877
447.91	34.405
448.26	35.572
448.61	35.406
448.96	34.710
449.31	33.526
449.66	35.192
450.02	33.999
450.37	35.270
450.72	33.906
451.07	35.380
451.42	33.895
451.77	34.780
452.12	34.330
452.47	34.449
452.83	35.630
453.18	34.788
453.53	35.082
453.88	34.669
454.23	35.464
454.58	35.390
454.93	35.696
455.28	34.349
455.63	36.206
455.98	34.155
456.34	35.121
456.69	34.752
457.04	35.035
457.39	33.961
457.74	34.220
458.09	33.490
458.44	35.167
458.79	34.342
459.14	35.240
459.49	34.567
459.84	34.574
460.19	36.286
460.54	35.086
460.89	34.148
461.24	35.652
461.59	34.204
461.94	34.151
462.29	34.560
462.64	35.415
462.99	34.259
463.34	33.727
463.69	34.299
464.04	34.443
464.39	33.778
464.74	34.663
465.09	34.997
465.44	34.853
465.79	32.710
466.14	34.436
466.49	33.985
466.84	33.908
467.19	34.543
467.54	33.461
467.89	34.365
468.24	33.698
468.59	35.429
468.94	33.714
469.29	35.016
469.64	34.381
469.99	34.548
470.34	33.106
470.68	36.167
471.03	35.740
471.38	34.094
471.73	34.384
472.08	33.175
472.43	34.362
472.78	34.270
473.13	33.878
473.48	32.834
473.83	33.998
474.17	34.521
474.52	34.014
474.87	33.636
475.22	33.435
475.57	33.879
475.92	34.723
476.27	33.586
476.61	34.549
476.96	32.850
477.31	33.640
477.66	33.708
478.01	33.745
478.36	32.407
478.70	34.584
479.05	33.681
479.40	33.916
479.75	32.847
480.10	33.641
480.45	32.750
480.79	33.887
481.14	33.760
481.49	33.596
481.84	33.784
482.19	32.741
482.53	33.285
482.88	33.222
483.23	32.486
483.58	33.066
483.92	31.994
484.27	32.726
484.62	33.303
484.97	31.633
485.31	32.478
485.66	31.435
486.01	32.135
486.36	32.232
486.70	32.505
487.05	32.388
487.40	32.213
487.75	31.465
488.09	30.995
488.44	31.190
488.79	31.715
489.13	32.212
489.48	31.680
489.83	31.883
490.17	31.416
490.52	31.963
490.87	31.513
491.22	31.996
491.56	31.784
491.91	31.501
492.26	31.648
492.60	30.902
492.95	32.514
493.30	31.461
493.64	32.024
493.99	32.802
494.34	31.408
494.68	31.048
495.03	31.046
495.37	31.207
495.72	31.752
496.07	31.268
496.41	31.274
496.76	31.506
497.11	30.415
497.45	31.790
497.80	30.979
498.14	31.048
498.49	31.386
498.84	30.838
499.18	30.974
499.53	32.192
499.87	30.496
500.22	30.613
500.56	31.669
500.91	30.522
501.26	30.845
501.60	30.152
501.95	30.665
502.29	31.283
502.64	30.936
502.98	30.932
503.33	30.548
503.67	29.976
504.02	30.499
504.36	30.381
504.71	29.697
505.06	30.096
505.40	29.746
505.75	30.000
506.09	29.954
506.44	31.314
506.78	31.173
507.13	30.869
507.47	30.026
507.82	29.541
508.16	30.111
508.51	30.010
508.85	30.194
509.19	28.898
509.54	30.402
509.88	29.396
510.23	29.693
510.57	30.251
510.92	29.051
511.26	29.678
511.61	29.978
511.95	30.192
512.30	29.712
512.64	29.716
512.98	30.095
513.33	29.771
513.67	29.505
514.02	30.492
514.36	29.657
514.70	29.545
515.05	30.611
515.39	29.870
515.74	29.940
516.08	29.707
516.42	30.271
516.77	30.076
517.11	29.436
517.46	29.623
517.80	28.784
518.14	28.904
518.49	29.026
518.83	29.648
519.17	28.441
519.52	28.774
519.86	29.172
520.20	30.073
520.55	29.081
520.89	29.674
521.23	28.752
521.58	29.527
521.92	29.103
522.26	28.627
522.61	28.831
522.95	29.470
523.29	29.416
523.64	29.543
523.98	29.164
524.32	28.222
524.66	27.849
525.01	29.221
525.35	28.581
525.69	27.744
526.04	27.579
526.38	29.053
526.72	27.273
527.06	26.524
527.41	28.496
527.75	28.016
528.09	28.771
528.43	28.562
528.78	27.393
529.12	27.871
529.46	28.135
529.80	27.296
530.15	28.515
530.49	27.744
530.83	28.454
531.17	27.267
531.51	29.001
531.86	27.192
532.20	26.792
532.54	28.251
532.88	28.063
533.22	27.688
533.57	27.785
533.91	26.436
534.25	28.060
534.59	26.748
534.93	26.369
535.27	25.635
535.62	25.924
535.96	26.941
536.30	27.704
536.64	26.809
536.98	26.551
537.32	28.450
537.66	28.261
538.01	27.203
538.35	26.352
538.69	26.565
539.03	26.931
539.37	26.312
539.71	26.312
540.05	25.662
540.39	26.870
540.73	27.127
541.07	26.588
541.42	27.218
541.76	26.290
542.10	26.566
542.44	26.407
542.78	24.570
543.12	25.618
543.46	26.912
543.80	26.232
544.14	24.633
544.48	25.916
544.82	25.427
545.16	26.844
545.50	26.302
545.84	26.558
546.18	25.390
546.52	25.955
546.86	25.162
547.20	26.681
547.54	25.088
547.88	25.272
548.22	24.589
548.56	25.660
548.90	25.606
549.24	25.000
549.58	25.529
549.92	24.375
550.26	25.421
550.60	25.279
550.94	25.915
551.28	25.039
551.62	24.538
551.96	24.812
552.30	25.219
552.64	23.836
552.98	24.191
553.32	25.036
553.66	24.964
554.00	24.818
554.34	24.889
554.68	23.525
555.02	25.446
555.36	24.907
555.69	23.810
556.03	23.697
556.37	24.484
556.71	24.765
557.05	24.236
557.39	23.494
557.73	24.663
558.07	25.566
558.41	24.349
558.75	25.487
559.08	23.719
559.42	24.921
559.76	24.980
560.10	25.306
560.44	23.157
560.78	23.986
561.12	23.977
561.45	24.596
561.79	24.160
562.13	23.989
562.47	24.532
562.81	22.839
563.15	24.471
563.48	23.479
563.82	24.846
564.16	24.443
564.50	23.649
564.84	23.360
565.17	23.139
565.51	24.727
565.85	24.623
566.19	24.337
566.52	23.794
566.86	24.486
567.20	23.225
567.54	23.844
567.88	24.194
568.21	23.473
568.55	23.533
568.89	24.076
569.23	23.255
569.56	23.205
569.90	23.346
570.24	22.776
570.57	23.273
570.91	23.318
571.25	22.854
571.59	22.080
571.92	22.104
572.26	22.434
572.60	22.233
572.93	22.309
573.27	22.257
573.61	22.375
573.95	22.447
574.28	21.345
574.62	21.714
574.96	21.915
575.29	21.807
575.63	21.508
575.97	21.930
576.30	21.788
576.64	21.325
576.98	22.111
577.31	22.290
577.65	22.271
577.98	22.126
578.32	21.814
578.66	21.191
578.99	21.502
579.33	21.234
579.67	21.146
580.00	21.443
580.34	21.642
580.67	21.068
581.01	21.566
581.35	21.490
581.68	21.649
582.02	21.435
582.35	21.003
582.69	21.621
583.02	21.213
583.36	21.410
583.70	21.443
584.03	21.935
584.37	21.767
584.70	21.429
585.04	20.777
585.37	20.958
585.71	20.908
586.04	21.230
586.38	20.832
586.72	21.722
587.05	21.577
587.39	20.772
587.72	21.514
588.06	21.146
588.39	21.532
588.73	21.825
589.06	21.559
589.40	20.947
589.73	21.431
590.07	21.299
590.40	21.014
590.73	21.540
591.07	20.823
591.40	21.416
591.74	21.086
592.07	21.475
592.41	20.936
592.74	20.868
593.08	21.132
593.41	20.758
593.75	21.394
594.08	20.735
594.41	20.706
594.75	20.802
595.08	21.075
595.42	20.758
595.75	20.991
596.09	21.110
596.42	20.670
596.75	20.604
597.09	20.364
597.42	20.370
597.75	20.751
598.09	20.733
598.42	20.623
598.76	20.892
599.09	20.393
599.42	19.932
599.76	20.429
600.09	20.098
600.42	20.773
600.76	20.319
601.09	20.076
601.42	20.290
601.76	20.603
602.09	20.586
602.42	20.303
602.76	20.756
603.09	20.764
603.42	20.610
603.76	20.121
604.09	19.522
604.42	20.474
604.76	20.472
605.09	21.024
605.42	20.497
605.75	20.622
606.09	20.255
606.42	19.933
606.75	20.000
607.09	20.527
607.42	19.982
607.75	19.272
608.08	20.036
608.42	19.278
608.75	19.904
609.08	19.681
609.41	19.949
609.75	19.708
610.08	20.369
610.41	19.662
610.74	19.844
611.07	19.948
611.41	20.187
611.74	19.776
612.07	19.807
612.40	20.241
612.73	19.831
613.07	19.404
613.40	19.967
613.73	18.914
614.06	20.145
614.39	20.079
614.72	19.776
615.06	20.056
615.39	19.760
615.72	19.214
616.05	19.888
616.38	19.145
616.71	18.899
617.05	19.889
617.38	19.987
617.71	19.308
618.04	20.508
618.37	20.555
618.70	19.934
619.03	20.347
619.36	19.392
619.69	20.394
620.03	21.037
620.36	20.601
620.69	19.343
621.02	19.343
621.35	19.751
621.68	19.813
622.01	19.250
622.34	20.271
622.67	20.426
623.00	19.755
623.33	19.588
623.66	19.521
623.99	19.970
624.32	19.924
624.65	18.797
624.99	20.993
625.32	19.257
625.65	20.974
625.98	19.984
626.31	19.867
626.64	19.931
626.97	20.506
627.30	19.877
627.63	20.451
627.96	19.766
628.29	19.334
628.62	20.354
628.95	19.038
629.28	20.565
629.61	19.641
629.94	20.332
630.26	19.960
630.59	20.291
630.92	20.615
631.25	20.103
631.58	19.604
631.91	18.969
632.24	20.528
632.57	19.205
632.90	20.285
633.23	20.000
633.56	18.136
633.89	19.729
634.22	19.630
634.55	19.314
634.88	18.774
635.20	19.872
635.53	19.467
635.86	17.945
636.19	20.957
636.52	19.133
636.85	20.223
637.18	19.119
637.51	18.365
637.83	19.448
638.16	21.828
638.49	18.801
638.82	20.789
639.15	18.860
639.48	19.532
639.81	19.107
640.13	18.759
640.46	19.534
640.79	18.704
641.12	19.055
641.45	21.622
641.77	21.630
642.10	21.801
642.43	19.936
642.76	19.802
643.09	19.709
643.41	19.579
643.74	21.087
644.07	21.182
644.40	19.932
644.73	18.564
645.05	19.463
645.38	20.282
645.71	20.035
646.04	20.108
646.36	20.922
646.69	20.144
647.02	20.416
647.35	19.403
647.67	21.389
648.00	19.963
648.33	20.819
648.66	18.136
648.98	16.415
649.31	17.025
649.64	16.797
649.96	18.963
650.29	18.910
650.62	20.855
650.94	19.444
651.27	20.484
651.60	20.000
651.92	18.531
652.25	17.584
652.58	21.500
652.90	18.182
653.23	17.983
653.56	16.413
653.88	20.103
654.21	17.513
654.54	20.034
654.86	19.015
655.19	17.690
655.52	19.892
655.84	18.676
656.17	20.923
656.49	27.669
656.82	28.177
657.15	21.147
657.47	15.510
657.80	11.392
658.13	10.910
658.45	16.391
658.78	16.280
659.10	15.629
659.43	15.913
659.75	15.886
660.08	15.931
660.41	18.284
660.73	16.575
661.06	17.331
661.38	15.851
661.71	20.123
662.03	22.532
662.36	18.022
662.68	19.690
663.01	21.397
663.33	17.169
663.66	18.837
663.98	20.465
664.31	20.043
664.63	17.512
664.96	16.739
665.28	14.790
665.61	17.316
665.93	18.696
666.26	19.306
666.58	17.897
666.91	16.706
667.23	18.868
667.56	19.905
667.88	17.746
668.21	18.138
668.53	20.567
668.86	19.340
669.18	18.160
669.50	18.402
669.83	16.512
670.15	19.114
670.48	16.986
670.80	21.429
671.13	18.121
671.45	16.438
671.77	21.888
672.10	16.634
672.42	18.165
672.75	20.071
673.07	20.215
673.39	17.798
673.72	16.371
674.04	17.500
674.37	18.008
674.69	19.272
675.01	18.667
675.34	17.568
675.66	19.676
675.98	18.404
676.31	18.349
676.63	17.815
676.95	15.455
677.28	20.706
677.60	18.313
677.92	16.514
678.25	19.912
678.57	16.017
678.89	16.807
679.22	20.358
679.54	17.068
679.86	16.501
680.18	16.505
680.51	18.371
680.83	15.109
681.15	19.000
681.48	16.803
681.80	17.975
682.12	18.347
682.44	19.038
682.77	20.309
683.09	16.934
683.41	14.091
683.73	18.664
684.06	17.699
684.38	16.344
684.70	18.301
685.02	14.730
685.34	15.810
685.67	17.448
685.99	17.541
686.31	18.407
686.63	17.625
686.96	15.399
687.28	14.343
687.60	17.300
687.92	17.374
688.24	18.750
688.56	18.777
688.89	18.750
689.21	18.667
689.53	15.081
689.85	16.512
690.17	18.304
690.49	18.913
690.82	14.563
691.14	17.619
691.46	17.523
691.78	18.694
692.10	20.000
692.42	19.481
692.74	18.590
693.06	16.892
693.39	15.611
693.71	16.063
694.03	15.473
694.35	18.224
694.67	16.667
694.99	14.883
695.31	17.493
695.63	20.250
695.95	13.889
696.27	19.948
696.59	17.778
696.91	15.686
697.23	14.910
697.56	13.861
697.88	20.430
698.20	17.540
698.52	17.176
698.84	16.507
699.16	16.500
699.48	20.551
699.80	19.355
700.12	19.407
700.44	19.888
700.76	13.372
701.08	15.758
701.40	14.458
701.72	20.988
702.04	17.492
702.36	17.391
702.68	17.417
703.00	17.273
703.32	16.716
703.64	10.734
703.96	15.362
704.28	15.644
704.60	17.143
704.91	16.088
705.23	16.279
705.55	20.141
705.87	15.523
706.19	12.963
706.51	15.120
706.83	17.363
707.15	16.822
707.47	17.367
707.79	13.021
708.11	18.000
708.43	18.750
708.74	17.054
709.06	21.972
709.38	17.125
709.70	17.751
710.02	15.605
710.34	17.647
710.66	14.103
710.98	14.570
711.29	15.738
711.61	17.966
711.93	17.264
712.25	18.557
712.57	20.513
712.89	14.552
713.20	15.225
713.52	16.725
713.84	17.747
714.16	10.997
714.48	17.419
714.80	19.231
715.11	18.541
715.43	11.599
715.75	16.000
716.07	16.944
716.39	14.094
716.70	17.712
717.02	12.214
717.34	18.219
717.66	13.717
717.97	14.348
718.29	18.828
718.61	19.291
718.93	12.403
719.24	14.449
719.56	14.056
719.88	15.464
720.20	14.015
720.51	11.877
720.83	18.533
721.15	18.487
721.46	14.919
721.78	15.415
722.10	11.524
722.42	12.863
722.73	18.776
723.05	17.143
723.37	19.068
723.68	19.369
724.00	18.803
724.32	11.111
724.63	14.545
724.95	14.847
725.27	19.355
725.58	14.831
725.90	12.302
726.22	20.463
726.53	16.949
726.85	17.603
727.16	17.736
727.48	12.955
727.80	19.028
728.11	9.322
728.43	18.431
728.74	10.484
729.06	10.400
729.38	19.549
729.69	13.944
730.01	15.769
730.32	20.522
730.64	17.668
730.96	15.472
731.27	15.000
731.59	15.254
731.90	14.013
732.22	17.666
732.53	17.276
732.85	18.440
733.16	17.172
733.48	14.029
733.80	14.493
734.11	14.915
734.43	11.340
734.74	17.273
735.06	15.309
735.37	18.731
735.69	17.508
736.00	14.286
736.32	15.772
736.63	16.549
736.95	18.771
737.26	18.505
737.58	15.436
737.89	12.454
738.21	15.038
738.52	14.403
738.83	18.341
739.15	13.100
739.46	16.535
739.78	14.286
740.09	18.954
740.41	16.304
740.72	12.205
741.04	17.814
741.35	14.043
741.66	12.322
741.98	15.306
742.29	11.881
742.61	12.042
742.92	7.583
743.23	11.574
743.55	16.290
743.86	11.005
744.18	12.440
744.49	12.766
744.80	14.130
745.12	17.647
745.43	12.683
745.74	20.312
746.06	12.683
746.37	19.895
746.68	16.114
747.00	14.894
747.31	17.910
747.62	13.107
747.94	22.488
748.25	16.832
748.56	16.940
748.88	15.707
749.19	15.957
749.50	14.286
749.82	8.491
750.13	15.596
750.44	17.669
750.75	18.657
751.07	18.613
751.38	18.774
751.69	10.588
752.01	23.256
752.32	14.741
752.63	16.601
752.94	12.931
753.26	16.318
753.57	12.670
753.88	14.602
754.19	11.667
754.51	7.025
754.82	13.765
755.13	21.667
755.44	17.339
755.75	17.578
756.07	17.510
756.38	16.604
756.69	14.559
757.00	15.333
757.31	16.340
757.63	18.293
757.94	15.000
758.25	13.973
758.56	13.830
758.87	14.164
759.18	16.511
759.50	15.636
759.81	19.732
760.12	17.419
760.43	17.576
760.74	17.901
761.05	14.462
761.36	16.193
761.67	18.182
761.99	15.646
762.30	13.455
762.61	17.391
762.92	14.027
763.23	10.360
763.54	14.486
763.85	17.797
764.16	16.183
764.47	10.887
764.78	17.582
765.10	17.845
765.41	15.142
765.72	13.968
766.03	9.774
766.34	13.504
766.65	21.116
766.96	17.172
767.27	11.170
767.58	12.069
767.89	16.312
768.20	18.182
768.51	18.681
768.82	16.749
769.13	14.286
769.44	15.451
769.75	8.219
770.06	19.828
770.37	18.750
770.68	6.091
770.99	12.217
771.30	19.118
771.61	15.385
771.92	18.534
772.23	14.286
772.54	15.591
772.85	10.494
773.16	19.101
773.47	26.144
773.78	11.765
774.09	12.575
774.39	6.667
774.70	15.924
775.01	20.000
775.32	17.143
775.63	6.612
775.94	12.977
776.25	16.535
776.56	12.500
776.87	5.769
777.18	11.111
777.48	12.069
777.79	11.304
778.10	13.333
778.41	12.613
778.72	10.317
779.03	22.556
779.34	12.766
779.65	10.274
779.95	14.384
780.26	11.724
780.57	15.447
780.88	16.535
781.19	12.931
781.50	15.504
781.80	14.793
782.11	6.918
782.42	15.385
782.73	6.475
783.04	22.222
783.34	10.417
783.65	-0.855
783.96	7.377
784.27	15.172
784.57	18.699
784.88	5.469
785.19	17.000
785.50	20.000
785.81	18.966
786.11	8.621
786.42	9.709
786.73	22.727
787.04	3.061
787.34	7.143
787.65	11.429
787.96	13.274
788.26	8.182
788.57	9.402
788.88	10.937
789.19	11.111
789.49	10.435
789.80	7.143
790.11	3.030
790.41	15.455
790.72	16.304
791.03	14.773
791.33	11.250
791.64	11.250
791.95	12.791
792.25	15.957
792.56	19.101
792.87	15.068
793.17	5.797
793.48	1.333
793.79	7.500
794.09	18.750
794.40	6.604
794.70	5.825
795.01	7.317
795.32	18.803
795.62	18.095
795.93	16.667
796.23	16.038
796.54	6.250
796.85	10.294
797.15	18.310
797.46	15.278
797.76	16.667
798.07	16.279
798.37	17.105
798.68	13.636
798.99	18.519
799.29	7.143
799.60	5.797
799.90	17.333
800.21	16.393
800.51	6.154
800.82	8.475
801.12	28.986
801.43	27.869
801.73	4.762
802.04	8.000
802.34	10.448
802.65	11.538
802.95	10.714
803.26	9.615
803.56	9.804
803.87	-15.217
804.17	21.333
804.48	6.349
804.78	-16.667
805.09	6.522
805.39	-11.111
805.70	0.000
806.00	0.000
806.30	16.901
806.61	12.857
806.91	15.278
807.22	21.053
807.52	16.000
807.83	-20.000
808.13	0.000
808.43	10.294
808.74	5.970
809.04	11.864
809.35	5.769
809.65	10.938
809.95	-16.216
810.26	6.818
810.56	4.110
810.86	-16.667
811.17	10.000
811.47	18.367
811.77	2.632
812.08	9.091
812.38	28.302
812.69	-10.000
812.99	-6.061
813.29	0.000
813.59	-28.571
813.90	6.818
814.20	-15.385
814.50	13.462
814.81	20.755
815.11	-2.128
815.41	0.000
815.72	2.381
816.02	13.725
816.32	2.083
816.62	7.317
816.93	-5.405
817.23	0.000
817.53	27.083
817.84	-15.217
818.14	-7.692
818.44	-18.421
818.74	43.478
819.04	-2.500
819.35	21.622
819.65	-2.941
819.95	-5.556
820.25	-4.762
820.56	10.000
820.86	-48.276
821.16	47.500
821.46	27.660
821.76	10.000
822.07	-4.651
822.37	-13.514
822.67	15.625
822.97	4.762
823.27	-17.857
823.57	4.000
823.88	-14.815
824.18	-10.714
824.48	2.941
824.78	0.000
825.08	21.739
825.38	21.212
825.69	-29.167
825.99	5.263
826.29	-41.667
826.59	-13.333
826.89	-66.667
827.19	4.348
827.49	5.000
827.79	17.143
828.09	14.286
828.39	12.121
828.70	56.757
829.00	-14.286
829.30	-57.143
829.60	0.000
829.90	3.125
830.20	2.632
830.50	18.519
830.80	-34.783
831.10	-9.091
831.40	6.061
831.70	19.355
832.00	19.048
832.30	-52.381
832.60	-33.333
832.90	-6.897
833.20	-35.000
833.50	-12.121
833.80	14.815
834.10	-23.077
834.40	3.125
834.70	-133.333
835.00	31.579
835.30	19.231
835.60	-6.667
835.90	25.806
836.20	4.545
836.50	7.143
836.80	-23.077
837.10	-7.143
837.40	-133.333
837.70	-27.273
838.00	-72.727
838.30	4.348
838.60	38.462
838.90	13.636
839.19	-17.857
839.49	30.000
839.79	-69.231
840.09	-25.000
840.39	14.286
840.69	35.714
840.99	0.000
841.29	-57.895
841.59	-80.000
841.88	-27.273
842.18	-130.000
842.48	-18.750
842.78	-26.667
843.08	3.704
843.38	-70.000
843.68	30.435
843.97	6.667
844.27	-40.000
844.57	0.000
844.87	0.000
845.17	-47.619
845.47	13.333
845.76	-28.571
846.06	-100.000
846.36	-50.000
846.66	-78.571
846.96	0.000
847.25	-125.000
847.55	-14.286
847.85	-100.000
848.15	-31.818
848.44	-800.000
848.74	10.000
849.04	37.037
849.34	-45.455
849.63	-166.667
849.93	-140.000
850.23	-38.889
850.53	0.000
850.82	-53.846
851.12	-66.667
851.42	13.333
851.71	-30.769
852.01	28.571
852.31	-75.000
852.61	-54.545
852.90	20.000
853.20	5.263
853.50	-58.333
853.79	-17.391
854.09	25.000
854.39	26.316
854.68	4.167
854.98	25.806
855.28	-19.231
855.57	15.000
855.87	-33.333
856.17	18.519
856.46	35.714
856.76	-13.333
857.05	-66.667
857.35	12.000
857.65	-22.222
857.94	-61.538
858.24	20.690
858.53	-11.111
858.83	18.519
859.13	-13.636
859.42	-39.130
859.72	-275.000
860.01	-333.333
860.31	28.000
860.60	-9.524
860.90	-300.000
861.20	-93.333
861.49	-600.000
861.79	33.333
862.08	15.000
862.38	60.000
862.67	-280.000
862.97	-233.333
863.26	-41.667
863.56	-5.556
863.85	-366.667
864.15	38.889
864.44	-80.000
864.74	92.857
865.03	300.000
865.33	-300.000
865.62	0.000
865.92	-58.333
866.21	-166.667
866.51	-6.250
866.80	-118.182
867.10	-500.000
867.39	66.667
867.69	0.000
867.98	-30.769
868.27	266.667
868.57	-6.667
868.86	38.889
869.16	-92.308
869.45	-40.000
869.75	-1100.000
870.04	0.000
870.33	-142.857
870.63	-4.762
870.92	333.333
871.22	-160.000
871.51	-1500.000
871.80	55.556
872.10	400.000
>>>>>End Processed Spectral Data<<<<<
