SpectraSuite Data File
++++++++++++++++++++++++++++++++++++
Date: Fri May 15 20:46:46 PDT 2015
User: schluterlab
Dark Spectrum Present: Yes
Reference Spectrum Present: Yes
Number of Sampled Component Spectra: 1
Spectrometers: USB2E3373
Integration Time (usec): 3000 (USB2E3373)
Spectra Averaged: 3 (USB2E3373)
Boxcar Smoothing: 0 (USB2E3373)
Correct for Electrical Dark: No (USB2E3373)
Strobe/Lamp Enabled: No (USB2E3373)
Correct for Detector Non-linearity: No (USB2E3373)
Correct for Stray Light: No (USB2E3373)
Number of Pixels in Processed Spectrum: 2048
>>>>>Begin Processed Spectral Data<<<<<
178.53	0.000
178.91	0.000
179.29	50.000
179.67	-500.000
180.04	42.857
180.42	-150.000
180.80	-1100.000
181.18	333.333
181.56	450.000
181.94	-50.000
182.31	400.000
182.69	-200.000
183.07	-166.667
183.45	-140.000
183.83	116.667
184.20	-9.091
184.58	155.556
184.96	-100.000
185.34	533.333
185.72	-600.000
186.09	107.692
186.47	-1200.000
186.85	200.000
187.23	111.111
187.61	1200.000
187.98	-233.333
188.36	-33.333
188.74	-333.333
189.12	-11.765
189.49	-33.333
189.87	0.000
190.25	-28.571
190.63	150.000
191.00	-166.667
191.38	-26.316
191.76	200.000
192.14	100.000
192.51	150.000
192.89	-66.667
193.27	-185.714
193.65	216.667
194.02	127.273
194.40	10.000
194.78	-250.000
195.15	-116.667
195.53	-75.000
195.91	375.000
196.29	-250.000
196.66	192.308
197.04	142.857
197.42	-11.111
197.79	-66.667
198.17	-146.154
198.55	900.000
198.92	-433.333
199.30	-500.000
199.68	-140.000
200.05	-500.000
200.43	0.000
200.81	33.333
201.18	-300.000
201.56	1500.000
201.94	-250.000
202.31	200.000
202.69	-220.000
203.07	-0.000
203.44	-300.000
203.82	0.000
204.19	14.286
204.57	-533.333
204.95	137.500
205.32	-10.000
205.70	14.286
206.08	-225.000
206.45	133.333
206.83	-21.429
207.20	-128.571
207.58	1200.000
207.96	-100.000
208.33	-110.000
208.71	25.000
209.08	-233.333
209.46	-1400.000
209.84	0.000
210.21	-900.000
210.59	57.143
210.96	-116.667
211.34	-100.000
211.71	40.000
212.09	-200.000
212.46	-1700.000
212.84	0.000
213.22	-30.000
213.59	750.000
213.97	-23.077
214.34	18.182
214.72	-50.000
215.09	300.000
215.47	-30.769
215.84	9.091
216.22	-333.333
216.59	-62.500
216.97	-300.000
217.34	-175.000
217.72	-160.000
218.09	-100.000
218.47	137.500
218.84	-1900.000
219.22	-155.556
219.59	-100.000
219.97	466.667
220.34	175.000
220.72	-71.429
221.09	-175.000
221.47	0.000
221.84	-450.000
222.22	-850.000
222.59	36.364
222.97	-8.333
223.34	133.333
223.72	-42.857
224.09	0.000
224.46	-10.714
224.84	566.667
225.21	-20.000
225.59	46.667
225.96	-850.000
226.34	350.000
226.71	-100.000
227.08	-66.667
227.46	-50.000
227.83	-450.000
228.21	-11.111
228.58	18.182
228.95	0.000
229.33	180.000
229.70	-31.250
230.08	-125.000
230.45	-157.143
230.82	-114.286
231.20	-66.667
231.57	42.857
231.95	-42.857
232.32	-110.000
232.69	-50.000
233.07	-200.000
233.44	-80.000
233.81	30.000
234.19	0.000
234.56	-23.529
234.93	800.000
235.31	-50.000
235.68	-380.000
236.05	-138.462
236.43	-25.000
236.80	0.000
237.17	-6.250
237.55	-35.000
237.92	-3.704
238.29	-22.222
238.67	-30.000
239.04	-20.588
239.41	-39.024
239.79	-20.000
240.16	12.195
240.53	26.316
240.91	-19.565
241.28	6.349
241.65	17.857
242.02	9.589
242.40	-1.667
242.77	-1.695
243.14	3.030
243.51	8.750
243.89	24.138
244.26	-5.747
244.63	9.524
245.00	9.278
245.38	12.371
245.75	-7.865
246.12	6.034
246.49	7.438
246.87	11.538
247.24	0.840
247.61	0.000
247.98	4.878
248.36	9.375
248.73	17.763
249.10	12.987
249.47	5.696
249.84	7.190
250.22	8.824
250.59	6.536
250.96	17.840
251.33	11.628
251.70	10.588
252.08	8.122
252.45	8.416
252.82	13.065
253.19	14.747
253.56	7.944
253.94	11.712
254.31	10.870
254.68	10.526
255.05	9.449
255.42	6.114
255.79	11.197
256.16	8.171
256.54	14.552
256.91	11.787
257.28	12.268
257.65	8.614
258.02	11.348
258.39	13.805
258.76	15.018
259.14	9.302
259.51	12.945
259.88	9.622
260.25	11.765
260.62	11.806
260.99	7.458
261.36	8.562
261.73	5.380
262.10	13.374
262.47	11.350
262.85	9.404
263.22	10.462
263.59	11.526
263.96	14.596
264.33	11.818
264.70	13.988
265.07	10.417
265.44	9.065
265.81	11.017
266.18	10.383
266.55	11.311
266.92	12.435
267.29	11.749
267.66	12.788
268.03	8.639
268.40	12.533
268.77	13.369
269.14	10.072
269.51	11.568
269.88	11.222
270.25	10.204
270.62	13.171
270.99	13.299
271.36	10.024
271.73	13.615
272.10	12.895
272.47	11.348
272.84	10.891
273.21	11.601
273.58	11.566
273.95	12.128
274.32	10.393
274.69	9.502
275.06	12.946
275.43	10.884
275.80	11.921
276.17	10.575
276.54	10.493
276.91	11.842
277.28	11.135
277.65	12.190
278.02	12.340
278.39	10.066
278.76	11.321
279.13	9.336
279.50	12.185
279.87	12.743
280.23	9.462
280.60	11.501
280.97	11.717
281.34	8.654
281.71	12.731
282.08	9.202
282.45	9.980
282.82	9.846
283.19	10.832
283.56	11.753
283.92	8.159
284.29	10.192
284.66	8.915
285.03	8.644
285.40	9.830
285.77	9.666
286.14	10.108
286.51	12.915
286.87	9.872
287.24	9.945
287.61	10.582
287.98	11.053
288.35	10.399
288.72	11.559
289.08	9.896
289.45	9.842
289.82	8.042
290.19	8.703
290.56	8.748
290.93	10.943
291.29	8.475
291.66	10.236
292.03	9.729
292.40	10.968
292.77	10.048
293.13	7.143
293.50	7.891
293.87	8.092
294.24	8.964
294.60	9.687
294.97	9.970
295.34	6.748
295.71	7.452
296.08	10.015
296.44	6.259
296.81	8.889
297.18	10.725
297.55	10.705
297.91	9.178
298.28	9.103
298.65	9.227
299.02	8.760
299.38	6.566
299.75	6.759
300.12	6.806
300.48	7.378
300.85	8.872
301.22	7.662
301.59	7.763
301.95	9.114
302.32	11.673
302.69	8.955
303.05	7.921
303.42	9.465
303.79	7.827
304.15	10.633
304.52	6.302
304.89	6.901
305.25	8.111
305.62	6.884
305.99	8.304
306.35	7.283
306.72	7.424
307.09	8.324
307.45	9.414
307.82	6.944
308.19	8.014
308.55	8.942
308.92	8.824
309.29	8.268
309.65	8.827
310.02	9.241
310.38	9.111
310.75	9.727
311.12	8.611
311.48	8.484
311.85	7.539
312.22	9.388
312.58	9.023
312.95	8.645
313.31	7.867
313.68	8.901
314.05	8.878
314.41	9.072
314.78	10.206
315.14	10.894
315.51	10.041
315.87	9.939
316.24	10.617
316.61	11.417
316.97	12.202
317.34	10.742
317.70	11.281
318.07	12.596
318.43	12.549
318.80	11.553
319.16	13.379
319.53	12.631
319.89	12.402
320.26	12.652
320.62	13.039
320.99	12.735
321.35	12.436
321.72	13.396
322.08	13.696
322.45	15.127
322.81	14.538
323.18	14.328
323.54	13.900
323.91	15.190
324.27	15.820
324.64	15.356
325.00	15.328
325.37	17.172
325.73	15.956
326.10	16.621
326.46	17.220
326.83	17.060
327.19	16.652
327.56	18.245
327.92	18.046
328.29	18.125
328.65	17.925
329.01	17.096
329.38	17.696
329.74	17.941
330.11	18.906
330.47	17.718
330.84	17.885
331.20	20.247
331.56	17.778
331.93	19.361
332.29	19.340
332.66	19.457
333.02	19.610
333.38	18.973
333.75	18.956
334.11	18.442
334.48	19.946
334.84	20.147
335.20	18.298
335.57	19.855
335.93	19.783
336.29	20.074
336.66	18.619
337.02	19.145
337.38	19.074
337.75	20.455
338.11	19.206
338.47	20.255
338.84	20.148
339.20	18.830
339.56	19.817
339.93	21.218
340.29	21.468
340.65	21.147
341.02	20.035
341.38	18.761
341.74	19.435
342.11	17.504
342.47	20.285
342.83	20.069
343.20	19.861
343.56	20.348
343.92	19.841
344.28	21.349
344.65	18.826
345.01	20.052
345.37	20.437
345.73	20.921
346.10	20.535
346.46	19.849
346.82	19.885
347.19	19.368
347.55	20.384
347.91	20.955
348.27	20.291
348.63	19.932
349.00	20.919
349.36	20.366
349.72	20.647
350.08	19.918
350.45	21.069
350.81	19.435
351.17	19.137
351.53	21.796
351.89	21.222
352.26	19.840
352.62	21.210
352.98	20.080
353.34	19.807
353.70	21.521
354.07	19.274
354.43	20.416
354.79	19.736
355.15	21.746
355.51	21.044
355.87	21.197
356.24	20.555
356.60	21.746
356.96	21.349
357.32	19.968
357.68	20.719
358.04	20.355
358.40	20.981
358.77	20.415
359.13	20.496
359.49	20.724
359.85	21.061
360.21	21.451
360.57	21.270
360.93	20.197
361.29	20.619
361.66	20.768
362.02	21.364
362.38	21.706
362.74	21.347
363.10	21.445
363.46	20.979
363.82	21.788
364.18	20.590
364.54	20.588
364.90	20.932
365.26	21.907
365.62	22.263
365.98	21.701
366.35	22.141
366.71	21.729
367.07	22.134
367.43	21.280
367.79	21.413
368.15	21.464
368.51	22.360
368.87	20.459
369.23	21.733
369.59	22.668
369.95	21.701
370.31	22.038
370.67	22.090
371.03	21.658
371.39	22.028
371.75	22.271
372.11	22.397
372.47	23.669
372.83	23.279
373.19	22.896
373.55	21.444
373.91	22.102
374.27	22.750
374.63	22.900
374.99	21.348
375.35	23.329
375.71	23.357
376.07	22.612
376.42	23.265
376.78	23.221
377.14	22.884
377.50	23.041
377.86	23.159
378.22	22.846
378.58	22.949
378.94	22.999
379.30	23.955
379.66	23.448
380.02	22.747
380.38	23.372
380.74	22.980
381.09	24.172
381.45	22.752
381.81	23.134
382.17	24.365
382.53	23.673
382.89	23.854
383.25	24.518
383.61	24.939
383.97	24.190
384.32	23.265
384.68	23.777
385.04	24.203
385.40	24.642
385.76	24.717
386.12	24.127
386.48	24.202
386.83	24.477
387.19	24.237
387.55	23.777
387.91	25.061
388.27	24.908
388.62	25.488
388.98	24.125
389.34	24.984
389.70	24.487
390.06	25.047
390.42	24.741
390.77	24.133
391.13	23.834
391.49	24.127
391.85	25.341
392.20	24.733
392.56	23.713
392.92	24.545
393.28	24.646
393.64	25.105
393.99	25.768
394.35	24.605
394.71	25.096
395.07	25.141
395.42	23.679
395.78	25.603
396.14	25.284
396.50	23.843
396.85	25.370
397.21	25.439
397.57	25.329
397.92	24.626
398.28	25.057
398.64	24.337
399.00	25.169
399.35	23.589
399.71	24.871
400.07	25.212
400.42	24.663
400.78	25.903
401.14	25.771
401.49	25.610
401.85	25.289
402.21	24.819
402.57	25.000
402.92	24.090
403.28	25.125
403.63	26.230
403.99	24.681
404.35	26.109
404.70	24.345
405.06	24.677
405.42	25.544
405.77	24.869
406.13	24.098
406.49	25.459
406.84	25.061
407.20	25.828
407.55	23.889
407.91	25.201
408.27	25.112
408.62	25.292
408.98	24.769
409.34	25.589
409.69	24.742
410.05	25.062
410.40	24.568
410.76	25.633
411.11	25.687
411.47	24.721
411.83	23.980
412.18	24.710
412.54	24.657
412.89	24.692
413.25	24.910
413.60	25.155
413.96	25.644
414.31	24.878
414.67	24.567
415.03	24.567
415.38	25.065
415.74	25.798
416.09	25.800
416.45	25.523
416.80	24.785
417.16	24.862
417.51	25.383
417.87	24.902
418.22	24.870
418.58	24.816
418.93	25.016
419.29	23.880
419.64	24.174
420.00	25.630
420.35	23.881
420.71	24.909
421.06	25.660
421.42	26.623
421.77	24.855
422.12	24.688
422.48	25.609
422.83	25.638
423.19	24.153
423.54	24.162
423.90	25.088
424.25	25.029
424.61	25.887
424.96	24.739
425.31	25.477
425.67	25.059
426.02	25.854
426.38	24.796
426.73	25.303
427.09	25.253
427.44	25.882
427.79	25.457
428.15	24.515
428.50	24.470
428.85	24.017
429.21	25.014
429.56	25.175
429.92	24.705
430.27	24.561
430.62	24.203
430.98	25.106
431.33	25.868
431.68	24.699
432.04	25.266
432.39	24.130
432.74	24.835
433.10	25.115
433.45	24.970
433.80	25.305
434.16	24.488
434.51	25.323
434.86	25.319
435.22	25.799
435.57	24.579
435.92	24.850
436.28	25.224
436.63	24.701
436.98	24.623
437.34	25.650
437.69	25.045
438.04	25.299
438.39	24.252
438.75	25.683
439.10	24.844
439.45	24.954
439.81	25.260
440.16	25.000
440.51	26.388
440.86	25.861
441.22	25.000
441.57	25.110
441.92	26.548
442.27	25.721
442.63	26.017
442.98	25.617
443.33	25.376
443.68	24.138
444.03	25.584
444.39	24.939
444.74	25.530
445.09	25.780
445.44	25.641
445.79	26.302
446.15	24.780
446.50	25.180
446.85	26.036
447.20	25.443
447.55	26.283
447.91	25.212
448.26	25.441
448.61	25.446
448.96	25.244
449.31	25.491
449.66	25.436
450.02	25.043
450.37	24.600
450.72	24.742
451.07	26.013
451.42	24.906
451.77	25.558
452.12	25.897
452.47	25.563
452.83	25.206
453.18	25.933
453.53	25.537
453.88	25.622
454.23	25.077
454.58	26.448
454.93	26.289
455.28	23.873
455.63	25.356
455.98	26.158
456.34	26.054
456.69	25.604
457.04	24.764
457.39	25.456
457.74	24.788
458.09	24.779
458.44	25.336
458.79	25.434
459.14	26.201
459.49	25.134
459.84	25.663
460.19	25.121
460.54	25.917
460.89	24.659
461.24	24.472
461.59	25.119
461.94	24.654
462.29	26.055
462.64	25.116
462.99	25.186
463.34	25.243
463.69	25.032
464.04	26.513
464.39	25.045
464.74	24.540
465.09	25.515
465.44	25.101
465.79	24.150
466.14	25.941
466.49	25.244
466.84	25.580
467.19	24.969
467.54	25.543
467.89	23.879
468.24	23.723
468.59	23.746
468.94	24.952
469.29	24.656
469.64	25.701
469.99	25.508
470.34	23.481
470.68	26.100
471.03	26.327
471.38	25.107
471.73	25.420
472.08	25.102
472.43	24.362
472.78	23.646
473.13	24.286
473.48	24.365
473.83	24.346
474.17	25.712
474.52	24.123
474.87	24.364
475.22	25.076
475.57	24.167
475.92	25.014
476.27	25.262
476.61	25.347
476.96	24.373
477.31	24.932
477.66	24.944
478.01	24.649
478.36	24.237
478.70	24.687
479.05	25.330
479.40	24.960
479.75	24.557
480.10	24.117
480.45	24.550
480.79	24.622
481.14	24.641
481.49	24.483
481.84	24.035
482.19	23.994
482.53	23.837
482.88	24.200
483.23	23.273
483.58	23.915
483.92	23.379
484.27	23.838
484.62	23.935
484.97	22.305
485.31	23.194
485.66	22.112
486.01	22.785
486.36	22.684
486.70	22.739
487.05	23.364
487.40	23.216
487.75	23.183
488.09	23.115
488.44	23.212
488.79	23.048
489.13	23.838
489.48	23.643
489.83	23.453
490.17	22.607
490.52	22.725
490.87	23.230
491.22	23.734
491.56	22.913
491.91	22.706
492.26	22.849
492.60	24.376
492.95	24.397
493.30	22.863
493.64	23.134
493.99	23.720
494.34	23.107
494.68	23.333
495.03	22.190
495.37	23.749
495.72	23.322
496.07	23.805
496.41	22.877
496.76	23.031
497.11	22.497
497.45	23.341
497.80	23.814
498.14	22.255
498.49	23.057
498.84	22.804
499.18	22.641
499.53	23.165
499.87	22.617
500.22	23.145
500.56	22.491
500.91	22.189
501.26	22.294
501.60	22.430
501.95	22.659
502.29	22.567
502.64	22.539
502.98	22.694
503.33	21.950
503.67	22.217
504.02	22.336
504.36	22.909
504.71	22.121
505.06	22.899
505.40	22.030
505.75	22.680
506.09	22.098
506.44	22.587
506.78	22.653
507.13	23.113
507.47	21.201
507.82	21.955
508.16	22.345
508.51	22.665
508.85	22.868
509.19	21.820
509.54	22.306
509.88	21.845
510.23	23.077
510.57	22.662
510.92	21.322
511.26	21.822
511.61	21.507
511.95	22.137
512.30	22.561
512.64	22.315
512.98	22.066
513.33	22.048
513.67	22.172
514.02	22.197
514.36	22.686
514.70	23.193
515.05	22.973
515.39	21.429
515.74	23.533
516.08	22.056
516.42	22.379
516.77	22.703
517.11	21.899
517.46	23.220
517.80	22.646
518.14	22.352
518.49	21.935
518.83	21.750
519.17	22.195
519.52	21.610
519.86	21.849
520.20	22.296
520.55	21.326
520.89	21.957
521.23	21.723
521.58	23.596
521.92	21.282
522.26	21.861
522.61	20.844
522.95	21.457
523.29	21.919
523.64	22.745
523.98	22.100
524.32	20.683
524.66	22.855
525.01	22.597
525.35	21.841
525.69	21.549
526.04	20.833
526.38	22.438
526.72	21.779
527.06	21.595
527.41	21.966
527.75	21.314
528.09	21.794
528.43	21.877
528.78	21.320
529.12	21.226
529.46	20.923
529.80	20.709
530.15	21.980
530.49	21.616
530.83	20.930
531.17	20.484
531.51	21.614
531.86	20.938
532.20	20.598
532.54	21.035
532.88	21.492
533.22	21.102
533.57	21.035
533.91	20.431
534.25	21.484
534.59	20.590
534.93	20.642
535.27	21.129
535.62	21.063
535.96	21.331
536.30	20.910
536.64	21.296
536.98	20.697
537.32	21.124
537.66	21.669
538.01	20.909
538.35	19.764
538.69	20.573
539.03	19.891
539.37	21.265
539.71	20.518
540.05	19.891
540.39	19.460
540.73	19.386
541.07	20.373
541.42	20.833
541.76	20.853
542.10	20.578
542.44	20.361
542.78	19.477
543.12	18.407
543.46	20.376
543.80	19.778
544.14	18.692
544.48	19.853
544.82	19.959
545.16	20.014
545.50	19.826
545.84	20.184
546.18	20.071
546.52	19.755
546.86	19.410
547.20	19.814
547.54	18.728
547.88	20.584
548.22	19.066
548.56	19.723
548.90	20.418
549.24	18.939
549.58	20.240
549.92	19.657
550.26	19.487
550.60	19.257
550.94	20.463
551.28	19.088
551.62	19.538
551.96	19.699
552.30	19.152
552.64	19.394
552.98	19.620
553.32	18.046
553.66	18.940
554.00	19.708
554.34	19.129
554.68	18.142
555.02	18.676
555.36	18.100
555.69	18.242
556.03	18.059
556.37	19.217
556.71	18.989
557.05	19.016
557.39	19.331
557.73	19.565
558.07	18.024
558.41	18.606
558.75	18.316
559.08	19.622
559.42	19.206
559.76	17.934
560.10	18.654
560.44	18.615
560.78	18.811
561.12	17.701
561.45	18.201
561.79	17.507
562.13	19.163
562.47	17.842
562.81	18.012
563.15	17.630
563.48	17.539
563.82	18.737
564.16	17.409
564.50	17.635
564.84	18.541
565.17	17.639
565.51	17.964
565.85	17.970
566.19	18.634
566.52	18.164
566.86	18.445
567.20	18.244
567.54	17.214
567.88	18.161
568.21	17.817
568.55	16.902
568.89	17.659
569.23	17.573
569.56	17.163
569.90	17.621
570.24	16.636
570.57	16.691
570.91	17.114
571.25	16.376
571.59	16.070
571.92	16.207
572.26	15.368
572.60	16.062
572.93	16.285
573.27	15.455
573.61	15.543
573.95	16.002
574.28	16.102
574.62	15.739
574.96	15.308
575.29	15.674
575.63	15.626
575.97	15.478
576.30	15.800
576.64	15.073
576.98	15.521
577.31	15.507
577.65	15.436
577.98	15.448
578.32	15.412
578.66	15.066
578.99	15.185
579.33	15.239
579.67	14.913
580.00	15.139
580.34	14.950
580.67	15.035
581.01	15.178
581.35	15.418
581.68	15.351
582.02	14.810
582.35	15.005
582.69	14.901
583.02	14.719
583.36	15.164
583.70	15.031
584.03	15.374
584.37	15.048
584.70	15.549
585.04	14.689
585.37	15.160
585.71	14.688
586.04	14.776
586.38	14.724
586.72	15.065
587.05	15.425
587.39	15.292
587.72	15.391
588.06	14.503
588.39	15.209
588.73	14.591
589.06	15.232
589.40	15.486
589.73	15.115
590.07	15.559
590.40	15.325
590.73	15.486
591.07	14.673
591.40	15.450
591.74	14.887
592.07	15.816
592.41	15.415
592.74	14.735
593.08	14.286
593.41	15.025
593.75	14.328
594.08	14.143
594.41	14.629
594.75	14.542
595.08	14.567
595.42	14.354
595.75	14.795
596.09	15.246
596.42	15.130
596.75	14.565
597.09	14.396
597.42	14.679
597.75	14.521
598.09	14.803
598.42	14.260
598.76	13.943
599.09	14.944
599.42	14.058
599.76	14.259
600.09	14.140
600.42	14.405
600.76	14.116
601.09	14.198
601.42	13.905
601.76	14.331
602.09	14.068
602.42	14.785
602.76	14.516
603.09	14.369
603.42	14.883
603.76	13.952
604.09	13.811
604.42	14.129
604.76	14.820
605.09	14.351
605.42	13.950
605.75	14.536
606.09	13.970
606.42	13.511
606.75	14.675
607.09	14.462
607.42	14.178
607.75	13.632
608.08	13.477
608.42	13.659
608.75	14.699
609.08	13.652
609.41	14.213
609.75	14.365
610.08	13.829
610.41	13.768
610.74	13.603
611.07	14.212
611.41	13.752
611.74	14.392
612.07	13.490
612.40	14.661
612.73	14.520
613.07	13.442
613.40	14.661
613.73	14.102
614.06	13.968
614.39	13.988
614.72	13.333
615.06	13.408
615.39	13.428
615.72	13.079
616.05	13.687
616.38	12.365
616.71	13.456
617.05	14.700
617.38	14.708
617.71	12.893
618.04	14.222
618.37	14.061
618.70	13.399
619.03	14.375
619.36	13.676
619.69	14.556
620.03	14.974
620.36	13.519
620.69	14.490
621.02	13.532
621.35	14.523
621.68	15.051
622.01	14.667
622.34	14.685
622.67	13.959
623.00	13.936
623.33	13.186
623.66	13.613
623.99	14.523
624.32	13.992
624.65	13.534
624.99	13.394
625.32	13.343
625.65	14.690
625.98	14.182
626.31	13.217
626.64	13.692
626.97	14.834
627.30	13.310
627.63	16.031
627.96	14.106
628.29	14.431
628.62	14.848
628.95	14.529
629.28	13.710
629.61	13.559
629.94	14.858
630.26	14.921
630.59	14.984
630.92	14.154
631.25	13.846
631.58	15.198
631.91	13.158
632.24	12.959
632.57	14.886
632.90	12.693
633.23	13.765
633.56	13.854
633.89	13.933
634.22	15.185
634.55	13.469
634.88	13.410
635.20	14.359
635.53	13.333
635.86	12.744
636.19	13.195
636.52	14.668
636.85	13.400
637.18	12.704
637.51	13.836
637.83	14.323
638.16	14.461
638.49	12.807
638.82	16.579
639.15	14.247
639.48	13.343
639.81	12.971
640.13	13.853
640.46	13.265
640.79	14.286
641.12	14.032
641.45	13.514
641.77	14.963
642.10	16.746
642.43	13.826
642.76	16.007
643.09	13.893
643.41	11.650
643.74	13.509
644.07	14.122
644.40	16.047
644.73	14.361
645.05	14.094
645.38	12.875
645.71	14.362
646.04	15.081
646.36	14.894
646.69	16.007
647.02	15.312
647.35	13.433
647.67	12.797
648.00	13.806
648.33	16.041
648.66	15.593
648.98	12.395
649.31	11.074
649.64	12.716
649.96	14.587
650.29	12.266
650.62	13.504
650.94	13.519
651.27	12.291
651.60	14.414
651.92	13.811
652.25	12.789
652.58	13.667
652.90	14.580
653.23	13.109
653.56	12.690
653.88	13.402
654.21	14.011
654.54	13.922
654.86	13.073
655.19	11.842
655.52	14.551
655.84	12.117
656.17	12.901
656.49	17.318
656.82	17.853
657.15	13.547
657.47	9.948
657.80	7.422
658.13	7.288
658.45	11.498
658.78	11.728
659.10	11.672
659.43	11.971
659.75	12.383
660.08	11.448
660.41	12.768
660.73	13.122
661.06	13.345
661.38	11.742
661.71	11.499
662.03	14.807
662.36	13.626
662.68	12.168
663.01	15.066
663.33	12.065
663.66	13.721
663.98	11.163
664.31	13.646
664.63	13.134
664.96	12.391
665.28	11.479
665.61	13.636
665.93	13.478
666.26	13.232
666.58	12.304
666.91	13.882
667.23	14.151
667.56	14.455
667.88	15.108
668.21	12.411
668.53	13.475
668.86	15.094
669.18	11.557
669.50	12.349
669.83	12.791
670.15	14.918
670.48	12.440
670.80	14.055
671.13	12.081
671.45	11.872
671.77	13.090
672.10	12.673
672.42	11.798
672.75	13.321
673.07	14.311
673.39	15.229
673.72	10.848
674.04	10.417
674.37	13.559
674.69	13.276
675.01	13.778
675.34	13.739
675.66	13.889
675.98	15.965
676.31	14.908
676.63	11.401
676.95	12.045
677.28	14.588
677.60	13.735
677.92	11.927
678.25	13.348
678.57	9.307
678.89	12.395
679.22	13.647
679.54	12.651
679.86	9.543
680.18	12.621
680.51	12.311
680.83	10.537
681.15	12.400
681.48	17.213
681.80	10.331
682.12	11.089
682.44	12.134
682.77	11.038
683.09	11.213
683.41	13.409
683.73	13.825
684.06	12.832
684.38	9.032
684.70	14.815
685.02	11.411
685.34	11.067
685.67	10.882
685.99	12.297
686.31	13.274
686.63	12.245
686.96	13.118
687.28	9.697
687.60	10.266
687.92	13.939
688.24	11.089
688.56	11.572
688.89	13.839
689.21	13.111
689.53	11.833
689.85	10.465
690.17	12.277
690.49	13.948
690.82	13.107
691.14	10.714
691.46	11.916
691.78	11.036
692.10	15.914
692.42	11.039
692.74	11.111
693.06	10.586
693.39	11.765
693.71	10.407
694.03	11.316
694.35	15.654
694.67	11.111
694.99	11.227
695.31	12.794
695.63	12.000
695.95	8.586
696.27	11.140
696.59	13.889
696.91	10.364
697.23	8.483
697.56	11.881
697.88	12.903
698.20	11.390
698.52	12.000
698.84	9.569
699.16	9.250
699.48	12.030
699.80	12.159
700.12	13.208
700.44	11.485
700.76	11.337
701.08	10.303
701.40	12.349
701.72	13.580
702.04	8.581
702.36	8.361
702.68	13.213
703.00	10.606
703.32	12.317
703.64	8.757
703.96	11.594
704.28	10.123
704.60	13.333
704.91	7.571
705.23	11.960
705.55	9.541
705.87	12.635
706.19	8.889
706.51	12.027
706.83	11.897
707.15	7.477
707.47	10.084
707.79	11.458
708.11	13.250
708.43	12.000
708.74	10.853
709.06	12.958
709.38	13.150
709.70	9.467
710.02	11.783
710.34	13.622
710.66	6.090
710.98	12.252
711.29	9.508
711.61	10.169
711.93	13.681
712.25	13.746
712.57	8.059
712.89	12.313
713.20	12.803
713.52	11.847
713.84	10.239
714.16	7.560
714.48	9.677
714.80	11.859
715.11	10.030
715.43	9.404
715.75	10.667
716.07	8.970
716.39	10.067
716.70	9.963
717.02	7.634
717.34	12.146
717.66	6.637
717.97	10.000
718.29	15.481
718.61	9.843
718.93	9.302
719.24	11.407
719.56	11.647
719.88	9.966
720.20	9.091
720.51	9.195
720.83	10.811
721.15	7.143
721.46	14.516
721.78	4.743
722.10	11.152
722.42	4.149
722.73	9.796
723.05	13.469
723.37	13.559
723.68	9.910
724.00	15.385
724.32	4.444
724.63	9.545
724.95	11.790
725.27	5.069
725.58	13.136
725.90	10.714
726.22	9.266
726.53	14.576
726.85	13.858
727.16	13.208
727.48	5.263
727.80	10.931
728.11	10.169
728.43	12.157
728.74	6.855
729.06	12.000
729.38	13.158
729.69	7.570
730.01	4.615
730.32	18.284
730.64	10.954
730.96	12.830
731.27	12.000
731.59	8.475
731.90	9.873
732.22	14.511
732.53	13.621
732.85	9.574
733.16	11.785
733.48	7.194
733.80	7.609
734.11	5.424
734.43	9.278
734.74	12.424
735.06	10.098
735.37	11.782
735.69	11.448
736.00	8.711
736.32	11.745
736.63	8.451
736.95	13.993
737.26	4.626
737.58	7.383
737.89	10.989
738.21	14.662
738.52	13.992
738.83	6.987
739.15	3.493
739.46	11.024
739.78	5.128
740.09	8.497
740.41	13.768
740.72	5.118
741.04	9.312
741.35	10.638
741.66	9.953
741.98	12.245
742.29	11.386
742.61	9.948
742.92	0.948
743.23	4.167
743.55	10.407
743.86	7.177
744.18	11.483
744.49	8.511
744.80	4.348
745.12	13.904
745.43	6.341
745.74	10.417
746.06	11.220
746.37	13.089
746.68	14.692
747.00	9.574
747.31	14.925
747.62	10.194
747.94	9.091
748.25	10.891
748.56	4.918
748.88	6.283
749.19	10.638
749.50	10.837
749.82	2.358
750.13	9.174
750.44	11.654
750.75	10.821
751.07	11.314
751.38	8.429
751.69	5.098
752.01	13.953
752.32	5.976
752.63	7.115
752.94	4.741
753.26	16.736
753.57	8.597
753.88	7.965
754.19	7.500
754.51	7.438
754.82	6.883
755.13	10.417
755.44	9.274
755.75	13.281
756.07	8.949
756.38	7.547
756.69	6.897
757.00	12.667
757.31	7.843
757.63	7.317
757.94	6.667
758.25	8.493
758.56	10.372
758.87	8.215
759.18	8.411
759.50	9.091
759.81	8.027
760.12	7.742
760.43	8.788
760.74	11.420
761.05	9.231
761.36	10.227
761.67	13.030
761.99	10.884
762.30	6.909
762.61	9.881
762.92	10.407
763.23	7.207
763.54	8.411
763.85	11.017
764.16	8.714
764.47	9.274
764.78	9.524
765.10	12.795
765.41	5.994
765.72	10.476
766.03	1.880
766.34	12.044
766.65	10.359
766.96	5.556
767.27	9.043
767.58	5.172
767.89	-4.255
768.20	9.659
768.51	10.989
768.82	8.374
769.13	3.687
769.44	6.438
769.75	3.196
770.06	16.810
770.37	11.538
770.68	10.152
770.99	9.955
771.30	6.863
771.61	5.882
771.92	9.914
772.23	13.300
772.54	6.452
772.85	9.259
773.16	12.360
773.47	14.379
773.78	13.072
774.09	2.994
774.39	5.333
774.70	10.828
775.01	10.345
775.32	14.286
775.63	0.826
775.94	9.160
776.25	4.724
776.56	13.333
776.87	13.462
777.18	10.256
777.48	6.034
777.79	0.000
778.10	-8.571
778.41	3.604
778.72	13.492
779.03	14.286
779.34	7.801
779.65	5.479
779.95	-0.685
780.26	4.828
780.57	5.691
780.88	9.449
781.19	2.586
781.50	9.302
781.80	10.059
782.11	7.547
782.42	8.462
782.73	10.072
783.04	4.444
783.34	6.250
783.65	-6.838
783.96	2.459
784.27	15.862
784.57	9.756
784.88	12.500
785.19	3.000
785.50	11.000
785.81	12.069
786.11	10.345
786.42	0.971
786.73	10.909
787.04	-7.143
787.34	7.143
787.65	1.905
787.96	0.000
788.26	11.818
788.57	5.128
788.88	16.406
789.19	11.905
789.49	-2.609
789.80	2.041
790.11	9.091
790.41	7.273
790.72	5.435
791.03	5.682
791.33	15.000
791.64	-2.500
791.95	8.140
792.25	2.128
792.56	8.989
792.87	-1.370
793.17	-14.493
793.48	-4.000
793.79	10.000
794.09	22.500
794.40	-0.943
794.70	6.796
795.01	8.130
795.32	4.274
795.62	3.810
795.93	17.647
796.23	0.943
796.54	8.333
796.85	11.765
797.15	8.451
797.46	0.000
797.76	1.515
798.07	11.628
798.37	13.158
798.68	6.061
798.99	3.704
799.29	8.571
799.60	-8.696
799.90	9.333
800.21	-4.918
800.51	-4.615
800.82	6.780
801.12	0.000
801.43	-11.475
801.73	14.286
802.04	-22.000
802.34	0.000
802.65	11.538
802.95	-12.500
803.26	7.692
803.56	5.882
803.87	-41.304
804.17	25.333
804.48	11.111
804.78	14.815
805.09	-34.783
805.39	-17.778
805.70	3.704
806.00	-15.789
806.30	9.859
806.61	-2.857
806.91	-2.778
807.22	7.895
807.52	21.333
807.83	-10.909
808.13	2.778
808.43	19.118
808.74	-7.463
809.04	-1.695
809.35	-15.385
809.65	14.062
809.95	-40.541
810.26	-9.091
810.56	5.479
810.86	-4.762
811.17	14.000
811.47	-22.449
811.77	-28.947
812.08	-11.364
812.38	15.094
812.69	5.000
812.99	-33.333
813.29	-21.053
813.59	-14.286
813.90	-13.636
814.20	-33.333
814.50	11.538
814.81	13.208
815.11	-19.149
815.41	6.780
815.72	-19.048
816.02	3.922
816.32	-12.500
816.62	-26.829
816.93	-21.622
817.23	-40.000
817.53	14.583
817.84	-13.043
818.14	-3.846
818.44	-31.579
818.74	4.348
819.04	-32.500
819.35	16.216
819.65	-11.765
819.95	2.778
820.25	11.905
820.56	0.000
820.86	-41.379
821.16	27.500
821.46	12.766
821.76	-2.500
822.07	-16.279
822.37	-27.027
822.67	-40.625
822.97	23.810
823.27	-14.286
823.57	-28.000
823.88	-44.444
824.18	7.143
824.48	8.824
824.78	-45.161
825.08	0.000
825.38	45.455
825.69	4.167
825.99	0.000
826.29	-16.667
826.59	-53.333
826.89	-47.619
827.19	10.870
827.49	-2.500
827.79	-5.714
828.09	0.000
828.39	-18.182
828.70	13.514
829.00	-14.286
829.30	-19.048
829.60	-16.667
829.90	-12.500
830.20	15.789
830.50	-11.111
830.80	-34.783
831.10	-18.182
831.40	39.394
831.70	9.677
832.00	-14.286
832.30	-100.000
832.60	-41.667
832.90	-20.690
833.20	-30.000
833.50	0.000
833.80	-3.704
834.10	-26.923
834.40	-9.375
834.70	-88.889
835.00	-52.632
835.30	3.846
835.60	-6.667
835.90	0.000
836.20	-27.273
836.50	14.286
836.80	-11.538
837.10	-17.857
837.40	-433.333
837.70	-27.273
838.00	27.273
838.30	-8.696
838.60	-38.462
838.90	-22.727
839.19	-10.714
839.49	10.000
839.79	-92.308
840.09	-116.667
840.39	17.857
840.69	10.714
840.99	0.000
841.29	-36.842
841.59	-110.000
841.88	-36.364
842.18	-150.000
842.48	-68.750
842.78	0.000
843.08	3.704
843.38	-110.000
843.68	30.435
843.97	-6.667
844.27	-93.333
844.57	25.000
844.87	-38.889
845.17	-80.952
845.47	0.000
845.76	-52.381
846.06	-41.176
846.36	-140.000
846.66	-85.714
846.96	46.667
847.25	-212.500
847.55	14.286
847.85	-75.000
848.15	-9.091
848.44	-633.333
848.74	-30.000
849.04	11.111
849.34	-81.818
849.63	-183.333
849.93	-280.000
850.23	-38.889
850.53	-60.000
850.82	-46.154
851.12	-55.556
851.42	0.000
851.71	-15.385
852.01	-50.000
852.31	-175.000
852.61	-45.455
852.90	-15.000
853.20	-36.842
853.50	-41.667
853.79	-13.043
854.09	12.500
854.39	-84.211
854.68	-12.500
854.98	0.000
855.28	30.769
855.57	-30.000
855.87	-55.556
856.17	48.148
856.46	0.000
856.76	-20.000
857.05	77.778
857.35	-8.000
857.65	-11.111
857.94	-23.077
858.24	17.241
858.53	27.778
858.83	-7.407
859.13	-31.818
859.42	-13.043
859.72	-150.000
860.01	-600.000
860.31	4.000
860.60	-42.857
860.90	-500.000
861.20	-33.333
861.49	-300.000
861.79	0.000
862.08	55.000
862.38	86.667
862.67	-160.000
862.97	-100.000
863.26	-8.333
863.56	-11.111
863.85	-366.667
864.15	5.556
864.44	-130.000
864.74	35.714
865.03	475.000
865.33	-340.000
865.62	33.333
865.92	-25.000
866.21	-166.667
866.51	68.750
866.80	27.273
867.10	-500.000
867.39	-50.000
867.69	0.000
867.98	-15.385
868.27	-300.000
868.57	-40.000
868.86	5.556
869.16	-23.077
869.45	60.000
869.75	-2100.000
870.04	0.000
870.33	-214.286
870.63	57.143
870.92	466.667
871.22	-100.000
871.51	-900.000
871.80	-33.333
872.10	366.667
>>>>>End Processed Spectral Data<<<<<
