SpectraSuite Data File
++++++++++++++++++++++++++++++++++++
Date: Fri May 15 21:05:42 PDT 2015
User: schluterlab
Dark Spectrum Present: Yes
Reference Spectrum Present: Yes
Number of Sampled Component Spectra: 1
Spectrometers: USB2E3373
Integration Time (usec): 3000 (USB2E3373)
Spectra Averaged: 3 (USB2E3373)
Boxcar Smoothing: 0 (USB2E3373)
Correct for Electrical Dark: No (USB2E3373)
Strobe/Lamp Enabled: No (USB2E3373)
Correct for Detector Non-linearity: No (USB2E3373)
Correct for Stray Light: No (USB2E3373)
Number of Pixels in Processed Spectrum: 2048
>>>>>Begin Processed Spectral Data<<<<<
178.53	0.000
178.91	0.000
179.29	87.500
179.67	-450.000
180.04	14.286
180.42	-275.000
180.80	-1300.000
181.18	133.333
181.56	750.000
181.94	-350.000
182.31	1400.000
182.69	-140.000
183.07	-233.333
183.45	80.000
183.83	250.000
184.20	-36.364
184.58	177.778
184.96	-50.000
185.34	166.667
185.72	-200.000
186.09	84.615
186.47	-500.000
186.85	83.333
187.23	133.333
187.61	600.000
187.98	-266.667
188.36	0.000
188.74	-333.333
189.12	-17.647
189.49	61.111
189.87	0.000
190.25	-92.857
190.63	0.000
191.00	-400.000
191.38	-10.526
191.76	0.000
192.14	375.000
192.51	-100.000
192.89	-88.889
193.27	-185.714
193.65	233.333
194.02	154.545
194.40	50.000
194.78	-25.000
195.15	-116.667
195.53	-62.500
195.91	300.000
196.29	-125.000
196.66	192.308
197.04	185.714
197.42	-55.556
197.79	-233.333
198.17	-115.385
198.55	1800.000
198.92	-433.333
199.30	400.000
199.68	-140.000
200.05	33.333
200.43	0.000
200.81	-300.000
201.18	-400.000
201.56	400.000
201.94	-200.000
202.31	-100.000
202.69	-260.000
203.07	-50.000
203.44	200.000
203.82	0.000
204.19	-21.429
204.57	-433.333
204.95	162.500
205.32	20.000
205.70	-42.857
206.08	-150.000
206.45	211.111
206.83	78.571
207.20	-142.857
207.58	1300.000
207.96	-500.000
208.33	-50.000
208.71	-350.000
209.08	-16.667
209.46	-800.000
209.84	-80.000
210.21	-1800.000
210.59	-100.000
210.96	33.333
211.34	-50.000
211.71	-40.000
212.09	-171.429
212.46	-1900.000
212.84	0.000
213.22	140.000
213.59	550.000
213.97	53.846
214.34	54.545
214.72	-133.333
215.09	450.000
215.47	-38.462
215.84	-27.273
216.22	-166.667
216.59	-50.000
216.97	600.000
217.34	-250.000
217.72	-200.000
218.09	-25.000
218.47	162.500
218.84	-600.000
219.22	-77.778
219.59	-80.000
219.97	466.667
220.34	225.000
220.72	0.000
221.09	-150.000
221.47	-200.000
221.84	-150.000
222.22	-1150.000
222.59	9.091
222.97	58.333
223.34	-500.000
223.72	-14.286
224.09	0.000
224.46	-10.714
224.84	566.667
225.21	-40.000
225.59	6.667
225.96	-250.000
226.34	275.000
226.71	-57.143
227.08	-150.000
227.46	-75.000
227.83	-800.000
228.21	33.333
228.58	-27.273
228.95	-100.000
229.33	90.000
229.70	25.000
230.08	-100.000
230.45	-142.857
230.82	-14.286
231.20	-26.667
231.57	85.714
231.95	42.857
232.32	-110.000
232.69	21.429
233.07	-400.000
233.44	-160.000
233.81	-30.000
234.19	0.000
234.56	41.176
234.93	450.000
235.31	100.000
235.68	-500.000
236.05	-38.462
236.43	10.000
236.80	41.176
237.17	28.125
237.55	30.000
237.92	0.000
238.29	38.889
238.67	33.333
239.04	26.471
239.41	2.439
239.79	13.333
240.16	31.707
240.53	31.579
240.91	-2.174
241.28	20.635
241.65	25.000
242.02	32.877
242.40	36.667
242.77	37.288
243.14	27.273
243.51	37.500
243.89	35.632
244.26	24.138
244.63	27.381
245.00	30.928
245.38	35.052
245.75	30.337
246.12	37.069
246.49	43.802
246.87	34.615
247.24	21.849
247.61	29.825
247.98	26.016
248.36	31.875
248.73	36.184
249.10	34.416
249.47	32.911
249.84	26.144
250.22	37.059
250.59	33.987
250.96	36.620
251.33	31.395
251.70	33.529
252.08	38.579
252.45	37.624
252.82	36.181
253.19	37.327
253.56	29.907
253.94	38.739
254.31	36.522
254.68	38.596
255.05	40.157
255.42	39.301
255.79	40.154
256.16	40.078
256.54	36.194
256.91	39.163
257.28	37.175
257.65	35.955
258.02	34.752
258.39	40.741
258.76	42.125
259.14	40.532
259.51	34.628
259.88	36.770
260.25	38.889
260.62	41.667
260.99	37.627
261.36	38.014
261.73	38.291
262.10	40.729
262.47	35.583
262.85	37.931
263.22	41.538
263.59	42.056
263.96	41.615
264.33	40.303
264.70	40.774
265.07	38.095
265.44	42.210
265.81	40.113
266.18	42.077
266.55	38.046
266.92	37.824
267.29	38.642
267.66	38.363
268.03	44.503
268.40	38.120
268.77	40.374
269.14	39.329
269.51	42.159
269.88	36.658
270.25	41.071
270.62	36.829
270.99	37.852
271.36	35.452
271.73	38.732
272.10	40.876
272.47	37.825
272.84	39.604
273.21	39.443
273.58	35.422
273.95	37.300
274.32	35.797
274.69	38.235
275.06	37.277
275.43	39.683
275.80	39.514
276.17	39.770
276.54	36.831
276.91	33.991
277.28	38.210
277.65	39.050
278.02	37.021
278.39	36.543
278.76	36.897
279.13	35.477
279.50	39.916
279.87	37.365
280.23	35.269
280.60	37.817
280.97	37.778
281.34	39.231
281.71	40.041
282.08	35.992
282.45	36.008
282.82	37.838
283.19	38.298
283.56	36.031
283.92	34.345
284.29	38.077
284.66	37.597
285.03	38.114
285.40	32.892
285.77	36.204
286.14	36.643
286.51	38.930
286.87	34.004
287.24	35.543
287.61	34.921
287.98	34.737
288.35	33.276
288.72	35.902
289.08	32.986
289.45	35.501
289.82	36.538
290.19	31.399
290.56	33.105
290.93	32.828
291.29	32.357
291.66	31.339
292.03	33.014
292.40	33.065
292.77	31.579
293.13	31.006
293.50	31.411
293.87	29.313
294.24	30.912
294.60	29.955
294.97	29.464
295.34	29.755
295.71	31.148
296.08	30.493
296.44	27.169
296.81	27.778
297.18	30.580
297.55	29.268
297.91	27.808
298.28	28.628
298.65	26.594
299.02	30.593
299.38	27.497
299.75	26.483
300.12	27.749
300.48	25.165
300.85	25.349
301.22	27.792
301.59	27.105
301.95	27.342
302.32	28.145
302.69	26.368
303.05	25.743
303.42	26.775
303.79	27.453
304.15	26.643
304.52	24.257
304.89	25.146
305.25	24.818
305.62	22.287
305.99	24.912
306.35	24.855
306.72	24.184
307.09	24.971
307.45	24.225
307.82	24.653
308.19	27.294
308.55	23.991
308.92	27.233
309.29	26.816
309.65	24.543
310.02	25.633
310.38	24.698
310.75	25.246
311.12	24.220
311.48	24.284
311.85	24.398
312.22	22.046
312.58	23.248
312.95	24.333
313.31	23.085
313.68	23.979
314.05	23.265
314.41	25.361
314.78	24.948
315.14	24.666
315.51	25.362
315.87	23.156
316.24	24.469
316.61	23.228
316.97	25.099
317.34	24.414
317.70	24.092
318.07	24.808
318.43	24.902
318.80	22.538
319.16	23.730
319.53	25.736
319.89	23.819
320.26	24.899
320.62	24.674
320.99	23.382
321.35	24.152
321.72	24.299
322.08	24.572
322.45	24.467
322.81	23.281
323.18	23.454
323.54	22.297
323.91	23.174
324.27	24.219
324.64	24.438
325.00	24.270
325.37	25.161
325.73	21.850
326.10	24.432
326.46	25.471
326.83	23.710
327.19	24.673
327.56	24.240
327.92	24.032
328.29	24.375
328.65	24.340
329.01	23.438
329.38	22.949
329.74	22.568
330.11	22.057
330.47	22.263
330.84	22.788
331.20	24.620
331.56	22.685
331.93	23.470
332.29	23.373
332.66	23.258
333.02	21.840
333.38	21.540
333.75	24.908
334.11	22.471
334.48	23.663
334.84	23.626
335.20	22.781
335.57	21.578
335.93	24.029
336.29	24.401
336.66	22.525
337.02	22.491
337.38	22.130
337.75	22.545
338.11	22.362
338.47	23.540
338.84	22.274
339.20	22.029
339.56	22.752
339.93	21.576
340.29	22.661
340.65	23.208
341.02	22.252
341.38	22.743
341.74	21.908
342.11	21.837
342.47	21.085
342.83	22.145
343.20	21.864
343.56	22.522
343.92	21.966
344.28	22.118
344.65	22.107
345.01	21.435
345.37	21.951
345.73	23.013
346.10	23.382
346.46	23.297
346.82	21.604
347.19	21.862
347.55	21.637
347.91	21.602
348.27	22.878
348.63	23.935
349.00	20.837
349.36	22.111
349.72	21.725
350.08	21.475
350.45	21.389
350.81	20.515
351.17	21.580
351.53	21.796
351.89	21.387
352.26	22.240
352.62	22.581
352.98	21.928
353.34	21.498
353.70	22.168
354.07	21.694
354.43	21.938
354.79	21.222
355.15	22.143
355.51	20.649
355.87	21.602
356.24	21.533
356.60	22.150
356.96	22.302
357.32	21.086
357.68	20.797
358.04	21.567
358.40	21.302
358.77	21.132
359.13	20.336
359.49	19.877
359.85	21.607
360.21	20.415
360.57	20.581
360.93	20.121
361.29	19.411
361.66	20.690
362.02	22.045
362.38	21.478
362.74	20.515
363.10	21.294
363.46	20.534
363.82	21.638
364.18	20.959
364.54	19.265
364.90	20.430
365.26	21.179
365.62	21.241
365.98	21.041
366.35	22.141
366.71	20.769
367.07	20.755
367.43	20.489
367.79	21.837
368.15	20.890
368.51	20.320
368.87	19.742
369.23	18.412
369.59	20.190
369.95	20.455
370.31	20.882
370.67	19.776
371.03	20.314
371.39	19.329
371.75	20.513
372.11	20.328
372.47	20.118
372.83	20.014
373.19	20.613
373.55	18.628
373.91	20.302
374.27	20.057
374.63	19.454
374.99	19.291
375.35	20.543
375.71	20.490
376.07	19.874
376.42	20.816
376.78	19.866
377.14	20.108
377.50	20.584
377.86	19.746
378.22	19.081
378.58	19.679
378.94	19.723
379.30	19.152
379.66	19.624
380.02	19.742
380.38	18.746
380.74	19.629
381.09	20.123
381.45	19.511
381.81	19.556
382.17	19.924
382.53	19.738
382.89	19.711
383.25	19.353
383.61	20.610
383.97	19.492
384.32	19.762
384.68	19.133
385.04	19.056
385.40	19.228
385.76	20.252
386.12	19.082
386.48	19.923
386.83	20.355
387.19	19.414
387.55	20.452
387.91	18.888
388.27	19.536
388.62	20.138
388.98	19.276
389.34	19.925
389.70	20.075
390.06	18.817
390.42	18.977
390.77	18.443
391.13	19.420
391.49	19.534
391.85	19.363
392.20	19.021
392.56	18.945
392.92	19.201
393.28	18.750
393.64	19.159
393.99	19.937
394.35	19.798
394.71	19.796
395.07	19.296
395.42	19.247
395.78	19.023
396.14	18.916
396.50	18.643
396.85	20.026
397.21	19.048
397.57	19.248
397.92	18.574
398.28	19.138
398.64	18.313
399.00	19.187
399.35	18.736
399.71	18.323
400.07	19.710
400.42	18.421
400.78	20.086
401.14	18.572
401.49	19.655
401.85	19.135
402.21	19.277
402.57	19.812
402.92	17.754
403.28	18.860
403.63	18.537
403.99	19.579
404.35	19.363
404.70	18.036
405.06	18.978
405.42	18.272
405.77	18.245
406.13	18.743
406.49	18.591
406.84	18.032
407.20	18.603
407.55	18.931
407.91	18.583
408.27	18.101
408.62	19.015
408.98	18.977
409.34	18.525
409.69	18.346
410.05	18.411
410.40	18.519
410.76	18.999
411.11	18.938
411.47	19.658
411.83	17.577
412.18	18.340
412.54	18.414
412.89	18.165
413.25	19.314
413.60	18.758
413.96	18.957
414.31	18.476
414.67	19.051
415.03	18.109
415.38	18.407
415.74	19.088
416.09	19.334
416.45	18.231
416.80	18.506
417.16	19.130
417.51	19.121
417.87	18.579
418.22	19.495
418.58	18.328
418.93	19.122
419.29	17.862
419.64	19.248
420.00	19.458
420.35	19.582
420.71	19.198
421.06	18.723
421.42	18.750
421.77	19.191
422.12	18.275
422.48	18.192
422.83	19.142
423.19	18.792
423.54	18.283
423.90	17.727
424.25	18.599
424.61	19.094
424.96	18.467
425.31	19.295
425.67	18.721
426.02	18.963
426.38	18.597
426.73	19.249
427.09	18.228
427.44	19.706
427.79	18.916
428.15	18.629
428.50	18.595
428.85	18.120
429.21	18.053
429.56	19.191
429.92	18.747
430.27	19.248
430.62	18.087
430.98	19.108
431.33	18.612
431.68	18.524
432.04	19.564
432.39	18.540
432.74	17.438
433.10	18.793
433.45	17.981
433.80	18.514
434.16	18.172
434.51	19.194
434.86	19.048
435.22	18.676
435.57	18.528
435.92	18.443
436.28	17.531
436.63	19.167
436.98	17.671
437.34	18.391
437.69	18.843
438.04	18.575
438.39	17.899
438.75	17.729
439.10	18.563
439.45	19.111
439.81	19.083
440.16	19.002
440.51	19.701
440.86	19.033
441.22	19.514
441.57	19.095
441.92	19.517
442.27	18.625
442.63	19.433
442.98	19.012
443.33	17.974
443.68	18.621
444.03	18.877
444.39	19.134
444.74	19.342
445.09	18.987
445.44	19.202
445.79	19.649
446.15	19.438
446.50	18.691
446.85	19.766
447.20	18.561
447.55	19.699
447.91	19.177
448.26	19.010
448.61	19.459
448.96	19.679
449.31	19.769
449.66	18.931
450.02	18.996
450.37	18.969
450.72	18.270
451.07	19.494
451.42	19.538
451.77	19.228
452.12	19.498
452.47	18.931
452.83	19.847
453.18	18.343
453.53	19.848
453.88	19.976
454.23	19.053
454.58	19.521
454.93	20.296
455.28	19.048
455.63	19.467
455.98	20.084
456.34	19.476
456.69	19.822
457.04	20.794
457.39	19.684
457.74	18.682
458.09	18.717
458.44	19.017
458.79	18.992
459.14	20.481
459.49	19.284
459.84	19.797
460.19	18.143
460.54	19.866
460.89	19.034
461.24	20.373
461.59	19.715
461.94	19.434
462.29	19.964
462.64	19.734
462.99	19.973
463.34	18.985
463.69	18.790
464.04	19.613
464.39	19.466
464.74	19.141
465.09	19.900
465.44	19.446
465.79	19.274
466.14	20.639
466.49	19.896
466.84	19.750
467.19	20.213
467.54	19.349
467.89	19.394
468.24	19.708
468.59	20.635
468.94	19.238
469.29	20.000
469.64	20.574
469.99	19.762
470.34	17.816
470.68	20.582
471.03	20.311
471.38	20.043
471.73	20.168
472.08	19.674
472.43	19.128
472.78	19.602
473.13	19.728
473.48	19.349
473.83	20.984
474.17	18.523
474.52	20.294
474.87	19.455
475.22	19.951
475.57	19.593
475.92	19.967
476.27	20.605
476.61	19.965
476.96	19.241
477.31	19.470
477.66	19.045
478.01	19.596
478.36	19.771
478.70	20.065
479.05	19.890
479.40	20.403
479.75	19.969
480.10	19.048
480.45	20.350
480.79	20.141
481.14	20.799
481.49	19.261
481.84	19.739
482.19	19.504
482.53	19.856
482.88	20.000
483.23	19.290
483.58	18.868
483.92	20.039
484.27	19.280
484.62	19.588
484.97	19.237
485.31	19.762
485.66	19.237
486.01	19.328
486.36	19.463
486.70	19.910
487.05	19.790
487.40	19.623
487.75	19.634
488.09	18.263
488.44	18.741
488.79	18.491
489.13	19.231
489.48	19.282
489.83	19.103
490.17	19.551
490.52	19.630
490.87	19.482
491.22	19.866
491.56	19.260
491.91	19.264
492.26	20.175
492.60	19.866
492.95	20.856
493.30	20.371
493.64	20.088
493.99	19.952
494.34	19.223
494.68	19.238
495.03	18.881
495.37	19.823
495.72	20.040
496.07	19.854
496.41	19.906
496.76	18.839
497.11	19.516
497.45	19.236
497.80	19.980
498.14	19.921
498.49	19.807
498.84	19.461
499.18	19.378
499.53	20.238
499.87	18.969
500.22	19.139
500.56	20.575
500.91	19.378
501.26	19.179
501.60	19.282
501.95	20.281
502.29	20.242
502.64	19.932
502.98	19.438
503.33	18.732
503.67	19.663
504.02	19.550
504.36	20.287
504.71	19.596
505.06	19.326
505.40	20.000
505.75	20.619
506.09	19.919
506.44	19.559
506.78	19.796
507.13	19.855
507.47	19.478
507.82	19.338
508.16	19.387
508.51	19.727
508.85	19.571
509.19	19.319
509.54	19.196
509.88	19.040
510.23	19.580
510.57	19.829
510.92	19.456
511.26	19.804
511.61	19.857
511.95	19.507
512.30	19.789
512.64	20.312
512.98	19.540
513.33	20.425
513.67	20.239
514.02	21.053
514.36	19.943
514.70	20.047
515.05	20.740
515.39	19.540
515.74	20.958
516.08	20.143
516.42	20.730
516.77	19.836
517.11	19.822
517.46	19.449
517.80	20.024
518.14	19.963
518.49	19.772
518.83	20.109
519.17	19.345
519.52	20.130
519.86	19.088
520.20	20.535
520.55	19.950
520.89	20.640
521.23	19.886
521.58	20.189
521.92	20.385
522.26	19.388
522.61	20.195
522.95	20.662
523.29	20.648
523.64	19.695
523.98	19.961
524.32	19.265
524.66	20.166
525.01	20.779
525.35	19.896
525.69	18.653
526.04	19.180
526.38	20.493
526.72	19.228
527.06	19.715
527.41	20.580
527.75	19.973
528.09	20.266
528.43	20.729
528.78	20.000
529.12	19.806
529.46	19.168
529.80	19.949
530.15	20.528
530.49	20.471
530.83	19.973
531.17	20.416
531.51	20.725
531.86	20.122
532.20	19.137
532.54	20.762
532.88	20.534
533.22	21.237
533.57	19.790
533.91	18.799
534.25	20.182
534.59	19.371
534.93	19.446
535.27	19.480
535.62	19.637
535.96	19.896
536.30	20.844
536.64	20.606
536.98	18.815
537.32	20.270
537.66	20.477
538.01	19.930
538.35	20.250
538.69	20.839
539.03	19.344
539.37	19.650
539.71	20.245
540.05	20.163
540.39	20.637
540.73	20.502
541.07	19.475
541.42	21.169
541.76	21.060
542.10	19.890
542.44	20.431
542.78	17.894
543.12	19.437
543.46	20.654
543.80	20.194
544.14	18.558
544.48	19.320
544.82	20.232
545.16	20.970
545.50	19.826
545.84	19.830
546.18	19.858
546.52	19.755
546.86	19.410
547.20	20.744
547.54	19.081
547.88	19.429
548.22	19.461
548.56	19.327
548.90	20.485
549.24	19.284
549.58	19.323
549.92	19.442
550.26	20.147
550.60	19.851
550.94	19.642
551.28	20.093
551.62	19.615
551.96	20.376
552.30	20.029
552.64	19.535
552.98	20.042
553.32	20.328
553.66	19.884
554.00	19.635
554.34	20.606
554.68	19.543
555.02	20.461
555.36	19.970
555.69	18.608
556.03	19.129
556.37	19.288
556.71	20.361
557.05	19.314
557.39	19.703
557.73	20.540
558.07	20.588
558.41	19.219
558.75	18.784
559.08	19.858
559.42	20.159
559.76	19.936
560.10	19.725
560.44	19.136
560.78	19.441
561.12	19.817
561.45	21.012
561.79	19.678
562.13	20.582
562.47	20.000
562.81	20.389
563.15	20.169
563.48	19.236
563.82	20.384
564.16	20.543
564.50	18.784
564.84	19.946
565.17	20.054
565.51	20.150
565.85	20.439
566.19	20.225
566.52	19.906
566.86	20.823
567.20	20.423
567.54	20.377
567.88	19.977
568.21	20.362
568.55	19.946
568.89	19.610
569.23	20.173
569.56	19.352
569.90	20.382
570.24	19.501
570.57	19.855
570.91	20.112
571.25	19.796
571.59	19.713
571.92	18.993
572.26	19.173
572.60	19.070
572.93	19.203
573.27	19.373
573.61	19.541
573.95	19.661
574.28	19.015
574.62	19.222
574.96	19.646
575.29	19.056
575.63	18.269
575.97	18.515
576.30	18.752
576.64	18.490
576.98	19.537
577.31	18.776
577.65	19.472
577.98	19.527
578.32	19.333
578.66	18.698
578.99	19.069
579.33	18.711
579.67	19.076
580.00	18.709
580.34	19.129
580.67	18.373
581.01	19.212
581.35	19.358
581.68	19.661
582.02	19.416
582.35	19.443
582.69	19.186
583.02	19.077
583.36	19.068
583.70	19.522
584.03	18.988
584.37	19.142
584.70	19.313
585.04	19.041
585.37	18.747
585.71	19.501
586.04	18.810
586.38	18.992
586.72	19.369
587.05	19.815
587.39	19.597
587.72	20.093
588.06	19.347
588.39	18.969
588.73	19.170
589.06	19.406
589.40	19.426
589.73	19.241
590.07	19.637
590.40	19.582
590.73	19.687
591.07	19.466
591.40	19.101
591.74	19.548
592.07	20.130
592.41	20.141
592.74	19.554
593.08	19.106
593.41	19.638
593.75	19.235
594.08	19.258
594.41	19.942
594.75	19.542
595.08	19.599
595.42	19.691
595.75	19.151
596.09	19.664
596.42	19.430
596.75	19.405
597.09	19.818
597.42	19.874
597.75	19.652
598.09	19.421
598.42	19.449
598.76	19.777
599.09	19.631
599.42	18.871
599.76	19.526
600.09	19.495
600.42	19.901
600.76	19.577
601.09	19.046
601.42	19.154
601.76	19.532
602.09	18.688
602.42	19.714
602.76	19.100
603.09	20.307
603.42	20.276
603.76	19.315
604.09	18.793
604.42	19.712
604.76	20.071
605.09	19.698
605.42	19.594
605.75	19.702
606.09	19.406
606.42	19.224
606.75	19.913
607.09	20.308
607.42	19.628
607.75	19.316
608.08	18.104
608.42	19.781
608.75	20.386
609.08	18.984
609.41	19.543
609.75	19.254
610.08	19.121
610.41	20.580
610.74	19.405
611.07	19.845
611.41	19.357
611.74	20.416
612.07	18.683
612.40	19.694
612.73	19.266
613.07	19.404
613.40	20.131
613.73	19.698
614.06	19.922
614.39	19.007
614.72	19.552
615.06	19.721
615.39	18.559
615.72	19.214
616.05	20.447
616.38	19.031
616.71	19.388
617.05	20.259
617.38	18.730
617.71	19.623
618.04	19.873
618.37	20.177
618.70	20.990
619.03	20.069
619.36	18.090
619.69	20.394
620.03	20.161
620.36	19.957
620.69	19.843
621.02	20.566
621.35	20.332
621.68	20.748
622.01	19.667
622.34	20.591
622.67	20.189
623.00	20.674
623.33	20.579
623.66	20.120
623.99	20.197
624.32	20.989
624.65	20.150
624.99	19.865
625.32	19.939
625.65	20.738
625.98	19.823
626.31	19.867
626.64	20.364
626.97	19.110
627.30	19.264
627.63	20.884
627.96	20.126
628.29	20.907
628.62	20.059
628.95	20.641
629.28	19.456
629.61	21.336
629.94	20.919
630.26	20.553
630.59	20.291
630.92	19.282
631.25	20.103
631.58	19.824
631.91	18.750
632.24	19.610
632.57	21.364
632.90	18.861
633.23	20.706
633.56	21.033
633.89	20.469
634.22	20.864
634.55	21.728
634.88	20.562
635.20	20.000
635.53	19.600
635.86	19.246
636.19	21.345
636.52	21.173
636.85	20.099
637.18	20.252
637.51	19.874
637.83	20.368
638.16	20.873
638.49	17.984
638.82	21.053
639.15	19.132
639.48	20.220
639.81	22.315
640.13	19.192
640.46	19.971
640.79	18.115
641.12	18.759
641.45	22.372
641.77	20.444
642.10	19.905
642.43	19.132
642.76	19.802
643.09	21.325
643.41	19.417
643.74	18.451
644.07	20.033
644.40	21.622
644.73	20.665
645.05	18.792
645.38	22.928
645.71	19.681
646.04	20.108
646.36	19.149
646.69	23.381
647.02	20.605
647.35	19.216
647.67	19.378
648.00	22.015
648.33	20.307
648.66	20.847
648.98	20.771
649.31	19.008
649.64	19.780
649.96	18.963
650.29	19.932
650.62	20.342
650.94	20.926
651.27	20.484
651.60	20.721
651.92	19.930
652.25	19.538
652.58	22.000
652.90	21.441
653.23	19.328
653.56	19.459
653.88	19.931
654.21	18.564
654.54	18.676
654.86	21.222
655.19	20.175
655.52	22.291
655.84	21.016
656.17	23.393
656.49	31.523
656.82	31.388
657.15	23.234
657.47	16.745
657.80	12.091
658.13	11.534
658.45	17.406
658.78	16.907
659.10	16.442
659.43	16.347
659.75	16.922
660.08	16.828
660.41	18.590
660.73	18.094
661.06	19.411
661.38	18.004
661.71	19.507
662.03	21.030
662.36	19.341
662.68	20.133
663.01	21.616
663.33	21.114
663.66	16.977
663.98	19.070
664.31	20.256
664.63	18.433
664.96	17.609
665.28	18.543
665.61	19.481
665.93	19.783
666.26	19.740
666.58	16.779
666.91	19.294
667.23	24.057
667.56	20.142
667.88	20.144
668.21	19.332
668.53	20.095
668.86	18.160
669.18	20.283
669.50	19.613
669.83	18.140
670.15	21.212
670.48	22.249
670.80	21.429
671.13	21.253
671.45	18.037
671.77	21.674
672.10	19.010
672.42	18.165
672.75	21.314
673.07	21.825
673.39	20.734
673.72	19.724
674.04	18.750
674.37	19.280
674.69	20.343
675.01	22.444
675.34	19.369
675.66	20.833
675.98	18.182
676.31	18.578
676.63	18.765
676.95	20.227
677.28	21.412
677.60	20.964
677.92	18.349
678.25	20.350
678.57	18.182
678.89	21.218
679.22	18.568
679.54	21.285
679.86	18.489
680.18	19.417
680.51	17.803
680.83	18.887
681.15	18.800
681.48	20.082
681.80	19.421
682.12	20.363
682.44	16.109
682.77	22.737
683.09	20.137
683.41	17.500
683.73	20.507
684.06	20.575
684.38	16.989
684.70	18.083
685.02	17.012
685.34	16.996
685.67	18.574
685.99	18.083
686.31	17.876
686.63	20.223
686.96	17.871
687.28	18.182
687.60	19.962
687.92	21.212
688.24	16.935
688.56	19.432
688.89	18.080
689.21	19.556
689.53	18.561
689.85	20.698
690.17	20.982
690.49	17.730
690.82	15.291
691.14	17.857
691.46	18.224
691.78	19.144
692.10	18.710
692.42	16.667
692.74	20.085
693.06	17.793
693.39	17.195
693.71	18.326
694.03	19.169
694.35	17.523
694.67	20.202
694.99	18.799
695.31	19.582
695.63	20.500
695.95	21.212
696.27	15.544
696.59	19.167
696.91	18.207
697.23	20.566
697.56	18.812
697.88	21.505
698.20	20.046
698.52	19.529
698.84	15.311
699.16	18.250
699.48	17.043
699.80	19.851
700.12	19.677
700.44	18.768
700.76	15.988
701.08	15.455
701.40	20.783
701.72	22.531
702.04	18.152
702.36	19.398
702.68	17.117
703.00	20.909
703.32	20.821
703.64	16.949
703.96	20.000
704.28	18.405
704.60	18.413
704.91	15.457
705.23	18.272
705.55	24.382
705.87	22.022
706.19	18.519
706.51	16.495
706.83	21.543
707.15	20.249
707.47	21.008
707.79	17.969
708.11	22.000
708.43	18.250
708.74	17.571
709.06	21.690
709.38	21.101
709.70	18.935
710.02	16.561
710.34	20.743
710.66	12.500
710.98	17.550
711.29	19.672
711.61	21.017
711.93	21.498
712.25	20.619
712.57	19.414
712.89	16.791
713.20	21.799
713.52	16.028
713.84	18.089
714.16	20.962
714.48	20.000
714.80	23.718
715.11	20.061
715.43	15.987
715.75	15.333
716.07	17.276
716.39	17.114
716.70	18.081
717.02	17.939
717.34	21.457
717.66	17.699
717.97	14.783
718.29	16.736
718.61	16.142
718.93	18.605
719.24	15.970
719.56	19.277
719.88	16.151
720.20	16.288
720.51	14.176
720.83	18.533
721.15	16.387
721.46	17.339
721.78	14.229
722.10	20.818
722.42	16.598
722.73	17.143
723.05	24.082
723.37	22.458
723.68	22.072
724.00	17.949
724.32	21.333
724.63	17.273
724.95	17.467
725.27	17.972
725.58	18.644
725.90	16.270
726.22	17.761
726.53	19.322
726.85	17.603
727.16	21.887
727.48	12.955
727.80	17.409
728.11	14.831
728.43	15.686
728.74	13.306
729.06	17.600
729.38	26.316
729.69	16.733
730.01	14.615
730.32	17.537
730.64	26.148
730.96	15.849
731.27	16.000
731.59	16.610
731.90	17.516
732.22	20.820
732.53	19.934
732.85	19.858
733.16	25.926
733.48	16.187
733.80	14.130
734.11	20.339
734.43	16.151
734.74	22.424
735.06	15.309
735.37	18.731
735.69	18.519
736.00	17.422
736.32	17.785
736.63	22.535
736.95	17.747
737.26	20.285
737.58	14.765
737.89	20.879
738.21	15.414
738.52	18.519
738.83	14.847
739.15	14.410
739.46	18.898
739.78	18.315
740.09	17.320
740.41	17.029
740.72	12.598
741.04	20.243
741.35	17.021
741.66	16.114
741.98	16.327
742.29	12.871
742.61	19.895
742.92	14.218
743.23	10.648
743.55	17.647
743.86	13.397
744.18	20.574
744.49	12.766
744.80	18.478
745.12	20.856
745.43	12.195
745.74	21.875
746.06	15.122
746.37	12.565
746.68	21.801
747.00	15.426
747.31	15.423
747.62	16.505
747.94	17.225
748.25	15.842
748.56	9.290
748.88	14.660
749.19	19.149
749.50	22.660
749.82	11.792
750.13	16.514
750.44	19.549
750.75	21.269
751.07	22.993
751.38	21.839
751.69	14.510
752.01	25.194
752.32	16.335
752.63	18.577
752.94	17.241
753.26	24.686
753.57	17.195
753.88	21.239
754.19	14.583
754.51	17.769
754.82	18.623
755.13	20.833
755.44	19.355
755.75	20.312
756.07	21.401
756.38	16.226
756.69	19.923
757.00	17.333
757.31	19.281
757.63	17.073
757.94	16.667
758.25	14.795
758.56	19.149
758.87	17.280
759.18	19.315
759.50	16.364
759.81	22.074
760.12	19.032
760.43	17.273
760.74	20.679
761.05	18.462
761.36	18.750
761.67	20.303
761.99	21.769
762.30	15.636
762.61	20.158
762.92	18.100
763.23	15.315
763.54	10.748
763.85	20.339
764.16	18.257
764.47	14.516
764.78	15.751
765.10	23.569
765.41	18.927
765.72	17.778
766.03	16.917
766.34	21.898
766.65	20.717
766.96	18.687
767.27	19.149
767.58	13.793
767.89	20.567
768.20	14.205
768.51	18.132
768.82	16.749
769.13	17.512
769.44	15.021
769.75	14.155
770.06	15.517
770.37	18.750
770.68	13.706
770.99	17.195
771.30	16.667
771.61	18.100
771.92	21.121
772.23	19.704
772.54	12.366
772.85	18.519
773.16	17.978
773.47	28.105
773.78	20.915
774.09	20.958
774.39	14.000
774.70	19.108
775.01	21.379
775.32	20.000
775.63	9.091
775.94	13.740
776.25	15.748
776.56	12.500
776.87	14.423
777.18	21.368
777.48	18.103
777.79	6.087
778.10	12.381
778.41	16.216
778.72	17.460
779.03	15.038
779.34	24.113
779.65	19.178
779.95	11.644
780.26	19.310
780.57	13.821
780.88	13.386
781.19	12.069
781.50	15.504
781.80	19.527
782.11	11.950
782.42	23.077
782.73	19.424
783.04	10.370
783.34	9.028
783.65	7.692
783.96	18.033
784.27	16.552
784.57	25.203
784.88	7.031
785.19	27.000
785.50	20.000
785.81	18.103
786.11	4.310
786.42	12.621
786.73	19.091
787.04	10.204
787.34	15.179
787.65	11.429
787.96	16.814
788.26	14.545
788.57	13.675
788.88	17.969
789.19	8.730
789.49	17.391
789.80	19.388
790.11	14.141
790.41	14.545
790.72	17.391
791.03	18.182
791.33	28.750
791.64	-1.250
791.95	2.326
792.25	15.957
792.56	25.843
792.87	5.479
793.17	18.841
793.48	-8.000
793.79	8.750
794.09	16.250
794.40	18.868
794.70	10.680
795.01	8.130
795.32	7.692
795.62	8.571
795.93	14.706
796.23	20.755
796.54	16.667
796.85	14.706
797.15	14.085
797.46	12.500
797.76	3.030
798.07	22.093
798.37	-3.947
798.68	4.545
798.99	1.235
799.29	10.000
799.60	20.290
799.90	9.333
800.21	6.557
800.51	7.692
800.82	3.390
801.12	24.638
801.43	-1.639
801.73	26.984
802.04	20.000
802.34	14.925
802.65	23.077
802.95	-14.286
803.26	5.769
803.56	-17.647
803.87	10.870
804.17	8.000
804.48	30.159
804.78	1.852
805.09	17.391
805.39	11.111
805.70	24.074
806.00	-24.561
806.30	4.225
806.61	5.714
806.91	-8.333
807.22	18.421
807.52	9.333
807.83	-7.273
808.13	15.278
808.43	0.000
808.74	-4.478
809.04	5.085
809.35	9.615
809.65	6.250
809.95	-8.108
810.26	-11.364
810.56	15.068
810.86	21.429
811.17	18.000
811.47	28.571
811.77	-21.053
812.08	6.818
812.38	11.321
812.69	7.500
812.99	6.061
813.29	-5.263
813.59	-25.714
813.90	18.182
814.20	-12.821
814.50	13.462
814.81	24.528
815.11	6.383
815.41	20.339
815.72	19.048
816.02	5.882
816.32	-12.500
816.62	-2.439
816.93	5.405
817.23	5.714
817.53	16.667
817.84	-4.348
818.14	5.769
818.44	0.000
818.74	15.217
819.04	-15.000
819.35	21.622
819.65	-11.765
819.95	-16.667
820.25	-4.762
820.56	45.000
820.86	-24.138
821.16	22.500
821.46	4.255
821.76	25.000
822.07	-9.302
822.37	-24.324
822.67	-43.750
822.97	16.667
823.27	-3.571
823.57	-24.000
823.88	-44.444
824.18	-14.286
824.48	23.529
824.78	-3.226
825.08	-8.696
825.38	3.030
825.69	-33.333
825.99	21.053
826.29	0.000
826.59	-53.333
826.89	-33.333
827.19	2.174
827.49	7.500
827.79	17.143
828.09	10.714
828.39	21.212
828.70	18.919
829.00	-25.000
829.30	-23.810
829.60	0.000
829.90	18.750
830.20	-10.526
830.50	-3.704
830.80	-8.696
831.10	-4.545
831.40	24.242
831.70	-16.129
832.00	23.810
832.30	4.762
832.60	-66.667
832.90	6.897
833.20	-15.000
833.50	15.152
833.80	-25.926
834.10	-23.077
834.40	28.125
834.70	-188.889
835.00	26.316
835.30	34.615
835.60	46.667
835.90	16.129
836.20	13.636
836.50	-10.714
836.80	-23.077
837.10	-25.000
837.40	-100.000
837.70	-4.545
838.00	-54.545
838.30	-4.348
838.60	-23.077
838.90	13.636
839.19	7.143
839.49	13.333
839.79	-7.692
840.09	-66.667
840.39	0.000
840.69	-35.714
840.99	0.000
841.29	-57.895
841.59	-70.000
841.88	0.000
842.18	-110.000
842.48	-18.750
842.78	-13.333
843.08	-7.407
843.38	-110.000
843.68	43.478
843.97	0.000
844.27	-46.667
844.57	-5.000
844.87	-16.667
845.17	-9.524
845.47	6.667
845.76	0.000
846.06	-47.059
846.36	-100.000
846.66	-50.000
846.96	-26.667
847.25	-100.000
847.55	7.143
847.85	-75.000
848.15	-68.182
848.44	-700.000
848.74	-75.000
849.04	29.630
849.34	-45.455
849.63	-216.667
849.93	-160.000
850.23	-44.444
850.53	-20.000
850.82	-46.154
851.12	-133.333
851.42	60.000
851.71	-23.077
852.01	-35.714
852.31	-200.000
852.61	-63.636
852.90	-20.000
853.20	0.000
853.50	-75.000
853.79	-13.043
854.09	25.000
854.39	5.263
854.68	0.000
854.98	-3.226
855.28	15.385
855.57	35.000
855.87	33.333
856.17	22.222
856.46	-42.857
856.76	-66.667
857.05	-11.111
857.35	40.000
857.65	0.000
857.94	15.385
858.24	27.586
858.53	22.222
858.83	22.222
859.13	-4.545
859.42	0.000
859.72	-225.000
860.01	-433.333
860.31	-20.000
860.60	-28.571
860.90	-333.333
861.20	-53.333
861.49	-650.000
861.79	-106.667
862.08	-40.000
862.38	73.333
862.67	-180.000
862.97	-16.667
863.26	-16.667
863.56	44.444
863.85	-400.000
864.15	0.000
864.44	-90.000
864.74	28.571
865.03	275.000
865.33	-340.000
865.62	-50.000
865.92	16.667
866.21	-333.333
866.51	-6.250
866.80	-18.182
867.10	-500.000
867.39	8.333
867.69	0.000
867.98	-69.231
868.27	-333.333
868.57	-40.000
868.86	44.444
869.16	0.000
869.45	40.000
869.75	-1200.000
870.04	0.000
870.33	-228.571
870.63	9.524
870.92	366.667
871.22	-240.000
871.51	-1800.000
871.80	100.000
872.10	766.667
>>>>>End Processed Spectral Data<<<<<
