SpectraSuite Data File
++++++++++++++++++++++++++++++++++++
Date: Fri May 15 20:44:59 PDT 2015
User: schluterlab
Dark Spectrum Present: Yes
Reference Spectrum Present: Yes
Number of Sampled Component Spectra: 1
Spectrometers: USB2E3373
Integration Time (usec): 3000 (USB2E3373)
Spectra Averaged: 3 (USB2E3373)
Boxcar Smoothing: 0 (USB2E3373)
Correct for Electrical Dark: No (USB2E3373)
Strobe/Lamp Enabled: No (USB2E3373)
Correct for Detector Non-linearity: No (USB2E3373)
Correct for Stray Light: No (USB2E3373)
Number of Pixels in Processed Spectrum: 2048
>>>>>Begin Processed Spectral Data<<<<<
178.53	0.000
178.91	0.000
179.29	-25.000
179.67	150.000
180.04	28.571
180.42	-50.000
180.80	-1200.000
181.18	200.000
181.56	400.000
181.94	-450.000
182.31	1000.000
182.69	-160.000
183.07	-466.667
183.45	120.000
183.83	150.000
184.20	-9.091
184.58	155.556
184.96	75.000
185.34	133.333
185.72	-50.000
186.09	100.000
186.47	-800.000
186.85	100.000
187.23	88.889
187.61	300.000
187.98	-433.333
188.36	-22.222
188.74	166.667
189.12	11.765
189.49	-11.111
189.87	0.000
190.25	14.286
190.63	-100.000
191.00	-66.667
191.38	0.000
191.76	-150.000
192.14	-25.000
192.51	400.000
192.89	-122.222
193.27	-314.286
193.65	116.667
194.02	227.273
194.40	-20.000
194.78	-37.500
195.15	-108.333
195.53	-125.000
195.91	400.000
196.29	-200.000
196.66	107.692
197.04	200.000
197.42	-144.444
197.79	-633.333
198.17	-107.692
198.55	1300.000
198.92	-200.000
199.30	-900.000
199.68	-80.000
200.05	-166.667
200.43	0.000
200.81	-66.667
201.18	-166.667
201.56	1100.000
201.94	-300.000
202.31	233.333
202.69	-240.000
203.07	275.000
203.44	-400.000
203.82	0.000
204.19	14.286
204.57	-300.000
204.95	212.500
205.32	20.000
205.70	57.143
206.08	-325.000
206.45	144.444
206.83	21.429
207.20	-271.429
207.58	300.000
207.96	0.000
208.33	-80.000
208.71	-375.000
209.08	-200.000
209.46	-700.000
209.84	-100.000
210.21	-1100.000
210.59	85.714
210.96	-83.333
211.34	-275.000
211.71	73.333
212.09	-114.286
212.46	-1400.000
212.84	0.000
213.22	60.000
213.59	450.000
213.97	23.077
214.34	81.818
214.72	-283.333
215.09	475.000
215.47	-30.769
215.84	-109.091
216.22	-233.333
216.59	-75.000
216.97	-150.000
217.34	-100.000
217.72	-340.000
218.09	-12.500
218.47	137.500
218.84	-1200.000
219.22	-88.889
219.59	-140.000
219.97	433.333
220.34	400.000
220.72	42.857
221.09	-75.000
221.47	-250.000
221.84	-450.000
222.22	-1000.000
222.59	36.364
222.97	41.667
223.34	-366.667
223.72	0.000
224.09	23.810
224.46	7.143
224.84	266.667
225.21	80.000
225.59	-46.667
225.96	100.000
226.34	525.000
226.71	57.143
227.08	16.667
227.46	-62.500
227.83	-700.000
228.21	0.000
228.58	-18.182
228.95	37.500
229.33	-0.000
229.70	-12.500
230.08	-112.500
230.45	-100.000
230.82	-57.143
231.20	-6.667
231.57	0.000
231.95	-71.429
232.32	-180.000
232.69	0.000
233.07	166.667
233.44	-60.000
233.81	-100.000
234.19	-33.333
234.56	17.647
234.93	600.000
235.31	75.000
235.68	-40.000
236.05	-7.692
236.43	-40.000
236.80	-5.882
237.17	21.875
237.55	-15.000
237.92	3.704
238.29	25.000
238.67	40.000
239.04	26.471
239.41	-2.439
239.79	13.333
240.16	34.146
240.53	7.895
240.91	2.174
241.28	0.000
241.65	35.714
242.02	24.658
242.40	18.333
242.77	28.814
243.14	21.212
243.51	22.500
243.89	39.080
244.26	28.736
244.63	35.714
245.00	24.742
245.38	29.897
245.75	30.337
246.12	25.000
246.49	22.314
246.87	25.000
247.24	34.454
247.61	26.316
247.98	31.707
248.36	26.250
248.73	34.211
249.10	23.377
249.47	36.709
249.84	33.987
250.22	28.824
250.59	33.333
250.96	29.108
251.33	26.163
251.70	36.471
252.08	33.503
252.45	27.723
252.82	26.633
253.19	29.032
253.56	29.907
253.94	35.586
254.31	36.087
254.68	33.772
255.05	29.528
255.42	30.131
255.79	30.888
256.16	35.409
256.54	35.448
256.91	33.080
257.28	32.342
257.65	25.468
258.02	31.915
258.39	32.323
258.76	34.066
259.14	36.545
259.51	29.450
259.88	31.615
260.25	36.601
260.62	34.375
260.99	30.169
261.36	32.534
261.73	32.278
262.10	32.219
262.47	29.448
262.85	33.856
263.22	36.615
263.59	33.022
263.96	30.124
264.33	37.576
264.70	33.333
265.07	30.655
265.44	32.861
265.81	31.638
266.18	32.240
266.55	31.620
266.92	31.865
267.29	35.248
267.66	31.714
268.03	33.770
268.40	32.898
268.77	35.294
269.14	34.053
269.51	34.447
269.88	31.172
270.25	31.633
270.62	33.902
270.99	34.271
271.36	33.741
271.73	31.925
272.10	32.117
272.47	32.388
272.84	31.683
273.21	34.803
273.58	31.807
273.95	32.037
274.32	30.485
274.69	29.186
275.06	34.821
275.43	28.118
275.80	31.347
276.17	30.805
276.54	34.047
276.91	32.018
277.28	30.131
277.65	31.612
278.02	30.851
278.39	30.416
278.76	29.769
279.13	27.593
279.50	30.882
279.87	30.238
280.23	33.118
280.60	31.384
280.97	32.121
281.34	28.462
281.71	33.265
282.08	29.857
282.45	28.180
282.82	29.730
283.19	31.721
283.56	30.058
283.92	29.791
284.29	29.808
284.66	28.295
285.03	29.273
285.40	27.977
285.77	30.756
286.14	27.437
286.51	32.657
286.87	29.982
287.24	28.913
287.61	28.219
287.98	29.298
288.35	27.903
288.72	30.473
289.08	29.340
289.45	29.877
289.82	28.322
290.19	26.451
290.56	25.729
290.93	26.263
291.29	24.499
291.66	25.984
292.03	24.402
292.40	28.710
292.77	25.678
293.13	24.188
293.50	24.734
293.87	25.802
294.24	25.811
294.60	24.888
294.97	23.661
295.34	24.233
295.71	23.696
296.08	23.767
296.44	22.760
296.81	23.333
297.18	24.928
297.55	25.745
297.91	23.973
298.28	23.615
298.65	23.338
299.02	22.507
299.38	22.298
299.75	21.241
300.12	22.382
300.48	22.266
300.85	21.546
301.22	20.000
301.59	22.105
301.95	23.291
302.32	21.530
302.69	20.522
303.05	21.906
303.42	21.420
303.79	21.495
304.15	21.386
304.52	21.046
304.89	19.766
305.25	19.976
305.62	19.487
305.99	19.649
306.35	20.694
306.72	17.773
307.09	21.323
307.45	21.010
307.82	20.139
308.19	19.977
308.55	19.847
308.92	21.242
309.29	19.330
309.65	20.560
310.02	19.582
310.38	20.746
310.75	21.421
311.12	19.591
311.48	18.982
311.85	20.209
312.22	18.987
312.58	18.577
312.95	20.384
313.31	18.012
313.68	19.372
314.05	20.000
314.41	20.619
314.78	19.072
315.14	20.349
315.51	21.222
315.87	18.340
316.24	20.222
316.61	20.374
316.97	19.643
317.34	20.703
317.70	19.790
318.07	19.135
318.43	18.824
318.80	19.223
319.16	20.410
319.53	20.228
319.89	19.291
320.26	19.838
320.62	20.562
320.99	18.372
321.35	19.836
321.72	19.730
322.08	19.033
322.45	20.609
322.81	18.861
323.18	19.235
323.54	18.533
323.91	19.572
324.27	20.508
324.64	20.787
325.00	18.613
325.37	19.559
325.73	20.218
326.10	20.618
326.46	21.256
326.83	20.297
327.19	21.011
327.56	19.896
327.92	21.127
328.29	19.464
328.65	21.038
329.01	20.588
329.38	20.737
329.74	20.397
330.11	18.999
330.47	19.944
330.84	19.135
331.20	20.722
331.56	19.074
331.93	20.000
332.29	20.348
332.66	19.910
333.02	18.959
333.38	19.248
333.75	20.788
334.11	19.069
334.48	20.218
334.84	20.696
335.20	19.671
335.57	19.674
335.93	20.145
336.29	19.705
336.66	20.254
337.02	19.145
337.38	19.630
337.75	19.818
338.11	21.641
338.47	21.898
338.84	19.778
339.20	19.378
339.56	19.725
339.93	19.696
340.29	19.266
340.65	20.161
341.02	18.617
341.38	18.850
341.74	19.170
342.11	18.977
342.47	19.039
342.83	20.502
343.20	20.035
343.56	19.739
343.92	19.043
344.28	20.325
344.65	18.566
345.01	18.237
345.37	20.017
345.73	20.084
346.10	19.327
346.46	19.765
346.82	19.313
347.19	19.036
347.55	19.382
347.91	19.498
348.27	20.210
348.63	19.250
349.00	19.934
349.36	19.701
349.72	19.900
350.08	18.443
350.45	19.872
350.81	17.608
351.17	18.730
351.53	19.673
351.89	18.002
352.26	19.280
352.62	19.839
352.98	19.277
353.34	18.357
353.70	19.984
354.07	18.710
354.43	19.135
354.79	17.754
355.15	20.000
355.51	19.225
355.87	17.880
356.24	18.434
356.60	18.674
356.96	19.524
357.32	19.569
357.68	18.139
358.04	18.417
358.40	18.810
358.77	18.979
359.13	18.335
359.49	17.180
359.85	18.955
360.21	18.501
360.57	18.133
360.93	18.911
361.29	17.145
361.66	18.417
362.02	19.167
362.38	19.040
362.74	18.244
363.10	19.338
363.46	18.829
363.82	19.910
364.18	18.376
364.54	17.426
364.90	17.849
365.26	18.486
365.62	19.708
365.98	18.842
366.35	18.572
366.71	18.182
367.07	18.505
367.43	17.685
367.79	18.021
368.15	18.090
368.51	18.135
368.87	18.306
369.23	17.256
369.59	19.023
369.95	19.135
370.31	17.991
370.67	17.687
371.03	17.774
371.39	16.995
371.75	18.095
372.11	17.475
372.47	17.825
372.83	17.672
373.19	17.546
373.55	17.112
373.91	17.567
374.27	17.789
374.63	17.732
374.99	17.163
375.35	17.549
375.71	18.671
376.07	17.978
376.42	17.619
376.78	18.121
377.14	17.265
377.50	17.463
377.86	17.671
378.22	17.613
378.58	17.692
378.94	17.643
379.30	17.717
379.66	16.803
380.02	17.106
380.38	16.859
380.74	17.295
381.09	17.423
381.45	17.125
381.81	17.397
382.17	18.211
382.53	17.676
382.89	17.075
383.25	17.424
383.61	17.683
383.97	17.333
384.32	17.699
384.68	18.142
385.04	17.218
385.40	17.299
385.76	18.050
386.12	17.012
386.48	17.369
386.83	17.565
387.19	17.582
387.55	18.193
387.91	16.626
388.27	17.827
388.62	18.125
388.98	17.311
389.34	17.926
389.70	17.961
390.06	16.237
390.42	16.645
390.77	17.070
391.13	17.213
391.49	16.882
391.85	17.804
392.20	17.012
392.56	17.673
392.92	16.500
393.28	17.748
393.64	16.156
393.99	18.119
394.35	16.572
394.71	17.752
395.07	16.530
395.42	16.393
395.78	16.678
396.14	17.465
396.50	17.502
396.85	18.352
397.21	17.544
397.57	17.241
397.92	16.896
398.28	17.644
398.64	16.627
399.00	17.381
399.35	15.801
399.71	17.806
400.07	18.138
400.42	16.463
400.78	16.473
401.14	16.818
401.49	17.213
401.85	17.185
402.21	17.349
402.57	17.125
402.92	17.127
403.28	18.484
403.63	17.402
403.99	16.582
404.35	17.614
404.70	16.488
405.06	16.804
405.42	17.464
405.77	16.153
406.13	16.764
406.49	17.288
406.84	17.054
407.20	18.001
407.55	16.935
407.91	17.513
408.27	16.189
408.62	17.354
408.98	17.560
409.34	17.720
409.69	16.602
410.05	17.057
410.40	17.346
410.76	17.431
411.11	16.937
411.47	17.620
411.83	16.824
412.18	17.375
412.54	17.166
412.89	16.687
413.25	17.509
413.60	16.957
413.96	17.730
414.31	17.927
414.67	17.768
415.03	17.310
415.38	16.645
415.74	17.264
416.09	17.244
416.45	16.745
416.80	17.052
417.16	17.818
417.51	17.722
417.87	17.536
418.22	18.588
418.58	18.127
418.93	17.868
419.29	16.581
419.64	17.758
420.00	19.207
420.35	17.075
420.71	18.226
421.06	18.232
421.42	18.149
421.77	17.399
422.12	17.140
422.48	17.596
422.83	18.271
423.19	17.607
423.54	17.402
423.90	17.845
424.25	17.910
424.61	18.666
424.96	17.596
425.31	18.255
425.67	17.782
426.02	19.022
426.38	18.723
426.73	18.160
427.09	18.101
427.44	18.588
427.79	18.916
428.15	18.507
428.50	18.292
428.85	18.366
429.21	18.393
429.56	18.868
429.92	18.028
430.27	18.246
430.62	16.884
430.98	18.206
431.33	18.244
431.68	17.896
432.04	18.055
432.39	18.083
432.74	17.919
433.10	17.816
433.45	17.802
433.80	18.862
434.16	17.396
434.51	18.333
434.86	18.293
435.22	18.564
435.57	18.403
435.92	18.024
436.28	18.784
436.63	18.426
436.98	17.903
437.34	18.209
437.69	18.843
438.04	17.664
438.39	17.715
438.75	18.094
439.10	18.563
439.45	18.807
439.81	18.104
440.16	18.587
440.51	18.746
440.86	19.215
441.22	18.835
441.57	19.095
441.92	18.835
442.27	18.459
442.63	19.486
442.98	18.495
443.33	18.420
443.68	18.355
444.03	19.573
444.39	18.347
444.74	19.119
445.09	19.265
445.44	18.063
445.79	20.010
446.15	19.383
446.50	17.582
446.85	18.225
447.20	18.561
447.55	20.257
447.91	19.064
448.26	19.863
448.61	19.229
448.96	19.105
449.31	19.306
449.66	20.151
450.02	18.996
450.37	19.739
450.72	19.301
451.07	19.430
451.42	19.039
451.77	19.168
452.12	19.199
452.47	18.352
452.83	18.787
453.18	19.228
453.53	19.532
453.88	18.397
454.23	18.808
454.58	20.214
454.93	20.168
455.28	18.921
455.63	19.839
455.98	20.024
456.34	20.243
456.69	20.394
457.04	20.227
457.39	20.109
457.74	19.468
458.09	19.070
458.44	18.841
458.79	18.992
459.14	20.595
459.49	20.239
459.84	19.797
460.19	19.782
460.54	19.804
460.89	19.432
461.24	20.124
461.59	21.021
461.94	19.748
462.29	20.205
462.64	21.196
462.99	20.311
463.34	20.028
463.69	20.077
464.04	20.702
464.39	20.619
464.74	21.043
465.09	20.649
465.44	19.446
465.79	18.991
466.14	20.182
466.49	20.817
466.84	20.702
467.19	21.402
467.54	20.626
467.89	20.910
468.24	20.316
468.59	20.190
468.94	20.127
469.29	20.590
469.64	21.463
469.99	22.565
470.34	20.819
470.68	21.849
471.03	21.868
471.38	22.468
471.73	21.919
472.08	21.031
472.43	22.013
472.78	20.699
473.13	21.973
473.48	22.150
473.83	20.797
474.17	22.215
474.52	22.017
474.87	21.818
475.22	20.988
475.57	21.231
475.92	21.393
476.27	22.119
476.61	21.875
476.96	20.803
477.31	21.471
477.66	20.730
478.01	22.010
478.36	21.732
478.70	21.588
479.05	22.473
479.40	21.940
479.75	21.220
480.10	21.403
480.45	22.050
480.79	22.659
481.14	21.875
481.49	21.626
481.84	21.429
482.19	20.907
482.53	21.295
482.88	22.243
483.23	22.217
483.58	22.123
483.92	21.733
484.27	21.787
484.62	21.874
484.97	20.854
485.31	21.387
485.66	20.124
486.01	19.525
486.36	19.112
486.70	18.721
487.05	19.902
487.40	20.036
487.75	19.521
488.09	20.457
488.44	20.461
488.79	20.620
489.13	20.954
489.48	22.061
489.83	21.928
490.17	21.483
490.52	22.402
490.87	21.934
491.22	22.732
491.56	22.960
491.91	21.654
492.26	22.752
492.60	23.656
492.95	23.414
493.30	22.667
493.64	23.134
493.99	24.203
494.34	22.330
494.68	23.619
495.03	22.968
495.37	22.424
495.72	23.120
496.07	23.122
496.41	22.547
496.76	23.399
497.11	21.565
497.45	23.675
497.80	24.168
498.14	23.199
498.49	23.362
498.84	24.152
499.18	23.343
499.53	23.859
499.87	22.325
500.22	22.255
500.56	23.147
500.91	23.494
501.26	22.887
501.60	23.266
501.95	24.066
502.29	23.729
502.64	24.421
502.98	23.582
503.33	23.679
503.67	22.892
504.02	23.558
504.36	24.493
504.71	23.434
505.06	23.805
505.40	24.467
505.75	24.175
506.09	23.315
506.44	24.435
506.78	23.673
507.13	24.509
507.47	23.342
507.82	24.306
508.16	24.089
508.51	24.502
508.85	24.699
509.19	23.736
509.54	24.504
509.88	24.488
510.23	25.121
510.57	24.693
510.92	23.827
511.26	25.259
511.61	25.633
511.95	25.260
512.30	25.277
512.64	25.710
512.98	24.818
513.33	24.454
513.67	24.901
514.02	26.831
514.36	26.171
514.70	26.282
515.05	26.498
515.39	26.328
515.74	26.766
516.08	26.240
516.42	27.208
516.77	26.916
517.11	25.816
517.46	27.349
517.80	26.937
518.14	26.699
518.49	26.202
518.83	26.974
519.17	26.198
519.52	26.821
519.86	26.771
520.20	27.096
520.55	26.391
520.89	26.788
521.23	27.739
521.58	27.129
521.92	27.500
522.26	27.781
522.61	28.117
522.95	27.947
523.29	28.971
523.64	28.335
523.98	27.868
524.32	26.997
524.66	28.105
525.01	28.831
525.35	28.581
525.69	28.081
526.04	27.249
526.38	28.923
526.72	27.469
527.06	28.275
527.41	29.288
527.75	28.284
528.09	28.239
528.43	29.710
528.78	28.449
529.12	29.290
529.46	27.615
529.80	27.169
530.15	28.053
530.49	28.350
530.83	28.523
531.17	28.005
531.51	28.933
531.86	28.212
532.20	28.114
532.54	28.114
532.88	27.515
533.22	28.293
533.57	27.261
533.91	27.611
534.25	27.799
534.59	27.710
534.93	26.495
535.27	26.523
535.62	27.738
535.96	27.397
536.30	28.298
536.64	28.325
536.98	28.641
537.32	28.307
537.66	28.261
538.01	28.881
538.35	28.086
538.69	29.028
539.03	27.478
539.37	27.995
539.71	26.312
540.05	28.785
540.39	28.393
540.73	29.847
541.07	28.867
541.42	29.435
541.76	28.837
542.10	28.493
542.44	27.450
542.78	26.841
543.12	28.022
543.46	27.955
543.80	28.175
544.14	26.702
544.48	26.915
544.82	28.366
545.16	28.279
545.50	28.304
545.84	27.904
546.18	28.369
546.52	28.695
546.86	27.678
547.20	28.612
547.54	27.350
547.88	27.514
548.22	27.153
548.56	27.441
548.90	28.167
549.24	27.548
549.58	27.997
549.92	27.591
550.26	28.132
550.60	28.773
550.94	28.827
551.28	29.598
551.62	30.615
551.96	29.925
552.30	28.363
552.64	27.786
552.98	28.481
553.32	28.816
553.66	27.649
554.00	29.270
554.34	29.321
554.68	28.614
555.02	28.051
555.36	28.272
555.69	28.278
556.03	28.266
556.37	28.399
556.71	28.881
557.05	29.157
557.39	27.955
557.73	29.310
558.07	29.713
558.41	29.173
558.75	29.306
559.08	28.842
559.42	28.889
559.76	30.184
560.10	28.823
560.44	28.518
560.78	28.951
561.12	29.055
561.45	28.391
561.79	28.992
562.13	29.666
562.47	28.633
562.81	28.098
563.15	29.831
563.48	29.066
563.82	28.346
564.16	27.994
564.50	28.378
564.84	28.782
565.17	28.773
565.51	28.620
565.85	28.326
566.19	29.178
566.52	28.619
566.86	28.728
567.20	27.958
567.54	27.433
567.88	27.241
568.21	27.262
568.55	25.815
568.89	26.386
569.23	25.951
569.56	24.737
569.90	24.482
570.24	24.488
570.57	24.291
570.91	23.911
571.25	22.887
571.59	22.859
571.92	22.785
572.26	22.494
572.60	22.202
572.93	22.937
573.27	22.382
573.61	22.047
573.95	22.256
574.28	21.557
574.62	21.409
574.96	21.291
575.29	21.302
575.63	21.327
575.97	21.469
576.30	21.760
576.64	21.430
576.98	21.802
577.31	21.504
577.65	21.674
577.98	21.492
578.32	20.876
578.66	20.073
578.99	20.800
579.33	21.034
579.67	21.095
580.00	21.443
580.34	21.393
580.67	21.291
581.01	20.917
581.35	20.758
581.68	20.823
582.02	20.536
582.35	20.483
582.69	20.530
583.02	20.273
583.36	20.795
583.70	21.469
584.03	22.130
584.37	21.457
584.70	21.374
585.04	21.166
585.37	21.081
585.71	21.550
586.04	20.827
586.38	21.286
586.72	21.951
587.05	22.675
587.39	22.002
587.72	22.034
588.06	21.810
588.39	21.675
588.73	22.314
589.06	22.374
589.40	22.606
589.73	23.184
590.07	23.338
590.40	22.562
590.73	23.806
591.07	24.131
591.40	23.776
591.74	25.113
592.07	24.675
592.41	24.337
592.74	23.656
593.08	22.354
593.41	23.130
593.75	22.309
594.08	22.039
594.41	22.598
594.75	22.557
595.08	23.534
595.42	22.782
595.75	23.019
596.09	22.791
596.42	23.109
596.75	24.334
597.09	23.645
597.42	23.939
597.75	23.683
598.09	23.676
598.42	22.879
598.76	23.638
599.09	23.397
599.42	23.153
599.76	22.724
600.09	23.152
600.42	22.745
600.76	22.474
601.09	22.595
601.42	23.188
601.76	23.263
602.09	23.391
602.42	23.842
602.76	24.024
603.09	23.339
603.42	24.122
603.76	22.903
604.09	22.438
604.42	23.477
604.76	24.566
605.09	24.223
605.42	23.476
605.75	23.468
606.09	23.864
606.42	22.977
606.75	23.550
607.09	24.088
607.42	24.103
607.75	23.268
608.08	23.720
608.42	23.984
608.75	24.386
609.08	24.116
609.41	24.721
609.75	23.387
610.08	24.264
610.41	24.251
610.74	24.086
611.07	24.703
611.41	25.065
611.74	26.066
612.07	24.518
612.40	25.328
612.73	25.424
613.07	24.803
613.40	25.766
613.73	24.063
614.06	25.153
614.39	24.817
614.72	25.602
615.06	24.246
615.39	24.727
615.72	24.435
616.05	24.693
616.38	24.046
616.71	25.994
617.05	26.498
617.38	26.713
617.71	26.038
618.04	26.794
618.37	25.977
618.70	26.469
619.03	27.014
619.36	27.641
619.69	27.293
620.03	27.319
620.36	26.538
620.69	27.266
621.02	28.976
621.35	28.050
621.68	29.507
622.01	29.667
622.34	28.172
622.67	29.259
623.00	28.101
623.33	27.820
623.66	27.973
623.99	27.383
624.32	28.213
624.65	28.195
624.99	28.141
625.32	27.218
625.65	29.929
625.98	29.089
626.31	28.761
626.64	29.723
626.97	30.541
627.30	30.998
627.63	29.289
627.96	31.626
628.29	30.527
628.62	31.465
628.95	30.361
629.28	32.056
629.61	30.708
629.94	31.476
630.26	30.830
630.59	32.882
630.92	32.410
631.25	30.051
631.58	33.811
631.91	31.360
632.24	32.454
632.57	33.864
632.90	33.571
633.23	35.059
633.56	36.146
633.89	34.279
634.22	35.802
634.55	35.197
634.88	33.716
635.20	34.359
635.53	34.800
635.86	34.460
636.19	35.834
636.52	34.949
636.85	33.499
637.18	35.094
637.51	33.585
637.83	34.166
638.16	37.517
638.49	34.469
638.82	36.316
639.15	35.278
639.48	33.287
639.81	35.844
640.13	34.488
640.46	37.318
640.79	35.199
641.12	36.337
641.45	35.285
641.77	37.926
642.10	37.125
642.43	36.977
642.76	35.809
643.09	40.065
643.41	36.408
643.74	36.738
644.07	38.095
644.40	37.669
644.73	37.828
645.05	36.913
645.38	37.390
645.71	38.652
646.04	39.856
646.36	38.830
646.69	39.748
647.02	43.100
647.35	37.687
647.67	38.757
648.00	40.858
648.33	37.201
648.66	37.797
648.98	35.008
649.31	37.190
649.64	34.066
649.96	34.360
650.29	36.968
650.62	36.581
650.94	38.148
651.27	36.685
651.60	38.378
651.92	37.937
652.25	35.169
652.58	36.167
652.90	37.221
653.23	37.647
653.56	34.687
653.88	35.223
654.21	34.501
654.54	35.484
654.86	36.333
655.19	32.602
655.52	27.245
655.84	21.047
656.17	21.928
656.49	28.743
656.82	28.705
657.15	21.513
657.47	15.953
657.80	11.963
658.13	11.840
658.45	18.162
658.78	17.882
659.10	18.013
659.43	18.951
659.75	20.572
660.08	23.103
660.41	26.660
660.73	32.044
661.06	34.142
661.38	40.900
661.71	34.702
662.03	37.339
662.36	39.341
662.68	37.611
663.01	39.083
663.33	44.316
663.66	38.140
663.98	38.837
664.31	40.512
664.63	39.171
664.96	36.957
665.28	37.969
665.61	38.745
665.93	39.130
666.26	38.395
666.58	35.347
666.91	39.529
667.23	40.330
667.56	38.863
667.88	39.089
668.21	44.153
668.53	43.262
668.86	38.443
669.18	40.330
669.50	38.741
669.83	40.000
670.15	37.529
670.48	36.603
670.80	40.553
671.13	36.689
671.45	36.301
671.77	39.485
672.10	37.624
672.42	35.768
672.75	34.103
673.07	36.673
673.39	35.963
673.72	32.939
674.04	35.833
674.37	36.017
674.69	37.259
675.01	38.000
675.34	36.712
675.66	37.731
675.98	37.472
676.31	37.156
676.63	35.867
676.95	36.364
677.28	39.294
677.60	41.687
677.92	38.532
678.25	36.105
678.57	35.714
678.89	35.924
679.22	38.031
679.54	34.739
679.86	32.803
680.18	33.592
680.51	31.629
680.83	32.207
681.15	35.000
681.48	36.066
681.80	36.570
682.12	36.290
682.44	31.172
682.77	37.748
683.09	35.698
683.41	35.000
683.73	36.406
684.06	36.283
684.38	33.333
684.70	36.166
685.02	34.647
685.34	33.202
685.67	33.208
685.99	34.358
686.31	31.681
686.63	34.694
686.96	30.418
687.28	30.303
687.60	31.369
687.92	34.343
688.24	34.073
688.56	34.061
688.89	35.491
689.21	34.444
689.53	36.427
689.85	33.023
690.17	34.598
690.49	35.934
690.82	38.592
691.14	31.190
691.46	37.150
691.78	36.712
692.10	32.903
692.42	35.931
692.74	32.051
693.06	35.586
693.39	33.032
693.71	31.448
694.03	34.411
694.35	35.280
694.67	34.343
694.99	34.726
695.31	37.859
695.63	37.500
695.95	35.354
696.27	33.161
696.59	40.000
696.91	34.174
697.23	32.134
697.56	32.673
697.88	33.333
698.20	30.979
698.52	32.000
698.84	29.426
699.16	34.000
699.48	36.090
699.80	33.747
700.12	39.892
700.44	37.815
700.76	33.140
701.08	35.758
701.40	34.940
701.72	41.667
702.04	38.284
702.36	38.796
702.68	36.637
703.00	38.485
703.32	36.070
703.64	32.486
703.96	39.130
704.28	35.276
704.60	35.556
704.91	37.224
705.23	34.219
705.55	41.696
705.87	41.877
706.19	41.852
706.51	39.519
706.83	36.656
707.15	33.333
707.47	36.134
707.79	32.292
708.11	34.500
708.43	32.750
708.74	31.266
709.06	34.930
709.38	38.838
709.70	35.503
710.02	35.987
710.34	34.985
710.66	28.526
710.98	32.119
711.29	39.672
711.61	35.593
711.93	36.808
712.25	44.330
712.57	39.194
712.89	36.194
713.20	37.370
713.52	35.889
713.84	35.836
714.16	32.990
714.48	34.194
714.80	35.577
715.11	34.347
715.43	28.840
715.75	34.333
716.07	31.561
716.39	35.570
716.70	33.948
717.02	32.824
717.34	40.891
717.66	35.841
717.97	40.000
718.29	35.565
718.61	35.039
718.93	36.822
719.24	39.924
719.56	35.743
719.88	37.801
720.20	35.606
720.51	31.801
720.83	37.452
721.15	43.697
721.46	33.871
721.78	36.364
722.10	35.316
722.42	31.535
722.73	33.469
723.05	43.265
723.37	40.678
723.68	41.441
724.00	38.889
724.32	35.556
724.63	36.364
724.95	41.048
725.27	38.249
725.58	37.712
725.90	31.349
726.22	33.205
726.53	35.254
726.85	35.955
727.16	40.000
727.48	33.198
727.80	35.223
728.11	40.254
728.43	34.510
728.74	31.855
729.06	31.600
729.38	40.226
729.69	34.263
730.01	25.385
730.32	32.836
730.64	36.396
730.96	37.358
731.27	32.000
731.59	32.203
731.90	30.892
732.22	31.861
732.53	34.551
732.85	32.624
733.16	36.364
733.48	29.137
733.80	28.261
734.11	32.881
734.43	29.897
734.74	30.303
735.06	29.967
735.37	32.931
735.69	31.987
736.00	32.404
736.32	32.886
736.63	32.394
736.95	32.765
737.26	30.961
737.58	28.859
737.89	28.205
738.21	27.444
738.52	33.333
738.83	36.681
739.15	29.694
739.46	33.858
739.78	31.136
740.09	29.739
740.41	34.420
740.72	33.071
741.04	33.198
741.35	37.872
741.66	35.545
741.98	39.286
742.29	34.158
742.61	37.173
742.92	27.014
743.23	30.556
743.55	33.937
743.86	37.321
744.18	32.057
744.49	32.447
744.80	32.609
745.12	43.316
745.43	34.146
745.74	39.583
746.06	36.098
746.37	38.220
746.68	33.175
747.00	40.957
747.31	33.831
747.62	42.233
747.94	34.450
748.25	33.168
748.56	35.519
748.88	31.937
749.19	37.234
749.50	38.424
749.82	33.962
750.13	35.780
750.44	31.579
750.75	35.448
751.07	36.496
751.38	30.268
751.69	30.196
752.01	35.271
752.32	34.263
752.63	32.411
752.94	30.172
753.26	35.983
753.57	31.222
753.88	37.611
754.19	27.500
754.51	32.645
754.82	33.198
755.13	35.000
755.44	32.258
755.75	31.250
756.07	32.296
756.38	30.943
756.69	31.034
757.00	28.667
757.31	28.431
757.63	27.744
757.94	26.667
758.25	26.575
758.56	27.394
758.87	22.946
759.18	26.791
759.50	30.545
759.81	33.110
760.12	30.323
760.43	29.091
760.74	25.617
761.05	25.846
761.36	28.977
761.67	30.909
761.99	28.912
762.30	25.455
762.61	28.458
762.92	32.127
763.23	27.477
763.54	29.439
763.85	33.898
764.16	26.971
764.47	28.226
764.78	25.275
765.10	28.620
765.41	28.391
765.72	28.254
766.03	23.684
766.34	29.927
766.65	33.865
766.96	31.313
767.27	32.447
767.58	33.333
767.89	37.589
768.20	29.545
768.51	31.319
768.82	32.020
769.13	28.111
769.44	31.330
769.75	26.484
770.06	31.466
770.37	36.538
770.68	26.396
770.99	27.149
771.30	36.275
771.61	25.792
771.92	32.328
772.23	28.571
772.54	29.570
772.85	33.333
773.16	35.393
773.47	43.791
773.78	35.294
774.09	26.347
774.39	31.333
774.70	38.217
775.01	40.690
775.32	34.286
775.63	34.711
775.94	29.771
776.25	35.433
776.56	32.500
776.87	40.385
777.18	40.171
777.48	40.517
777.79	33.913
778.10	27.619
778.41	40.541
778.72	33.333
779.03	32.331
779.34	34.043
779.65	34.932
779.95	35.616
780.26	30.345
780.57	31.707
780.88	34.646
781.19	37.931
781.50	34.109
781.80	30.769
782.11	22.642
782.42	30.000
782.73	24.460
783.04	35.556
783.34	28.472
783.65	23.932
783.96	24.590
784.27	32.414
784.57	30.894
784.88	31.250
785.19	36.000
785.50	30.000
785.81	40.517
786.11	23.276
786.42	33.010
786.73	39.091
787.04	32.653
787.34	35.714
787.65	26.667
787.96	27.434
788.26	23.636
788.57	24.786
788.88	35.156
789.19	20.635
789.49	33.043
789.80	30.612
790.11	31.313
790.41	26.364
790.72	35.870
791.03	36.364
791.33	41.250
791.64	23.750
791.95	30.233
792.25	26.596
792.56	26.966
792.87	39.726
793.17	17.391
793.48	22.667
793.79	25.000
794.09	32.500
794.40	19.811
794.70	20.388
795.01	21.951
795.32	24.786
795.62	23.810
795.93	38.235
796.23	25.472
796.54	27.083
796.85	35.294
797.15	29.577
797.46	36.111
797.76	34.848
798.07	22.093
798.37	39.474
798.68	13.636
798.99	18.519
799.29	44.286
799.60	33.333
799.90	48.000
800.21	32.787
800.51	21.538
800.82	23.729
801.12	28.986
801.43	34.426
801.73	41.270
802.04	22.000
802.34	44.776
802.65	44.231
802.95	19.643
803.26	9.615
803.56	41.176
803.87	41.304
804.17	33.333
804.48	47.619
804.78	25.926
805.09	19.565
805.39	26.667
805.70	50.000
806.00	24.561
806.30	23.944
806.61	32.857
806.91	19.444
807.22	38.158
807.52	36.000
807.83	1.818
808.13	27.778
808.43	23.529
808.74	8.955
809.04	15.254
809.35	48.077
809.65	37.500
809.95	10.811
810.26	27.273
810.56	9.589
810.86	42.857
811.17	32.000
811.47	28.571
811.77	7.895
812.08	40.909
812.38	24.528
812.69	0.000
812.99	3.030
813.29	39.474
813.59	22.857
813.90	40.909
814.20	15.385
814.50	25.000
814.81	26.415
815.11	4.255
815.41	25.424
815.72	14.286
816.02	39.216
816.32	2.083
816.62	21.951
816.93	8.108
817.23	25.714
817.53	37.500
817.84	-2.174
818.14	25.000
818.44	26.316
818.74	47.826
819.04	7.500
819.35	45.946
819.65	2.941
819.95	41.667
820.25	28.571
820.56	37.500
820.86	13.793
821.16	27.500
821.46	23.404
821.76	32.500
822.07	18.605
822.37	-8.108
822.67	6.250
822.97	26.190
823.27	-21.429
823.57	-8.000
823.88	11.111
824.18	35.714
824.48	32.353
824.78	6.452
825.08	47.826
825.38	9.091
825.69	-4.167
825.99	21.053
826.29	61.111
826.59	0.000
826.89	9.524
827.19	26.087
827.49	12.500
827.79	48.571
828.09	28.571
828.39	27.273
828.70	51.351
829.00	7.143
829.30	9.524
829.60	20.000
829.90	31.250
830.20	39.474
830.50	14.815
830.80	26.087
831.10	27.273
831.40	18.182
831.70	58.065
832.00	-9.524
832.30	-28.571
832.60	66.667
832.90	13.793
833.20	-10.000
833.50	27.273
833.80	51.852
834.10	30.769
834.40	46.875
834.70	22.222
835.00	-36.842
835.30	26.923
835.60	20.000
835.90	16.129
836.20	27.273
836.50	50.000
836.80	-15.385
837.10	-3.571
837.40	133.333
837.70	40.909
838.00	-72.727
838.30	34.783
838.60	0.000
838.90	31.818
839.19	-10.714
839.49	3.333
839.79	38.462
840.09	-50.000
840.39	35.714
840.69	14.286
840.99	-19.231
841.29	26.316
841.59	-70.000
841.88	36.364
842.18	170.000
842.48	12.500
842.78	-13.333
843.08	3.704
843.38	-100.000
843.68	4.348
843.97	33.333
844.27	-66.667
844.57	10.000
844.87	33.333
845.17	4.762
845.47	40.000
845.76	42.857
846.06	23.529
846.36	-10.000
846.66	28.571
846.96	-46.667
847.25	-125.000
847.55	21.429
847.85	0.000
848.15	-9.091
848.44	-366.667
848.74	5.000
849.04	55.556
849.34	-45.455
849.63	-133.333
849.93	-180.000
850.23	-11.111
850.53	90.000
850.82	0.000
851.12	11.111
851.42	40.000
851.71	38.462
852.01	28.571
852.31	-50.000
852.61	-63.636
852.90	0.000
853.20	21.053
853.50	-8.333
853.79	26.087
854.09	25.000
854.39	26.316
854.68	-25.000
854.98	45.161
855.28	23.077
855.57	-15.000
855.87	16.667
856.17	11.111
856.46	7.143
856.76	-13.333
857.05	100.000
857.35	-4.000
857.65	11.111
857.94	-23.077
858.24	62.069
858.53	27.778
858.83	29.630
859.13	13.636
859.42	0.000
859.72	-175.000
860.01	-233.333
860.31	24.000
860.60	23.810
860.90	133.333
861.20	-80.000
861.49	-200.000
861.79	-33.333
862.08	-5.000
862.38	66.667
862.67	-40.000
862.97	-50.000
863.26	-41.667
863.56	22.222
863.85	-466.667
864.15	16.667
864.44	-160.000
864.74	-21.429
865.03	100.000
865.33	-280.000
865.62	66.667
865.92	83.333
866.21	-16.667
866.51	12.500
866.80	-36.364
867.10	-500.000
867.39	58.333
867.69	0.000
867.98	38.462
868.27	0.000
868.57	-6.667
868.86	-11.111
869.16	-53.846
869.45	33.333
869.75	-700.000
870.04	0.000
870.33	-28.571
870.63	-14.286
870.92	433.333
871.22	-120.000
871.51	400.000
871.80	0.000
872.10	600.000
>>>>>End Processed Spectral Data<<<<<
