SpectraSuite Data File
++++++++++++++++++++++++++++++++++++
Date: Fri May 15 21:01:08 PDT 2015
User: schluterlab
Dark Spectrum Present: Yes
Reference Spectrum Present: Yes
Number of Sampled Component Spectra: 1
Spectrometers: USB2E3373
Integration Time (usec): 3000 (USB2E3373)
Spectra Averaged: 3 (USB2E3373)
Boxcar Smoothing: 0 (USB2E3373)
Correct for Electrical Dark: No (USB2E3373)
Strobe/Lamp Enabled: No (USB2E3373)
Correct for Detector Non-linearity: No (USB2E3373)
Correct for Stray Light: No (USB2E3373)
Number of Pixels in Processed Spectrum: 2048
>>>>>Begin Processed Spectral Data<<<<<
178.53	0.000
178.91	0.000
179.29	62.500
179.67	-600.000
180.04	142.857
180.42	-75.000
180.80	-1000.000
181.18	266.667
181.56	1100.000
181.94	-250.000
182.31	900.000
182.69	20.000
183.07	-200.000
183.45	-60.000
183.83	66.667
184.20	9.091
184.58	100.000
184.96	100.000
185.34	33.333
185.72	-700.000
186.09	76.923
186.47	-300.000
186.85	183.333
187.23	222.222
187.61	700.000
187.98	-100.000
188.36	11.111
188.74	-66.667
189.12	17.647
189.49	0.000
189.87	0.000
190.25	78.571
190.63	-50.000
191.00	-133.333
191.38	0.000
191.76	300.000
192.14	-125.000
192.51	400.000
192.89	-55.556
193.27	-114.286
193.65	250.000
194.02	181.818
194.40	-80.000
194.78	-175.000
195.15	-150.000
195.53	-187.500
195.91	200.000
196.29	-300.000
196.66	161.538
197.04	328.571
197.42	-66.667
197.79	-700.000
198.17	-107.692
198.55	1100.000
198.92	-200.000
199.30	-1300.000
199.68	-220.000
200.05	-333.333
200.43	0.000
200.81	-33.333
201.18	-266.667
201.56	1200.000
201.94	-450.000
202.31	-100.000
202.69	-160.000
203.07	175.000
203.44	1300.000
203.82	0.000
204.19	0.000
204.57	-566.667
204.95	125.000
205.32	-130.000
205.70	-42.857
206.08	-200.000
206.45	155.556
206.83	-35.714
207.20	-228.571
207.58	-200.000
207.96	-566.667
208.33	-60.000
208.71	-75.000
209.08	-166.667
209.46	-2100.000
209.84	-240.000
210.21	-1000.000
210.59	128.571
210.96	-100.000
211.34	-100.000
211.71	20.000
212.09	-228.571
212.46	-1900.000
212.84	0.000
213.22	-50.000
213.59	600.000
213.97	-46.154
214.34	27.273
214.72	-66.667
215.09	500.000
215.47	46.154
215.84	-18.182
216.22	-133.333
216.59	-225.000
216.97	200.000
217.34	-225.000
217.72	-320.000
218.09	75.000
218.47	150.000
218.84	100.000
219.22	-88.889
219.59	-180.000
219.97	200.000
220.34	175.000
220.72	0.000
221.09	-225.000
221.47	100.000
221.84	-300.000
222.22	-600.000
222.59	0.000
222.97	25.000
223.34	-133.333
223.72	-92.857
224.09	4.762
224.46	-7.143
224.84	333.333
225.21	40.000
225.59	-6.667
225.96	-50.000
226.34	425.000
226.71	-85.714
227.08	-83.333
227.46	-62.500
227.83	-950.000
228.21	-22.222
228.58	-9.091
228.95	0.000
229.33	150.000
229.70	25.000
230.08	-125.000
230.45	-71.429
230.82	100.000
231.20	-60.000
231.57	71.429
231.95	0.000
232.32	-80.000
232.69	35.714
233.07	-300.000
233.44	0.000
233.81	-80.000
234.19	111.111
234.56	58.824
234.93	-0.000
235.31	0.000
235.68	-100.000
236.05	-92.308
236.43	-45.000
236.80	-41.176
237.17	46.875
237.55	-5.000
237.92	3.704
238.29	-13.889
238.67	20.000
239.04	8.824
239.41	-9.756
239.79	6.667
240.16	41.463
240.53	21.053
240.91	8.696
241.28	-4.762
241.65	28.571
242.02	27.397
242.40	30.000
242.77	15.254
243.14	27.273
243.51	18.750
243.89	42.529
244.26	9.195
244.63	34.524
245.00	37.113
245.38	24.742
245.75	21.348
246.12	25.862
246.49	25.620
246.87	26.923
247.24	21.008
247.61	25.439
247.98	22.764
248.36	28.750
248.73	28.289
249.10	24.026
249.47	26.582
249.84	26.144
250.22	25.882
250.59	29.412
250.96	34.272
251.33	29.070
251.70	27.059
252.08	28.426
252.45	23.267
252.82	26.633
253.19	32.719
253.56	28.505
253.94	30.631
254.31	30.870
254.68	31.579
255.05	29.134
255.42	36.245
255.79	37.838
256.16	31.128
256.54	29.851
256.91	31.939
257.28	30.483
257.65	31.086
258.02	26.950
258.39	31.313
258.76	34.799
259.14	30.233
259.51	33.010
259.88	30.584
260.25	33.333
260.62	34.375
260.99	31.186
261.36	30.479
261.73	27.215
262.10	32.827
262.47	30.061
262.85	27.900
263.22	31.692
263.59	32.710
263.96	33.230
264.33	33.030
264.70	31.250
265.07	31.250
265.44	32.011
265.81	31.356
266.18	28.142
266.55	31.877
266.92	33.679
267.29	33.943
267.66	30.946
268.03	29.058
268.40	30.548
268.77	33.155
269.14	30.695
269.51	31.362
269.88	34.165
270.25	30.867
270.62	32.195
270.99	29.923
271.36	31.296
271.73	30.986
272.10	30.414
272.47	33.097
272.84	32.921
273.21	27.842
273.58	35.663
273.95	31.808
274.32	29.792
274.69	28.507
275.06	33.036
275.43	29.478
275.80	29.581
276.17	29.885
276.54	31.263
276.91	31.140
277.28	29.913
277.65	30.992
278.02	29.574
278.39	31.510
278.76	32.075
279.13	26.763
279.50	31.303
279.87	28.078
280.23	26.452
280.60	31.189
280.97	31.515
281.34	27.500
281.71	33.060
282.08	31.697
282.45	28.571
282.82	26.834
283.19	28.627
283.56	29.865
283.92	26.565
284.29	28.269
284.66	27.326
285.03	30.452
285.40	30.246
285.77	27.065
286.14	29.061
286.51	30.258
286.87	28.336
287.24	30.755
287.61	26.102
287.98	28.947
288.35	27.210
288.72	29.072
289.08	27.951
289.45	29.877
289.82	27.622
290.19	25.939
290.56	28.816
290.93	25.758
291.29	23.575
291.66	26.457
292.03	24.721
292.40	25.806
292.77	25.997
293.13	23.864
293.50	23.369
293.87	25.191
294.24	25.348
294.60	23.845
294.97	25.595
295.34	23.926
295.71	23.100
296.08	23.468
296.44	21.906
296.81	21.944
297.18	24.058
297.55	22.629
297.91	22.329
298.28	22.559
298.65	23.745
299.02	22.507
299.38	20.793
299.75	21.103
300.12	22.513
300.48	23.452
300.85	21.039
301.22	21.169
301.59	23.158
301.95	21.646
302.32	22.957
302.69	20.896
303.05	22.153
303.42	22.042
303.79	22.664
304.15	22.342
304.52	21.522
304.89	19.766
305.25	20.823
305.62	19.253
305.99	20.819
306.35	20.231
306.72	20.472
307.09	20.182
307.45	21.125
307.82	19.560
308.19	21.022
308.55	21.047
308.92	21.569
309.29	20.782
309.65	20.883
310.02	19.912
310.38	22.283
310.75	22.295
311.12	23.143
311.48	21.209
311.85	21.257
312.22	21.097
312.58	20.488
312.95	19.851
313.31	20.704
313.68	21.152
314.05	21.939
314.41	21.753
314.78	22.165
315.14	24.049
315.51	22.567
315.87	22.131
316.24	25.076
316.61	24.311
316.97	24.603
317.34	22.754
317.70	24.379
318.07	24.038
318.43	25.000
318.80	25.568
319.16	26.270
319.53	26.686
319.89	26.772
320.26	26.822
320.62	28.285
320.99	27.140
321.35	27.955
321.72	28.972
322.08	29.708
322.45	29.442
322.81	30.059
323.18	28.754
323.54	29.151
323.91	31.061
324.27	31.445
324.64	33.240
325.00	31.478
325.37	34.435
325.73	31.460
326.10	34.332
326.46	34.529
326.83	34.558
327.19	34.438
327.56	36.664
327.92	35.387
328.29	35.268
328.65	36.226
329.01	36.121
329.38	37.327
329.74	36.072
330.11	37.257
330.47	36.920
330.84	36.635
331.20	38.308
331.56	37.130
331.93	38.174
332.29	39.413
332.66	37.557
333.02	36.989
333.38	37.489
333.75	38.828
334.11	37.601
334.48	38.803
334.84	39.011
335.20	39.158
335.57	38.441
335.93	38.753
336.29	36.832
336.66	37.965
337.02	38.476
337.38	38.056
337.75	37.091
338.11	38.683
338.47	38.960
338.84	37.985
339.20	37.660
339.56	40.459
339.93	38.227
340.29	37.890
340.65	38.710
341.02	39.894
341.38	38.407
341.74	37.721
342.11	36.828
342.47	38.790
342.83	38.322
343.20	37.108
343.56	39.739
343.92	38.264
344.28	38.685
344.65	37.910
345.01	38.116
345.37	37.258
345.73	38.828
346.10	38.050
346.46	36.501
346.82	38.462
347.19	37.323
347.55	38.680
347.91	39.563
348.27	37.753
348.63	39.182
349.00	38.474
349.36	37.988
349.72	39.303
350.08	37.705
350.45	37.510
350.81	37.625
351.17	37.866
351.53	39.020
351.89	38.398
352.26	38.240
352.62	38.790
352.98	38.072
353.34	37.923
353.70	38.026
354.07	37.500
354.43	37.230
354.79	38.315
355.15	38.651
355.51	39.399
355.87	39.482
356.24	38.418
356.60	39.208
356.96	37.460
357.32	38.339
357.68	38.077
358.04	38.045
358.40	38.987
358.77	38.437
359.13	37.790
359.49	37.442
359.85	37.988
360.21	39.474
360.57	37.031
360.93	38.124
361.29	37.311
361.66	37.774
362.02	37.879
362.38	39.147
362.74	37.623
363.10	38.826
363.46	39.511
363.82	39.519
364.18	37.712
364.54	38.162
364.90	39.140
365.26	38.501
365.62	40.730
365.98	37.830
366.35	39.913
366.71	40.798
367.07	39.115
367.43	39.180
367.79	40.000
368.15	39.914
368.51	38.529
368.87	39.627
369.23	38.484
369.59	39.504
369.95	39.150
370.31	39.884
370.67	39.776
371.03	38.835
371.39	38.512
371.75	38.535
372.11	38.944
372.47	39.867
372.83	39.106
373.19	40.014
373.55	39.278
373.91	40.461
374.27	40.326
374.63	40.560
374.99	40.851
375.35	38.510
375.71	39.930
376.07	39.326
376.42	40.884
376.78	41.342
377.14	39.675
377.50	41.301
377.86	39.826
378.22	40.140
378.58	40.833
378.94	40.454
379.30	40.674
379.66	42.069
380.02	40.711
380.38	41.083
380.74	41.592
381.09	40.491
381.45	40.856
381.81	40.407
382.17	41.117
382.53	40.974
382.89	41.996
383.25	42.253
383.61	41.098
383.97	41.587
384.32	41.213
384.68	41.734
385.04	40.748
385.40	41.008
385.76	41.824
386.12	41.979
386.48	43.040
386.83	41.725
387.19	41.087
387.55	42.221
387.91	41.626
388.27	41.087
388.62	41.598
388.98	41.007
389.34	42.099
389.70	41.765
390.06	40.592
390.42	41.321
390.77	41.400
391.13	41.047
391.49	43.273
391.85	41.455
392.20	41.620
392.56	40.877
392.92	41.985
393.28	41.156
393.64	40.781
393.99	42.382
394.35	41.176
394.71	41.635
395.07	39.786
395.42	41.409
395.78	41.889
396.14	41.677
396.50	40.964
396.85	40.567
397.21	40.789
397.57	40.815
397.92	39.964
398.28	41.207
398.64	39.699
399.00	40.745
399.35	39.898
399.71	39.920
400.07	40.689
400.42	40.024
400.78	40.784
401.14	39.564
401.49	40.024
401.85	39.732
402.21	39.819
402.57	40.938
402.92	40.151
403.28	40.539
403.63	39.596
403.99	40.115
404.35	39.913
404.70	40.714
405.06	38.425
405.42	39.030
405.77	39.338
406.13	38.359
406.49	38.425
406.84	39.425
407.20	39.976
407.55	38.828
407.91	39.372
408.27	38.432
408.62	38.523
408.98	38.201
409.34	39.467
409.69	38.566
410.05	37.254
410.40	37.716
410.76	38.540
411.11	37.562
411.47	38.462
411.83	37.539
412.18	38.932
412.54	38.202
412.89	36.884
413.25	38.688
413.60	37.329
413.96	37.055
414.31	39.207
414.67	37.203
415.03	36.751
415.38	37.924
415.74	37.850
416.09	37.884
416.45	37.880
416.80	36.219
417.16	37.431
417.51	38.308
417.87	37.093
418.22	37.500
418.58	37.324
418.93	38.119
419.29	36.236
419.64	37.200
420.00	39.610
420.35	36.597
420.71	38.761
421.06	37.262
421.42	38.582
421.77	37.514
422.12	37.117
422.48	37.033
422.83	37.065
423.19	37.133
423.54	36.919
423.90	36.867
424.25	37.141
424.61	38.066
424.96	36.992
425.31	39.226
425.67	38.439
426.02	37.691
426.38	39.386
426.73	37.409
427.09	39.367
427.44	38.882
427.79	37.714
428.15	38.835
428.50	37.795
428.85	36.855
429.21	38.540
429.56	38.437
429.92	38.007
430.27	38.546
430.62	37.637
430.98	38.641
431.33	38.381
431.68	37.886
432.04	38.066
432.39	36.623
432.74	36.981
433.10	39.080
433.45	38.650
433.80	39.176
434.16	37.673
434.51	38.495
434.86	37.979
435.22	38.643
435.57	39.114
435.92	38.623
436.28	37.627
436.63	37.707
436.98	37.659
437.34	38.052
437.69	38.640
438.04	38.860
438.39	38.974
438.75	38.130
439.10	38.823
439.45	38.953
439.81	38.043
440.16	38.955
440.51	39.284
440.86	39.577
441.22	39.367
441.57	39.625
441.92	40.451
442.27	39.634
442.63	39.829
442.98	38.828
443.33	39.176
443.68	38.355
444.03	39.195
444.39	38.908
444.74	39.576
445.09	39.477
445.44	39.145
445.79	39.505
446.15	39.042
446.50	39.323
446.85	39.267
447.20	39.155
447.55	39.007
447.91	39.538
448.26	39.328
448.61	38.975
448.96	39.530
449.31	39.595
449.66	39.257
450.02	39.076
450.37	39.241
450.72	38.087
451.07	39.684
451.42	39.638
451.77	38.879
452.12	38.457
452.47	38.957
452.83	39.046
453.18	38.204
453.53	38.432
453.88	39.526
454.23	38.414
454.58	38.728
454.93	39.240
455.28	37.206
455.63	38.872
455.98	39.026
456.34	38.633
456.69	39.009
457.04	39.193
457.39	38.396
457.74	38.029
458.09	36.433
458.44	38.034
458.79	38.095
459.14	38.043
459.49	38.627
459.84	37.620
460.19	38.653
460.54	38.203
460.89	38.750
461.24	38.820
461.59	38.124
461.94	38.113
462.29	38.601
462.64	39.070
462.99	38.592
463.34	36.857
463.69	38.674
464.04	36.562
464.39	36.386
464.74	37.485
465.09	37.742
465.44	38.430
465.79	36.791
466.14	37.913
466.49	36.860
466.84	37.894
467.19	36.796
467.54	37.292
467.89	36.134
468.24	36.192
468.59	37.524
468.94	37.333
469.29	37.377
469.64	36.705
469.99	37.281
470.34	36.451
470.68	37.957
471.03	36.730
471.38	37.161
471.73	37.255
472.08	36.092
472.43	37.114
472.78	35.915
473.13	37.211
473.48	35.179
473.83	35.243
474.17	37.306
474.52	35.929
474.87	37.030
475.22	35.754
475.57	35.855
475.92	35.875
476.27	36.671
476.61	37.095
476.96	35.527
477.31	36.831
477.66	35.225
478.01	36.777
478.36	35.730
478.70	35.780
479.05	35.824
479.40	35.771
479.75	35.193
480.10	35.637
480.45	35.350
480.79	35.398
481.14	36.219
481.49	34.286
481.84	35.907
482.19	34.612
482.53	35.108
482.88	34.749
483.23	35.365
483.58	35.094
483.92	34.076
484.27	34.093
484.62	34.917
484.97	34.328
485.31	33.960
485.66	33.208
486.01	34.532
486.36	34.368
486.70	34.378
487.05	34.755
487.40	34.928
487.75	33.606
488.09	33.684
488.44	33.597
488.79	33.284
489.13	33.774
489.48	33.775
489.83	34.260
490.17	33.708
490.52	33.764
490.87	32.994
491.22	34.432
491.56	33.681
491.91	33.078
492.26	34.273
492.60	33.301
492.95	33.989
493.30	33.170
493.64	33.939
493.99	33.720
494.34	32.670
494.68	32.571
495.03	33.285
495.37	32.875
495.72	33.922
496.07	33.610
496.41	33.774
496.76	33.809
497.11	32.417
497.45	33.174
497.80	33.905
498.14	31.495
498.49	32.809
498.84	32.136
499.18	33.283
499.53	33.036
499.87	32.150
500.22	33.185
500.56	33.535
500.91	33.886
501.26	32.575
501.60	32.268
501.95	33.188
502.29	32.639
502.64	32.529
502.98	32.807
503.33	32.277
503.67	32.482
504.02	32.698
504.36	33.350
504.71	32.374
505.06	32.058
505.40	31.726
505.75	32.216
506.09	32.489
506.44	33.624
506.78	32.551
507.13	32.575
507.47	30.914
507.82	31.838
508.16	31.484
508.51	32.371
508.85	31.763
509.19	30.867
509.54	32.172
509.88	31.715
510.23	32.437
510.57	31.748
510.92	29.957
511.26	30.824
511.61	32.288
511.95	31.342
512.30	32.151
512.64	31.664
512.98	31.162
513.33	32.121
513.67	31.381
514.02	32.037
514.36	32.286
514.70	32.343
515.05	31.904
515.39	31.405
515.74	32.156
516.08	32.337
516.42	32.155
516.77	31.129
517.11	32.047
517.46	32.256
517.80	31.049
518.14	31.537
518.49	31.010
518.83	30.437
519.17	31.534
519.52	30.669
519.86	29.772
520.20	30.984
520.55	31.082
520.89	31.242
521.23	31.539
521.58	31.798
521.92	31.090
522.26	31.165
522.61	32.013
522.95	32.053
523.29	30.305
523.64	31.004
523.98	31.821
524.32	30.477
524.66	30.794
525.01	31.234
525.35	30.784
525.69	30.236
526.04	29.630
526.38	30.934
526.72	30.347
527.06	30.091
527.41	30.409
527.75	29.759
528.09	30.432
528.43	31.195
528.78	30.825
529.12	30.194
529.46	30.734
529.80	29.069
530.15	31.353
530.49	30.101
530.83	29.891
531.17	29.349
531.51	30.643
531.86	29.028
532.20	29.854
532.54	31.110
532.88	30.664
533.22	30.578
533.57	30.144
533.91	29.047
534.25	30.924
534.59	29.057
534.93	30.019
535.27	28.934
535.62	29.877
535.96	30.789
536.30	29.947
536.64	29.979
536.98	29.547
537.32	28.876
537.66	30.435
538.01	28.951
538.35	29.750
538.69	28.695
539.03	28.161
539.37	30.081
539.71	28.834
540.05	29.871
540.39	30.402
540.73	29.219
541.07	29.972
541.42	29.570
541.76	30.420
542.10	29.525
542.44	28.909
542.78	28.355
543.12	29.327
543.46	29.903
543.80	30.187
544.14	28.304
544.48	29.913
544.82	28.845
545.16	30.191
545.50	29.372
545.84	29.108
546.18	29.929
546.52	29.849
546.86	29.331
547.20	28.898
547.54	28.269
547.88	29.416
548.22	28.797
548.56	28.430
548.90	29.245
549.24	28.237
549.58	28.279
549.92	28.234
550.26	27.766
550.60	28.401
550.94	28.678
551.28	28.053
551.62	28.923
551.96	28.120
552.30	28.728
552.64	28.068
552.98	28.340
553.32	29.957
553.66	28.665
554.00	28.832
554.34	27.696
554.68	28.245
555.02	28.943
555.36	28.422
555.69	28.205
556.03	28.051
556.37	27.829
556.71	29.170
557.05	28.486
557.39	27.881
557.73	28.636
558.07	29.035
558.41	27.718
558.75	27.670
559.08	28.684
559.42	27.540
559.76	28.743
560.10	27.676
560.44	27.997
560.78	28.741
561.12	27.574
561.45	29.093
561.79	28.992
562.13	28.673
562.47	28.561
562.81	29.179
563.15	28.068
563.48	28.501
563.82	29.513
564.16	28.830
564.50	28.041
564.84	27.778
565.17	28.571
565.51	28.825
565.85	27.984
566.19	28.714
566.52	29.491
566.86	28.792
567.20	27.833
567.54	28.528
567.88	29.174
568.21	29.242
568.55	28.098
568.89	29.004
569.23	28.166
569.56	28.503
569.90	29.354
570.24	28.470
570.57	28.909
570.91	28.442
571.25	28.280
571.59	28.247
571.92	27.556
572.26	26.993
572.60	27.442
572.93	27.612
573.27	26.646
573.61	27.178
573.95	28.318
574.28	27.383
574.62	26.875
574.96	27.125
575.29	27.511
575.63	26.846
575.97	27.053
576.30	27.242
576.64	26.861
576.98	27.387
577.31	27.083
577.65	27.729
577.98	27.557
578.32	27.174
578.66	26.757
578.99	26.883
579.33	27.005
579.67	26.823
580.00	27.342
580.34	27.114
580.67	26.459
581.01	27.594
581.35	26.895
581.68	27.554
582.02	28.042
582.35	27.391
582.69	27.581
583.02	27.131
583.36	27.537
583.70	27.466
584.03	27.634
584.37	27.640
584.70	26.896
585.04	26.632
585.37	27.052
585.71	27.598
586.04	27.433
586.38	26.994
586.72	27.374
587.05	28.163
587.39	27.928
587.72	28.568
588.06	27.373
588.39	27.428
588.73	27.350
589.06	27.756
589.40	27.376
589.73	27.455
590.07	27.341
590.40	27.438
590.73	27.718
591.07	27.523
591.40	27.204
591.74	28.190
592.07	28.432
592.41	27.562
592.74	27.439
593.08	27.593
593.41	27.348
593.75	27.805
594.08	27.085
594.41	27.584
594.75	27.481
595.08	26.977
595.42	27.530
595.75	27.338
596.09	26.896
596.42	27.325
596.75	26.909
597.09	27.107
597.42	26.694
597.75	27.714
598.09	27.478
598.42	27.392
598.76	26.984
599.09	27.885
599.42	26.942
599.76	27.464
600.09	26.998
600.42	27.218
600.76	26.412
601.09	27.405
601.42	27.066
601.76	26.558
602.09	27.393
602.42	27.675
602.76	27.250
603.09	27.575
603.42	28.219
603.76	27.258
604.09	27.663
604.42	27.580
604.76	26.880
605.09	27.239
605.42	27.133
605.75	26.926
606.09	26.752
606.42	27.106
606.75	27.186
607.09	27.956
607.42	27.071
607.75	26.599
608.08	26.909
608.42	26.313
608.75	27.614
609.08	26.906
609.41	26.954
609.75	27.268
610.08	27.259
610.41	26.618
610.74	26.572
611.07	27.752
611.41	27.608
611.74	28.465
612.07	26.713
612.40	27.243
612.73	27.571
613.07	26.209
613.40	27.516
613.73	26.525
614.06	26.822
614.39	26.904
614.72	26.218
615.06	26.369
615.39	26.583
615.72	26.695
616.05	25.866
616.38	26.553
616.71	26.239
617.05	26.992
617.38	26.650
617.71	26.352
618.04	27.810
618.37	27.491
618.70	26.799
619.03	27.222
619.36	26.194
619.69	28.203
620.03	28.707
620.36	26.538
620.69	26.767
621.02	26.911
621.35	26.722
621.68	27.381
622.01	27.667
622.34	27.215
622.67	27.050
623.00	27.029
623.33	27.591
623.66	27.524
623.99	25.113
624.32	27.681
624.65	26.391
624.99	26.787
625.32	26.156
625.65	27.494
625.98	27.317
626.31	26.351
626.64	27.643
626.97	27.138
627.30	26.708
627.63	27.036
627.96	27.224
628.29	27.105
628.62	26.254
628.95	27.355
629.28	25.907
629.61	26.520
629.94	27.370
630.26	26.779
630.59	28.512
630.92	26.974
631.25	26.359
631.58	27.093
631.91	26.754
632.24	25.917
632.57	28.977
632.90	25.386
633.23	26.353
633.56	25.693
633.89	24.661
634.22	26.543
634.55	27.446
634.88	26.181
635.20	25.769
635.53	26.133
635.86	24.707
636.19	28.461
636.52	26.786
636.85	25.062
637.18	25.660
637.51	27.547
637.83	26.675
638.16	29.059
638.49	25.068
638.82	27.895
639.15	24.966
639.48	26.410
639.81	26.499
640.13	24.675
640.46	27.114
640.79	22.091
641.12	24.668
641.45	25.976
641.77	24.296
642.10	25.118
642.43	25.080
642.76	25.743
643.09	27.787
643.41	26.699
643.74	24.217
644.07	26.601
644.40	27.703
644.73	28.546
645.05	24.664
645.38	23.810
645.71	26.950
646.04	29.084
646.36	26.418
646.69	30.935
647.02	24.386
647.35	28.918
647.67	26.874
648.00	27.985
648.33	27.133
648.66	26.780
648.98	24.456
649.31	26.777
649.64	26.060
649.96	24.149
650.29	26.917
650.62	23.590
650.94	25.370
651.27	25.326
651.60	25.225
651.92	24.476
652.25	25.400
652.58	26.333
652.90	25.901
653.23	26.218
653.56	25.212
653.88	25.601
654.21	24.518
654.54	25.806
654.86	25.976
655.19	26.170
655.52	28.328
655.84	28.314
656.17	30.886
656.49	40.902
656.82	41.363
657.15	30.715
657.47	22.528
657.80	16.377
658.13	15.716
658.45	23.632
658.78	22.759
659.10	22.363
659.43	21.591
659.75	23.236
660.08	22.207
660.41	21.961
660.73	23.204
661.06	23.917
661.38	22.114
661.71	21.971
662.03	25.107
662.36	24.396
662.68	26.106
663.01	27.948
663.33	24.130
663.66	25.349
663.98	24.884
664.31	23.028
664.63	23.041
664.96	22.391
665.28	24.062
665.61	24.242
665.93	23.261
666.26	27.766
666.58	22.819
666.91	22.588
667.23	24.764
667.56	27.962
667.88	24.221
668.21	25.537
668.53	26.714
668.86	25.472
669.18	22.406
669.50	21.792
669.83	24.884
670.15	26.807
670.48	24.402
670.80	25.115
671.13	23.490
671.45	23.288
671.77	25.107
672.10	23.564
672.42	25.094
672.75	27.176
673.07	26.655
673.39	23.119
673.72	19.329
674.04	23.125
674.37	27.542
674.69	26.124
675.01	24.667
675.34	23.649
675.66	24.769
675.98	27.494
676.31	26.376
676.63	24.466
676.95	24.091
677.28	25.176
677.60	25.301
677.92	23.165
678.25	24.070
678.57	25.974
678.89	22.479
679.22	26.398
679.54	25.301
679.86	22.664
680.18	24.854
680.51	26.136
680.83	25.050
681.15	23.800
681.48	23.770
681.80	27.686
682.12	27.621
682.44	24.268
682.77	26.490
683.09	22.197
683.41	22.045
683.73	22.811
684.06	22.788
684.38	23.441
684.70	26.362
685.02	22.614
685.34	23.715
685.67	23.077
685.99	25.136
686.31	24.779
686.63	24.861
686.96	24.144
687.28	20.000
687.60	24.525
687.92	25.051
688.24	25.403
688.56	27.293
688.89	24.330
689.21	26.222
689.53	21.346
689.85	24.419
690.17	25.670
690.49	25.296
690.82	26.456
691.14	22.143
691.46	25.935
691.78	26.126
692.10	23.871
692.42	24.242
692.74	22.222
693.06	22.297
693.39	22.398
693.71	23.756
694.03	22.633
694.35	25.701
694.67	22.727
694.99	25.326
695.31	24.543
695.63	20.750
695.95	22.980
696.27	21.503
696.59	24.167
696.91	21.008
697.23	22.622
697.56	26.485
697.88	25.591
698.20	24.374
698.52	22.824
698.84	21.292
699.16	25.000
699.48	22.055
699.80	23.325
700.12	22.911
700.44	25.770
700.76	24.128
701.08	21.818
701.40	22.590
701.72	26.543
702.04	24.422
702.36	23.746
702.68	23.123
703.00	20.909
703.32	22.874
703.64	22.881
703.96	24.348
704.28	23.006
704.60	21.905
704.91	19.243
705.23	27.575
705.55	28.269
705.87	23.466
706.19	21.111
706.51	22.680
706.83	24.437
707.15	21.807
707.47	23.249
707.79	23.438
708.11	23.000
708.43	26.500
708.74	24.289
709.06	27.324
709.38	22.936
709.70	25.444
710.02	22.930
710.34	29.102
710.66	20.833
710.98	20.199
711.29	26.230
711.61	22.373
711.93	26.059
712.25	28.522
712.57	23.443
712.89	22.015
713.20	25.260
713.52	21.603
713.84	21.160
714.16	21.649
714.48	22.258
714.80	25.000
715.11	23.708
715.43	20.690
715.75	23.000
716.07	19.269
716.39	16.107
716.70	17.343
717.02	19.084
717.34	26.316
717.66	21.239
717.97	24.348
718.29	22.594
718.61	28.346
718.93	20.930
719.24	25.095
719.56	24.900
719.88	20.962
720.20	22.727
720.51	21.456
720.83	21.622
721.15	26.050
721.46	23.387
721.78	18.972
722.10	25.651
722.42	21.992
722.73	21.224
723.05	25.714
723.37	25.847
723.68	27.477
724.00	23.932
724.32	23.111
724.63	19.091
724.95	26.201
725.27	24.424
725.58	21.186
725.90	17.460
726.22	26.255
726.53	21.356
726.85	21.348
727.16	30.189
727.48	17.409
727.80	19.028
728.11	22.881
728.43	18.039
728.74	23.790
729.06	20.800
729.38	27.068
729.69	21.912
730.01	21.154
730.32	22.015
730.64	24.382
730.96	22.642
731.27	24.000
731.59	21.695
731.90	19.745
732.22	24.921
732.53	23.256
732.85	24.113
733.16	25.926
733.48	20.863
733.80	17.754
734.11	21.017
734.43	24.742
734.74	23.030
735.06	23.127
735.37	24.169
735.69	22.222
736.00	20.209
736.32	25.503
736.63	23.944
736.95	25.256
737.26	20.285
737.58	19.463
737.89	18.681
738.21	18.797
738.52	20.576
738.83	24.017
739.15	16.157
739.46	20.866
739.78	19.780
740.09	21.895
740.41	21.739
740.72	19.291
741.04	23.077
741.35	19.149
741.66	19.905
741.98	22.449
742.29	21.782
742.61	25.654
742.92	16.588
743.23	11.111
743.55	20.362
743.86	20.096
744.18	16.746
744.49	16.489
744.80	24.457
745.12	22.995
745.43	21.951
745.74	22.917
746.06	19.512
746.37	19.895
746.68	21.327
747.00	17.553
747.31	25.373
747.62	17.961
747.94	26.794
748.25	18.317
748.56	21.311
748.88	17.277
749.19	28.723
749.50	23.153
749.82	11.321
750.13	16.972
750.44	23.308
750.75	23.881
751.07	26.277
751.38	23.372
751.69	21.176
752.01	19.767
752.32	21.912
752.63	21.739
752.94	18.534
753.26	26.360
753.57	23.077
753.88	23.894
754.19	16.667
754.51	25.620
754.82	15.789
755.13	27.500
755.44	25.403
755.75	18.750
756.07	20.623
756.38	19.623
756.69	21.073
757.00	19.667
757.31	23.856
757.63	20.732
757.94	21.667
758.25	21.918
758.56	21.277
758.87	17.280
759.18	18.692
759.50	18.182
759.81	23.746
760.12	21.935
760.43	20.000
760.74	21.914
761.05	19.077
761.36	20.170
761.67	20.303
761.99	23.129
762.30	18.545
762.61	24.901
762.92	17.647
763.23	21.622
763.54	18.692
763.85	19.492
764.16	19.087
764.47	17.339
764.78	20.879
765.10	21.886
765.41	23.344
765.72	21.587
766.03	19.173
766.34	18.978
766.65	22.311
766.96	20.202
767.27	18.085
767.58	17.241
767.89	12.766
768.20	23.295
768.51	20.879
768.82	25.123
769.13	17.051
769.44	20.172
769.75	16.895
770.06	23.707
770.37	25.962
770.68	17.259
770.99	17.647
771.30	22.549
771.61	23.982
771.92	18.966
772.23	26.108
772.54	19.892
772.85	22.222
773.16	19.101
773.47	24.183
773.78	20.261
774.09	19.760
774.39	22.667
774.70	19.108
775.01	30.345
775.32	17.857
775.63	14.050
775.94	16.031
776.25	17.323
776.56	10.000
776.87	15.385
777.18	16.239
777.48	19.828
777.79	12.174
778.10	3.810
778.41	18.919
778.72	19.048
779.03	15.789
779.34	17.730
779.65	19.863
779.95	13.699
780.26	20.690
780.57	13.821
780.88	12.598
781.19	18.966
781.50	27.132
781.80	14.793
782.11	15.723
782.42	18.462
782.73	8.633
783.04	22.222
783.34	12.500
783.65	14.530
783.96	18.033
784.27	16.552
784.57	8.130
784.88	17.969
785.19	20.000
785.50	20.000
785.81	20.690
786.11	17.241
786.42	14.563
786.73	16.364
787.04	15.306
787.34	14.286
787.65	20.000
787.96	12.389
788.26	9.091
788.57	19.658
788.88	20.312
789.19	21.429
789.49	11.304
789.80	19.388
790.11	18.182
790.41	13.636
790.72	26.087
791.03	12.500
791.33	18.750
791.64	5.000
791.95	11.628
792.25	26.596
792.56	16.854
792.87	-1.370
793.17	-2.899
793.48	5.333
793.79	10.000
794.09	18.750
794.40	23.585
794.70	20.388
795.01	11.382
795.32	10.256
795.62	20.952
795.93	18.627
796.23	20.755
796.54	25.000
796.85	11.765
797.15	22.535
797.46	23.611
797.76	25.758
798.07	10.465
798.37	11.842
798.68	10.606
798.99	7.407
799.29	20.000
799.60	21.739
799.90	18.667
800.21	3.279
800.51	15.385
800.82	1.695
801.12	20.290
801.43	11.475
801.73	7.937
802.04	10.000
802.34	-4.478
802.65	13.462
802.95	-3.571
803.26	0.000
803.56	7.843
803.87	-13.043
804.17	2.667
804.48	31.746
804.78	18.519
805.09	10.870
805.39	-2.222
805.70	20.370
806.00	-15.789
806.30	9.859
806.61	14.286
806.91	4.167
807.22	36.842
807.52	12.000
807.83	1.818
808.13	13.889
808.43	4.412
808.74	19.403
809.04	-1.695
809.35	7.692
809.65	21.875
809.95	-29.730
810.26	-6.818
810.56	2.740
810.86	9.524
811.17	30.000
811.47	12.245
811.77	-10.526
812.08	15.909
812.38	9.434
812.69	7.500
812.99	0.000
813.29	-13.158
813.59	-17.143
813.90	13.636
814.20	15.385
814.50	-1.923
814.81	16.981
815.11	-12.766
815.41	18.644
815.72	23.810
816.02	31.373
816.32	-4.167
816.62	7.317
816.93	29.730
817.23	-31.429
817.53	25.000
817.84	15.217
818.14	0.000
818.44	15.789
818.74	21.739
819.04	-22.500
819.35	24.324
819.65	-26.471
819.95	-22.222
820.25	11.905
820.56	22.500
820.86	-20.690
821.16	-5.000
821.46	25.532
821.76	-5.000
822.07	-9.302
822.37	-51.351
822.67	-25.000
822.97	14.286
823.27	17.857
823.57	-40.000
823.88	-59.259
824.18	3.571
824.48	14.706
824.78	-9.677
825.08	-17.391
825.38	-6.061
825.69	-58.333
825.99	-2.632
826.29	-8.333
826.59	-100.000
826.89	-42.857
827.19	32.609
827.49	-7.500
827.79	14.286
828.09	3.571
828.39	3.030
828.70	16.216
829.00	-25.000
829.30	-19.048
829.60	-6.667
829.90	15.625
830.20	10.526
830.50	-7.407
830.80	-52.174
831.10	13.636
831.40	42.424
831.70	32.258
832.00	-9.524
832.30	-28.571
832.60	-66.667
832.90	6.897
833.20	-50.000
833.50	-24.242
833.80	-29.630
834.10	7.692
834.40	18.750
834.70	-66.667
835.00	-42.105
835.30	42.308
835.60	-33.333
835.90	6.452
836.20	-18.182
836.50	7.143
836.80	-38.462
837.10	-17.857
837.40	0.000
837.70	-13.636
838.00	-45.455
838.30	13.043
838.60	-23.077
838.90	22.727
839.19	-7.143
839.49	33.333
839.79	0.000
840.09	-158.333
840.39	32.143
840.69	35.714
840.99	-7.692
841.29	-78.947
841.59	-100.000
841.88	45.455
842.18	-90.000
842.48	-31.250
842.78	-40.000
843.08	14.815
843.38	-170.000
843.68	34.783
843.97	-53.333
844.27	-53.333
844.57	-40.000
844.87	22.222
845.17	-52.381
845.47	-13.333
845.76	-28.571
846.06	-11.765
846.36	-30.000
846.66	-64.286
846.96	0.000
847.25	-150.000
847.55	21.429
847.85	-37.500
848.15	9.091
848.44	-400.000
848.74	5.000
849.04	33.333
849.34	-54.545
849.63	-133.333
849.93	-340.000
850.23	-50.000
850.53	0.000
850.82	-30.769
851.12	-33.333
851.42	0.000
851.71	-38.462
852.01	-100.000
852.31	-300.000
852.61	45.455
852.90	20.000
853.20	0.000
853.50	-33.333
853.79	26.087
854.09	20.833
854.39	15.789
854.68	29.167
854.98	32.258
855.28	-3.846
855.57	-5.000
855.87	-22.222
856.17	40.741
856.46	-85.714
856.76	-53.333
857.05	-33.333
857.35	32.000
857.65	27.778
857.94	7.692
858.24	13.793
858.53	-16.667
858.83	33.333
859.13	9.091
859.42	-8.696
859.72	-375.000
860.01	-800.000
860.31	8.000
860.60	14.286
860.90	-500.000
861.20	-40.000
861.49	-850.000
861.79	-40.000
862.08	-5.000
862.38	60.000
862.67	-180.000
862.97	-116.667
863.26	-116.667
863.56	16.667
863.85	-500.000
864.15	-5.556
864.44	10.000
864.74	78.571
865.03	150.000
865.33	-200.000
865.62	0.000
865.92	-25.000
866.21	-66.667
866.51	25.000
866.80	-90.909
867.10	-650.000
867.39	8.333
867.69	0.000
867.98	38.462
868.27	-266.667
868.57	-20.000
868.86	5.556
869.16	-61.538
869.45	-46.667
869.75	-1500.000
870.04	0.000
870.33	-200.000
870.63	23.810
870.92	366.667
871.22	-160.000
871.51	-2100.000
871.80	-11.111
872.10	733.333
>>>>>End Processed Spectral Data<<<<<
