SpectraSuite Data File
++++++++++++++++++++++++++++++++++++
Date: Fri May 15 20:58:08 PDT 2015
User: schluterlab
Dark Spectrum Present: Yes
Reference Spectrum Present: Yes
Number of Sampled Component Spectra: 1
Spectrometers: USB2E3373
Integration Time (usec): 3000 (USB2E3373)
Spectra Averaged: 3 (USB2E3373)
Boxcar Smoothing: 0 (USB2E3373)
Correct for Electrical Dark: No (USB2E3373)
Strobe/Lamp Enabled: No (USB2E3373)
Correct for Detector Non-linearity: No (USB2E3373)
Correct for Stray Light: No (USB2E3373)
Number of Pixels in Processed Spectrum: 2048
>>>>>Begin Processed Spectral Data<<<<<
178.53	0.000
178.91	0.000
179.29	162.500
179.67	-500.000
180.04	-42.857
180.42	-25.000
180.80	-300.000
181.18	133.333
181.56	550.000
181.94	-250.000
182.31	-0.000
182.69	60.000
183.07	-33.333
183.45	-220.000
183.83	133.333
184.20	9.091
184.58	66.667
184.96	-25.000
185.34	-166.667
185.72	-350.000
186.09	146.154
186.47	-900.000
186.85	216.667
187.23	88.889
187.61	100.000
187.98	-266.667
188.36	-11.111
188.74	-233.333
189.12	-5.882
189.49	-11.111
189.87	0.000
190.25	42.857
190.63	-300.000
191.00	-300.000
191.38	36.842
191.76	350.000
192.14	300.000
192.51	-150.000
192.89	22.222
193.27	-71.429
193.65	266.667
194.02	90.909
194.40	40.000
194.78	-112.500
195.15	16.667
195.53	25.000
195.91	250.000
196.29	-50.000
196.66	76.923
197.04	157.143
197.42	44.444
197.79	-400.000
198.17	-76.923
198.55	1500.000
198.92	-133.333
199.30	100.000
199.68	140.000
200.05	-300.000
200.43	0.000
200.81	-133.333
201.18	33.333
201.56	700.000
201.94	-500.000
202.31	166.667
202.69	-340.000
203.07	75.000
203.44	1200.000
203.82	0.000
204.19	107.143
204.57	-466.667
204.95	125.000
205.32	50.000
205.70	57.143
206.08	100.000
206.45	66.667
206.83	21.429
207.20	-214.286
207.58	1100.000
207.96	-100.000
208.33	-30.000
208.71	0.000
209.08	-16.667
209.46	-600.000
209.84	120.000
210.21	-700.000
210.59	42.857
210.96	0.000
211.34	-175.000
211.71	-6.667
212.09	-185.714
212.46	-1100.000
212.84	0.000
213.22	10.000
213.59	250.000
213.97	53.846
214.34	54.545
214.72	-66.667
215.09	200.000
215.47	-46.154
215.84	-45.455
216.22	66.667
216.59	-25.000
216.97	0.000
217.34	-25.000
217.72	-120.000
218.09	150.000
218.47	125.000
218.84	100.000
219.22	-33.333
219.59	-160.000
219.97	333.333
220.34	300.000
220.72	57.143
221.09	-100.000
221.47	-150.000
221.84	-450.000
222.22	-800.000
222.59	-18.182
222.97	58.333
223.34	-233.333
223.72	-28.571
224.09	-33.333
224.46	42.857
224.84	400.000
225.21	30.000
225.59	20.000
225.96	-700.000
226.34	375.000
226.71	-42.857
227.08	-33.333
227.46	-12.500
227.83	-700.000
228.21	66.667
228.58	63.636
228.95	0.000
229.33	70.000
229.70	12.500
230.08	-87.500
230.45	28.571
230.82	71.429
231.20	-13.333
231.57	64.286
231.95	42.857
232.32	-30.000
232.69	42.857
233.07	66.667
233.44	40.000
233.81	-30.000
234.19	44.444
234.56	-5.882
234.93	600.000
235.31	150.000
235.68	-20.000
236.05	7.692
236.43	-65.000
236.80	35.294
237.17	46.875
237.55	20.000
237.92	-18.519
238.29	69.444
238.67	30.000
239.04	-11.765
239.41	19.512
239.79	46.667
240.16	46.341
240.53	15.789
240.91	15.217
241.28	31.746
241.65	48.214
242.02	50.685
242.40	46.667
242.77	49.153
243.14	18.182
243.51	41.250
243.89	44.828
244.26	33.333
244.63	34.524
245.00	26.804
245.38	41.237
245.75	29.213
246.12	28.448
246.49	40.496
246.87	40.385
247.24	28.571
247.61	35.088
247.98	31.707
248.36	30.000
248.73	41.447
249.10	38.312
249.47	39.873
249.84	37.255
250.22	37.647
250.59	35.948
250.96	38.967
251.33	33.140
251.70	39.412
252.08	36.041
252.45	36.139
252.82	39.196
253.19	41.935
253.56	41.121
253.94	38.739
254.31	41.304
254.68	44.298
255.05	37.008
255.42	38.865
255.79	41.699
256.16	38.132
256.54	39.925
256.91	35.741
257.28	38.290
257.65	36.704
258.02	35.106
258.39	40.404
258.76	41.026
259.14	39.203
259.51	37.217
259.88	38.488
260.25	39.542
260.62	40.278
260.99	36.610
261.36	37.329
261.73	38.608
262.10	39.818
262.47	38.037
262.85	35.737
263.22	32.308
263.59	35.826
263.96	40.994
264.33	38.788
264.70	37.202
265.07	37.500
265.44	38.527
265.81	38.136
266.18	37.432
266.55	38.303
266.92	38.601
267.29	38.381
267.66	37.340
268.03	38.220
268.40	35.248
268.77	39.305
269.14	35.252
269.51	39.332
269.88	40.150
270.25	35.204
270.62	34.878
270.99	36.317
271.36	34.474
271.73	35.211
272.10	38.443
272.47	38.534
272.84	33.663
273.21	35.499
273.58	37.831
273.95	34.554
274.32	31.640
274.69	35.068
275.06	37.500
275.43	35.601
275.80	36.865
276.17	36.322
276.54	35.760
276.91	36.623
277.28	34.061
277.65	36.157
278.02	31.277
278.39	35.011
278.76	33.962
279.13	31.743
279.50	34.664
279.87	34.557
280.23	35.484
280.60	34.893
280.97	34.545
281.34	34.423
281.71	34.908
282.08	32.311
282.45	33.464
282.82	32.819
283.19	31.915
283.56	34.875
283.92	35.104
284.29	34.231
284.66	34.109
285.03	36.935
285.40	32.325
285.77	31.459
286.14	34.296
286.51	37.269
286.87	32.176
287.24	33.149
287.61	33.157
287.98	33.333
288.35	31.369
288.72	34.851
289.08	31.771
289.45	33.919
289.82	32.692
290.19	30.546
290.56	31.732
290.93	29.966
291.29	29.892
291.66	30.866
292.03	29.984
292.40	31.452
292.77	29.506
293.13	28.084
293.50	27.769
293.87	28.397
294.24	29.521
294.60	28.763
294.97	28.869
295.34	27.607
295.71	28.465
296.08	28.999
296.44	27.312
296.81	26.944
297.18	28.551
297.55	28.862
297.91	27.397
298.28	27.704
298.65	26.866
299.02	28.437
299.38	26.129
299.75	27.034
300.12	27.094
300.48	26.746
300.85	27.630
301.22	25.584
301.59	25.921
301.95	26.962
302.32	26.978
302.69	25.871
303.05	25.990
303.42	26.526
303.79	27.804
304.15	27.360
304.52	25.565
304.89	26.550
305.25	27.240
305.62	26.254
305.99	25.614
306.35	26.821
306.72	26.097
307.09	28.278
307.45	28.129
307.82	28.009
308.19	27.294
308.55	28.135
308.92	30.174
309.29	29.385
309.65	28.202
310.02	30.253
310.38	29.199
310.75	30.383
311.12	29.064
311.48	28.632
311.85	29.948
312.22	29.958
312.58	30.467
312.95	30.736
313.31	30.538
313.68	32.775
314.05	30.816
314.41	33.505
314.78	32.680
315.14	34.018
315.51	34.369
315.87	34.119
316.24	35.693
316.61	35.335
316.97	37.202
317.34	35.352
317.70	36.329
318.07	36.346
318.43	38.333
318.80	37.121
319.16	39.063
319.53	39.031
319.89	38.583
320.26	40.081
320.62	40.522
320.99	39.040
321.35	41.829
321.72	41.225
322.08	44.310
322.45	45.584
322.81	43.418
323.18	44.750
323.54	46.042
323.91	47.030
324.27	45.508
324.64	48.783
325.00	47.993
325.37	51.148
325.73	50.045
326.10	52.770
326.46	53.453
326.83	53.106
327.19	56.234
327.56	55.430
327.92	56.250
328.29	55.804
328.65	57.358
329.01	57.077
329.38	58.618
329.74	59.679
330.11	59.592
330.47	59.926
330.84	60.096
331.20	65.399
331.56	59.815
331.93	63.014
332.29	64.161
332.66	62.353
333.02	63.290
333.38	61.687
333.75	62.271
334.11	60.788
334.48	64.189
334.84	62.729
335.20	62.763
335.57	63.191
335.93	62.331
336.29	64.733
336.66	63.488
337.02	65.335
337.38	63.981
337.75	65.182
338.11	63.841
338.47	65.237
338.84	64.880
339.20	63.528
339.56	63.853
339.93	65.354
340.29	66.514
340.65	65.143
341.02	65.957
341.38	65.044
341.74	64.399
342.11	65.511
342.47	65.480
342.83	66.522
343.20	65.679
343.56	66.174
343.92	66.696
344.28	66.183
344.65	67.789
345.01	65.514
345.37	64.592
345.73	65.188
346.10	66.350
346.46	65.685
346.82	64.157
347.19	65.503
347.55	66.917
347.91	67.314
348.27	65.966
348.63	69.676
349.00	68.089
349.36	68.745
349.72	69.486
350.08	67.459
350.45	67.279
350.81	68.854
351.17	66.938
351.53	67.429
351.89	67.960
352.26	66.640
352.62	68.145
352.98	67.229
353.34	67.150
353.70	68.932
354.07	68.790
354.43	68.535
354.79	69.116
355.15	67.937
355.51	70.016
355.87	69.175
356.24	68.842
356.60	68.553
356.96	70.079
357.32	69.329
357.68	69.273
358.04	70.436
358.40	69.855
358.77	72.488
359.13	71.097
359.49	69.723
359.85	71.295
360.21	70.893
360.57	69.855
360.93	70.651
361.29	69.486
361.66	73.354
362.02	73.258
362.38	71.516
362.74	74.868
363.10	73.514
363.46	72.572
363.82	74.005
364.18	73.284
364.54	72.794
364.90	73.333
365.26	72.926
365.62	76.131
365.98	75.440
366.35	73.562
366.71	74.501
367.07	75.544
367.43	76.276
367.79	73.145
368.15	75.808
368.51	76.475
368.87	75.592
369.23	75.957
369.59	76.676
369.95	75.880
370.31	75.506
370.67	76.642
371.03	76.550
371.39	76.368
371.75	76.117
372.11	76.605
372.47	78.772
372.83	79.418
373.19	77.532
373.55	78.267
373.91	77.322
374.27	79.872
374.63	79.828
374.99	77.730
375.35	79.318
375.71	79.580
376.07	80.267
376.42	79.116
376.78	79.664
377.14	79.689
377.50	80.279
377.86	81.191
378.22	79.515
378.58	81.282
378.94	80.151
379.30	80.599
379.66	82.382
380.02	81.729
380.38	83.323
380.74	82.166
381.09	84.110
381.45	81.468
381.81	82.110
382.17	82.741
382.53	82.448
382.89	85.436
383.25	84.194
383.61	85.061
383.97	84.317
384.32	85.804
384.68	84.149
385.04	83.272
385.40	84.816
385.76	87.296
386.12	86.740
386.48	87.356
386.83	86.367
387.19	86.203
387.55	89.523
387.91	87.592
388.27	86.752
388.62	88.295
388.98	87.538
389.34	86.946
389.70	88.564
390.06	86.595
390.42	87.630
390.77	89.470
391.13	88.272
391.49	88.939
391.85	90.448
392.20	90.709
392.56	89.193
392.92	89.783
393.28	90.625
393.64	89.550
393.99	91.912
394.35	91.461
394.71	90.613
395.07	90.823
395.42	91.318
395.78	92.638
396.14	90.731
396.50	91.059
396.85	91.693
397.21	91.917
397.57	91.097
397.92	90.413
398.28	92.701
398.64	91.325
399.00	90.914
399.35	91.648
399.71	90.752
400.07	94.135
400.42	91.554
400.78	92.713
401.14	91.712
401.49	92.853
401.85	92.444
402.21	94.337
402.57	93.938
402.92	94.417
403.28	94.862
403.63	95.082
403.99	94.133
404.35	96.814
404.70	92.500
405.06	93.008
405.42	93.723
405.77	94.248
406.13	94.761
406.49	93.487
406.84	95.538
407.20	96.267
407.55	95.557
407.91	94.719
408.27	94.391
408.62	95.754
408.98	95.749
409.34	95.787
409.69	94.961
410.05	94.089
410.40	96.296
410.76	96.019
411.11	95.500
411.47	97.173
411.83	96.673
412.18	97.941
412.54	95.381
412.89	96.305
413.25	96.570
413.60	96.335
413.96	94.969
414.31	94.512
414.67	96.344
415.03	96.405
415.38	96.802
415.74	98.371
416.09	99.086
416.45	97.434
416.80	97.555
417.16	100.483
417.51	98.334
417.87	98.892
418.22	99.547
418.58	100.000
418.93	98.997
419.29	96.415
419.64	98.769
420.00	100.882
420.35	97.970
420.71	99.818
421.06	98.649
421.42	97.897
421.77	99.769
422.12	98.865
422.48	98.538
422.83	98.434
423.19	98.589
423.54	100.470
423.90	99.941
424.25	99.770
424.61	100.245
424.96	99.884
425.31	102.195
425.67	101.995
426.02	101.060
426.38	104.133
426.73	103.935
427.09	102.152
427.44	102.706
427.79	102.652
428.15	101.456
428.50	100.485
428.85	100.614
429.21	100.170
429.56	103.720
429.92	100.976
430.27	98.947
430.62	101.464
430.98	102.866
431.33	100.578
431.68	100.837
432.04	102.571
432.39	102.510
432.74	101.684
433.10	104.368
433.45	103.644
433.80	102.554
434.16	101.108
434.51	102.151
434.86	103.542
435.22	102.636
435.57	104.429
435.92	104.371
436.28	100.835
436.63	103.080
436.98	102.260
437.34	102.783
437.69	105.605
438.04	102.621
438.39	102.749
438.75	105.950
439.10	103.962
439.45	105.173
439.81	104.098
440.16	106.651
440.51	105.075
440.86	106.767
441.22	103.167
441.57	103.808
441.92	104.512
442.27	105.599
442.63	103.908
442.98	104.193
443.33	103.840
443.68	104.509
444.03	104.074
444.39	102.755
444.74	105.686
445.09	105.568
445.44	104.672
445.79	105.157
446.15	103.139
446.50	103.494
446.85	104.410
447.20	103.337
447.55	104.018
447.91	105.697
448.26	104.952
448.61	105.009
448.96	105.508
449.31	104.624
449.66	105.517
450.02	104.735
450.37	106.165
450.72	104.582
451.07	107.025
451.42	103.371
451.77	104.219
452.12	103.409
452.47	105.409
452.83	105.771
453.18	106.009
453.53	104.614
453.88	106.132
454.23	105.900
454.58	108.627
454.93	106.314
455.28	104.381
455.63	107.378
455.98	105.713
456.34	106.066
456.69	105.400
457.04	105.797
457.39	106.804
457.74	106.046
458.09	103.943
458.44	105.149
458.79	103.137
459.14	105.034
459.49	104.896
459.84	104.287
460.19	105.522
460.54	105.746
460.89	106.477
461.24	105.093
461.59	104.513
461.94	105.094
462.29	105.971
462.64	107.309
462.99	104.739
463.34	105.216
463.69	105.856
464.04	106.901
464.39	104.548
464.74	105.337
465.09	106.176
465.44	105.482
465.79	102.778
466.14	103.934
466.49	104.198
466.84	104.045
467.19	106.633
467.54	105.811
467.89	107.581
468.24	105.474
468.59	107.302
468.94	107.365
469.29	107.213
469.64	104.785
469.99	109.741
470.34	107.782
470.68	110.887
471.03	106.299
471.38	107.061
471.73	109.804
472.08	105.902
472.43	111.275
472.78	108.019
473.13	109.592
473.48	107.166
473.83	105.666
474.17	107.772
474.52	106.190
474.87	106.848
475.22	107.200
475.57	107.171
475.92	106.583
476.27	107.276
476.61	107.812
476.96	104.518
477.31	106.111
477.66	105.000
478.01	108.085
478.36	105.610
478.70	108.972
479.05	106.593
479.40	107.896
479.75	104.849
480.10	107.066
480.45	106.950
480.79	107.200
481.14	107.121
481.49	105.025
481.84	106.998
482.19	104.818
482.53	105.755
482.88	104.391
483.23	105.182
483.58	103.632
483.92	104.792
484.27	104.968
484.62	105.289
484.97	103.109
485.31	102.529
485.66	97.125
486.01	96.052
486.36	95.860
486.70	96.667
487.05	98.548
487.40	99.612
487.75	100.113
488.09	100.371
488.44	100.241
488.79	102.578
489.13	103.846
489.48	103.933
489.83	103.767
490.17	104.764
490.52	105.866
490.87	103.933
491.22	106.877
491.56	105.693
491.91	104.207
492.26	107.244
492.60	105.374
492.95	109.100
493.30	106.595
493.64	108.644
493.99	104.203
494.34	106.165
494.68	106.048
495.03	103.893
495.37	105.888
495.72	108.228
496.07	107.610
496.41	105.660
496.76	105.620
497.11	104.704
497.45	106.062
497.80	107.619
498.14	105.365
498.49	106.298
498.84	105.788
499.18	106.426
499.53	106.647
499.87	105.058
500.22	106.182
500.56	107.564
500.91	105.572
501.26	105.240
501.60	106.640
501.95	106.744
502.29	107.264
502.64	107.288
502.98	107.992
503.33	104.227
503.67	105.253
504.02	105.767
504.36	106.729
504.71	105.960
505.06	105.989
505.40	105.482
505.75	108.711
506.09	105.271
506.44	108.522
506.78	108.112
507.13	106.722
507.47	107.206
507.82	107.799
508.16	107.396
508.51	108.080
508.85	109.105
509.19	108.409
509.54	108.901
509.88	107.282
510.23	109.629
510.57	109.514
510.92	107.036
511.26	108.783
511.61	108.911
511.95	108.822
512.30	109.368
512.64	108.292
512.98	110.107
513.33	109.065
513.67	110.233
514.02	111.957
514.36	110.629
514.70	112.471
515.05	112.808
515.39	112.928
515.74	113.593
516.08	114.226
516.42	112.132
516.77	112.522
517.11	112.700
517.46	112.747
517.80	112.515
518.14	113.962
518.49	111.358
518.83	112.394
519.17	111.643
519.52	113.321
519.86	112.485
520.20	112.819
520.55	112.946
520.89	114.994
521.23	113.806
521.58	114.448
521.92	114.744
522.26	115.615
522.61	116.494
522.95	117.483
523.29	115.248
523.64	115.565
523.98	116.526
524.32	116.366
524.66	116.709
525.01	116.364
525.35	115.295
525.69	117.239
526.04	115.476
526.38	116.278
526.72	113.604
527.06	114.202
527.41	115.106
527.75	115.147
528.09	115.748
528.43	117.826
528.78	115.842
529.12	115.290
529.46	115.205
529.80	113.236
530.15	115.446
530.49	116.498
530.83	117.647
531.17	114.171
531.51	117.373
531.86	115.432
532.20	114.962
532.54	116.542
532.88	117.385
533.22	116.062
533.57	113.630
533.91	116.123
534.25	114.323
534.59	114.304
534.93	112.020
535.27	110.723
535.62	114.841
535.96	113.568
536.30	113.918
536.64	115.713
536.98	114.564
537.32	116.999
537.66	117.181
538.01	116.434
538.35	113.315
538.69	111.318
539.03	112.714
539.37	113.863
539.71	113.156
540.05	112.559
540.39	112.742
540.73	115.411
541.07	113.674
541.42	112.433
541.76	116.036
542.10	114.591
542.44	114.732
542.78	112.801
543.12	113.668
543.46	114.604
543.80	113.671
544.14	110.147
544.48	112.392
544.82	114.354
545.16	113.730
545.50	111.081
545.84	115.014
546.18	113.901
546.52	116.078
546.86	114.019
547.20	114.163
547.54	111.943
547.88	111.685
548.22	109.270
548.56	109.763
548.90	111.456
549.24	111.639
549.58	111.707
549.92	110.936
550.26	113.700
550.60	114.126
550.94	114.862
551.28	116.229
551.62	117.308
551.96	112.782
552.30	112.281
552.64	110.437
552.98	110.267
553.32	112.482
553.66	113.788
554.00	116.058
554.34	115.140
554.68	111.209
555.02	112.946
555.36	112.117
555.69	110.989
556.03	111.278
556.37	111.317
556.71	113.285
557.05	114.467
557.39	111.301
557.73	114.018
558.07	114.706
558.41	114.548
558.75	115.978
559.08	114.106
559.42	115.159
559.76	115.532
560.10	114.832
560.44	113.105
560.78	109.301
561.12	112.341
561.45	111.525
561.79	113.655
562.13	112.207
562.47	113.669
562.81	113.761
563.15	111.072
563.48	111.810
563.82	112.423
564.16	112.187
564.50	107.365
564.84	109.371
565.17	109.658
565.51	112.295
565.85	114.335
566.19	111.737
566.52	112.601
566.86	109.961
567.20	108.157
567.54	109.489
567.88	109.315
568.21	107.805
568.55	107.663
568.89	106.314
569.23	103.707
569.56	102.277
569.90	102.680
570.24	98.362
570.57	100.073
570.91	99.303
571.25	97.008
571.59	95.391
571.92	94.459
572.26	94.807
572.60	94.109
572.93	94.760
573.27	94.545
573.61	94.779
573.95	94.894
574.28	92.717
574.62	91.355
574.96	91.548
575.29	91.999
575.63	90.282
575.97	91.678
576.30	93.225
576.64	92.079
576.98	92.484
577.31	93.143
577.65	92.133
577.98	90.596
578.32	89.927
578.66	89.491
578.99	90.267
579.33	90.807
579.67	90.487
580.00	91.671
580.34	90.871
580.67	90.851
581.01	91.090
581.35	89.535
581.68	89.431
582.02	88.915
582.35	88.375
582.69	89.794
583.02	89.660
583.36	91.057
583.70	92.134
584.03	93.272
584.37	93.252
584.70	92.198
585.04	91.010
585.37	90.688
585.71	90.792
586.04	90.519
586.38	91.544
586.72	92.798
587.05	93.616
587.39	92.759
587.72	93.002
588.06	92.389
588.39	92.395
588.73	93.468
589.06	95.369
589.40	93.847
589.73	95.363
590.07	95.355
590.40	95.395
590.73	97.488
591.07	97.413
591.40	97.373
591.74	97.783
592.07	98.423
592.41	98.233
592.74	95.062
593.08	91.652
593.41	93.608
593.75	92.215
594.08	92.585
594.41	93.923
594.75	94.466
595.08	94.060
595.42	93.964
595.75	93.992
596.09	94.840
596.42	95.287
596.75	96.936
597.09	96.082
597.42	97.019
597.75	97.618
598.09	95.518
598.42	96.029
598.76	94.680
599.09	94.231
599.42	92.270
599.76	92.250
600.09	93.288
600.42	92.039
600.76	92.162
601.09	93.206
601.42	93.145
601.76	92.299
602.09	94.142
602.42	95.156
602.76	95.374
603.09	95.183
603.42	96.363
603.76	93.589
604.09	93.763
604.42	93.697
604.76	96.573
605.09	94.561
605.42	95.621
605.75	94.483
606.09	93.970
606.42	92.869
606.75	94.199
607.09	94.242
607.42	93.664
607.75	93.472
608.08	92.722
608.42	91.686
608.75	96.000
609.08	96.861
609.41	96.548
609.75	94.909
610.08	95.756
610.41	94.879
610.74	95.953
611.07	97.003
611.41	98.184
611.74	97.281
612.07	95.824
612.40	98.031
612.73	98.757
613.07	96.457
613.40	97.702
613.73	98.489
614.06	96.717
614.39	96.898
614.72	95.126
615.06	97.877
615.39	95.087
615.72	94.726
616.05	95.922
616.38	95.442
616.71	98.532
617.05	97.715
617.38	98.743
617.71	100.377
618.04	99.937
618.37	98.865
618.70	101.848
619.03	101.667
619.36	103.111
619.69	103.336
620.03	102.630
620.36	102.361
620.69	100.071
621.02	101.453
621.35	106.556
621.68	106.548
622.01	107.083
622.34	102.713
622.67	101.972
623.00	103.752
623.33	101.677
623.66	100.898
623.99	102.194
624.32	102.586
624.65	101.805
624.99	103.536
625.32	101.895
625.65	102.907
625.98	104.593
626.31	102.494
626.64	106.066
626.97	107.417
627.30	107.618
627.63	104.073
627.96	106.918
628.29	108.696
628.62	109.341
628.95	109.319
629.28	110.786
629.61	110.768
629.94	109.482
630.26	108.399
630.59	112.487
630.92	110.667
631.25	108.923
631.58	113.106
631.91	112.939
632.24	112.729
632.57	114.886
632.90	115.540
633.23	113.176
633.56	119.395
633.89	115.166
634.22	115.556
634.55	116.518
634.88	116.220
635.20	117.821
635.53	120.267
635.86	116.905
636.19	117.464
636.52	116.327
636.85	111.663
637.18	113.711
637.51	114.088
637.83	117.346
638.16	117.190
638.49	113.215
638.82	112.500
639.15	115.332
639.48	115.818
639.81	116.736
640.13	120.346
640.46	119.534
640.79	116.495
641.12	116.544
641.45	117.117
641.77	116.000
642.10	118.799
642.43	121.061
642.76	120.462
643.09	119.225
643.41	117.152
643.74	120.099
644.07	122.332
644.40	122.297
644.73	122.242
645.05	119.463
645.38	126.279
645.71	124.645
646.04	126.391
646.36	121.454
646.69	123.381
647.02	128.355
647.35	127.612
647.67	122.669
648.00	126.119
648.33	119.454
648.66	118.644
648.98	120.436
649.31	120.826
649.64	113.501
649.96	112.642
650.29	118.058
650.62	116.923
650.94	121.852
651.27	121.415
651.60	118.559
651.92	114.860
652.25	117.052
652.58	111.500
652.90	115.437
653.23	114.454
653.56	113.198
653.88	113.230
654.21	115.412
654.54	110.866
654.86	116.129
655.19	109.503
655.52	97.988
655.84	80.354
656.17	83.394
656.49	100.000
656.82	100.000
657.15	100.000
657.47	72.183
657.80	50.332
658.13	49.937
658.45	78.735
658.78	79.006
659.10	78.844
659.43	80.181
659.75	85.052
660.08	85.793
660.41	95.301
660.73	102.072
661.06	110.399
661.38	112.916
661.71	113.552
662.03	120.815
662.36	121.758
662.68	119.027
663.01	121.616
663.33	125.290
663.66	120.233
663.98	123.256
664.31	115.565
664.63	122.811
664.96	115.435
665.28	118.322
665.61	116.883
665.93	118.696
666.26	120.824
666.58	116.779
666.91	121.882
667.23	122.170
667.56	122.986
667.88	120.863
668.21	121.718
668.53	122.931
668.86	121.462
669.18	116.509
669.50	117.918
669.83	116.512
670.15	115.618
670.48	121.053
670.80	119.585
671.13	114.765
671.45	117.123
671.77	116.309
672.10	110.495
672.42	106.180
672.75	106.394
673.07	104.651
673.39	107.156
673.72	105.720
674.04	109.792
674.37	111.229
674.69	113.704
675.01	115.778
675.34	111.937
675.66	114.815
675.98	115.743
676.31	113.532
676.63	113.539
676.95	109.318
677.28	114.824
677.60	119.036
677.92	114.908
678.25	112.473
678.57	110.606
678.89	109.244
679.22	111.633
679.54	106.827
679.86	97.416
680.18	108.544
680.51	102.273
680.83	102.187
681.15	105.000
681.48	110.246
681.80	106.405
682.12	102.621
682.44	105.439
682.77	110.375
683.09	110.984
683.41	107.500
683.73	108.525
684.06	104.867
684.38	106.667
684.70	107.843
685.02	103.942
685.34	102.569
685.67	102.814
685.99	99.458
686.31	97.699
686.63	100.186
686.96	98.859
687.28	101.212
687.60	100.380
687.92	105.051
688.24	100.806
688.56	103.712
688.89	104.911
689.21	105.556
689.53	106.032
689.85	105.349
690.17	103.795
690.49	103.310
690.82	107.039
691.14	101.905
691.46	107.944
691.78	103.153
692.10	101.290
692.42	97.186
692.74	99.359
693.06	100.000
693.39	101.357
693.71	100.452
694.03	102.771
694.35	104.673
694.67	102.778
694.99	108.616
695.31	104.439
695.63	102.250
695.95	101.010
696.27	105.181
696.59	110.833
696.91	105.602
697.23	101.799
697.56	101.980
697.88	93.763
698.20	94.533
698.52	98.118
698.84	98.086
699.16	97.500
699.48	100.000
699.80	98.015
700.12	102.965
700.44	101.681
700.76	102.326
701.08	103.939
701.40	106.928
701.72	109.568
702.04	109.901
702.36	113.378
702.68	106.907
703.00	107.576
703.32	106.452
703.64	97.458
703.96	102.319
704.28	106.442
704.60	105.079
704.91	99.685
705.23	104.651
705.55	110.954
705.87	114.079
706.19	103.704
706.51	103.780
706.83	106.109
707.15	99.688
707.47	96.639
707.79	89.323
708.11	93.000
708.43	92.750
708.74	92.765
709.06	98.028
709.38	105.810
709.70	97.337
710.02	97.452
710.34	99.690
710.66	98.077
710.98	100.662
711.29	101.639
711.61	104.407
711.93	96.743
712.25	104.467
712.57	105.495
712.89	103.358
713.20	94.118
713.52	98.955
713.84	100.000
714.16	97.251
714.48	97.419
714.80	100.000
715.11	93.009
715.43	90.282
715.75	97.000
716.07	95.681
716.39	94.631
716.70	96.310
717.02	93.130
717.34	103.239
717.66	114.159
717.97	98.261
718.29	104.603
718.61	96.457
718.93	101.938
719.24	98.099
719.56	99.197
719.88	90.034
720.20	91.667
720.51	95.785
720.83	96.139
721.15	101.681
721.46	97.177
721.78	95.257
722.10	88.104
722.42	93.776
722.73	93.469
723.05	98.367
723.37	97.881
723.68	98.649
724.00	94.444
724.32	96.444
724.63	97.273
724.95	96.507
725.27	103.226
725.58	102.542
725.90	90.079
726.22	89.961
726.53	85.424
726.85	91.011
727.16	92.830
727.48	94.737
727.80	90.283
728.11	94.068
728.43	89.020
728.74	83.065
729.06	88.800
729.38	95.113
729.69	92.430
730.01	90.385
730.32	91.791
730.64	87.633
730.96	92.830
731.27	83.000
731.59	85.763
731.90	84.713
732.22	83.596
732.53	86.711
732.85	87.943
733.16	85.859
733.48	83.094
733.80	82.971
734.11	82.373
734.43	85.567
734.74	83.030
735.06	87.948
735.37	78.248
735.69	89.226
736.00	83.624
736.32	81.544
736.63	85.563
736.95	81.229
737.26	82.562
737.58	76.846
737.89	84.615
738.21	83.835
738.52	89.712
738.83	84.279
739.15	87.773
739.46	87.795
739.78	79.487
740.09	76.471
740.41	81.522
740.72	81.890
741.04	85.020
741.35	83.830
741.66	86.256
741.98	92.347
742.29	88.614
742.61	87.435
742.92	74.408
743.23	80.556
743.55	89.140
743.86	88.517
744.18	85.167
744.49	95.213
744.80	86.413
745.12	101.604
745.43	87.317
745.74	94.792
746.06	92.195
746.37	91.099
746.68	87.204
747.00	93.617
747.31	92.537
747.62	86.408
747.94	85.167
748.25	84.653
748.56	93.989
748.88	85.340
749.19	95.213
749.50	82.266
749.82	83.491
750.13	82.569
750.44	83.083
750.75	78.731
751.07	82.847
751.38	79.693
751.69	80.392
752.01	81.395
752.32	77.291
752.63	75.494
752.94	84.914
753.26	82.427
753.57	81.900
753.88	86.726
754.19	80.833
754.51	83.058
754.82	78.947
755.13	82.500
755.44	75.403
755.75	80.078
756.07	80.934
756.38	75.472
756.69	75.096
757.00	70.667
757.31	78.431
757.63	73.171
757.94	70.278
758.25	66.027
758.56	72.074
758.87	65.156
759.18	67.601
759.50	72.727
759.81	73.244
760.12	71.290
760.43	71.212
760.74	70.370
761.05	75.692
761.36	68.466
761.67	70.303
761.99	73.129
762.30	73.818
762.61	69.565
762.92	75.566
763.23	71.622
763.54	78.037
763.85	68.644
764.16	70.539
764.47	73.790
764.78	73.993
765.10	72.727
765.41	68.139
765.72	67.302
766.03	70.677
766.34	69.343
766.65	73.307
766.96	73.232
767.27	79.787
767.58	77.011
767.89	83.688
768.20	77.273
768.51	74.725
768.82	66.010
769.13	71.429
769.44	67.382
769.75	67.123
770.06	65.086
770.37	75.962
770.68	69.543
770.99	67.421
771.30	78.431
771.61	71.946
771.92	66.810
772.23	77.833
772.54	72.581
772.85	79.630
773.16	74.719
773.47	85.621
773.78	75.163
774.09	70.659
774.39	70.667
774.70	75.796
775.01	80.690
775.32	82.143
775.63	79.339
775.94	73.282
776.25	69.291
776.56	70.000
776.87	87.500
777.18	82.051
777.48	77.586
777.79	71.304
778.10	78.095
778.41	81.982
778.72	69.841
779.03	79.699
779.34	78.014
779.65	71.233
779.95	54.110
780.26	71.724
780.57	64.228
780.88	70.079
781.19	80.172
781.50	75.194
781.80	66.272
782.11	64.780
782.42	81.538
782.73	69.065
783.04	68.889
783.34	65.972
783.65	69.231
783.96	74.590
784.27	66.897
784.57	73.984
784.88	68.750
785.19	71.000
785.50	75.000
785.81	71.552
786.11	73.276
786.42	59.223
786.73	74.545
787.04	86.735
787.34	66.071
787.65	78.095
787.96	70.796
788.26	73.636
788.57	60.684
788.88	67.969
789.19	67.460
789.49	60.870
789.80	70.408
790.11	69.697
790.41	53.636
790.72	75.000
791.03	76.136
791.33	90.000
791.64	72.500
791.95	77.907
792.25	68.085
792.56	61.798
792.87	75.342
793.17	78.261
793.48	62.667
793.79	70.000
794.09	68.750
794.40	64.151
794.70	72.816
795.01	57.724
795.32	65.812
795.62	61.905
795.93	62.745
796.23	58.491
796.54	55.208
796.85	69.118
797.15	57.746
797.46	65.278
797.76	83.333
798.07	61.628
798.37	51.316
798.68	63.636
798.99	59.259
799.29	80.000
799.60	49.275
799.90	69.333
800.21	68.852
800.51	60.000
800.82	55.932
801.12	63.768
801.43	75.410
801.73	63.492
802.04	64.000
802.34	65.672
802.65	78.846
802.95	42.857
803.26	53.846
803.56	68.627
803.87	45.652
804.17	61.333
804.48	73.016
804.78	59.259
805.09	67.391
805.39	68.889
805.70	61.111
806.00	56.140
806.30	61.972
806.61	60.000
806.91	47.222
807.22	72.368
807.52	49.333
807.83	49.091
808.13	59.722
808.43	88.235
808.74	53.731
809.04	72.881
809.35	44.231
809.65	43.750
809.95	48.649
810.26	47.727
810.56	49.315
810.86	50.000
811.17	64.000
811.47	61.224
811.77	39.474
812.08	50.000
812.38	83.019
812.69	72.500
812.99	63.636
813.29	52.632
813.59	48.571
813.90	79.545
814.20	51.282
814.50	71.154
814.81	60.377
815.11	51.064
815.41	55.932
815.72	83.333
816.02	41.176
816.32	43.750
816.62	73.171
816.93	40.541
817.23	48.571
817.53	72.917
817.84	56.522
818.14	57.692
818.44	68.421
818.74	52.174
819.04	17.500
819.35	45.946
819.65	20.588
819.95	30.556
820.25	52.381
820.56	112.500
820.86	17.241
821.16	65.000
821.46	63.830
821.76	77.500
822.07	46.512
822.37	16.216
822.67	59.375
822.97	59.524
823.27	60.714
823.57	48.000
823.88	33.333
824.18	71.429
824.48	35.294
824.78	64.516
825.08	39.130
825.38	27.273
825.69	75.000
825.99	50.000
826.29	58.333
826.59	80.000
826.89	38.095
827.19	63.043
827.49	37.500
827.79	48.571
828.09	107.143
828.39	51.515
828.70	100.000
829.00	53.571
829.30	80.952
829.60	86.667
829.90	53.125
830.20	44.737
830.50	48.148
830.80	52.174
831.10	100.000
831.40	84.848
831.70	41.935
832.00	95.238
832.30	61.905
832.60	75.000
832.90	82.759
833.20	90.000
833.50	54.545
833.80	18.519
834.10	38.462
834.40	68.750
834.70	88.889
835.00	21.053
835.30	88.462
835.60	40.000
835.90	25.806
836.20	36.364
836.50	50.000
836.80	23.077
837.10	39.286
837.40	-166.667
837.70	72.727
838.00	90.909
838.30	43.478
838.60	7.692
838.90	27.273
839.19	50.000
839.49	33.333
839.79	53.846
840.09	58.333
840.39	75.000
840.69	21.429
840.99	11.538
841.29	31.579
841.59	-10.000
841.88	63.636
842.18	70.000
842.48	-6.250
842.78	6.667
843.08	14.815
843.38	-60.000
843.68	26.087
843.97	53.333
844.27	60.000
844.57	60.000
844.87	27.778
845.17	14.286
845.47	40.000
845.76	28.571
846.06	29.412
846.36	20.000
846.66	-35.714
846.96	53.333
847.25	-25.000
847.55	100.000
847.85	125.000
848.15	18.182
848.44	-66.667
848.74	35.000
849.04	66.667
849.34	54.545
849.63	-50.000
849.93	-100.000
850.23	38.889
850.53	80.000
850.82	30.769
851.12	11.111
851.42	106.667
851.71	15.385
852.01	14.286
852.31	-200.000
852.61	18.182
852.90	-5.000
853.20	42.105
853.50	50.000
853.79	13.043
854.09	91.667
854.39	5.263
854.68	37.500
854.98	51.613
855.28	73.077
855.57	40.000
855.87	94.444
856.17	37.037
856.46	7.143
856.76	-20.000
857.05	177.778
857.35	24.000
857.65	11.111
857.94	38.462
858.24	51.724
858.53	94.444
858.83	22.222
859.13	9.091
859.42	13.043
859.72	100.000
860.01	66.667
860.31	36.000
860.60	23.810
860.90	-166.667
861.20	-26.667
861.49	-50.000
861.79	0.000
862.08	20.000
862.38	13.333
862.67	-180.000
862.97	33.333
863.26	-25.000
863.56	44.444
863.85	-133.333
864.15	55.556
864.44	10.000
864.74	50.000
865.03	150.000
865.33	-260.000
865.62	116.667
865.92	-91.667
866.21	-50.000
866.51	50.000
866.80	0.000
867.10	-250.000
867.39	91.667
867.69	0.000
867.98	100.000
868.27	-33.333
868.57	53.333
868.86	16.667
869.16	-15.385
869.45	20.000
869.75	0.000
870.04	0.000
870.33	-100.000
870.63	76.190
870.92	266.667
871.22	-360.000
871.51	-100.000
871.80	11.111
872.10	33.333
>>>>>End Processed Spectral Data<<<<<
