SpectraSuite Data File
++++++++++++++++++++++++++++++++++++
Date: Fri May 15 20:59:35 PDT 2015
User: schluterlab
Dark Spectrum Present: Yes
Reference Spectrum Present: Yes
Number of Sampled Component Spectra: 1
Spectrometers: USB2E3373
Integration Time (usec): 3000 (USB2E3373)
Spectra Averaged: 3 (USB2E3373)
Boxcar Smoothing: 0 (USB2E3373)
Correct for Electrical Dark: No (USB2E3373)
Strobe/Lamp Enabled: No (USB2E3373)
Correct for Detector Non-linearity: No (USB2E3373)
Correct for Stray Light: No (USB2E3373)
Number of Pixels in Processed Spectrum: 2048
>>>>>Begin Processed Spectral Data<<<<<
178.53	0.000
178.91	0.000
179.29	62.500
179.67	-250.000
180.04	-0.000
180.42	25.000
180.80	-1100.000
181.18	266.667
181.56	350.000
181.94	-300.000
182.31	800.000
182.69	-160.000
183.07	-133.333
183.45	-40.000
183.83	83.333
184.20	-18.182
184.58	144.444
184.96	50.000
185.34	33.333
185.72	0.000
186.09	115.385
186.47	-700.000
186.85	183.333
187.23	122.222
187.61	600.000
187.98	-133.333
188.36	22.222
188.74	-133.333
189.12	41.176
189.49	-22.222
189.87	0.000
190.25	14.286
190.63	0.000
191.00	-233.333
191.38	42.105
191.76	-550.000
192.14	175.000
192.51	450.000
192.89	-88.889
193.27	-185.714
193.65	66.667
194.02	81.818
194.40	-20.000
194.78	-137.500
195.15	-25.000
195.53	-137.500
195.91	575.000
196.29	-200.000
196.66	69.231
197.04	200.000
197.42	-88.889
197.79	-466.667
198.17	-107.692
198.55	1700.000
198.92	-433.333
199.30	300.000
199.68	-120.000
200.05	-300.000
200.43	0.000
200.81	-200.000
201.18	-300.000
201.56	1000.000
201.94	-400.000
202.31	200.000
202.69	0.000
203.07	350.000
203.44	0.000
203.82	0.000
204.19	-21.429
204.57	-566.667
204.95	75.000
205.32	-30.000
205.70	28.571
206.08	-125.000
206.45	100.000
206.83	21.429
207.20	-185.714
207.58	400.000
207.96	-466.667
208.33	-140.000
208.71	-150.000
209.08	-200.000
209.46	-1700.000
209.84	-40.000
210.21	-300.000
210.59	-100.000
210.96	-66.667
211.34	50.000
211.71	33.333
212.09	-42.857
212.46	-1900.000
212.84	0.000
213.22	110.000
213.59	450.000
213.97	23.077
214.34	36.364
214.72	-150.000
215.09	375.000
215.47	23.077
215.84	-90.909
216.22	0.000
216.59	-62.500
216.97	-300.000
217.34	-375.000
217.72	-280.000
218.09	87.500
218.47	225.000
218.84	-400.000
219.22	-22.222
219.59	-220.000
219.97	433.333
220.34	200.000
220.72	-28.571
221.09	25.000
221.47	-100.000
221.84	-200.000
222.22	-350.000
222.59	63.636
222.97	33.333
223.34	-200.000
223.72	-7.143
224.09	9.524
224.46	17.857
224.84	700.000
225.21	-80.000
225.59	13.333
225.96	-450.000
226.34	400.000
226.71	-142.857
227.08	-133.333
227.46	-25.000
227.83	-1050.000
228.21	0.000
228.58	-54.545
228.95	-50.000
229.33	70.000
229.70	62.500
230.08	-50.000
230.45	-100.000
230.82	-57.143
231.20	-66.667
231.57	21.429
231.95	14.286
232.32	-110.000
232.69	-14.286
233.07	200.000
233.44	-120.000
233.81	-110.000
234.19	22.222
234.56	-11.765
234.93	600.000
235.31	100.000
235.68	-260.000
236.05	-100.000
236.43	20.000
236.80	47.059
237.17	31.250
237.55	-10.000
237.92	3.704
238.29	11.111
238.67	40.000
239.04	2.941
239.41	-2.439
239.79	-33.333
240.16	21.951
240.53	-13.158
240.91	0.000
241.28	33.333
241.65	32.143
242.02	16.438
242.40	13.333
242.77	20.339
243.14	3.030
243.51	20.000
243.89	33.333
244.26	19.540
244.63	15.476
245.00	18.557
245.38	29.897
245.75	12.360
246.12	10.345
246.49	23.140
246.87	26.923
247.24	19.328
247.61	4.386
247.98	24.390
248.36	15.000
248.73	23.026
249.10	19.481
249.47	20.886
249.84	15.686
250.22	16.471
250.59	24.183
250.96	24.883
251.33	18.605
251.70	21.765
252.08	19.289
252.45	17.822
252.82	23.116
253.19	21.659
253.56	17.757
253.94	18.919
254.31	20.435
254.68	28.509
255.05	21.260
255.42	21.397
255.79	18.533
256.16	25.681
256.54	22.015
256.91	22.814
257.28	20.074
257.65	22.097
258.02	23.404
258.39	20.875
258.76	22.711
259.14	22.924
259.51	21.359
259.88	23.711
260.25	17.974
260.62	20.486
260.99	17.966
261.36	21.575
261.73	19.620
262.10	17.325
262.47	24.540
262.85	23.824
263.22	18.769
263.59	23.988
263.96	26.398
264.33	23.636
264.70	20.536
265.07	23.214
265.44	23.513
265.81	22.316
266.18	22.131
266.55	23.393
266.92	22.280
267.29	23.238
267.66	24.041
268.03	20.157
268.40	20.104
268.77	25.668
269.14	23.022
269.51	25.964
269.88	21.945
270.25	18.622
270.62	20.244
270.99	20.205
271.36	19.560
271.73	23.709
272.10	21.411
272.47	20.567
272.84	23.267
273.21	22.274
273.58	22.169
273.95	22.197
274.32	17.321
274.69	18.100
275.06	23.438
275.43	21.542
275.80	22.737
276.17	18.851
276.54	22.270
276.91	22.588
277.28	19.651
277.65	22.314
278.02	21.489
278.39	22.101
278.76	19.916
279.13	20.124
279.50	22.479
279.87	21.382
280.23	19.140
280.60	23.977
280.97	22.222
281.34	22.115
281.71	21.766
282.08	19.018
282.45	19.569
282.82	18.726
283.19	20.503
283.56	21.195
283.92	20.683
284.29	20.000
284.66	18.798
285.03	20.432
285.40	20.038
285.77	18.453
286.14	17.870
286.51	22.140
286.87	19.744
287.24	21.915
287.61	16.402
287.98	20.526
288.35	21.317
288.72	20.490
289.08	18.924
289.45	20.914
289.82	18.881
290.19	18.430
290.56	15.952
290.93	19.360
291.29	17.411
291.66	18.268
292.03	18.820
292.40	17.581
292.77	16.746
293.13	15.097
293.50	16.388
293.87	18.321
294.24	18.856
294.60	16.841
294.97	16.667
295.34	17.025
295.71	18.033
296.08	15.396
296.44	15.647
296.81	16.944
297.18	17.101
297.55	19.106
297.91	16.712
298.28	18.074
298.65	16.418
299.02	16.307
299.38	13.269
299.75	18.207
300.12	13.613
300.48	14.625
300.85	15.463
301.22	16.753
301.59	13.816
301.95	15.443
302.32	15.045
302.69	14.925
303.05	14.356
303.42	14.446
303.79	14.369
304.15	15.173
304.52	13.436
304.89	13.918
305.25	13.559
305.62	14.236
305.99	15.088
306.35	15.145
306.72	14.286
307.09	15.849
307.45	16.303
307.82	15.625
308.19	15.331
308.55	14.940
308.92	15.577
309.29	13.184
309.65	14.316
310.02	15.402
310.38	15.258
310.75	17.923
311.12	15.931
311.48	15.695
311.85	14.974
312.22	15.506
312.58	16.030
312.95	15.688
313.31	14.803
313.68	15.916
314.05	15.306
314.41	15.773
314.78	15.258
315.14	17.677
315.51	16.770
315.87	16.189
316.24	16.987
316.61	17.028
316.97	17.063
317.34	16.699
317.70	17.878
318.07	17.981
318.43	17.549
318.80	18.182
319.16	19.043
319.53	19.943
319.89	19.193
320.26	20.445
320.62	21.163
320.99	19.833
321.35	20.555
321.72	20.353
322.08	22.659
322.45	22.234
322.81	23.084
323.18	23.062
323.54	23.745
323.91	23.466
324.27	24.805
324.64	25.468
325.00	25.547
325.37	26.630
325.73	25.023
326.10	26.431
326.46	27.265
326.83	27.384
327.19	27.637
327.56	28.931
327.92	29.842
328.29	28.125
328.65	29.811
329.01	31.250
329.38	29.677
329.74	29.462
330.11	30.677
330.47	30.705
330.84	31.923
331.20	34.030
331.56	30.926
331.93	31.963
332.29	32.447
332.66	32.489
333.02	32.621
333.38	32.081
333.75	32.692
334.11	32.945
334.48	33.636
334.84	32.784
335.20	32.296
335.57	32.185
335.93	32.611
336.29	33.241
336.66	33.697
337.02	32.807
337.38	33.611
337.75	34.000
338.11	34.085
338.47	34.672
338.84	34.196
339.20	34.735
339.56	34.679
339.93	35.363
340.29	33.486
340.65	33.513
341.02	35.018
341.38	35.044
341.74	33.127
342.11	33.709
342.47	34.609
342.83	34.170
343.20	34.059
343.56	34.087
343.92	34.544
344.28	34.757
344.65	33.851
345.01	33.794
345.37	33.726
345.73	35.565
346.10	35.893
346.46	35.071
346.82	33.879
347.19	33.001
347.55	33.584
347.91	35.599
348.27	34.923
348.63	35.690
349.00	35.193
349.36	35.411
349.72	36.153
350.08	35.082
350.45	35.116
350.81	33.721
351.17	34.609
351.53	35.265
351.89	34.600
352.26	35.360
352.62	35.484
352.98	35.100
353.34	35.668
353.70	35.599
354.07	34.516
354.43	34.988
354.79	35.838
355.15	36.429
355.51	35.601
355.87	36.408
356.24	35.563
356.60	35.893
356.96	36.746
357.32	36.102
357.68	35.418
358.04	35.622
358.40	34.887
358.77	36.443
359.13	36.829
359.49	36.210
359.85	36.349
360.21	36.683
360.57	35.501
360.93	36.536
361.29	35.725
361.66	37.147
362.02	36.894
362.38	36.329
362.74	37.396
363.10	36.870
363.46	37.509
363.82	38.092
364.18	36.974
364.54	36.103
364.90	37.133
365.26	37.409
365.62	39.489
365.98	38.783
366.35	38.529
366.71	38.729
367.07	37.155
367.43	36.664
367.79	38.375
368.15	38.693
368.51	37.436
368.87	38.981
369.23	37.329
369.59	37.755
369.95	39.589
370.31	38.584
370.67	39.851
371.03	38.013
371.39	38.950
371.75	38.608
372.11	38.445
372.47	40.237
372.83	39.957
373.19	39.372
373.55	38.773
373.91	38.517
374.27	40.609
374.63	39.914
374.99	39.362
375.35	39.624
375.71	40.559
376.07	39.958
376.42	40.136
376.78	39.799
377.14	40.081
377.50	40.571
377.86	41.432
378.22	40.587
378.58	40.321
378.94	40.265
379.30	40.299
379.66	40.627
380.02	39.975
380.38	40.840
380.74	40.814
381.09	42.393
381.45	41.468
381.81	41.641
382.17	40.673
382.53	41.224
382.89	41.871
383.25	42.377
383.61	43.049
383.97	42.794
384.32	41.839
384.68	40.743
385.04	42.525
385.40	41.319
385.76	44.277
386.12	42.044
386.48	43.742
386.83	43.564
387.19	42.796
387.55	44.605
387.91	43.215
388.27	41.514
388.62	43.675
388.98	42.971
389.34	43.161
389.70	45.805
390.06	43.298
390.42	44.560
390.77	44.277
391.13	43.001
391.49	44.631
391.85	44.769
392.20	43.754
392.56	44.628
392.92	44.157
393.28	43.750
393.64	43.483
393.99	45.141
394.35	44.655
394.71	45.977
395.07	42.992
395.42	44.019
395.78	45.277
396.14	44.515
396.50	45.593
396.85	45.718
397.21	45.175
397.57	45.893
397.92	45.536
398.28	45.460
398.64	45.422
399.00	45.598
399.35	44.244
399.71	45.434
400.07	46.735
400.42	45.532
400.78	46.663
401.14	45.917
401.49	44.729
401.85	45.399
402.21	46.265
402.57	47.312
402.92	45.609
403.28	47.180
403.63	47.289
403.99	47.768
404.35	46.533
404.70	45.774
405.06	46.357
405.42	46.489
405.77	45.904
406.13	45.634
406.49	46.832
406.84	47.127
407.20	48.525
407.55	46.362
407.91	46.524
408.27	46.654
408.62	47.138
408.98	47.628
409.34	46.902
409.69	46.641
410.05	46.983
410.40	47.099
410.76	47.768
411.11	47.875
411.47	48.323
411.83	46.453
412.18	48.069
412.54	47.378
412.89	46.552
413.25	48.977
413.60	47.888
413.96	47.178
414.31	48.415
414.67	47.338
415.03	48.136
415.38	47.193
415.74	48.143
416.09	50.033
416.45	48.886
416.80	48.116
417.16	48.481
417.51	49.234
417.87	49.218
418.22	48.640
418.58	49.164
418.93	49.781
419.29	47.567
419.64	50.227
420.00	50.504
420.35	48.478
420.71	49.271
421.06	49.662
421.42	49.519
421.77	49.249
422.12	48.695
422.48	49.377
422.83	49.884
423.19	50.000
423.54	50.558
423.90	50.000
424.25	50.344
424.61	50.428
424.96	49.303
425.31	51.069
425.67	50.998
426.02	51.826
426.38	52.724
426.73	50.424
427.09	52.278
427.44	52.118
427.79	51.974
428.15	51.456
428.50	51.181
428.85	51.290
429.21	51.047
429.56	52.183
429.92	50.539
430.27	50.927
430.62	50.078
430.98	50.743
431.33	50.315
431.68	51.910
432.04	52.935
432.39	51.226
432.74	50.992
433.10	53.908
433.45	51.792
433.80	52.293
434.16	51.856
434.51	52.312
434.86	52.439
435.22	52.776
435.57	52.339
435.92	52.994
436.28	51.878
436.63	52.995
436.98	52.607
437.34	52.571
437.69	53.369
438.04	52.877
438.39	52.352
438.75	54.281
439.10	53.254
439.45	52.708
439.81	52.355
440.16	54.513
440.51	54.507
440.86	56.193
441.22	53.450
441.57	53.808
441.92	54.722
442.27	54.989
442.63	54.818
442.98	53.475
443.33	53.589
443.68	53.103
444.03	53.403
444.39	54.501
444.74	55.463
445.09	54.232
445.44	55.783
445.79	56.215
446.15	55.066
446.50	53.910
446.85	55.526
447.20	54.588
447.55	56.473
447.91	55.104
448.26	56.517
448.61	55.383
448.96	55.995
449.31	53.873
449.66	54.820
450.02	54.421
450.37	56.491
450.72	54.181
451.07	55.759
451.42	55.993
451.77	54.551
452.12	55.084
452.47	55.827
452.83	55.006
453.18	56.040
453.53	57.016
453.88	57.256
454.23	57.837
454.58	57.242
454.93	55.606
455.28	54.286
455.63	56.789
455.98	55.983
456.34	56.705
456.69	55.909
457.04	56.144
457.39	56.075
457.74	56.046
458.09	56.386
458.44	55.120
458.79	56.471
459.14	56.751
459.49	56.179
459.84	54.653
460.19	56.371
460.54	56.907
460.89	56.420
461.24	57.329
461.59	56.710
461.94	57.170
462.29	57.841
462.64	57.741
462.99	56.330
463.34	55.841
463.69	56.885
464.04	56.719
464.39	56.580
464.74	55.583
465.09	56.581
465.44	56.780
465.79	54.705
466.14	56.385
466.49	55.089
466.84	56.217
467.19	57.009
467.54	54.917
467.89	56.096
468.24	56.934
468.59	56.571
468.94	55.746
469.29	56.000
469.64	57.280
469.99	58.584
470.34	56.928
470.68	58.986
471.03	56.829
471.38	58.845
471.73	56.723
472.08	57.056
472.43	56.913
472.78	56.614
473.13	57.483
473.48	56.743
473.83	56.663
474.17	57.578
474.52	56.222
474.87	58.121
475.22	56.498
475.57	56.522
475.92	57.268
476.27	57.043
476.61	58.102
476.96	56.553
477.31	57.869
477.66	57.697
478.01	57.440
478.36	56.699
478.70	58.021
479.05	57.912
479.40	56.121
479.75	56.465
480.10	56.631
480.45	56.150
480.79	58.056
481.14	57.992
481.49	56.453
481.84	57.481
482.19	56.548
482.53	56.595
482.88	57.184
483.23	56.814
483.58	56.604
483.92	56.825
484.27	56.062
484.62	56.880
484.97	56.260
485.31	54.444
485.66	52.364
486.01	52.308
486.36	53.013
486.70	54.360
487.05	55.595
487.40	55.636
487.75	56.169
488.09	56.428
488.44	56.637
488.79	57.714
489.13	56.971
489.48	56.947
489.83	56.502
490.17	55.955
490.52	57.644
490.87	56.733
491.22	56.304
491.56	56.546
491.91	56.262
492.26	57.511
492.60	57.150
492.95	56.862
493.30	56.619
493.64	57.613
493.99	57.005
494.34	57.621
494.68	57.095
495.03	57.421
495.37	57.311
495.72	57.294
496.07	57.415
496.41	57.123
496.76	57.117
497.11	55.706
497.45	57.661
497.80	57.972
498.14	56.930
498.49	57.339
498.84	57.285
499.18	57.831
499.53	56.994
499.87	56.663
500.22	56.182
500.56	57.136
500.91	56.777
501.26	55.858
501.60	55.927
501.95	56.817
502.29	56.852
502.64	57.143
502.98	58.017
503.33	57.157
503.67	56.723
504.02	56.403
504.36	57.447
504.71	56.818
505.06	56.819
505.40	56.447
505.75	57.732
506.09	57.020
506.44	57.238
506.78	57.245
507.13	57.756
507.47	55.614
507.82	56.197
508.16	58.003
508.51	56.506
508.85	57.980
509.19	57.371
509.54	57.105
509.88	56.311
510.23	57.665
510.57	56.921
510.92	55.384
511.26	57.065
511.61	58.306
511.95	57.589
512.30	57.206
512.64	58.208
512.98	57.552
513.33	58.030
513.67	56.396
514.02	58.696
514.36	57.886
514.70	57.925
515.05	59.577
515.39	57.910
515.74	59.401
516.08	57.262
516.42	57.951
516.77	57.929
517.11	57.982
517.46	58.887
517.80	58.820
518.14	58.236
518.49	57.212
518.83	57.837
519.17	57.065
519.52	57.490
519.86	58.223
520.20	57.959
520.55	58.537
520.89	58.783
521.23	58.518
521.58	59.937
521.92	59.679
522.26	59.466
522.61	58.247
522.95	60.530
523.29	59.022
523.64	58.831
523.98	58.134
524.32	58.892
524.66	58.259
525.01	59.481
525.35	58.393
525.69	59.529
526.04	59.524
526.38	58.690
526.72	57.031
527.06	57.912
527.41	59.499
527.75	59.316
528.09	58.405
528.43	60.365
528.78	58.152
529.12	58.065
529.46	57.830
529.80	57.441
530.15	58.944
530.49	58.316
530.83	58.687
531.17	58.026
531.51	58.482
531.86	58.600
532.20	58.316
532.54	58.339
532.88	57.426
533.22	59.005
533.57	57.536
533.91	57.572
534.25	57.357
534.59	57.280
534.93	56.388
535.27	57.107
535.62	57.745
535.96	57.795
536.30	57.124
536.64	57.271
536.98	57.213
537.32	59.744
537.66	58.275
538.01	58.322
538.35	56.519
538.69	56.325
539.03	57.211
539.37	57.873
539.71	57.532
540.05	55.940
540.39	58.033
540.73	58.787
541.07	57.873
541.42	57.460
541.76	58.844
542.10	58.156
542.44	56.567
542.78	56.366
543.12	55.769
543.46	57.232
543.80	56.974
544.14	54.206
544.48	57.295
544.82	57.690
545.16	57.240
545.50	55.741
545.84	58.144
546.18	56.170
546.52	58.039
546.86	57.081
547.20	57.868
547.54	56.184
547.88	55.095
548.22	55.950
548.56	55.541
548.90	57.278
549.24	54.614
549.58	56.065
549.92	56.540
550.26	56.777
550.60	58.513
550.94	57.431
551.28	57.110
551.62	57.538
551.96	56.241
552.30	55.702
552.64	55.501
552.98	56.259
553.32	55.849
553.66	55.443
554.00	57.153
554.34	55.465
554.68	56.342
555.02	56.622
555.36	56.395
555.69	56.044
556.03	54.747
556.37	55.587
556.71	56.101
557.05	56.450
557.39	54.944
557.73	55.397
558.07	57.692
558.41	57.504
558.75	55.339
559.08	55.477
559.42	56.587
559.76	56.205
560.10	55.275
560.44	54.803
560.78	54.825
561.12	54.231
561.45	55.727
561.79	55.462
562.13	55.075
562.47	56.259
562.81	55.043
563.15	54.372
563.48	54.880
563.82	54.564
564.16	55.501
564.50	53.851
564.84	53.548
565.17	54.460
565.51	55.601
565.85	54.870
566.19	54.841
566.52	53.686
566.86	55.141
567.20	53.487
567.54	54.866
567.88	54.013
568.21	54.638
568.55	52.663
568.89	52.977
569.23	52.865
569.56	51.138
569.90	51.360
570.24	50.167
570.57	51.200
570.91	50.052
571.25	48.931
571.59	48.988
571.92	48.119
572.26	48.551
572.60	48.124
572.93	49.012
573.27	48.621
573.61	48.717
573.95	48.908
574.28	48.226
574.62	47.496
574.96	47.345
575.29	47.198
575.63	47.188
575.97	47.818
576.30	48.383
576.64	47.444
576.98	48.031
577.31	47.776
577.65	47.362
577.98	46.703
578.32	46.507
578.66	46.851
578.99	46.701
579.33	47.315
579.67	47.388
580.00	47.342
580.34	47.836
580.67	47.107
581.01	47.382
581.35	46.727
581.68	45.503
582.02	45.605
582.35	46.667
582.69	46.163
583.02	46.529
583.36	47.741
583.70	48.313
584.03	49.013
584.37	49.012
584.70	47.637
585.04	46.736
585.37	46.683
585.71	46.927
586.04	46.420
586.38	46.732
586.72	46.944
587.05	47.083
587.39	47.666
587.72	47.376
588.06	47.634
588.39	46.426
588.73	46.947
589.06	47.815
589.40	47.805
589.73	47.499
590.07	48.867
590.40	48.529
590.73	48.929
591.07	48.516
591.40	48.397
591.74	49.186
592.07	49.629
592.41	47.924
592.74	46.635
593.08	45.093
593.41	46.359
593.75	45.535
594.08	45.280
594.41	46.434
594.75	46.641
595.08	47.333
595.42	46.448
595.75	47.390
596.09	47.381
596.42	47.375
596.75	47.869
597.09	47.380
597.42	47.561
597.75	46.633
598.09	46.492
598.42	46.390
598.76	45.903
599.09	45.433
599.42	44.562
599.76	44.582
600.09	44.759
600.42	45.527
600.76	45.059
601.09	45.191
601.42	46.181
601.76	46.209
602.09	46.782
602.42	46.925
602.76	46.350
603.09	46.387
603.42	46.614
603.76	44.960
604.09	45.565
604.42	45.685
604.76	47.219
605.09	45.795
605.42	45.734
605.75	45.665
606.09	45.563
606.42	44.537
606.75	44.935
607.09	45.143
607.42	45.016
607.75	45.027
608.08	44.250
608.42	45.500
608.75	46.602
609.08	45.590
609.41	46.904
609.75	46.573
610.08	45.432
610.41	44.686
610.74	44.807
611.07	46.615
611.41	46.238
611.74	46.855
612.07	45.878
612.40	47.046
612.73	46.610
613.07	45.332
613.40	46.389
613.73	45.663
614.06	46.466
614.39	45.685
614.72	44.482
615.06	44.190
615.39	44.924
615.72	44.833
616.05	44.525
616.38	43.875
616.71	45.260
617.05	45.522
617.38	46.826
617.71	45.849
618.04	46.540
618.37	47.415
618.70	46.139
619.03	46.042
619.36	46.382
619.69	48.218
620.03	47.699
620.36	47.139
620.69	45.896
621.02	45.719
621.35	48.050
621.68	48.129
622.01	47.750
622.34	45.890
622.67	47.003
623.00	46.095
623.33	44.893
623.66	44.428
623.99	45.688
624.32	45.247
624.65	45.940
624.99	46.275
625.32	44.428
625.65	46.740
625.98	46.737
626.31	44.971
626.64	46.360
626.97	48.080
627.30	46.235
627.63	46.187
627.96	47.260
628.29	46.809
628.62	47.001
628.95	46.593
629.28	47.077
629.61	46.062
629.94	46.530
630.26	47.036
630.59	50.052
630.92	46.872
631.25	45.026
631.58	49.229
631.91	47.588
632.24	46.445
632.57	48.636
632.90	48.399
633.23	48.353
633.56	48.866
633.89	48.089
634.22	49.753
634.55	49.936
634.88	46.616
635.20	47.564
635.53	48.533
635.86	44.473
636.19	47.865
636.52	46.556
636.85	45.409
637.18	47.296
637.51	48.302
637.83	47.043
638.16	48.977
638.49	47.139
638.82	48.684
639.15	46.269
639.48	48.281
639.81	48.536
640.13	49.639
640.46	46.210
640.79	45.655
641.12	45.347
641.45	47.297
641.77	48.741
642.10	50.079
642.43	47.267
642.76	47.855
643.09	49.273
643.41	47.735
643.74	49.259
644.07	46.634
644.40	47.128
644.73	49.037
645.05	48.826
645.38	50.265
645.71	49.823
646.04	51.346
646.36	48.759
646.69	50.719
647.02	50.662
647.35	48.321
647.67	48.263
648.00	47.761
648.33	47.099
648.66	46.780
648.98	45.729
649.31	43.967
649.64	46.154
649.96	44.084
650.29	44.974
650.62	49.402
650.94	47.222
651.27	46.555
651.60	46.306
651.92	47.727
652.25	46.004
652.58	46.333
652.90	46.998
653.23	46.050
653.56	45.516
653.88	46.907
654.21	44.834
654.54	44.482
654.86	47.199
655.19	45.322
655.52	43.421
655.84	35.427
656.17	37.937
656.49	51.612
656.82	55.486
657.15	44.390
657.47	34.035
657.80	25.886
658.13	25.697
658.45	40.919
658.78	42.104
659.10	42.593
659.43	42.966
659.75	44.105
660.08	44.552
660.41	45.148
660.73	44.613
661.06	46.101
661.38	45.988
661.71	44.764
662.03	48.498
662.36	44.615
662.68	45.133
663.01	45.633
663.33	47.100
663.66	44.651
663.98	47.674
664.31	44.563
664.63	45.853
664.96	43.696
665.28	42.384
665.61	44.805
665.93	46.522
666.26	48.156
666.58	44.072
666.91	44.706
667.23	45.991
667.56	46.209
667.88	47.962
668.21	45.346
668.53	49.173
668.86	48.349
669.18	43.632
669.50	44.068
669.83	44.186
670.15	45.688
670.48	47.608
670.80	48.618
671.13	44.743
671.45	41.781
671.77	45.708
672.10	40.594
672.42	43.446
672.75	42.096
673.07	44.186
673.39	41.651
673.72	40.631
674.04	43.125
674.37	43.856
674.69	44.325
675.01	44.222
675.34	44.144
675.66	45.602
675.98	43.681
676.31	43.578
676.63	43.468
676.95	42.955
677.28	44.471
677.60	44.819
677.92	41.514
678.25	42.888
678.57	39.610
678.89	39.916
679.22	46.085
679.54	39.357
679.86	42.744
680.18	41.359
680.51	40.720
680.83	40.159
681.15	42.400
681.48	40.369
681.80	42.562
682.12	40.726
682.44	41.423
682.77	41.501
683.09	43.249
683.41	39.091
683.73	41.014
684.06	38.274
684.38	39.570
684.70	42.266
685.02	39.627
685.34	38.735
685.67	38.837
685.99	39.421
686.31	38.761
686.63	38.404
686.96	38.973
687.28	38.586
687.60	36.502
687.92	41.010
688.24	37.702
688.56	41.266
688.89	41.295
689.21	42.222
689.53	36.659
689.85	39.535
690.17	38.839
690.49	40.426
690.82	39.320
691.14	38.810
691.46	38.318
691.78	40.541
692.10	38.280
692.42	37.013
692.74	36.325
693.06	37.387
693.39	35.068
693.71	39.593
694.03	39.261
694.35	38.785
694.67	36.869
694.99	38.120
695.31	43.342
695.63	38.500
695.95	37.121
696.27	38.342
696.59	39.444
696.91	43.697
697.23	37.275
697.56	38.119
697.88	38.280
698.20	36.902
698.52	37.882
698.84	35.167
699.16	38.000
699.48	37.343
699.80	36.973
700.12	39.892
700.44	36.695
700.76	36.337
701.08	35.455
701.40	36.747
701.72	42.593
702.04	39.274
702.36	39.799
702.68	38.739
703.00	37.879
703.32	38.710
703.64	34.181
703.96	34.783
704.28	37.730
704.60	42.540
704.91	37.539
705.23	37.209
705.55	43.463
705.87	38.267
706.19	41.111
706.51	38.832
706.83	42.444
707.15	35.514
707.47	36.134
707.79	35.677
708.11	38.250
708.43	38.750
708.74	35.917
709.06	39.437
709.38	35.168
709.70	33.432
710.02	37.580
710.34	37.461
710.66	31.090
710.98	35.762
711.29	38.033
711.61	36.610
711.93	37.785
712.25	38.832
712.57	34.799
712.89	36.194
713.20	38.754
713.52	33.798
713.84	34.130
714.16	38.832
714.48	32.581
714.80	36.538
715.11	36.778
715.43	33.856
715.75	36.000
716.07	35.880
716.39	36.913
716.70	32.841
717.02	33.206
717.34	34.818
717.66	38.496
717.97	39.565
718.29	38.075
718.61	36.614
718.93	35.271
719.24	37.262
719.56	40.964
719.88	32.990
720.20	34.470
720.51	37.165
720.83	38.610
721.15	34.454
721.46	37.500
721.78	35.573
722.10	36.803
722.42	37.759
722.73	31.020
723.05	37.551
723.37	39.407
723.68	40.991
724.00	34.188
724.32	35.556
724.63	31.364
724.95	32.314
725.27	37.788
725.58	31.356
725.90	27.381
726.22	33.591
726.53	33.898
726.85	36.330
727.16	36.226
727.48	30.769
727.80	31.579
728.11	30.508
728.43	28.627
728.74	24.597
729.06	40.400
729.38	34.962
729.69	33.068
730.01	31.154
730.32	34.701
730.64	33.216
730.96	37.736
731.27	28.667
731.59	32.881
731.90	27.389
732.22	35.647
732.53	32.558
732.85	31.206
733.16	39.394
733.48	25.180
733.80	33.333
734.11	32.542
734.43	27.835
734.74	33.939
735.06	30.619
735.37	35.045
735.69	30.640
736.00	30.314
736.32	31.208
736.63	28.521
736.95	33.447
737.26	31.317
737.58	30.872
737.89	30.769
738.21	30.451
738.52	35.391
738.83	33.188
739.15	27.074
739.46	30.709
739.78	29.670
740.09	30.719
740.41	29.710
740.72	30.315
741.04	31.984
741.35	32.766
741.66	29.384
741.98	31.633
742.29	30.693
742.61	34.031
742.92	31.280
743.23	28.704
743.55	33.484
743.86	28.708
744.18	29.665
744.49	37.234
744.80	34.239
745.12	32.620
745.43	33.659
745.74	40.104
746.06	35.122
746.37	31.414
746.68	30.806
747.00	29.255
747.31	37.811
747.62	33.495
747.94	31.100
748.25	31.188
748.56	31.694
748.88	34.555
749.19	30.851
749.50	36.453
749.82	26.415
750.13	23.853
750.44	29.699
750.75	30.597
751.07	35.401
751.38	33.333
751.69	28.235
752.01	32.558
752.32	28.287
752.63	29.644
752.94	25.431
753.26	35.146
753.57	24.434
753.88	31.858
754.19	27.083
754.51	28.099
754.82	27.530
755.13	34.167
755.44	33.468
755.75	27.344
756.07	31.518
756.38	26.792
756.69	27.586
757.00	26.667
757.31	27.124
757.63	30.183
757.94	29.167
758.25	25.479
758.56	23.936
758.87	24.079
759.18	28.972
759.50	26.909
759.81	30.769
760.12	27.419
760.43	26.667
760.74	28.395
761.05	29.231
761.36	26.136
761.67	29.394
761.99	30.952
762.30	23.636
762.61	30.830
762.92	33.937
763.23	26.126
763.54	24.766
763.85	27.966
764.16	31.950
764.47	25.000
764.78	25.275
765.10	28.956
765.41	27.760
765.72	27.937
766.03	21.805
766.34	27.737
766.65	31.873
766.96	29.798
767.27	31.915
767.58	24.138
767.89	28.369
768.20	28.977
768.51	25.824
768.82	24.631
769.13	26.728
769.44	27.897
769.75	26.484
770.06	30.172
770.37	32.692
770.68	23.858
770.99	28.054
771.30	32.843
771.61	27.149
771.92	28.448
772.23	31.034
772.54	34.409
772.85	33.951
773.16	25.843
773.47	29.412
773.78	25.490
774.09	30.539
774.39	25.333
774.70	26.752
775.01	29.655
775.32	20.000
775.63	26.446
775.94	32.061
776.25	29.921
776.56	31.667
776.87	30.769
777.18	24.786
777.48	27.586
777.79	16.522
778.10	10.476
778.41	19.820
778.72	27.778
779.03	33.083
779.34	28.369
779.65	31.507
779.95	24.658
780.26	26.207
780.57	25.203
780.88	21.260
781.19	21.552
781.50	31.008
781.80	19.527
782.11	18.239
782.42	30.769
782.73	28.058
783.04	31.111
783.34	18.056
783.65	11.111
783.96	27.869
784.27	21.379
784.57	30.894
784.88	29.688
785.19	29.000
785.50	37.000
785.81	22.414
786.11	23.276
786.42	21.359
786.73	32.727
787.04	18.367
787.34	29.464
787.65	20.952
787.96	15.929
788.26	14.545
788.57	26.496
788.88	24.219
789.19	17.460
789.49	28.696
789.80	21.429
790.11	17.172
790.41	14.545
790.72	33.696
791.03	27.273
791.33	31.250
791.64	11.250
791.95	26.744
792.25	23.404
792.56	30.337
792.87	17.808
793.17	21.739
793.48	14.667
793.79	25.000
794.09	21.250
794.40	23.585
794.70	29.126
795.01	21.138
795.32	17.949
795.62	16.190
795.93	18.627
796.23	25.472
796.54	27.083
796.85	29.412
797.15	33.803
797.46	20.833
797.76	31.818
798.07	15.116
798.37	7.895
798.68	4.545
798.99	18.519
799.29	20.000
799.60	20.290
799.90	26.667
800.21	34.426
800.51	30.769
800.82	10.169
801.12	26.087
801.43	31.148
801.73	25.397
802.04	18.000
802.34	11.940
802.65	7.692
802.95	12.500
803.26	15.385
803.56	7.843
803.87	-17.391
804.17	22.667
804.48	33.333
804.78	7.407
805.09	23.913
805.39	22.222
805.70	18.519
806.00	19.298
806.30	22.535
806.61	21.429
806.91	11.111
807.22	36.842
807.52	32.000
807.83	10.909
808.13	18.056
808.43	19.118
808.74	13.433
809.04	11.864
809.35	5.769
809.65	29.688
809.95	5.405
810.26	-9.091
810.56	16.438
810.86	40.476
811.17	30.000
811.47	18.367
811.77	2.632
812.08	4.545
812.38	-7.547
812.69	5.000
812.99	-18.182
813.29	26.316
813.59	-28.571
813.90	2.273
814.20	20.513
814.50	11.538
814.81	20.755
815.11	0.000
815.41	10.169
815.72	21.429
816.02	21.569
816.32	4.167
816.62	7.317
816.93	-8.108
817.23	20.000
817.53	12.500
817.84	8.696
818.14	0.000
818.44	2.632
818.74	43.478
819.04	-7.500
819.35	0.000
819.65	-14.706
819.95	11.111
820.25	26.190
820.56	15.000
820.86	-17.241
821.16	47.500
821.46	4.255
821.76	7.500
822.07	30.233
822.37	0.000
822.67	-3.125
822.97	21.429
823.27	-3.571
823.57	0.000
823.88	29.630
824.18	42.857
824.48	-8.824
824.78	25.806
825.08	-13.043
825.38	27.273
825.69	4.167
825.99	10.526
826.29	-5.556
826.59	46.667
826.89	42.857
827.19	30.435
827.49	12.500
827.79	17.143
828.09	17.857
828.39	33.333
828.70	37.838
829.00	17.857
829.30	-14.286
829.60	3.333
829.90	15.625
830.20	18.421
830.50	-11.111
830.80	-17.391
831.10	-9.091
831.40	45.455
831.70	6.452
832.00	-14.286
832.30	-57.143
832.60	-66.667
832.90	31.034
833.20	-25.000
833.50	39.394
833.80	25.926
834.10	38.462
834.40	12.500
834.70	-122.222
835.00	26.316
835.30	38.462
835.60	20.000
835.90	16.129
836.20	18.182
836.50	-7.143
836.80	0.000
837.10	-17.857
837.40	-266.667
837.70	-9.091
838.00	-36.364
838.30	13.043
838.60	-15.385
838.90	-4.545
839.19	17.857
839.49	33.333
839.79	-30.769
840.09	-41.667
840.39	35.714
840.69	14.286
840.99	3.846
841.29	-10.526
841.59	-30.000
841.88	-18.182
842.18	-20.000
842.48	-6.250
842.78	46.667
843.08	29.630
843.38	-150.000
843.68	-4.348
843.97	6.667
844.27	-100.000
844.57	-15.000
844.87	-11.111
845.17	-28.571
845.47	20.000
845.76	-23.810
846.06	29.412
846.36	30.000
846.66	-92.857
846.96	-6.667
847.25	-112.500
847.55	-21.429
847.85	-62.500
848.15	9.091
848.44	-633.333
848.74	40.000
849.04	14.815
849.34	-63.636
849.63	-416.667
849.93	-180.000
850.23	-22.222
850.53	-10.000
850.82	-30.769
851.12	-77.778
851.42	-13.333
851.71	15.385
852.01	-14.286
852.31	-350.000
852.61	36.364
852.90	30.000
853.20	-26.316
853.50	-41.667
853.79	60.870
854.09	-16.667
854.39	-5.263
854.68	-8.333
854.98	35.484
855.28	53.846
855.57	30.000
855.87	22.222
856.17	29.630
856.46	-21.429
856.76	-20.000
857.05	11.111
857.35	4.000
857.65	-11.111
857.94	-76.923
858.24	44.828
858.53	16.667
858.83	11.111
859.13	-13.636
859.42	-13.043
859.72	-200.000
860.01	-366.667
860.31	-32.000
860.60	9.524
860.90	133.333
861.20	-73.333
861.49	-650.000
861.79	-46.667
862.08	35.000
862.38	80.000
862.67	20.000
862.97	33.333
863.26	50.000
863.56	5.556
863.85	-466.667
864.15	11.111
864.44	-80.000
864.74	42.857
865.03	575.000
865.33	-40.000
865.62	-83.333
865.92	0.000
866.21	-150.000
866.51	-12.500
866.80	-100.000
867.10	-100.000
867.39	16.667
867.69	0.000
867.98	0.000
868.27	-233.333
868.57	13.333
868.86	16.667
869.16	-130.769
869.45	6.667
869.75	-700.000
870.04	0.000
870.33	-200.000
870.63	38.095
870.92	466.667
871.22	-240.000
871.51	-900.000
871.80	33.333
872.10	200.000
>>>>>End Processed Spectral Data<<<<<
