SpectraSuite Data File
++++++++++++++++++++++++++++++++++++
Date: Fri May 15 20:54:47 PDT 2015
User: schluterlab
Dark Spectrum Present: Yes
Reference Spectrum Present: Yes
Number of Sampled Component Spectra: 1
Spectrometers: USB2E3373
Integration Time (usec): 3000 (USB2E3373)
Spectra Averaged: 3 (USB2E3373)
Boxcar Smoothing: 0 (USB2E3373)
Correct for Electrical Dark: No (USB2E3373)
Strobe/Lamp Enabled: No (USB2E3373)
Correct for Detector Non-linearity: No (USB2E3373)
Correct for Stray Light: No (USB2E3373)
Number of Pixels in Processed Spectrum: 2048
>>>>>Begin Processed Spectral Data<<<<<
178.53	0.000
178.91	0.000
179.29	100.000
179.67	-600.000
180.04	-14.286
180.42	0.000
180.80	-100.000
181.18	66.667
181.56	-250.000
181.94	250.000
182.31	1000.000
182.69	-240.000
183.07	-500.000
183.45	-80.000
183.83	233.333
184.20	9.091
184.58	188.889
184.96	50.000
185.34	-0.000
185.72	-100.000
186.09	92.308
186.47	-800.000
186.85	133.333
187.23	200.000
187.61	-100.000
187.98	-133.333
188.36	66.667
188.74	-100.000
189.12	-17.647
189.49	61.111
189.87	0.000
190.25	64.286
190.63	150.000
191.00	-200.000
191.38	31.579
191.76	200.000
192.14	175.000
192.51	-150.000
192.89	-66.667
193.27	-142.857
193.65	83.333
194.02	172.727
194.40	50.000
194.78	-150.000
195.15	-16.667
195.53	-150.000
195.91	225.000
196.29	-75.000
196.66	53.846
197.04	57.143
197.42	-44.444
197.79	-333.333
198.17	-61.538
198.55	400.000
198.92	0.000
199.30	-400.000
199.68	-100.000
200.05	-233.333
200.43	0.000
200.81	-133.333
201.18	-166.667
201.56	400.000
201.94	-150.000
202.31	66.667
202.69	-180.000
203.07	325.000
203.44	-100.000
203.82	0.000
204.19	64.286
204.57	-433.333
204.95	75.000
205.32	70.000
205.70	-57.143
206.08	-25.000
206.45	133.333
206.83	64.286
207.20	-57.143
207.58	-600.000
207.96	-100.000
208.33	-60.000
208.71	-150.000
209.08	-283.333
209.46	-900.000
209.84	0.000
210.21	-500.000
210.59	57.143
210.96	-183.333
211.34	25.000
211.71	-13.333
212.09	-71.429
212.46	-1300.000
212.84	0.000
213.22	60.000
213.59	150.000
213.97	69.231
214.34	0.000
214.72	16.667
215.09	150.000
215.47	0.000
215.84	-63.636
216.22	-400.000
216.59	-112.500
216.97	300.000
217.34	75.000
217.72	-140.000
218.09	37.500
218.47	137.500
218.84	-200.000
219.22	-166.667
219.59	20.000
219.97	266.667
220.34	75.000
220.72	-57.143
221.09	-225.000
221.47	-250.000
221.84	-800.000
222.22	-400.000
222.59	9.091
222.97	0.000
223.34	-133.333
223.72	-28.571
224.09	28.571
224.46	0.000
224.84	200.000
225.21	20.000
225.59	0.000
225.96	-350.000
226.34	325.000
226.71	-71.429
227.08	-133.333
227.46	-50.000
227.83	-300.000
228.21	-77.778
228.58	-36.364
228.95	37.500
229.33	100.000
229.70	43.750
230.08	-100.000
230.45	-100.000
230.82	0.000
231.20	-13.333
231.57	28.571
231.95	57.143
232.32	-180.000
232.69	28.571
233.07	133.333
233.44	-120.000
233.81	-70.000
234.19	122.222
234.56	47.059
234.93	-200.000
235.31	200.000
235.68	-120.000
236.05	-15.385
236.43	-5.000
236.80	-11.765
237.17	31.250
237.55	110.000
237.92	40.741
238.29	13.889
238.67	70.000
239.04	50.000
239.41	17.073
239.79	36.667
240.16	26.829
240.53	63.158
240.91	45.652
241.28	41.270
241.65	55.357
242.02	43.836
242.40	38.333
242.77	45.763
243.14	48.485
243.51	58.750
243.89	51.724
244.26	39.080
244.63	45.238
245.00	52.577
245.38	50.515
245.75	48.315
246.12	35.345
246.49	48.760
246.87	58.654
247.24	45.378
247.61	51.754
247.98	52.033
248.36	42.500
248.73	47.368
249.10	41.558
249.47	50.000
249.84	56.209
250.22	47.059
250.59	51.634
250.96	48.357
251.33	54.070
251.70	59.412
252.08	51.269
252.45	49.010
252.82	42.714
253.19	50.230
253.56	43.925
253.94	56.306
254.31	44.783
254.68	54.386
255.05	46.457
255.42	49.345
255.79	50.965
256.16	47.860
256.54	50.000
256.91	49.810
257.28	46.097
257.65	47.191
258.02	49.645
258.39	52.189
258.76	52.747
259.14	52.159
259.51	46.926
259.88	50.515
260.25	50.654
260.62	58.681
260.99	52.203
261.36	46.918
261.73	50.316
262.10	47.112
262.47	46.933
262.85	49.216
263.22	52.308
263.59	50.467
263.96	52.795
264.33	54.242
264.70	52.381
265.07	50.000
265.44	49.008
265.81	50.000
266.18	50.000
266.55	51.671
266.92	50.518
267.29	52.219
267.66	52.430
268.03	52.356
268.40	49.608
268.77	51.604
269.14	48.201
269.51	52.185
269.88	49.626
270.25	47.194
270.62	45.854
270.99	50.128
271.36	48.900
271.73	50.704
272.10	50.365
272.47	49.173
272.84	51.238
273.21	46.868
273.58	49.639
273.95	49.657
274.32	46.189
274.69	47.738
275.06	50.893
275.43	50.794
275.80	49.227
276.17	49.195
276.54	47.537
276.91	49.342
277.28	48.690
277.65	46.281
278.02	48.085
278.39	47.921
278.76	50.105
279.13	45.021
279.50	50.000
279.87	47.948
280.23	46.882
280.60	46.979
280.97	47.273
281.34	44.808
281.71	48.460
282.08	45.808
282.45	43.836
282.82	47.876
283.19	46.228
283.56	44.509
283.92	47.628
284.29	42.500
284.66	44.961
285.03	46.758
285.40	46.125
285.77	44.815
286.14	44.946
286.51	45.203
286.87	43.876
287.24	44.567
287.61	46.208
287.98	43.509
288.35	44.887
288.72	45.534
289.08	43.403
289.45	42.004
289.82	45.105
290.19	41.297
290.56	41.681
290.93	43.434
291.29	38.829
291.66	39.843
292.03	39.394
292.40	40.484
292.77	39.075
293.13	36.851
293.50	38.543
293.87	37.863
294.24	39.104
294.60	37.258
294.97	37.500
295.34	35.736
295.71	37.556
296.08	37.220
296.44	34.424
296.81	35.972
297.18	34.493
297.55	34.553
297.91	33.973
298.28	34.037
298.65	34.600
299.02	35.310
299.38	34.337
299.75	34.483
300.12	33.639
300.48	33.465
300.85	31.559
301.22	32.987
301.59	32.763
301.95	34.177
302.32	34.501
302.69	34.328
303.05	32.426
303.42	31.756
303.79	32.827
304.15	32.378
304.52	31.510
304.89	30.994
305.25	30.872
305.62	30.688
305.99	30.760
306.35	31.792
306.72	29.809
307.09	30.901
307.45	30.310
307.82	31.713
308.19	30.197
308.55	29.444
308.92	32.571
309.29	30.279
309.65	29.709
310.02	29.813
310.38	29.857
310.75	32.131
311.12	31.432
311.48	30.117
311.85	28.482
312.22	28.059
312.58	31.104
312.95	29.669
313.31	30.021
313.68	29.843
314.05	28.980
314.41	29.691
314.78	31.031
315.14	30.216
315.51	29.917
315.87	29.098
316.24	30.637
316.61	29.823
316.97	30.060
317.34	28.809
317.70	29.446
318.07	27.308
318.43	30.882
318.80	29.451
319.16	29.590
319.53	29.250
319.89	28.543
320.26	28.644
320.62	28.385
320.99	27.140
321.35	28.366
321.72	28.660
322.08	29.708
322.45	29.746
322.81	29.175
323.18	29.637
323.54	28.185
323.91	28.627
324.27	29.297
324.64	29.588
325.00	28.193
325.37	29.660
325.73	27.561
326.10	29.155
326.46	30.493
326.83	29.309
327.19	28.684
327.56	30.930
327.92	29.577
328.29	27.857
328.65	28.019
329.01	27.482
329.38	29.493
329.74	27.573
330.11	28.823
330.47	29.314
330.84	28.750
331.20	31.179
331.56	28.704
331.93	30.594
332.29	30.431
332.66	28.507
333.02	29.182
333.38	28.139
333.75	30.128
334.11	27.753
334.48	29.737
334.84	27.839
335.20	27.722
335.57	27.108
335.93	28.636
336.29	28.361
336.66	26.703
337.02	27.416
337.38	27.130
337.75	27.727
338.11	27.863
338.47	28.376
338.84	28.281
339.20	26.417
339.56	27.431
339.93	28.021
340.29	27.064
340.65	28.763
341.02	27.039
341.38	27.168
341.74	26.678
342.11	25.390
342.47	25.979
342.83	28.201
343.20	27.439
343.56	27.652
343.92	27.015
344.28	27.412
344.65	26.339
345.01	26.016
345.37	26.493
345.73	27.950
346.10	27.610
346.46	26.325
346.82	25.941
347.19	25.935
347.55	27.068
347.91	28.074
348.27	26.112
348.63	26.917
349.00	25.759
349.36	26.600
349.72	26.700
350.08	26.475
350.45	25.698
350.81	25.332
351.17	25.896
351.53	26.939
351.89	25.516
352.26	24.960
352.62	26.290
352.98	25.462
353.34	25.201
353.70	26.456
354.07	25.242
354.43	24.660
354.79	24.938
355.15	26.190
355.51	25.712
355.87	26.294
356.24	24.062
356.60	24.737
356.96	25.794
357.32	24.920
357.68	25.020
358.04	25.606
358.40	25.322
358.77	25.997
359.13	24.580
359.49	24.653
359.85	24.727
360.21	24.561
360.57	25.249
360.93	25.038
361.29	23.338
361.66	25.392
362.02	24.848
362.38	24.752
362.74	24.224
363.10	24.530
363.46	24.388
363.82	26.446
364.18	24.576
364.54	25.000
364.90	24.875
365.26	24.600
365.62	25.328
365.98	23.680
366.35	25.856
366.71	25.129
367.07	24.093
367.43	23.364
367.79	23.392
368.15	24.910
368.51	24.326
368.87	23.977
369.23	23.827
369.59	24.563
369.95	25.147
370.31	25.145
370.67	24.478
371.03	24.122
371.39	24.508
371.75	23.077
372.11	23.252
372.47	23.077
372.83	23.705
373.19	23.466
373.55	24.260
373.91	22.750
374.27	23.742
374.63	24.049
374.99	23.617
375.35	23.816
375.71	24.685
376.07	24.017
376.42	23.673
376.78	23.490
377.14	23.358
377.50	23.705
377.86	23.494
378.22	22.527
378.58	22.628
378.94	23.251
379.30	22.895
379.66	23.887
380.02	22.747
380.38	22.276
380.74	22.861
381.09	23.313
381.45	22.691
381.81	23.010
382.17	22.716
382.53	22.299
382.89	23.540
383.25	23.335
383.61	24.085
383.97	22.222
384.32	23.077
384.68	23.034
385.04	22.672
385.40	22.340
385.76	23.270
386.12	22.704
386.48	22.989
386.83	23.653
387.19	22.344
387.55	23.149
387.91	21.883
388.27	22.527
388.62	23.537
388.98	23.020
389.34	22.798
389.70	23.431
390.06	22.215
390.42	22.733
390.77	22.695
391.13	22.320
391.49	21.410
391.85	22.547
392.20	22.411
392.56	21.360
392.92	22.314
393.28	22.347
393.64	22.342
393.99	23.323
394.35	21.758
394.71	22.989
395.07	22.187
395.42	21.797
395.78	23.388
396.14	22.888
396.50	22.448
396.85	21.958
397.21	22.243
397.57	21.818
397.92	22.169
398.28	22.184
398.64	21.265
399.00	22.856
399.35	21.670
399.71	22.171
400.07	22.310
400.42	21.726
400.78	22.290
401.14	22.081
401.49	22.394
401.85	22.243
402.21	22.651
402.57	21.938
402.92	22.459
403.28	21.742
403.63	23.266
403.99	21.620
404.35	22.174
404.70	21.667
405.06	20.858
405.42	22.001
405.77	20.686
406.13	21.653
406.49	22.084
406.84	22.616
407.20	21.975
407.55	21.249
407.91	22.059
408.27	21.542
408.62	22.892
408.98	22.304
409.34	21.314
409.69	21.964
410.05	21.736
410.40	22.407
410.76	22.014
411.11	22.187
411.47	21.631
411.83	21.343
412.18	22.072
412.54	21.411
412.89	21.552
413.25	21.721
413.60	21.863
413.96	22.025
414.31	21.098
414.67	21.681
415.03	22.104
415.38	21.606
415.74	21.498
416.09	22.273
416.45	21.269
416.80	21.745
417.16	21.409
417.51	21.652
417.87	20.860
418.22	21.049
418.58	22.542
418.93	22.006
419.29	20.807
419.64	21.646
420.00	22.229
420.35	21.791
420.71	22.236
421.06	22.038
421.42	21.755
421.77	22.139
422.12	20.942
422.48	21.224
422.83	21.288
423.19	22.630
423.54	20.694
423.90	21.908
424.25	21.412
424.61	21.726
424.96	22.764
425.31	22.415
425.67	21.714
426.02	22.085
426.38	21.666
426.73	21.792
427.09	22.975
427.44	21.706
427.79	21.626
428.15	22.330
428.50	21.623
428.85	21.253
429.21	21.788
429.56	22.264
429.92	21.828
430.27	22.055
430.62	21.903
430.98	21.550
431.33	22.345
431.68	21.298
432.04	21.968
432.39	21.848
432.74	21.407
433.10	22.356
433.45	21.505
433.80	22.055
434.16	21.994
434.51	20.806
434.86	21.893
435.22	22.210
435.57	22.645
435.92	22.275
436.28	21.646
436.63	21.734
436.98	20.684
437.34	21.537
437.69	22.421
438.04	22.336
438.39	21.381
438.75	21.858
439.10	21.562
439.45	21.424
439.81	20.612
440.16	21.912
440.51	22.149
440.86	23.142
441.22	22.794
441.57	21.468
441.92	22.613
442.27	21.729
442.63	21.949
442.98	22.171
443.33	22.315
443.68	22.069
444.03	23.000
444.39	22.036
444.74	22.854
445.09	22.996
445.44	22.792
445.79	22.795
446.15	21.916
446.50	21.353
446.85	22.264
447.20	21.898
447.55	22.489
447.91	22.786
448.26	22.709
448.61	22.280
448.96	22.892
449.31	21.676
449.66	21.719
450.02	22.533
450.37	20.984
450.72	22.337
451.07	22.468
451.42	21.973
451.77	22.483
452.12	22.129
452.47	21.764
452.83	22.203
453.18	21.695
453.53	22.882
453.88	22.283
454.23	22.434
454.58	22.859
454.93	22.036
455.28	21.206
455.63	23.187
455.98	22.129
456.34	22.605
456.69	22.363
457.04	23.314
457.39	22.783
457.74	21.826
458.09	21.778
458.44	22.060
458.79	22.185
459.14	22.426
459.49	22.269
459.84	22.673
460.19	21.905
460.54	21.822
460.89	21.648
461.24	22.050
461.59	22.684
461.94	22.264
462.29	23.040
462.64	22.060
462.99	23.020
463.34	22.740
463.69	23.037
464.04	23.184
464.39	22.013
464.74	21.779
465.09	22.770
465.44	22.735
465.79	21.429
466.14	22.064
466.49	22.312
466.84	22.903
467.19	22.591
467.54	22.861
467.89	22.173
468.24	21.472
468.59	22.794
468.94	22.159
469.29	23.213
469.64	23.308
469.99	22.214
470.34	21.092
470.68	23.788
471.03	22.293
471.38	23.466
471.73	23.109
472.08	23.066
472.43	21.879
472.78	20.768
473.13	23.197
473.48	22.671
473.83	22.167
474.17	23.640
474.52	21.378
474.87	21.939
475.22	21.477
475.57	21.965
475.92	22.161
476.27	22.701
476.61	23.322
476.96	22.197
477.31	22.336
477.66	21.629
478.01	22.347
478.36	22.004
478.70	23.219
479.05	22.088
479.40	22.734
479.75	21.950
480.10	22.427
480.45	22.450
480.79	22.608
481.14	22.182
481.49	21.576
481.84	22.056
482.19	21.983
482.53	22.446
482.88	21.814
483.23	21.785
483.58	22.217
483.92	22.459
484.27	22.516
484.62	21.649
484.97	22.471
485.31	21.893
485.66	20.688
486.01	20.782
486.36	21.282
486.70	22.541
487.05	22.805
487.40	22.492
487.75	22.901
488.09	22.991
488.44	23.487
488.79	23.310
489.13	23.237
489.48	23.044
489.83	22.511
490.17	21.213
490.52	22.263
490.87	21.703
491.22	22.254
491.56	22.249
491.91	21.224
492.26	22.071
492.60	22.361
492.95	22.135
493.30	21.837
493.64	21.857
493.99	22.560
494.34	21.796
494.68	22.429
495.03	21.557
495.37	21.786
495.72	22.615
496.07	21.951
496.41	22.689
496.76	21.741
497.11	21.146
497.45	21.862
497.80	22.200
498.14	21.808
498.49	22.550
498.84	21.856
499.18	22.590
499.53	21.677
499.87	21.206
500.22	21.662
500.56	21.886
500.91	21.938
501.26	21.849
501.60	21.249
501.95	22.222
502.29	22.228
502.64	22.201
502.98	22.200
503.33	21.518
503.67	21.880
504.02	21.750
504.36	22.365
504.71	21.869
505.06	21.490
505.40	22.183
505.75	22.268
506.09	21.896
506.44	22.485
506.78	21.888
507.13	22.234
507.47	21.671
507.82	21.902
508.16	22.557
508.51	21.983
508.85	22.711
509.19	22.246
509.54	21.930
509.88	21.899
510.23	21.732
510.57	22.822
510.92	21.588
511.26	22.422
511.61	22.772
511.95	22.356
512.30	22.284
512.64	21.870
512.98	21.392
513.33	22.608
513.67	22.342
514.02	22.025
514.36	22.229
514.70	22.669
515.05	22.268
515.39	21.901
515.74	22.874
516.08	22.415
516.42	22.733
516.77	21.943
517.11	22.077
517.46	22.142
517.80	21.990
518.14	22.045
518.49	21.875
518.83	22.357
519.17	21.346
519.52	21.906
519.86	21.068
520.20	22.175
520.55	21.889
520.89	22.396
521.23	22.293
521.58	22.587
521.92	22.244
522.26	22.576
522.61	22.792
522.95	22.119
523.29	21.537
523.64	23.507
523.98	22.035
524.32	21.649
524.66	22.471
525.01	21.883
525.35	23.331
525.69	21.684
526.04	21.693
526.38	23.930
526.72	21.779
527.06	21.725
527.41	22.032
527.75	23.190
528.09	21.860
528.43	23.363
528.78	21.980
529.12	22.065
529.46	23.132
529.80	22.483
530.15	23.168
530.49	21.684
530.83	22.093
531.17	22.028
531.51	22.367
531.86	21.686
532.20	21.921
532.54	22.737
532.88	21.903
533.22	21.909
533.57	21.756
533.91	21.802
534.25	22.396
534.59	22.579
534.93	21.523
535.27	20.749
535.62	21.711
535.96	22.374
536.30	23.351
536.64	22.743
536.98	22.021
537.32	21.835
537.66	22.791
538.01	22.797
538.35	21.706
538.69	22.104
539.03	21.941
539.37	21.938
539.71	22.154
540.05	22.539
540.39	23.061
540.73	22.524
541.07	22.099
541.42	22.984
541.76	22.436
542.10	22.987
542.44	21.682
542.78	21.679
543.12	21.772
543.46	22.392
543.80	23.387
544.14	22.230
544.48	22.518
544.82	21.668
545.16	22.609
545.50	23.231
545.84	22.592
546.18	22.695
546.52	23.864
546.86	22.789
547.20	22.461
547.54	22.120
547.88	21.535
548.22	20.513
548.56	22.032
548.90	21.765
549.24	22.039
549.58	21.721
549.92	21.229
550.26	22.564
550.60	22.007
550.94	22.704
551.28	22.257
551.62	23.231
551.96	21.654
552.30	22.588
552.64	20.874
552.98	22.363
553.32	20.827
553.66	21.480
554.00	22.117
554.34	22.895
554.68	21.903
555.02	22.619
555.36	22.962
555.69	23.297
556.03	21.413
556.37	22.562
556.71	23.032
557.05	21.178
557.39	21.784
557.73	22.114
558.07	22.775
558.41	21.746
558.75	22.837
559.08	22.301
559.42	22.381
559.76	22.818
560.10	21.942
560.44	21.593
560.78	22.797
561.12	22.355
561.45	22.417
561.79	22.619
562.13	23.208
562.47	22.590
562.81	22.911
563.15	22.638
563.48	22.207
563.82	21.688
564.16	22.632
564.50	21.554
564.84	22.490
565.17	22.066
565.51	23.156
565.85	22.291
566.19	22.281
566.52	22.118
566.86	22.301
567.20	21.669
567.54	21.898
567.88	23.081
568.21	22.455
568.55	21.793
568.89	22.639
569.23	22.773
569.56	22.067
569.90	22.899
570.24	22.106
570.57	22.473
570.91	22.830
571.25	21.769
571.59	22.143
571.92	21.570
572.26	22.162
572.60	22.109
572.93	22.058
573.27	22.602
573.61	22.017
573.95	22.256
574.28	21.796
574.62	21.739
574.96	21.640
575.29	21.807
575.63	21.508
575.97	21.767
576.30	22.182
576.64	22.066
576.98	22.291
577.31	22.020
577.65	22.339
577.98	22.506
578.32	21.919
578.66	21.749
578.99	21.923
579.33	22.033
579.67	22.180
580.00	22.025
580.34	22.662
580.67	22.379
581.01	22.190
581.35	21.964
581.68	21.630
582.02	21.949
582.35	21.597
582.69	22.146
583.02	22.709
583.36	22.877
583.70	23.780
584.03	23.964
584.37	23.574
584.70	22.995
585.04	21.736
585.37	21.966
585.71	21.945
586.04	22.138
586.38	22.486
586.72	22.669
587.05	22.646
587.39	22.924
587.72	23.264
588.06	22.474
588.39	23.298
588.73	22.711
589.06	22.831
589.40	23.401
589.73	23.330
590.07	23.187
590.40	23.142
590.73	23.682
591.07	23.664
591.40	22.573
591.74	22.624
592.07	23.145
592.41	23.277
592.74	22.382
593.08	21.760
593.41	22.109
593.75	22.113
594.08	22.314
594.41	22.744
594.75	22.634
595.08	22.399
595.42	22.562
595.75	23.282
596.09	22.791
596.42	22.571
596.75	23.757
597.09	23.462
597.42	22.674
597.75	22.858
598.09	22.952
598.42	22.969
598.76	21.407
599.09	22.115
599.42	21.713
599.76	22.235
600.09	21.946
600.42	23.541
600.76	21.582
601.09	21.947
601.42	22.288
601.76	22.390
602.09	22.937
602.42	23.336
602.76	23.302
603.09	22.757
603.42	23.788
603.76	21.774
604.09	22.519
604.42	22.293
604.76	23.810
605.09	22.303
605.42	22.799
605.75	22.811
606.09	22.378
606.42	22.560
606.75	21.948
607.09	23.077
607.42	22.596
607.75	22.069
608.08	22.237
608.42	22.887
608.75	23.759
609.08	23.019
609.41	22.487
609.75	23.135
610.08	22.866
610.41	21.981
610.74	22.623
611.07	23.152
611.41	22.885
611.74	22.761
612.07	23.233
612.40	23.687
612.73	22.429
613.07	22.216
613.40	22.976
613.73	22.440
614.06	21.592
614.39	22.786
614.72	21.401
615.06	22.570
615.39	22.325
615.72	21.851
616.05	22.905
616.38	22.279
616.71	22.752
617.05	22.174
617.38	23.004
617.71	22.516
618.04	23.238
618.37	24.275
618.70	23.432
619.03	24.236
619.36	22.938
619.69	24.640
620.03	23.594
620.36	22.818
620.69	23.055
621.02	22.401
621.35	23.320
621.68	23.299
622.01	22.750
622.34	22.506
622.67	23.817
623.00	22.971
623.33	23.323
623.66	22.064
623.99	21.861
624.32	22.738
624.65	22.481
624.99	23.100
625.32	21.152
625.65	23.174
625.98	22.965
626.31	22.361
626.64	23.310
626.97	23.647
627.30	22.855
627.63	23.484
627.96	22.552
628.29	23.034
628.62	23.992
628.95	23.246
629.28	23.286
629.61	22.532
629.94	23.754
630.26	22.826
630.59	24.037
630.92	22.667
631.25	22.872
631.58	22.797
631.91	22.039
632.24	23.280
632.57	22.500
632.90	22.539
633.23	21.882
633.56	21.788
633.89	23.305
634.22	22.840
634.55	22.999
634.88	24.010
635.20	22.692
635.53	22.933
635.86	22.107
636.19	23.545
636.52	22.194
636.85	21.836
637.18	21.509
637.51	23.648
637.83	22.470
638.16	24.284
638.49	20.436
638.82	24.211
639.15	21.710
639.48	23.384
639.81	24.268
640.13	22.511
640.46	21.137
640.79	21.208
641.12	22.157
641.45	21.922
641.77	21.926
642.10	24.013
642.43	23.312
642.76	22.607
643.09	22.617
643.41	21.845
643.74	21.087
644.07	24.466
644.40	24.831
644.73	23.818
645.05	22.483
645.38	23.633
645.71	21.986
646.04	22.621
646.36	23.582
646.69	22.842
647.02	25.709
647.35	24.440
647.67	24.132
648.00	23.321
648.33	22.014
648.66	24.068
648.98	21.106
649.31	21.653
649.64	21.036
649.96	22.042
650.29	24.702
650.62	24.103
650.94	21.667
651.27	21.974
651.60	23.604
651.92	22.902
652.25	20.959
652.58	22.333
652.90	24.357
653.23	21.681
653.56	20.474
653.88	23.024
654.21	21.716
654.54	23.090
654.86	24.448
655.19	21.637
655.52	22.446
655.84	19.923
656.17	22.328
656.49	31.540
656.82	34.668
657.15	27.775
657.47	21.353
657.80	15.934
658.13	16.054
658.45	25.880
658.78	26.893
659.10	27.301
659.43	27.089
659.75	27.430
660.08	26.138
660.41	26.353
660.73	23.204
661.06	24.957
661.38	21.135
661.71	23.409
662.03	24.464
662.36	20.440
662.68	21.903
663.01	23.581
663.33	18.794
663.66	19.302
663.98	22.791
664.31	23.241
664.63	19.585
664.96	21.304
665.28	18.322
665.61	20.346
665.93	22.391
666.26	22.560
666.58	19.687
666.91	19.294
667.23	22.642
667.56	20.142
667.88	20.384
668.21	22.196
668.53	22.222
668.86	22.406
669.18	20.519
669.50	18.644
669.83	22.326
670.15	19.347
670.48	21.531
670.80	21.198
671.13	19.687
671.45	21.233
671.77	23.820
672.10	21.386
672.42	20.974
672.75	24.156
673.07	21.109
673.39	22.018
673.72	18.540
674.04	21.250
674.37	25.424
674.69	21.413
675.01	23.556
675.34	23.874
675.66	22.222
675.98	27.051
676.31	20.183
676.63	22.090
676.95	21.136
677.28	24.000
677.60	21.205
677.92	23.165
678.25	21.444
678.57	24.242
678.89	23.109
679.22	22.819
679.54	21.285
679.86	20.278
680.18	21.748
680.51	21.402
680.83	19.085
681.15	24.400
681.48	22.951
681.80	22.934
682.12	20.766
682.44	20.921
682.77	23.179
683.09	19.680
683.41	21.818
683.73	20.276
684.06	24.558
684.38	17.849
684.70	21.569
685.02	19.917
685.34	18.182
685.67	20.075
685.99	24.955
686.31	22.124
686.63	22.635
686.96	22.243
687.28	18.990
687.60	21.293
687.92	23.838
688.24	21.976
688.56	23.144
688.89	22.768
689.21	23.333
689.53	18.097
689.85	21.860
690.17	22.098
690.49	24.350
690.82	19.903
691.14	20.714
691.46	21.963
691.78	23.649
692.10	23.656
692.42	22.078
692.74	23.077
693.06	17.568
693.39	18.778
693.71	16.516
694.03	19.861
694.35	22.196
694.67	20.707
694.99	22.715
695.31	21.671
695.63	21.500
695.95	20.455
696.27	22.280
696.59	20.556
696.91	20.728
697.23	21.080
697.56	19.554
697.88	23.226
698.20	22.551
698.52	19.294
698.84	18.182
699.16	17.750
699.48	22.807
699.80	21.092
700.12	20.485
700.44	19.048
700.76	21.512
701.08	19.697
701.40	20.783
701.72	23.765
702.04	23.432
702.36	25.418
702.68	19.820
703.00	20.606
703.32	20.235
703.64	14.689
703.96	20.870
704.28	20.245
704.60	21.905
704.91	19.243
705.23	19.601
705.55	24.028
705.87	24.549
706.19	23.333
706.51	21.649
706.83	19.936
707.15	17.757
707.47	21.289
707.79	20.052
708.11	20.250
708.43	18.500
708.74	21.705
709.06	21.972
709.38	22.936
709.70	21.302
710.02	19.745
710.34	21.053
710.66	17.628
710.98	19.536
711.29	24.590
711.61	16.271
711.93	24.430
712.25	23.711
712.57	20.879
712.89	21.642
713.20	21.107
713.52	16.725
713.84	19.113
714.16	19.931
714.48	18.710
714.80	21.795
715.11	22.796
715.43	17.868
715.75	22.333
716.07	19.269
716.39	22.148
716.70	16.236
717.02	23.664
717.34	22.672
717.66	13.717
717.97	17.391
718.29	21.757
718.61	18.898
718.93	23.256
719.24	22.053
719.56	15.663
719.88	23.711
720.20	20.076
720.51	21.456
720.83	18.147
721.15	21.008
721.46	23.387
721.78	18.182
722.10	18.216
722.42	18.257
722.73	15.918
723.05	22.449
723.37	20.339
723.68	22.523
724.00	16.239
724.32	19.111
724.63	17.727
724.95	19.651
725.27	22.120
725.58	22.881
725.90	14.683
726.22	22.394
726.53	24.407
726.85	20.225
727.16	24.528
727.48	15.385
727.80	21.053
728.11	21.186
728.43	21.176
728.74	17.339
729.06	18.800
729.38	28.947
729.69	17.131
730.01	17.308
730.32	23.881
730.64	21.555
730.96	18.868
731.27	18.667
731.59	17.627
731.90	20.064
732.22	21.767
732.53	22.591
732.85	20.213
733.16	24.242
733.48	16.906
733.80	17.029
734.11	19.322
734.43	18.213
734.74	22.727
735.06	16.612
735.37	20.846
735.69	21.886
736.00	19.512
736.32	20.805
736.63	20.423
736.95	19.795
737.26	20.285
737.58	15.101
737.89	18.315
738.21	24.436
738.52	22.222
738.83	19.651
739.15	18.341
739.46	18.898
739.78	17.582
740.09	15.686
740.41	19.203
740.72	19.685
741.04	21.053
741.35	20.851
741.66	21.801
741.98	18.878
742.29	22.277
742.61	13.613
742.92	14.692
743.23	8.796
743.55	17.195
743.86	16.746
744.18	16.268
744.49	13.298
744.80	22.283
745.12	26.203
745.43	15.122
745.74	25.000
746.06	19.512
746.37	18.325
746.68	18.957
747.00	17.021
747.31	24.378
747.62	13.592
747.94	18.182
748.25	18.317
748.56	17.486
748.88	22.513
749.19	23.404
749.50	21.675
749.82	10.377
750.13	17.431
750.44	21.053
750.75	20.522
751.07	22.263
751.38	19.540
751.69	18.824
752.01	21.705
752.32	21.514
752.63	21.344
752.94	22.845
753.26	27.615
753.57	19.457
753.88	23.451
754.19	15.417
754.51	17.769
754.82	18.623
755.13	21.250
755.44	20.565
755.75	17.578
756.07	17.510
756.38	21.887
756.69	16.092
757.00	20.667
757.31	21.569
757.63	20.122
757.94	19.167
758.25	19.178
758.56	16.755
758.87	17.847
759.18	18.380
759.50	21.455
759.81	18.729
760.12	20.000
760.43	15.455
760.74	20.679
761.05	20.615
761.36	20.170
761.67	23.636
761.99	22.449
762.30	17.818
762.61	21.739
762.92	20.814
763.23	16.667
763.54	18.692
763.85	17.373
764.16	15.768
764.47	16.935
764.78	15.751
765.10	24.242
765.41	15.457
765.72	18.413
766.03	13.534
766.34	20.438
766.65	19.522
766.96	23.232
767.27	17.553
767.58	13.218
767.89	17.021
768.20	21.591
768.51	18.132
768.82	19.704
769.13	16.129
769.44	14.163
769.75	15.068
770.06	22.845
770.37	15.385
770.68	19.797
770.99	22.624
771.30	15.196
771.61	16.290
771.92	19.828
772.23	23.645
772.54	17.204
772.85	24.691
773.16	15.169
773.47	22.876
773.78	20.261
774.09	17.964
774.39	16.667
774.70	19.745
775.01	26.207
775.32	17.857
775.63	8.264
775.94	18.321
776.25	22.047
776.56	17.500
776.87	14.423
777.18	13.675
777.48	18.103
777.79	10.435
778.10	3.810
778.41	19.820
778.72	14.286
779.03	17.293
779.34	22.695
779.65	15.068
779.95	13.014
780.26	24.828
780.57	14.634
780.88	14.961
781.19	6.897
781.50	19.380
781.80	15.385
782.11	13.836
782.42	26.154
782.73	13.669
783.04	14.074
783.34	16.667
783.65	5.128
783.96	23.770
784.27	18.621
784.57	13.008
784.88	28.125
785.19	25.000
785.50	32.000
785.81	12.069
786.11	13.793
786.42	14.563
786.73	30.000
787.04	10.204
787.34	20.536
787.65	20.000
787.96	15.929
788.26	18.182
788.57	17.949
788.88	17.188
789.19	15.873
789.49	16.522
789.80	22.449
790.11	11.111
790.41	8.182
790.72	28.261
791.03	23.864
791.33	33.750
791.64	11.250
791.95	19.767
792.25	20.213
792.56	21.348
792.87	19.178
793.17	8.696
793.48	-1.333
793.79	15.000
794.09	18.750
794.40	21.698
794.70	12.621
795.01	16.260
795.32	17.094
795.62	8.571
795.93	23.529
796.23	26.415
796.54	19.792
796.85	33.824
797.15	19.718
797.46	31.944
797.76	31.818
798.07	26.744
798.37	14.474
798.68	9.091
798.99	13.580
799.29	22.857
799.60	10.145
799.90	20.000
800.21	19.672
800.51	21.538
800.82	5.085
801.12	24.638
801.43	21.311
801.73	23.810
802.04	6.000
802.34	17.910
802.65	34.615
802.95	0.000
803.26	23.077
803.56	25.490
803.87	-2.174
804.17	18.667
804.48	25.397
804.78	24.074
805.09	15.217
805.39	-2.222
805.70	14.815
806.00	-17.544
806.30	18.310
806.61	17.143
806.91	13.889
807.22	25.000
807.52	28.000
807.83	7.273
808.13	15.278
808.43	36.765
808.74	5.970
809.04	-1.695
809.35	3.846
809.65	17.188
809.95	-32.432
810.26	-15.909
810.56	9.589
810.86	21.429
811.17	6.000
811.47	16.327
811.77	2.632
812.08	20.455
812.38	3.774
812.69	0.000
812.99	-18.182
813.29	10.526
813.59	-22.857
813.90	13.636
814.20	2.564
814.50	32.692
814.81	28.302
815.11	14.894
815.41	32.203
815.72	16.667
816.02	35.294
816.32	43.750
816.62	17.073
816.93	37.838
817.23	22.857
817.53	27.083
817.84	6.522
818.14	25.000
818.44	-13.158
818.74	45.652
819.04	-2.500
819.35	2.703
819.65	-17.647
819.95	27.778
820.25	0.000
820.56	32.500
820.86	-13.793
821.16	20.000
821.46	17.021
821.76	7.500
822.07	4.651
822.37	-29.730
822.67	-25.000
822.97	21.429
823.27	0.000
823.57	12.000
823.88	-7.407
824.18	17.857
824.48	17.647
824.78	9.677
825.08	-8.696
825.38	6.061
825.69	-37.500
825.99	-7.895
826.29	-2.778
826.59	-33.333
826.89	-14.286
827.19	19.565
827.49	20.000
827.79	14.286
828.09	7.143
828.39	15.152
828.70	64.865
829.00	0.000
829.30	-9.524
829.60	0.000
829.90	0.000
830.20	-5.263
830.50	-7.407
830.80	30.435
831.10	-9.091
831.40	48.485
831.70	9.677
832.00	47.619
832.30	0.000
832.60	-83.333
832.90	-20.690
833.20	-90.000
833.50	12.121
833.80	-7.407
834.10	-3.846
834.40	9.375
834.70	-133.333
835.00	-31.579
835.30	46.154
835.60	-6.667
835.90	25.806
836.20	0.000
836.50	7.143
836.80	3.846
837.10	35.714
837.40	-366.667
837.70	36.364
838.00	90.909
838.30	-21.739
838.60	0.000
838.90	27.273
839.19	14.286
839.49	10.000
839.79	-76.923
840.09	-66.667
840.39	50.000
840.69	10.714
840.99	-15.385
841.29	-36.842
841.59	-70.000
841.88	0.000
842.18	40.000
842.48	50.000
842.78	-20.000
843.08	14.815
843.38	-90.000
843.68	26.087
843.97	60.000
844.27	-40.000
844.57	-5.000
844.87	-61.111
845.17	-42.857
845.47	-6.667
845.76	-19.048
846.06	23.529
846.36	-20.000
846.66	-7.143
846.96	66.667
847.25	-175.000
847.55	85.714
847.85	25.000
848.15	-22.727
848.44	-533.333
848.74	55.000
849.04	59.259
849.34	0.000
849.63	-283.333
849.93	-140.000
850.23	-16.667
850.53	80.000
850.82	-15.385
851.12	-22.222
851.42	-13.333
851.71	-11.538
852.01	14.286
852.31	-225.000
852.61	27.273
852.90	-15.000
853.20	21.053
853.50	33.333
853.79	-4.348
854.09	20.833
854.39	10.526
854.68	-12.500
854.98	48.387
855.28	11.538
855.57	50.000
855.87	-5.556
856.17	55.556
856.46	-57.143
856.76	-66.667
857.05	100.000
857.35	20.000
857.65	-38.889
857.94	-61.538
858.24	3.448
858.53	33.333
858.83	37.037
859.13	13.636
859.42	0.000
859.72	-175.000
860.01	-333.333
860.31	-4.000
860.60	-14.286
860.90	-500.000
861.20	-53.333
861.49	-300.000
861.79	46.667
862.08	5.000
862.38	26.667
862.67	-200.000
862.97	-166.667
863.26	-100.000
863.56	44.444
863.85	-200.000
864.15	-33.333
864.44	50.000
864.74	85.714
865.03	100.000
865.33	-20.000
865.62	16.667
865.92	-58.333
866.21	-66.667
866.51	37.500
866.80	-45.455
867.10	-300.000
867.39	116.667
867.69	0.000
867.98	-7.692
868.27	-33.333
868.57	26.667
868.86	38.889
869.16	-53.846
869.45	-13.333
869.75	-1100.000
870.04	0.000
870.33	-57.143
870.63	33.333
870.92	366.667
871.22	-200.000
871.51	100.000
871.80	88.889
872.10	333.333
>>>>>End Processed Spectral Data<<<<<
