SpectraSuite Data File
++++++++++++++++++++++++++++++++++++
Date: Fri May 15 21:12:12 PDT 2015
User: schluterlab
Dark Spectrum Present: Yes
Reference Spectrum Present: Yes
Number of Sampled Component Spectra: 1
Spectrometers: USB2E3373
Integration Time (usec): 3000 (USB2E3373)
Spectra Averaged: 3 (USB2E3373)
Boxcar Smoothing: 0 (USB2E3373)
Correct for Electrical Dark: No (USB2E3373)
Strobe/Lamp Enabled: No (USB2E3373)
Correct for Detector Non-linearity: No (USB2E3373)
Correct for Stray Light: No (USB2E3373)
Number of Pixels in Processed Spectrum: 2048
>>>>>Begin Processed Spectral Data<<<<<
178.53	0.000
178.91	0.000
179.29	62.500
179.67	-300.000
180.04	100.000
180.42	250.000
180.80	-100.000
181.18	400.000
181.56	250.000
181.94	0.000
182.31	-0.000
182.69	120.000
183.07	-400.000
183.45	-80.000
183.83	150.000
184.20	-72.727
184.58	166.667
184.96	75.000
185.34	400.000
185.72	-150.000
186.09	84.615
186.47	-800.000
186.85	100.000
187.23	211.111
187.61	-300.000
187.98	-233.333
188.36	-88.889
188.74	-233.333
189.12	-23.529
189.49	27.778
189.87	0.000
190.25	50.000
190.63	-200.000
191.00	-66.667
191.38	0.000
191.76	200.000
192.14	-125.000
192.51	150.000
192.89	-155.556
193.27	-114.286
193.65	300.000
194.02	190.909
194.40	-70.000
194.78	-100.000
195.15	-58.333
195.53	-62.500
195.91	400.000
196.29	50.000
196.66	169.231
197.04	57.143
197.42	-88.889
197.79	-400.000
198.17	-130.769
198.55	1700.000
198.92	-200.000
199.30	-500.000
199.68	-200.000
200.05	-533.333
200.43	0.000
200.81	-266.667
201.18	-566.667
201.56	600.000
201.94	-500.000
202.31	33.333
202.69	-80.000
203.07	200.000
203.44	-100.000
203.82	0.000
204.19	7.143
204.57	-233.333
204.95	12.500
205.32	-60.000
205.70	-85.714
206.08	-225.000
206.45	66.667
206.83	35.714
207.20	-328.571
207.58	1300.000
207.96	-300.000
208.33	-100.000
208.71	0.000
209.08	-233.333
209.46	-100.000
209.84	-80.000
210.21	-1300.000
210.59	14.286
210.96	-216.667
211.34	-150.000
211.71	40.000
212.09	-71.429
212.46	-500.000
212.84	0.000
213.22	20.000
213.59	600.000
213.97	23.077
214.34	18.182
214.72	-150.000
215.09	375.000
215.47	-30.769
215.84	-45.455
216.22	-333.333
216.59	-137.500
216.97	-50.000
217.34	25.000
217.72	-220.000
218.09	87.500
218.47	100.000
218.84	-400.000
219.22	-22.222
219.59	-60.000
219.97	400.000
220.34	100.000
220.72	-85.714
221.09	-50.000
221.47	-500.000
221.84	-900.000
222.22	-750.000
222.59	-9.091
222.97	-50.000
223.34	-166.667
223.72	-14.286
224.09	-42.857
224.46	35.714
224.84	666.667
225.21	-20.000
225.59	40.000
225.96	-100.000
226.34	175.000
226.71	-100.000
227.08	-233.333
227.46	-137.500
227.83	-450.000
228.21	33.333
228.58	0.000
228.95	-62.500
229.33	110.000
229.70	-75.000
230.08	-75.000
230.45	-57.143
230.82	-42.857
231.20	-86.667
231.57	-35.714
231.95	-114.286
232.32	-90.000
232.69	-14.286
233.07	-133.333
233.44	-160.000
233.81	-90.000
234.19	-77.778
234.56	11.765
234.93	50.000
235.31	0.000
235.68	-200.000
236.05	-53.846
236.43	10.000
236.80	-64.706
237.17	0.000
237.55	25.000
237.92	-25.926
238.29	0.000
238.67	-20.000
239.04	14.706
239.41	-31.707
239.79	-16.667
240.16	17.073
240.53	-10.526
240.91	2.174
241.28	25.397
241.65	26.786
242.02	16.438
242.40	13.333
242.77	16.949
243.14	4.545
243.51	5.000
243.89	18.391
244.26	6.897
244.63	11.905
245.00	15.464
245.38	23.711
245.75	14.607
246.12	6.897
246.49	10.744
246.87	20.192
247.24	5.882
247.61	10.526
247.98	11.382
248.36	13.125
248.73	17.763
249.10	18.831
249.47	17.722
249.84	20.261
250.22	24.706
250.59	12.418
250.96	15.962
251.33	13.953
251.70	21.765
252.08	15.736
252.45	16.832
252.82	14.070
253.19	17.512
253.56	16.822
253.94	18.018
254.31	20.435
254.68	23.246
255.05	16.535
255.42	18.777
255.79	18.147
256.16	19.844
256.54	21.642
256.91	20.152
257.28	18.587
257.65	18.727
258.02	18.794
258.39	19.865
258.76	20.879
259.14	19.934
259.51	19.741
259.88	20.962
260.25	16.993
260.62	20.833
260.99	18.305
261.36	17.466
261.73	18.987
262.10	18.237
262.47	17.485
262.85	20.690
263.22	23.385
263.59	17.757
263.96	18.634
264.33	20.303
264.70	17.262
265.07	21.726
265.44	20.113
265.81	20.621
266.18	20.219
266.55	19.537
266.92	17.617
267.29	18.538
267.66	20.205
268.03	19.110
268.40	15.927
268.77	20.856
269.14	18.225
269.51	20.308
269.88	17.955
270.25	16.071
270.62	16.585
270.99	19.949
271.36	15.892
271.73	16.432
272.10	18.005
272.47	18.676
272.84	18.812
273.21	18.794
273.58	18.554
273.95	18.307
274.32	20.323
274.69	18.100
275.06	20.313
275.43	20.181
275.80	18.764
276.17	20.000
276.54	16.274
276.91	18.202
277.28	16.812
277.65	19.628
278.02	16.809
278.39	18.818
278.76	17.400
279.13	15.768
279.50	18.697
279.87	18.790
280.23	15.054
280.60	18.129
280.97	18.384
281.34	16.346
281.71	21.355
282.08	17.791
282.45	18.004
282.82	17.568
283.19	19.923
283.56	18.690
283.92	18.027
284.29	16.538
284.66	18.411
285.03	17.682
285.40	15.879
285.77	17.047
286.14	16.606
286.51	17.897
286.87	16.636
287.24	17.864
287.61	15.873
287.98	18.596
288.35	15.771
288.72	17.163
289.08	17.014
289.45	17.047
289.82	16.434
290.19	15.188
290.56	14.580
290.93	13.468
291.29	13.713
291.66	15.276
292.03	14.514
292.40	15.161
292.77	14.354
293.13	10.714
293.50	14.719
293.87	16.489
294.24	15.456
294.60	13.711
294.97	15.625
295.34	12.270
295.71	13.711
296.08	11.360
296.44	10.811
296.81	14.861
297.18	13.043
297.55	14.228
297.91	12.877
298.28	14.908
298.65	13.569
299.02	13.342
299.38	10.944
299.75	12.276
300.12	13.089
300.48	13.570
300.85	11.660
301.22	13.636
301.59	12.368
301.95	12.911
302.32	13.359
302.69	10.448
303.05	10.767
303.42	12.702
303.79	13.668
304.15	12.784
304.52	10.820
304.89	11.930
305.25	10.291
305.62	12.602
305.99	11.228
306.35	10.173
306.72	11.024
307.09	11.745
307.45	11.825
307.82	11.458
308.19	11.382
308.55	11.123
308.92	11.874
309.29	11.732
309.65	10.657
310.02	10.121
310.38	10.867
310.75	12.678
311.12	10.549
311.48	11.029
311.85	11.518
312.22	12.131
312.58	11.783
312.95	11.419
313.31	12.422
313.68	11.309
314.05	11.224
314.41	12.062
314.78	11.340
315.14	12.230
315.51	11.801
315.87	11.578
316.24	11.931
316.61	12.205
316.97	10.020
317.34	11.230
317.70	10.994
318.07	12.212
318.43	11.667
318.80	11.174
319.16	11.914
319.53	11.681
319.89	10.335
320.26	12.348
320.62	11.735
320.99	11.900
321.35	12.539
321.72	11.526
322.08	11.380
322.45	11.371
322.81	11.395
323.18	11.580
323.54	12.259
323.91	11.587
324.27	12.207
324.64	12.734
325.00	12.774
325.37	13.774
325.73	11.151
326.10	11.626
326.46	12.466
326.83	12.686
327.19	13.078
327.56	12.163
327.92	13.028
328.29	11.607
328.65	11.887
329.01	11.765
329.38	11.889
329.74	12.653
330.11	12.141
330.47	11.132
330.84	11.250
331.20	13.308
331.56	11.944
331.93	13.425
332.29	12.741
332.66	12.941
333.02	12.732
333.38	12.741
333.75	12.363
334.11	11.907
334.48	13.055
334.84	13.828
335.20	12.443
335.57	12.239
335.93	13.189
336.29	12.523
336.66	12.443
337.02	11.524
337.38	12.222
337.75	11.909
338.11	12.714
338.47	12.500
338.84	12.200
339.20	11.243
339.56	12.202
339.93	11.996
340.29	12.202
340.65	12.724
341.02	12.145
341.38	12.566
341.74	11.219
342.11	11.438
342.47	10.053
342.83	11.332
343.20	11.585
343.56	12.174
343.92	11.249
344.28	12.041
344.65	11.831
345.01	11.150
345.37	11.186
345.73	12.887
346.10	13.287
346.46	12.784
346.82	11.375
347.19	10.973
347.55	11.947
347.91	11.893
348.27	11.722
348.63	11.414
349.00	11.075
349.36	11.970
349.72	12.355
350.08	10.984
350.45	11.572
350.81	10.797
351.17	10.261
351.53	11.347
351.89	10.074
352.26	11.040
352.62	11.532
352.98	11.084
353.34	11.192
353.70	11.731
354.07	11.774
354.43	11.049
354.79	10.074
355.15	11.667
355.51	11.867
355.87	10.680
356.24	10.277
356.60	11.075
356.96	10.635
357.32	10.623
357.68	10.399
358.04	10.420
358.40	10.932
358.77	10.367
359.13	11.129
359.49	11.094
359.85	10.218
360.21	11.085
360.57	10.406
360.93	11.044
361.29	10.952
361.66	11.129
362.02	11.061
362.38	11.957
362.74	10.447
363.10	11.889
363.46	10.971
363.82	11.345
364.18	10.775
364.54	10.147
364.90	10.323
365.26	10.699
365.62	11.752
365.98	10.557
366.35	10.488
366.71	10.643
367.07	10.740
367.43	9.849
367.79	11.519
368.15	10.625
368.51	10.998
368.87	9.476
369.23	9.747
369.59	10.131
369.95	11.070
370.31	10.694
370.67	10.075
371.03	10.306
371.39	9.701
371.75	10.842
372.11	9.914
372.47	10.651
372.83	11.001
373.19	11.198
373.55	9.892
373.91	10.367
374.27	10.702
374.63	10.337
374.99	9.929
375.35	11.072
375.71	10.210
376.07	9.480
376.42	9.932
376.78	10.134
377.14	10.359
377.50	10.027
377.86	10.576
378.22	9.509
378.58	10.000
378.94	9.893
379.30	10.480
379.66	10.470
380.02	10.300
380.38	9.921
380.74	9.934
381.09	10.123
381.45	9.969
381.81	10.364
382.17	9.645
382.53	10.181
382.89	9.667
383.25	10.205
383.61	10.427
383.97	10.159
384.32	9.256
384.68	9.721
385.04	9.681
385.40	10.268
385.76	10.503
386.12	10.479
386.48	10.089
386.83	10.273
387.19	10.440
387.55	10.665
387.91	9.780
388.27	9.219
388.62	10.321
388.98	10.129
389.34	10.618
389.70	10.566
390.06	9.125
390.42	10.168
390.77	9.680
391.13	9.142
391.49	9.379
391.85	10.071
392.20	10.107
392.56	9.917
392.92	10.100
393.28	9.493
393.64	10.450
393.99	10.784
394.35	9.677
394.71	9.579
395.07	9.491
395.42	9.593
395.78	9.707
396.14	10.593
396.50	9.956
396.85	9.530
397.21	9.962
397.57	9.969
397.92	9.706
398.28	9.770
398.64	9.880
399.00	10.271
399.35	8.634
399.71	10.052
400.07	9.613
400.42	10.037
400.78	9.737
401.14	9.800
401.49	10.304
401.85	9.506
402.21	10.663
402.57	10.188
402.92	9.724
403.28	9.962
403.63	10.277
403.99	9.758
404.35	9.681
404.70	10.179
405.06	9.283
405.42	10.441
405.77	9.529
406.13	8.847
406.49	10.006
406.84	9.474
407.20	10.777
407.55	9.208
407.91	9.024
408.27	9.751
408.62	10.338
408.98	9.612
409.34	10.719
409.69	9.238
410.05	10.530
410.40	9.506
410.76	10.012
411.11	9.812
411.47	10.125
411.83	8.977
412.18	10.553
412.54	9.488
412.89	9.667
413.25	9.988
413.60	9.193
413.96	9.877
414.31	10.549
414.67	9.365
415.03	9.854
415.38	10.052
415.74	9.902
416.09	10.581
416.45	10.736
416.80	9.253
417.16	11.188
417.51	9.660
417.87	9.909
418.22	10.363
418.58	9.164
418.93	10.470
419.29	8.451
419.64	10.110
420.00	9.950
420.35	10.328
420.71	10.267
421.06	9.822
421.42	9.796
421.77	10.000
422.12	10.386
422.48	10.179
422.83	10.035
423.19	10.666
423.54	8.995
423.90	9.658
424.25	10.161
424.61	10.159
424.96	10.453
425.31	10.514
425.67	10.153
426.02	10.601
426.38	10.019
426.73	9.625
427.09	10.759
427.44	10.647
427.79	10.371
428.15	10.316
428.50	9.691
428.85	9.275
429.21	10.922
429.56	9.919
429.92	10.324
430.27	10.727
430.62	9.827
430.98	10.297
431.33	10.095
431.68	9.942
432.04	10.173
432.39	10.896
432.74	9.862
433.10	10.747
433.45	9.558
433.80	9.808
434.16	9.252
434.51	10.806
434.86	10.163
435.22	10.095
435.57	10.231
435.92	10.419
436.28	9.541
436.63	10.496
436.98	10.603
437.34	9.800
437.69	9.600
438.04	10.256
438.39	9.896
438.75	9.107
439.10	9.904
439.45	10.712
439.81	9.786
440.16	10.095
440.51	10.925
440.86	10.937
441.22	9.729
441.57	10.596
441.92	11.490
442.27	10.532
442.63	11.349
442.98	10.339
443.33	10.629
443.68	10.345
444.03	10.979
444.39	10.871
444.74	10.479
445.09	9.967
445.44	10.256
445.79	10.779
446.15	10.463
446.50	9.983
446.85	10.361
447.20	9.906
447.55	10.603
447.91	11.111
448.26	10.359
448.61	11.284
448.96	9.409
449.31	10.173
449.66	10.337
450.02	10.268
450.37	10.848
450.72	10.023
451.07	10.570
451.42	11.049
451.77	10.790
452.12	10.347
452.47	9.916
452.83	9.776
453.18	10.689
453.53	10.367
453.88	10.383
454.23	11.248
454.58	10.264
454.93	10.567
455.28	9.333
455.63	10.725
455.98	10.343
456.34	11.622
456.69	10.546
457.04	11.972
457.39	10.146
457.74	10.580
458.09	10.124
458.44	10.298
458.79	10.364
459.14	11.270
459.49	10.806
459.84	10.491
460.19	10.133
460.54	11.430
460.89	10.966
461.24	11.429
461.59	10.808
461.94	10.566
462.29	11.821
462.64	10.831
462.99	10.765
463.34	9.736
463.69	11.454
464.04	10.956
464.39	11.037
464.74	10.307
465.09	11.104
465.44	11.368
465.79	10.317
466.14	10.604
466.49	10.638
466.84	11.005
467.19	10.826
467.54	10.345
467.89	10.865
468.24	10.219
468.59	10.603
468.94	9.968
469.29	10.820
469.64	11.688
469.99	11.212
470.34	10.444
470.68	11.037
471.03	10.899
471.38	9.986
471.73	10.854
472.08	10.312
472.43	10.604
472.78	10.144
473.13	11.769
473.48	10.749
473.83	10.834
474.17	11.269
474.52	10.530
474.87	11.333
475.22	10.494
475.57	10.277
475.92	11.135
476.27	11.059
476.61	10.706
476.96	9.816
477.31	11.141
477.66	10.337
478.01	10.331
478.36	10.893
478.70	11.637
479.05	10.934
479.40	10.758
479.75	11.053
480.10	11.521
480.45	10.100
480.79	11.128
481.14	11.117
481.49	10.640
481.84	10.280
482.19	10.758
482.53	11.079
482.88	11.074
483.23	10.365
483.58	11.038
483.92	10.649
484.27	10.802
484.62	11.116
484.97	10.531
485.31	10.477
485.66	10.693
486.01	11.491
486.36	11.317
486.70	11.604
487.05	11.392
487.40	11.246
487.75	10.958
488.09	10.970
488.44	10.660
488.79	10.459
489.13	10.857
489.48	10.389
489.83	11.121
490.17	10.427
490.52	10.624
490.87	10.319
491.22	10.363
491.56	9.867
491.91	10.277
492.26	10.501
492.60	10.221
492.95	10.674
493.30	10.699
493.64	10.314
493.99	10.580
494.34	10.243
494.68	10.524
495.03	9.878
495.37	10.206
495.72	10.399
496.07	10.976
496.41	10.566
496.76	10.226
497.11	10.107
497.45	11.265
497.80	11.150
498.14	10.681
498.49	10.615
498.84	10.928
499.18	10.894
499.53	10.962
499.87	10.214
500.22	10.138
500.56	10.237
500.91	10.191
501.26	10.430
501.60	11.018
501.95	10.529
502.29	10.460
502.64	10.907
502.98	10.557
503.33	10.519
503.67	10.795
504.02	10.215
504.36	11.430
504.71	9.899
505.06	10.569
505.40	10.508
505.75	10.206
506.09	10.542
506.44	10.678
506.78	11.224
507.13	10.496
507.47	10.392
507.82	9.669
508.16	10.354
508.51	10.756
508.85	10.413
509.19	10.271
509.54	10.402
509.88	10.140
510.23	10.328
510.57	10.636
510.92	9.542
511.26	11.020
511.61	10.121
511.95	10.411
512.30	10.310
512.64	10.907
512.98	10.444
513.33	11.080
513.67	10.347
514.02	11.327
514.36	10.914
514.70	11.305
515.05	11.751
515.39	10.685
515.74	11.317
516.08	10.102
516.42	11.249
516.77	10.532
517.11	10.564
517.46	10.952
517.80	10.489
518.14	9.247
518.49	10.397
518.83	10.510
519.17	9.945
519.52	10.657
519.86	10.384
520.20	10.085
520.55	9.006
520.89	10.979
521.23	10.513
521.58	11.609
521.92	10.705
522.26	10.605
522.61	10.844
522.95	10.993
523.29	11.690
523.64	11.690
523.98	10.175
524.32	10.245
524.66	10.627
525.01	11.494
525.35	10.693
525.69	9.966
526.04	9.854
526.38	11.089
526.72	9.941
527.06	10.571
527.41	11.016
527.75	10.724
528.09	10.233
528.43	11.546
528.78	10.099
529.12	10.774
529.46	10.396
529.80	11.146
530.15	11.881
530.49	10.572
530.83	10.602
531.17	10.343
531.51	10.397
531.86	10.673
532.20	10.786
532.54	10.619
532.88	11.910
533.22	11.089
533.57	11.533
533.91	10.966
534.25	10.677
534.59	10.840
534.93	10.950
535.27	10.723
535.62	10.953
535.96	11.285
536.30	11.016
536.64	10.407
536.98	10.453
537.32	11.309
537.66	11.290
538.01	11.538
538.35	11.442
538.69	11.784
539.03	10.390
539.37	11.575
539.71	10.566
540.05	10.930
540.39	11.288
540.73	10.669
541.07	10.843
541.42	11.828
541.76	10.943
542.10	11.425
542.44	10.841
542.78	9.704
543.12	10.989
543.46	11.961
543.80	11.242
544.14	10.547
544.48	11.459
544.82	9.911
545.16	11.066
545.50	11.348
545.84	11.048
546.18	11.702
546.52	11.175
546.86	9.849
547.20	10.229
547.54	9.894
547.88	11.141
548.22	10.454
548.56	11.346
548.90	11.658
549.24	11.364
549.58	10.719
549.92	10.365
550.26	11.136
550.60	10.855
550.94	10.978
551.28	11.128
551.62	10.692
551.96	10.902
552.30	10.673
552.64	10.296
552.98	11.955
553.32	11.127
553.66	9.942
554.00	10.876
554.34	11.152
554.68	10.988
555.02	10.417
555.36	10.995
555.69	10.989
556.03	10.635
556.37	10.747
556.71	11.336
557.05	10.365
557.39	9.814
557.73	11.544
558.07	11.312
558.41	10.720
558.75	10.055
559.08	10.796
559.42	10.714
559.76	10.568
560.10	11.391
560.44	11.020
560.78	11.119
561.12	11.354
561.45	10.963
561.79	10.854
562.13	11.072
562.47	10.504
562.81	11.239
563.15	11.142
563.48	11.245
563.82	10.089
564.16	10.655
564.50	10.473
564.84	10.843
565.17	11.133
565.51	11.202
565.85	10.974
566.19	11.273
566.52	11.461
566.86	12.211
567.20	11.083
567.54	10.219
567.88	11.424
568.21	12.161
568.55	10.815
568.89	11.242
569.23	11.507
569.56	11.340
569.90	11.937
570.24	11.202
570.57	11.927
570.91	11.677
571.25	11.411
571.59	11.616
571.92	11.378
572.26	11.473
572.60	11.287
572.93	11.829
573.27	11.567
573.61	11.695
573.95	11.333
574.28	11.600
574.62	11.620
574.96	11.967
575.29	11.812
575.63	11.246
575.97	11.385
576.30	11.330
576.64	11.391
576.98	11.532
577.31	11.133
577.65	11.766
577.98	11.792
578.32	11.992
578.66	11.348
578.99	11.628
579.33	11.142
579.67	11.481
580.00	11.772
580.34	11.592
580.67	11.474
581.01	11.623
581.35	11.843
581.68	11.750
582.02	11.910
582.35	11.606
582.69	11.784
583.02	11.408
583.36	11.971
583.70	11.916
584.03	11.788
584.37	11.773
584.70	11.786
585.04	11.321
585.37	11.548
585.71	11.429
586.04	11.372
586.38	11.096
586.72	11.478
587.05	12.016
587.39	11.798
587.72	12.083
588.06	11.957
588.39	12.019
588.73	11.538
589.06	11.676
589.40	11.441
589.73	11.610
590.07	11.178
590.40	12.113
590.73	11.862
591.07	11.917
591.40	11.443
591.74	11.855
592.07	11.688
592.41	11.705
592.74	11.430
593.08	11.317
593.41	11.532
593.75	11.613
594.08	11.432
594.41	11.645
594.75	11.336
595.08	11.351
595.42	11.446
595.75	11.904
596.09	11.923
596.42	11.534
596.75	11.945
597.09	11.754
597.42	11.201
597.75	11.086
598.09	11.272
598.42	11.462
598.76	11.454
599.09	11.899
599.42	11.330
599.76	10.948
600.09	11.953
600.42	11.410
600.76	11.441
601.09	11.107
601.42	10.850
601.76	11.513
602.09	11.427
602.42	11.373
602.76	11.205
603.09	11.545
603.42	11.580
603.76	10.968
604.09	11.098
604.42	11.675
604.76	11.927
605.09	11.609
605.42	11.512
605.75	11.340
606.09	11.295
606.42	10.926
606.75	11.861
607.09	11.912
607.42	11.077
607.75	10.346
608.08	10.737
608.42	10.735
608.75	11.759
609.08	10.862
609.41	10.660
609.75	11.643
610.08	11.732
610.41	10.676
610.74	11.945
611.07	10.749
611.41	11.624
611.74	11.994
612.07	10.814
612.40	11.160
612.73	10.621
613.07	11.361
613.40	11.597
613.73	10.688
614.06	11.519
614.39	11.280
614.72	10.644
615.06	11.732
615.39	9.880
615.72	10.603
616.05	11.508
616.38	10.313
616.71	11.254
617.05	11.303
617.38	11.565
617.71	11.069
618.04	11.556
618.37	11.917
618.70	11.683
619.03	12.014
619.36	10.854
619.69	11.221
620.03	10.957
620.36	11.087
620.69	10.849
621.02	11.086
621.35	11.784
621.68	10.544
622.01	10.500
622.34	11.173
622.67	11.199
623.00	11.256
623.33	11.662
623.66	10.696
623.99	10.439
624.32	11.331
624.65	9.925
624.99	11.362
625.32	8.946
625.65	11.862
625.98	11.281
626.31	10.141
626.64	11.785
626.97	11.344
627.30	10.858
627.63	10.572
627.96	10.872
628.29	10.731
628.62	10.914
628.95	11.723
629.28	10.484
629.61	10.269
629.94	11.046
630.26	11.067
630.59	11.238
630.92	10.462
631.25	10.974
631.58	11.123
631.91	9.759
632.24	10.780
632.57	9.318
632.90	9.253
633.23	10.941
633.56	10.327
633.89	8.508
634.22	11.235
634.55	9.911
634.88	10.600
635.20	10.128
635.53	9.867
635.86	9.493
636.19	9.314
636.52	9.566
636.85	9.553
637.18	9.057
637.51	11.069
637.83	9.987
638.16	9.277
638.49	10.490
638.82	11.579
639.15	8.141
639.48	11.142
639.81	9.763
640.13	9.524
640.46	9.184
640.79	8.395
641.12	10.192
641.45	10.210
641.77	9.926
642.10	10.269
642.43	10.772
642.76	9.076
643.09	11.470
643.41	10.032
643.74	9.390
644.07	10.181
644.40	8.108
644.73	11.909
645.05	9.732
645.38	10.406
645.71	9.929
646.04	10.772
646.36	9.574
646.69	11.511
647.02	9.263
647.35	9.142
647.67	11.883
648.00	10.075
648.33	12.287
648.66	9.831
648.98	9.045
649.31	9.587
649.64	9.262
649.96	8.428
650.29	10.392
650.62	8.718
650.94	9.259
651.27	9.125
651.60	9.550
651.92	10.315
652.25	6.572
652.58	9.833
652.90	9.949
653.23	9.076
653.56	9.983
653.88	7.388
654.21	6.830
654.54	10.526
654.86	11.205
655.19	8.918
655.52	12.074
655.84	12.271
656.17	13.838
656.49	18.699
656.82	19.344
657.15	14.348
657.47	10.493
657.80	7.601
658.13	7.446
658.45	11.319
658.78	10.683
659.10	10.410
659.43	10.344
659.75	9.916
660.08	9.172
660.41	10.215
660.73	9.669
661.06	10.052
661.38	5.675
661.71	7.392
662.03	8.798
662.36	10.330
662.68	7.522
663.01	10.480
663.33	7.657
663.66	6.977
663.98	5.814
664.31	10.874
664.63	11.060
664.96	6.739
665.28	7.947
665.61	11.039
665.93	8.478
666.26	12.581
666.58	7.830
666.91	7.059
667.23	10.613
667.56	11.374
667.88	7.194
668.21	10.024
668.53	10.638
668.86	9.906
669.18	9.670
669.50	8.475
669.83	7.674
670.15	10.490
670.48	9.809
670.80	8.525
671.13	9.396
671.45	6.393
671.77	10.730
672.10	11.287
672.42	8.989
672.75	10.480
673.07	10.376
673.39	8.624
673.72	5.325
674.04	7.708
674.37	10.169
674.69	9.850
675.01	10.889
675.34	9.685
675.66	7.407
675.98	7.095
676.31	8.486
676.63	9.264
676.95	10.455
677.28	10.588
677.60	10.361
677.92	8.716
678.25	6.346
678.57	8.658
678.89	9.874
679.22	8.949
679.54	9.839
679.86	10.338
680.18	11.068
680.51	9.470
680.83	9.145
681.15	9.000
681.48	10.451
681.80	11.777
682.12	10.484
682.44	7.531
682.77	9.272
683.09	6.865
683.41	8.864
683.73	7.604
684.06	9.513
684.38	9.462
684.70	10.240
685.02	7.469
685.34	7.905
685.67	8.443
685.99	10.307
686.31	8.850
686.63	10.761
686.96	8.935
687.28	9.293
687.60	8.745
687.92	9.495
688.24	10.887
688.56	8.952
688.89	9.152
689.21	10.889
689.53	9.049
689.85	6.744
690.17	8.929
690.49	7.329
690.82	7.524
691.14	8.571
691.46	11.682
691.78	8.108
692.10	11.183
692.42	8.225
692.74	8.333
693.06	9.009
693.39	7.692
693.71	5.882
694.03	9.238
694.35	8.645
694.67	11.869
694.99	7.833
695.31	10.183
695.63	8.750
695.95	9.091
696.27	9.067
696.59	9.444
696.91	8.403
697.23	9.769
697.56	8.168
697.88	13.763
698.20	8.884
698.52	9.647
698.84	6.220
699.16	5.250
699.48	10.777
699.80	7.940
700.12	8.895
700.44	10.924
700.76	8.721
701.08	4.848
701.40	6.627
701.72	9.877
702.04	6.931
702.36	8.361
702.68	8.408
703.00	7.576
703.32	5.572
703.64	7.062
703.96	6.957
704.28	9.509
704.60	11.429
704.91	3.470
705.23	7.973
705.55	6.714
705.87	10.830
706.19	10.370
706.51	7.904
706.83	9.646
707.15	7.165
707.47	7.003
707.79	9.635
708.11	10.500
708.43	11.000
708.74	8.527
709.06	10.141
709.38	9.480
709.70	12.722
710.02	7.006
710.34	8.669
710.66	2.885
710.98	7.947
711.29	9.180
711.61	6.780
711.93	8.795
712.25	10.997
712.57	9.524
712.89	8.209
713.20	9.689
713.52	5.923
713.84	6.143
714.16	5.842
714.48	7.419
714.80	10.256
715.11	8.815
715.43	6.583
715.75	4.000
716.07	5.316
716.39	11.074
716.70	6.642
717.02	3.435
717.34	6.478
717.66	8.407
717.97	-1.304
718.29	8.368
718.61	7.087
718.93	12.016
719.24	7.985
719.56	10.040
719.88	9.622
720.20	7.955
720.51	4.215
720.83	10.425
721.15	11.345
721.46	8.065
721.78	6.324
722.10	7.063
722.42	0.000
722.73	4.082
723.05	10.204
723.37	13.983
723.68	10.811
724.00	6.410
724.32	5.778
724.63	0.909
724.95	10.044
725.27	4.608
725.58	8.898
725.90	2.381
726.22	9.653
726.53	12.542
726.85	8.989
727.16	10.189
727.48	4.453
727.80	10.931
728.11	5.508
728.43	11.765
728.74	3.629
729.06	7.200
729.38	15.789
729.69	7.171
730.01	7.692
730.32	9.328
730.64	10.247
730.96	6.038
731.27	11.667
731.59	6.441
731.90	12.420
732.22	12.303
732.53	13.289
732.85	8.156
733.16	14.815
733.48	2.878
733.80	6.884
734.11	13.220
734.43	10.653
734.74	9.697
735.06	5.212
735.37	10.876
735.69	11.111
736.00	8.711
736.32	8.389
736.63	5.986
736.95	7.167
737.26	6.762
737.58	8.054
737.89	5.861
738.21	7.519
738.52	6.996
738.83	6.114
739.15	8.734
739.46	8.661
739.78	6.227
740.09	7.516
740.41	10.870
740.72	8.268
741.04	6.883
741.35	9.787
741.66	7.109
741.98	6.122
742.29	9.406
742.61	7.330
742.92	3.791
743.23	6.019
743.55	8.597
743.86	9.091
744.18	4.785
744.49	2.660
744.80	6.522
745.12	10.695
745.43	5.366
745.74	7.292
746.06	9.268
746.37	7.330
746.68	11.374
747.00	6.383
747.31	8.955
747.62	5.340
747.94	3.349
748.25	1.485
748.56	5.464
748.88	1.571
749.19	11.170
749.50	6.897
749.82	7.075
750.13	2.294
750.44	12.030
750.75	8.582
751.07	17.518
751.38	7.663
751.69	5.098
752.01	13.178
752.32	5.578
752.63	9.881
752.94	4.741
753.26	13.808
753.57	3.620
753.88	5.752
754.19	6.250
754.51	7.025
754.82	6.073
755.13	10.417
755.44	7.258
755.75	14.844
756.07	7.782
756.38	5.283
756.69	8.429
757.00	8.667
757.31	11.765
757.63	7.317
757.94	8.056
758.25	9.589
758.56	12.500
758.87	7.932
759.18	9.657
759.50	6.545
759.81	8.696
760.12	10.968
760.43	8.485
760.74	9.568
761.05	6.154
761.36	8.239
761.67	10.909
761.99	11.224
762.30	6.545
762.61	14.229
762.92	11.765
763.23	7.658
763.54	5.607
763.85	7.203
764.16	7.884
764.47	6.855
764.78	9.158
765.10	11.448
765.41	9.464
765.72	11.111
766.03	4.511
766.34	6.204
766.65	8.765
766.96	8.081
767.27	8.511
767.58	5.172
767.89	2.837
768.20	9.659
768.51	7.143
768.82	5.419
769.13	5.530
769.44	9.442
769.75	4.110
770.06	11.638
770.37	7.212
770.68	8.122
770.99	4.072
771.30	9.804
771.61	6.787
771.92	8.621
772.23	9.360
772.54	11.290
772.85	11.111
773.16	6.180
773.47	10.458
773.78	11.765
774.09	8.982
774.39	4.667
774.70	15.287
775.01	4.828
775.32	0.714
775.63	0.826
775.94	5.344
776.25	3.937
776.56	10.833
776.87	5.769
777.18	-0.855
777.48	-6.034
777.79	0.000
778.10	-3.810
778.41	7.207
778.72	8.730
779.03	7.519
779.34	12.766
779.65	6.164
779.95	5.479
780.26	5.517
780.57	-1.626
780.88	4.724
781.19	-4.310
781.50	4.651
781.80	3.550
782.11	0.629
782.42	8.462
782.73	6.475
783.04	5.185
783.34	11.806
783.65	-11.111
783.96	7.377
784.27	12.414
784.57	4.065
784.88	0.781
785.19	7.000
785.50	7.000
785.81	6.034
786.11	6.897
786.42	-2.913
786.73	14.545
787.04	-2.041
787.34	4.464
787.65	0.952
787.96	2.655
788.26	8.182
788.57	0.855
788.88	14.063
789.19	3.175
789.49	3.478
789.80	8.163
790.11	3.030
790.41	11.818
790.72	3.261
791.03	9.091
791.33	7.500
791.64	-1.250
791.95	-1.163
792.25	5.319
792.56	8.989
792.87	-1.370
793.17	-5.797
793.48	-10.667
793.79	8.750
794.09	11.250
794.40	7.547
794.70	6.796
795.01	7.317
795.32	-4.274
795.62	9.524
795.93	6.863
796.23	4.717
796.54	15.625
796.85	20.588
797.15	8.451
797.46	9.722
797.76	-6.061
798.07	0.000
798.37	5.263
798.68	-1.515
798.99	-3.704
799.29	-1.429
799.60	8.696
799.90	8.000
800.21	-4.918
800.51	-4.615
800.82	15.254
801.12	11.594
801.43	9.836
801.73	6.349
802.04	-4.000
802.34	-5.970
802.65	21.154
802.95	0.000
803.26	-13.462
803.56	-11.765
803.87	-19.565
804.17	10.667
804.48	4.762
804.78	3.704
805.09	-19.565
805.39	-15.556
805.70	14.815
806.00	-17.544
806.30	12.676
806.61	5.714
806.91	-5.556
807.22	21.053
807.52	18.667
807.83	-20.000
808.13	9.722
808.43	17.647
808.74	8.955
809.04	-13.559
809.35	-7.692
809.65	10.938
809.95	-51.351
810.26	-29.545
810.56	-1.370
810.86	-28.571
811.17	-10.000
811.47	16.327
811.77	-31.579
812.08	2.273
812.38	7.547
812.69	-25.000
812.99	12.121
813.29	-18.421
813.59	-42.857
813.90	-2.273
814.20	-46.154
814.50	-9.615
814.81	1.887
815.11	8.511
815.41	22.034
815.72	-9.524
816.02	13.725
816.32	16.667
816.62	2.439
816.93	-10.811
817.23	-25.714
817.53	12.500
817.84	4.348
818.14	7.692
818.44	-18.421
818.74	13.043
819.04	-27.500
819.35	-2.703
819.65	-8.824
819.95	5.556
820.25	-9.524
820.56	17.500
820.86	-75.862
821.16	-2.500
821.46	4.255
821.76	2.500
822.07	13.953
822.37	-32.432
822.67	18.750
822.97	21.429
823.27	-32.143
823.57	-12.000
823.88	-40.741
824.18	-3.571
824.48	-2.941
824.78	-9.677
825.08	8.696
825.38	-24.242
825.69	-45.833
825.99	-18.421
826.29	-13.889
826.59	-46.667
826.89	-52.381
827.19	2.174
827.49	-7.500
827.79	34.286
828.09	10.714
828.39	18.182
828.70	16.216
829.00	-21.429
829.30	-66.667
829.60	-3.333
829.90	6.250
830.20	0.000
830.50	-22.222
830.80	-13.043
831.10	0.000
831.40	-12.121
831.70	29.032
832.00	19.048
832.30	4.762
832.60	33.333
832.90	-13.793
833.20	-65.000
833.50	21.212
833.80	-29.630
834.10	-19.231
834.40	15.625
834.70	-166.667
835.00	-73.684
835.30	34.615
835.60	-46.667
835.90	-9.677
836.20	13.636
836.50	10.714
836.80	-53.846
837.10	-21.429
837.40	-33.333
837.70	-54.545
838.00	-136.364
838.30	-17.391
838.60	-123.077
838.90	-36.364
839.19	-28.571
839.49	6.667
839.79	-53.846
840.09	-58.333
840.39	14.286
840.69	-7.143
840.99	-38.462
841.29	-78.947
841.59	-100.000
841.88	18.182
842.18	-30.000
842.48	-56.250
842.78	-6.667
843.08	-85.185
843.38	-130.000
843.68	21.739
843.97	-40.000
844.27	-53.333
844.57	-20.000
844.87	5.556
845.17	-23.810
845.47	-73.333
845.76	-4.762
846.06	-17.647
846.36	-30.000
846.66	-42.857
846.96	-40.000
847.25	-137.500
847.55	28.571
847.85	12.500
848.15	-31.818
848.44	-733.333
848.74	-25.000
849.04	14.815
849.34	-81.818
849.63	-83.333
849.93	-360.000
850.23	-50.000
850.53	20.000
850.82	-23.077
851.12	11.111
851.42	6.667
851.71	30.769
852.01	-35.714
852.31	-325.000
852.61	-90.909
852.90	0.000
853.20	-36.842
853.50	-125.000
853.79	-17.391
854.09	-16.667
854.39	-15.789
854.68	-29.167
854.98	45.161
855.28	23.077
855.57	-15.000
855.87	-22.222
856.17	48.148
856.46	28.571
856.76	-66.667
857.05	-88.889
857.35	-20.000
857.65	-50.000
857.94	-15.385
858.24	10.345
858.53	44.444
858.83	22.222
859.13	18.182
859.42	-30.435
859.72	-150.000
860.01	-300.000
860.31	32.000
860.60	9.524
860.90	-100.000
861.20	-46.667
861.49	-300.000
861.79	-26.667
862.08	20.000
862.38	13.333
862.67	-340.000
862.97	-33.333
863.26	-83.333
863.56	16.667
863.85	-666.667
864.15	22.222
864.44	-50.000
864.74	-14.286
865.03	325.000
865.33	-280.000
865.62	66.667
865.92	-41.667
866.21	-66.667
866.51	-25.000
866.80	-36.364
867.10	-200.000
867.39	41.667
867.69	0.000
867.98	-23.077
868.27	-300.000
868.57	-26.667
868.86	0.000
869.16	-23.077
869.45	-40.000
869.75	-2100.000
870.04	0.000
870.33	-142.857
870.63	-4.762
870.92	433.333
871.22	-280.000
871.51	-700.000
871.80	11.111
872.10	400.000
>>>>>End Processed Spectral Data<<<<<
