SpectraSuite Data File
++++++++++++++++++++++++++++++++++++
Date: Fri May 15 20:45:23 PDT 2015
User: schluterlab
Dark Spectrum Present: Yes
Reference Spectrum Present: Yes
Number of Sampled Component Spectra: 1
Spectrometers: USB2E3373
Integration Time (usec): 3000 (USB2E3373)
Spectra Averaged: 3 (USB2E3373)
Boxcar Smoothing: 0 (USB2E3373)
Correct for Electrical Dark: No (USB2E3373)
Strobe/Lamp Enabled: No (USB2E3373)
Correct for Detector Non-linearity: No (USB2E3373)
Correct for Stray Light: No (USB2E3373)
Number of Pixels in Processed Spectrum: 2048
>>>>>Begin Processed Spectral Data<<<<<
178.53	0.000
178.91	0.000
179.29	-25.000
179.67	-750.000
180.04	85.714
180.42	-25.000
180.80	-600.000
181.18	300.000
181.56	800.000
181.94	-300.000
182.31	500.000
182.69	20.000
183.07	-133.333
183.45	0.000
183.83	183.333
184.20	-18.182
184.58	122.222
184.96	25.000
185.34	-0.000
185.72	-350.000
186.09	38.462
186.47	-700.000
186.85	283.333
187.23	122.222
187.61	-0.000
187.98	-300.000
188.36	-33.333
188.74	-400.000
189.12	-23.529
189.49	27.778
189.87	0.000
190.25	78.571
190.63	-100.000
191.00	-366.667
191.38	-15.789
191.76	-50.000
192.14	200.000
192.51	-50.000
192.89	0.000
193.27	-157.143
193.65	233.333
194.02	163.636
194.40	20.000
194.78	-112.500
195.15	-41.667
195.53	-150.000
195.91	425.000
196.29	-200.000
196.66	53.846
197.04	85.714
197.42	-66.667
197.79	-533.333
198.17	-53.846
198.55	1400.000
198.92	-466.667
199.30	-700.000
199.68	-260.000
200.05	-233.333
200.43	0.000
200.81	0.000
201.18	-233.333
201.56	1300.000
201.94	200.000
202.31	66.667
202.69	-120.000
203.07	175.000
203.44	-400.000
203.82	0.000
204.19	57.143
204.57	-233.333
204.95	200.000
205.32	80.000
205.70	0.000
206.08	-325.000
206.45	155.556
206.83	78.571
207.20	-171.429
207.58	400.000
207.96	-400.000
208.33	-110.000
208.71	-250.000
209.08	-216.667
209.46	-1400.000
209.84	-200.000
210.21	-1500.000
210.59	85.714
210.96	-50.000
211.34	-300.000
211.71	73.333
212.09	-114.286
212.46	-2200.000
212.84	0.000
213.22	10.000
213.59	350.000
213.97	23.077
214.34	-45.455
214.72	-116.667
215.09	275.000
215.47	-100.000
215.84	-54.545
216.22	-133.333
216.59	37.500
216.97	-100.000
217.34	125.000
217.72	-80.000
218.09	87.500
218.47	112.500
218.84	-700.000
219.22	-66.667
219.59	-140.000
219.97	300.000
220.34	225.000
220.72	100.000
221.09	-375.000
221.47	150.000
221.84	-900.000
222.22	-450.000
222.59	-36.364
222.97	-33.333
223.34	-133.333
223.72	-35.714
224.09	-19.048
224.46	21.429
224.84	100.000
225.21	30.000
225.59	-6.667
225.96	-150.000
226.34	325.000
226.71	-42.857
227.08	-183.333
227.46	25.000
227.83	-750.000
228.21	44.444
228.58	0.000
228.95	-12.500
229.33	160.000
229.70	-50.000
230.08	-75.000
230.45	-128.571
230.82	0.000
231.20	-66.667
231.57	42.857
231.95	28.571
232.32	-70.000
232.69	42.857
233.07	133.333
233.44	-80.000
233.81	-30.000
234.19	-66.667
234.56	-29.412
234.93	100.000
235.31	150.000
235.68	-360.000
236.05	-92.308
236.43	-25.000
236.80	-5.882
237.17	-18.750
237.55	-15.000
237.92	-7.407
238.29	2.778
238.67	20.000
239.04	29.412
239.41	26.829
239.79	-26.667
240.16	19.512
240.53	23.684
240.91	4.348
241.28	25.397
241.65	23.214
242.02	23.288
242.40	13.333
242.77	20.339
243.14	30.303
243.51	20.000
243.89	29.885
244.26	17.241
244.63	27.381
245.00	23.711
245.38	29.897
245.75	19.101
246.12	23.276
246.49	27.273
246.87	23.077
247.24	22.689
247.61	25.439
247.98	15.447
248.36	18.750
248.73	16.447
249.10	21.429
249.47	24.051
249.84	26.797
250.22	24.706
250.59	22.222
250.96	26.761
251.33	23.837
251.70	29.412
252.08	24.365
252.45	24.257
252.82	29.648
253.19	24.885
253.56	21.495
253.94	24.775
254.31	25.652
254.68	26.754
255.05	23.622
255.42	18.777
255.79	24.710
256.16	27.237
256.54	26.119
256.91	24.335
257.28	23.420
257.65	21.723
258.02	21.986
258.39	24.242
258.76	27.106
259.14	25.581
259.51	29.126
259.88	26.804
260.25	24.837
260.62	29.514
260.99	21.356
261.36	25.000
261.73	24.367
262.10	23.708
262.47	26.687
262.85	23.511
263.22	26.462
263.59	27.414
263.96	25.776
264.33	23.030
264.70	26.488
265.07	23.810
265.44	24.929
265.81	27.966
266.18	28.142
266.55	25.450
266.92	29.534
267.29	27.154
267.66	26.343
268.03	28.534
268.40	22.193
268.77	25.668
269.14	25.659
269.51	25.193
269.88	25.436
270.25	22.959
270.62	24.634
270.99	24.808
271.36	23.472
271.73	24.648
272.10	27.494
272.47	24.586
272.84	25.495
273.21	25.754
273.58	25.783
273.95	25.858
274.32	23.557
274.69	23.303
275.06	26.786
275.43	27.438
275.80	25.607
276.17	25.287
276.54	25.268
276.91	24.123
277.28	24.454
277.65	23.967
278.02	22.766
278.39	26.258
278.76	24.738
279.13	22.822
279.50	24.160
279.87	25.702
280.23	22.581
280.60	23.197
280.97	24.646
281.34	25.000
281.71	24.025
282.08	23.313
282.45	23.875
282.82	22.973
283.19	25.532
283.56	24.855
283.92	23.340
284.29	20.000
284.66	24.806
285.03	22.986
285.40	23.251
285.77	22.847
286.14	24.729
286.51	23.247
286.87	21.389
287.24	24.125
287.61	22.222
287.98	24.912
288.35	21.144
288.72	24.694
289.08	20.660
289.45	23.726
289.82	23.951
290.19	19.966
290.56	22.813
290.93	22.727
291.29	18.952
291.66	21.417
292.03	20.893
292.40	20.484
292.77	22.488
293.13	19.805
293.50	19.879
293.87	21.221
294.24	18.238
294.60	20.864
294.97	20.238
295.34	19.785
295.71	18.629
296.08	18.685
296.44	17.781
296.81	17.917
297.18	21.159
297.55	18.699
297.91	18.219
298.28	20.976
298.65	19.674
299.02	18.733
299.38	15.321
299.75	17.931
300.12	16.623
300.48	19.499
300.85	17.617
301.22	16.234
301.59	17.368
301.95	19.747
302.32	18.418
302.69	18.408
303.05	16.460
303.42	17.933
303.79	18.458
304.15	17.443
304.52	17.598
304.89	17.310
305.25	16.586
305.62	17.503
305.99	14.854
306.35	16.994
306.72	17.998
307.09	16.078
307.45	17.222
307.82	16.435
308.19	17.654
308.55	19.193
308.92	18.410
309.29	17.095
309.65	16.469
310.02	16.942
310.38	16.795
310.75	18.470
311.12	17.653
311.48	16.331
311.85	16.649
312.22	17.405
312.58	16.136
312.95	16.115
313.31	17.288
313.68	17.277
314.05	17.245
314.41	17.526
314.78	18.866
315.14	18.705
315.51	16.874
315.87	17.828
316.24	18.605
316.61	18.110
316.97	18.452
317.34	19.238
317.70	20.554
318.07	17.404
318.43	20.000
318.80	18.655
319.16	20.117
319.53	19.848
319.89	20.571
320.26	19.737
320.62	21.364
320.99	19.937
321.35	19.322
321.72	20.249
322.08	21.450
322.45	20.406
322.81	21.218
323.18	21.394
323.54	20.656
323.91	20.351
324.27	21.094
324.64	22.472
325.00	21.533
325.37	22.681
325.73	21.124
326.10	21.708
326.46	22.780
326.83	22.747
327.19	23.540
327.56	22.589
327.92	24.560
328.29	22.054
328.65	23.679
329.01	23.713
329.38	23.687
329.74	25.496
330.11	24.560
330.47	24.212
330.84	24.712
331.20	25.760
331.56	22.685
331.93	25.479
332.29	25.848
332.66	25.701
333.02	25.465
333.38	24.840
333.75	26.557
334.11	25.425
334.48	26.383
334.84	26.190
335.20	24.428
335.57	23.391
335.93	26.197
336.29	27.072
336.66	26.158
337.02	25.836
337.38	24.815
337.75	25.818
338.11	26.420
338.47	27.007
338.84	25.508
339.20	26.325
339.56	25.138
339.93	26.231
340.29	27.064
340.65	26.434
341.02	25.355
341.38	26.814
341.74	25.442
342.11	24.523
342.47	26.068
342.83	27.336
343.20	25.610
343.56	25.913
343.92	26.484
344.28	26.900
344.65	25.820
345.01	24.373
345.37	25.652
345.73	26.611
346.10	25.971
346.46	25.315
346.82	26.105
347.19	24.106
347.55	26.065
347.91	26.133
348.27	26.031
348.63	26.661
349.00	26.661
349.36	27.016
349.72	25.539
350.08	25.902
350.45	25.698
350.81	25.249
351.17	25.489
351.53	26.041
351.89	25.351
352.26	26.000
352.62	25.726
352.98	24.578
353.34	24.718
353.70	25.890
354.07	25.968
354.43	26.501
354.79	26.672
355.15	27.937
355.51	26.820
355.87	25.000
356.24	24.878
356.60	24.656
356.96	25.635
357.32	26.358
357.68	25.958
358.04	24.233
358.40	26.527
358.77	26.475
359.13	25.140
359.49	25.578
359.85	26.365
360.21	25.518
360.57	26.014
360.93	26.248
361.29	25.680
361.66	25.784
362.02	26.818
362.38	26.047
362.74	27.025
363.10	26.862
363.46	26.835
363.82	27.573
364.18	25.756
364.54	26.029
364.90	26.953
365.26	25.983
365.62	27.372
365.98	27.273
366.35	27.604
366.71	26.534
367.07	26.851
367.43	25.737
367.79	26.572
368.15	26.777
368.51	26.366
368.87	25.700
369.23	26.498
369.59	27.551
369.95	27.273
370.31	27.168
370.67	26.716
371.03	27.259
371.39	27.206
371.75	26.740
372.11	27.461
372.47	27.071
372.83	26.686
373.19	26.961
373.55	27.365
373.91	26.782
374.27	27.498
374.63	28.141
374.99	26.099
375.35	26.671
375.71	27.692
376.07	26.826
376.42	28.844
376.78	27.651
377.14	27.759
377.50	28.552
377.86	28.514
378.22	27.760
378.58	28.013
378.94	27.599
379.30	27.386
379.66	28.464
380.02	27.468
380.38	27.389
380.74	27.708
381.09	27.975
381.45	27.645
381.81	28.809
382.17	28.299
382.53	28.732
382.89	28.123
383.25	28.438
383.61	29.268
383.97	28.317
384.32	28.643
384.68	28.793
385.04	28.431
385.40	28.251
385.76	30.126
386.12	28.913
386.48	29.566
386.83	28.789
387.19	29.304
387.55	29.799
387.91	29.890
388.27	28.144
388.62	29.515
388.98	29.220
389.34	28.607
389.70	30.205
390.06	28.697
390.42	29.404
390.77	30.085
391.13	28.878
391.49	28.913
391.85	30.149
392.20	28.751
392.56	30.070
392.92	30.182
393.28	29.953
393.64	30.030
393.99	30.533
394.35	29.285
394.71	29.438
395.07	29.038
395.42	29.690
395.78	29.316
396.14	29.382
396.50	30.184
396.85	30.071
397.21	29.511
397.57	29.467
397.92	28.999
398.28	29.368
398.64	29.639
399.00	30.361
399.35	28.781
399.71	29.408
400.07	30.169
400.42	29.743
400.78	30.312
401.14	29.522
401.49	30.554
401.85	29.311
402.21	29.819
402.57	29.750
402.92	29.987
403.28	30.138
403.63	31.021
403.99	30.102
404.35	30.169
404.70	29.107
405.06	30.024
405.42	30.267
405.77	29.053
406.13	29.511
406.49	29.959
406.84	29.584
407.20	30.163
407.55	29.813
407.91	29.479
408.27	30.083
408.62	30.277
408.98	29.452
409.34	30.173
409.69	29.974
410.05	29.495
410.40	28.704
410.76	30.458
411.11	31.000
411.47	29.717
411.83	29.504
412.18	30.180
412.54	29.838
412.89	28.695
413.25	30.445
413.60	30.683
413.96	30.368
414.31	30.061
414.67	29.442
415.03	28.961
415.38	30.352
415.74	30.293
416.09	30.764
416.45	29.507
416.80	30.932
417.16	30.594
417.51	31.845
417.87	29.791
418.22	30.440
418.58	31.304
418.93	30.909
419.29	29.513
419.64	29.877
420.00	30.353
420.35	29.731
420.71	30.437
421.06	30.510
421.42	31.010
421.77	30.405
422.12	30.988
422.48	29.399
422.83	30.162
423.19	30.982
423.54	29.688
423.90	29.800
424.25	30.482
424.61	30.477
424.96	29.733
425.31	31.774
425.67	30.575
426.02	30.271
426.38	31.246
426.73	32.143
427.09	32.215
427.44	30.882
427.79	32.115
428.15	31.857
428.50	30.951
428.85	31.511
429.21	31.013
429.56	31.752
429.92	32.563
430.27	31.429
430.62	31.260
430.98	31.794
431.33	31.493
431.68	31.397
432.04	32.700
432.39	30.462
432.74	31.389
433.10	32.471
433.45	30.944
433.80	31.979
434.16	32.188
434.51	32.634
434.86	32.346
435.22	32.642
435.57	32.002
435.92	32.814
436.28	32.439
436.63	33.257
436.98	32.735
437.34	32.728
437.69	33.393
438.04	32.593
438.39	32.987
438.75	33.090
439.10	31.805
439.45	33.841
439.81	33.761
440.16	35.036
440.51	34.806
440.86	35.770
441.22	33.880
441.57	34.161
441.92	34.785
442.27	34.756
442.63	35.225
442.98	36.071
443.33	35.225
443.68	34.324
444.03	34.923
444.39	34.678
444.74	36.566
445.09	36.470
445.44	35.726
445.79	36.565
446.15	35.463
446.50	35.885
446.85	35.707
447.20	35.193
447.55	35.938
447.91	36.153
448.26	36.710
448.61	37.191
448.96	37.636
449.31	36.416
449.66	36.411
450.02	36.908
450.37	38.293
450.72	36.312
451.07	37.532
451.42	37.578
451.77	37.071
452.12	36.603
452.47	37.218
452.83	37.161
453.18	37.255
453.53	38.369
453.88	37.158
454.23	37.062
454.58	38.728
454.93	38.402
455.28	37.206
455.63	37.384
455.98	37.883
456.34	38.250
456.69	38.437
457.04	39.382
457.39	37.728
457.74	37.062
458.09	37.081
458.44	37.507
458.79	37.479
459.14	37.815
459.49	38.269
459.84	37.958
460.19	37.561
460.54	39.181
460.89	38.352
461.24	38.944
461.59	37.292
461.94	37.862
462.29	39.928
462.64	39.668
462.99	38.118
463.34	38.665
463.69	37.387
464.04	38.499
464.39	38.933
464.74	38.344
465.09	37.867
465.44	39.296
465.79	37.755
466.14	38.712
466.49	38.815
466.84	39.143
467.19	40.050
467.54	38.697
467.89	39.356
468.24	39.659
468.59	39.873
468.94	38.730
469.29	40.197
469.64	39.781
469.99	40.505
470.34	38.703
470.68	40.865
471.03	39.703
471.38	40.157
471.73	40.686
472.08	40.570
472.43	40.470
472.78	39.411
473.13	41.224
473.48	40.521
473.83	39.788
474.17	40.933
474.52	40.077
474.87	39.818
475.22	39.170
475.57	39.921
475.92	40.044
476.27	41.385
476.61	40.856
476.96	39.487
477.31	41.482
477.66	39.719
478.01	39.697
478.36	39.924
478.70	41.055
479.05	41.374
479.40	40.911
479.75	40.042
480.10	40.758
480.45	40.200
480.79	41.591
481.14	41.445
481.49	39.803
481.84	41.651
482.19	39.336
482.53	40.384
482.88	40.955
483.23	40.787
483.58	40.472
483.92	39.642
484.27	40.383
484.62	39.310
484.97	39.552
485.31	37.897
485.66	37.534
486.01	36.378
486.36	36.572
486.70	37.333
487.05	38.017
487.40	38.082
487.75	38.704
488.09	38.813
488.44	38.755
488.79	40.269
489.13	40.705
489.48	39.761
489.83	40.628
490.17	39.101
490.52	40.462
490.87	39.611
491.22	41.213
491.56	41.082
491.91	40.440
492.26	41.079
492.60	41.123
492.95	41.663
493.30	40.352
493.64	40.668
493.99	41.498
494.34	40.922
494.68	40.619
495.03	39.951
495.37	40.775
495.72	41.393
496.07	41.171
496.41	40.991
496.76	40.396
497.11	40.615
497.45	41.814
497.80	42.281
498.14	41.530
498.49	40.884
498.84	41.866
499.18	42.520
499.53	42.212
499.87	40.953
500.22	42.483
500.56	42.108
500.91	42.219
501.26	40.979
501.60	41.564
501.95	41.533
502.29	42.082
502.64	41.071
502.98	42.181
503.33	41.306
503.67	41.301
504.02	42.033
504.36	42.801
504.71	42.626
505.06	41.922
505.40	42.487
505.75	43.247
506.09	41.967
506.44	43.172
506.78	43.214
507.13	44.157
507.47	42.663
507.82	44.071
508.16	43.106
508.51	44.019
508.85	44.270
509.19	43.853
509.54	44.182
509.88	43.366
510.23	44.217
510.57	45.056
510.92	42.537
511.26	45.608
511.61	46.095
511.95	44.767
512.30	46.009
512.64	45.632
512.98	45.649
513.33	45.775
513.67	45.708
514.02	48.799
514.36	47.314
514.70	45.979
515.05	47.591
515.39	47.462
515.74	47.665
516.08	48.117
516.42	47.821
516.77	47.455
517.11	49.139
517.46	47.576
517.80	48.451
518.14	47.949
518.49	47.476
518.83	48.785
519.17	48.150
519.52	47.543
519.86	46.939
520.20	49.028
520.55	49.531
520.89	50.063
521.23	49.462
521.58	49.464
521.92	51.538
522.26	49.057
522.61	49.935
522.95	50.795
523.29	50.127
523.64	49.492
523.98	49.773
524.32	48.776
524.66	49.552
525.01	49.416
525.35	50.421
525.69	50.909
526.04	50.265
526.38	52.594
526.72	49.313
527.06	50.259
527.41	51.121
527.75	51.139
528.09	50.897
528.43	53.207
528.78	50.165
529.12	51.806
529.46	51.527
529.80	49.715
530.15	52.805
530.49	50.909
530.83	51.642
531.17	50.705
531.51	51.847
531.86	50.170
532.20	51.079
532.54	51.396
532.88	52.019
533.22	49.933
533.57	50.852
533.91	50.522
534.25	50.130
534.59	50.096
534.93	50.031
535.27	49.683
535.62	49.644
535.96	49.706
536.30	50.330
536.64	51.275
536.98	49.756
537.32	52.418
537.66	52.034
538.01	52.098
538.35	50.347
538.69	49.800
539.03	50.513
539.37	51.144
539.71	50.170
540.05	50.781
540.39	51.247
540.73	50.767
541.07	52.003
541.42	49.798
541.76	51.273
542.10	52.306
542.44	51.008
542.78	48.245
543.12	50.481
543.46	51.739
543.80	51.076
544.14	48.598
544.48	49.034
544.82	51.265
545.16	51.298
545.50	49.800
545.84	50.992
546.18	50.709
546.52	51.406
546.86	50.899
547.20	51.431
547.54	50.106
547.88	49.796
548.22	47.732
548.56	48.417
548.90	51.078
549.24	48.898
549.58	48.872
549.92	49.750
550.26	51.575
550.60	52.193
550.94	52.577
551.28	51.932
551.62	51.462
551.96	50.451
552.30	51.023
552.64	50.212
552.98	50.914
553.32	50.428
553.66	49.710
554.00	50.730
554.34	52.290
554.68	50.737
555.02	50.818
555.36	50.486
555.69	50.476
556.03	49.822
556.37	50.890
556.71	50.903
557.05	52.498
557.39	50.260
557.73	52.324
558.07	51.810
558.41	50.842
558.75	50.818
559.08	50.670
559.42	52.143
559.76	50.921
560.10	50.153
560.44	50.335
560.78	49.790
561.12	50.423
561.45	51.581
561.79	50.420
562.13	51.029
562.47	50.360
562.81	51.153
563.15	50.282
563.48	50.636
563.82	50.721
564.16	50.209
564.50	48.851
564.84	48.996
565.17	50.101
565.51	51.639
565.85	49.726
566.19	49.536
566.52	49.933
566.86	50.514
567.20	48.630
567.54	48.236
567.88	49.561
568.21	48.360
568.55	46.902
568.89	46.920
569.23	47.039
569.56	45.841
569.90	45.189
570.24	43.990
570.57	43.527
570.91	43.709
571.25	42.683
571.59	42.510
571.92	41.304
572.26	42.089
572.60	42.326
572.93	42.924
573.27	42.194
573.61	41.348
573.95	41.671
574.28	40.731
574.62	41.546
574.96	40.339
575.29	40.737
575.63	40.062
575.97	40.553
576.30	41.355
576.64	40.026
576.98	41.313
577.31	41.239
577.65	40.734
577.98	40.723
578.32	38.811
578.66	39.201
578.99	40.009
579.33	40.470
579.67	40.298
580.00	40.709
580.34	41.095
580.67	40.504
581.01	41.162
581.35	39.987
581.68	39.559
582.02	39.567
582.35	39.369
582.69	39.949
583.02	39.863
583.36	40.856
583.70	41.485
584.03	42.118
584.37	41.615
584.70	41.236
585.04	40.751
585.37	40.762
585.71	39.694
586.04	40.267
586.38	40.437
586.72	41.263
587.05	41.912
587.39	41.403
587.72	41.498
588.06	41.185
588.39	41.612
588.73	41.361
589.06	42.759
589.40	42.689
589.73	43.081
590.07	43.127
590.40	43.305
590.73	44.193
591.07	44.529
591.40	44.256
591.74	42.986
592.07	44.666
592.41	44.346
592.74	43.290
593.08	41.076
593.41	41.911
593.75	41.053
594.08	40.817
594.41	41.812
594.75	42.519
595.08	43.208
595.42	42.032
595.75	42.884
596.09	42.768
596.42	43.448
596.75	44.139
597.09	43.872
597.42	43.812
597.75	44.114
598.09	43.775
598.42	43.231
598.76	42.814
599.09	41.907
599.42	41.910
599.76	41.309
600.09	41.516
600.42	41.850
600.76	41.716
601.09	42.519
601.42	42.029
601.76	42.596
602.09	42.120
602.42	44.103
602.76	42.487
603.09	43.605
603.42	43.938
603.76	41.653
604.09	42.527
604.42	43.528
604.76	44.815
605.09	43.053
605.42	43.205
605.75	43.520
606.09	42.378
606.42	42.410
606.75	43.030
607.09	43.209
607.42	43.731
607.75	42.052
608.08	42.543
608.42	42.531
608.75	43.759
609.08	43.548
609.41	43.706
609.75	44.405
610.08	44.483
610.41	43.382
610.74	43.540
611.07	44.651
611.41	44.577
611.74	44.883
612.07	43.897
612.40	44.748
612.73	45.763
613.07	44.601
613.40	44.311
613.73	44.152
614.06	44.185
614.39	45.516
614.72	44.314
615.06	43.911
615.39	44.214
615.72	42.842
616.05	44.469
616.38	44.274
616.71	44.832
617.05	45.151
617.38	45.443
617.71	47.296
618.04	47.492
618.37	47.037
618.70	46.469
619.03	47.222
619.36	47.250
619.69	49.583
620.03	48.064
620.36	47.282
620.69	48.037
621.02	48.012
621.35	50.539
621.68	50.255
622.01	49.917
622.34	49.162
622.67	48.502
623.00	48.545
623.33	49.162
623.66	46.298
623.99	48.865
624.32	47.224
624.65	46.391
624.99	47.329
625.32	48.143
625.65	49.097
625.98	49.637
626.31	49.543
626.64	50.693
626.97	51.920
627.30	49.475
627.63	48.787
627.96	50.674
628.29	50.786
628.62	52.704
628.95	53.407
629.28	53.024
629.61	51.047
629.94	52.199
630.26	51.186
630.59	54.214
630.92	53.231
631.25	50.769
631.58	53.084
631.91	53.070
632.24	54.128
632.57	53.295
632.90	56.702
633.23	54.118
633.56	54.408
633.89	56.967
634.22	57.778
634.55	57.052
634.88	55.172
635.20	53.974
635.53	58.400
635.86	54.226
636.19	55.239
636.52	54.719
636.85	53.970
637.18	54.717
637.51	55.094
637.83	56.505
638.16	59.345
638.49	55.858
638.82	57.237
639.15	56.445
639.48	56.809
639.81	56.346
640.13	56.566
640.46	60.496
640.79	57.143
641.12	56.278
641.45	57.207
641.77	58.370
642.10	61.769
642.43	57.395
642.76	60.066
643.09	59.612
643.41	58.252
643.74	58.484
644.07	59.442
644.40	62.162
644.73	60.595
645.05	59.228
645.38	61.023
645.71	60.638
646.04	63.914
646.36	62.589
646.69	61.691
647.02	63.516
647.35	60.075
647.67	62.888
648.00	63.619
648.33	59.215
648.66	58.475
648.98	56.114
649.31	56.860
649.64	55.259
649.96	58.833
650.29	56.559
650.62	58.803
650.94	61.667
651.27	61.453
651.60	58.378
651.92	56.643
652.25	57.016
652.58	54.833
652.90	57.461
653.23	56.975
653.56	56.345
653.88	57.388
654.21	58.319
654.54	55.178
654.86	58.234
655.19	54.240
655.52	47.755
655.84	37.429
656.17	39.922
656.49	52.541
656.82	54.037
657.15	41.697
657.47	31.973
657.80	23.960
658.13	23.986
658.45	37.696
658.78	37.924
659.10	37.598
659.43	39.096
659.75	40.898
660.08	42.552
660.41	47.600
660.73	52.486
661.06	55.633
661.38	59.491
661.71	57.290
662.03	64.592
662.36	63.956
662.68	62.832
663.01	63.319
663.33	63.109
663.66	61.860
663.98	63.721
664.31	59.701
664.63	61.521
664.96	58.696
665.28	57.395
665.61	61.039
665.93	60.217
666.26	62.039
666.58	57.718
666.91	61.176
667.23	60.377
667.56	66.351
667.88	61.871
668.21	64.200
668.53	61.939
668.86	64.623
669.18	62.972
669.50	63.196
669.83	61.860
670.15	59.441
670.48	63.397
670.80	61.982
671.13	58.837
671.45	60.959
671.77	64.163
672.10	57.822
672.42	55.056
672.75	55.240
673.07	57.245
673.39	55.963
673.72	55.030
674.04	55.833
674.37	58.051
674.69	59.101
675.01	60.889
675.34	61.261
675.66	60.648
675.98	59.867
676.31	58.486
676.63	61.045
676.95	61.364
677.28	63.294
677.60	63.133
677.92	58.716
678.25	59.519
678.57	59.740
678.89	58.193
679.22	57.271
679.54	55.221
679.86	55.467
680.18	55.340
680.51	54.356
680.83	55.666
681.15	54.000
681.48	57.172
681.80	56.612
682.12	55.847
682.44	55.858
682.77	60.486
683.09	62.700
683.41	55.682
683.73	56.452
684.06	57.301
684.38	54.409
684.70	62.092
685.02	58.299
685.34	51.186
685.67	52.345
685.99	54.250
686.31	53.628
686.63	52.134
686.96	52.091
687.28	52.121
687.60	54.183
687.92	56.364
688.24	53.226
688.56	54.148
688.89	56.473
689.21	58.000
689.53	55.452
689.85	58.605
690.17	56.250
690.49	56.501
690.82	58.495
691.14	59.286
691.46	56.308
691.78	54.054
692.10	59.140
692.42	53.680
692.74	55.342
693.06	54.279
693.39	52.262
693.71	54.072
694.03	54.734
694.35	56.075
694.67	57.828
694.99	56.658
695.31	59.791
695.63	58.500
695.95	56.566
696.27	57.772
696.59	58.333
696.91	57.703
697.23	56.812
697.56	56.188
697.88	53.978
698.20	52.164
698.52	57.647
698.84	55.263
699.16	54.750
699.48	57.393
699.80	54.839
700.12	55.795
700.44	59.384
700.76	58.140
701.08	56.970
701.40	62.048
701.72	59.877
702.04	65.017
702.36	63.880
702.68	61.261
703.00	60.000
703.32	57.478
703.64	53.672
703.96	58.261
704.28	61.656
704.60	58.095
704.91	58.675
705.23	57.143
705.55	61.837
705.87	58.845
706.19	60.741
706.51	61.168
706.83	58.842
707.15	53.583
707.47	55.182
707.79	54.167
708.11	54.000
708.43	52.000
708.74	53.230
709.06	59.155
709.38	56.881
709.70	58.580
710.02	58.917
710.34	59.752
710.66	51.282
710.98	60.596
711.29	58.361
711.61	57.966
711.93	56.352
712.25	62.887
712.57	58.242
712.89	61.567
713.20	57.785
713.52	60.627
713.84	60.751
714.16	60.137
714.48	54.839
714.80	57.372
715.11	58.663
715.43	48.589
715.75	51.000
716.07	51.163
716.39	57.718
716.70	60.517
717.02	55.725
717.34	57.895
717.66	60.619
717.97	60.870
718.29	61.088
718.61	59.843
718.93	63.566
719.24	59.696
719.56	57.430
719.88	53.265
720.20	58.712
720.51	54.789
720.83	58.687
721.15	63.025
721.46	54.032
721.78	56.126
722.10	52.416
722.42	55.602
722.73	56.735
723.05	64.490
723.37	62.288
723.68	67.568
724.00	60.256
724.32	60.889
724.63	56.364
724.95	60.262
725.27	59.447
725.58	59.322
725.90	53.968
726.22	53.668
726.53	51.525
726.85	51.685
727.16	59.245
727.48	51.417
727.80	56.680
728.11	54.661
728.43	55.686
728.74	50.806
729.06	57.600
729.38	56.015
729.69	49.801
730.01	54.615
730.32	52.985
730.64	50.177
730.96	54.717
731.27	50.667
731.59	50.847
731.90	47.134
732.22	54.890
732.53	48.505
732.85	48.936
733.16	55.219
733.48	48.561
733.80	49.638
734.11	47.797
734.43	50.515
734.74	50.000
735.06	49.511
735.37	47.130
735.69	50.842
736.00	49.826
736.32	45.973
736.63	55.282
736.95	51.536
737.26	47.687
737.58	46.644
737.89	52.015
738.21	53.759
738.52	60.905
738.83	55.459
739.15	51.092
739.46	55.512
739.78	50.183
740.09	47.712
740.41	47.464
740.72	52.362
741.04	54.656
741.35	53.191
741.66	53.555
741.98	51.531
742.29	59.901
742.61	57.068
742.92	51.659
743.23	50.463
743.55	56.109
743.86	59.330
744.18	54.067
744.49	54.787
744.80	60.326
745.12	59.358
745.43	52.195
745.74	60.417
746.06	56.585
746.37	59.686
746.68	50.711
747.00	58.511
747.31	60.697
747.62	54.854
747.94	60.766
748.25	56.436
748.56	62.842
748.88	53.927
749.19	60.638
749.50	60.591
749.82	49.528
750.13	51.835
750.44	53.383
750.75	48.881
751.07	51.825
751.38	52.107
751.69	51.373
752.01	49.225
752.32	47.410
752.63	47.036
752.94	53.879
753.26	63.180
753.57	50.226
753.88	57.522
754.19	46.250
754.51	54.132
754.82	52.227
755.13	50.417
755.44	48.387
755.75	50.391
756.07	48.249
756.38	52.075
756.69	46.743
757.00	48.000
757.31	51.307
757.63	43.902
757.94	43.611
758.25	42.740
758.56	44.947
758.87	40.227
759.18	45.483
759.50	46.545
759.81	46.488
760.12	48.065
760.43	43.636
760.74	46.605
761.05	41.231
761.36	45.170
761.67	47.273
761.99	46.939
762.30	44.000
762.61	48.617
762.92	50.679
763.23	48.198
763.54	45.794
763.85	49.576
764.16	46.058
764.47	47.984
764.78	45.055
765.10	45.118
765.41	46.372
765.72	43.810
766.03	43.609
766.34	41.241
766.65	49.801
766.96	52.525
767.27	48.936
767.58	51.149
767.89	52.482
768.20	55.114
768.51	48.901
768.82	40.394
769.13	48.848
769.44	48.498
769.75	47.032
770.06	44.828
770.37	49.519
770.68	46.193
770.99	48.416
771.30	53.431
771.61	44.344
771.92	52.586
772.23	50.739
772.54	51.613
772.85	50.617
773.16	46.067
773.47	58.170
773.78	55.556
774.09	47.904
774.39	50.667
774.70	56.051
775.01	57.241
775.32	51.429
775.63	60.331
775.94	49.618
776.25	54.331
776.56	51.667
776.87	53.846
777.18	52.991
777.48	56.897
777.79	53.043
778.10	48.571
778.41	58.559
778.72	48.413
779.03	51.880
779.34	48.227
779.65	44.521
779.95	46.575
780.26	48.966
780.57	43.089
780.88	53.543
781.19	48.276
781.50	54.264
781.80	43.195
782.11	47.170
782.42	46.154
782.73	51.079
783.04	48.889
783.34	40.972
783.65	38.462
783.96	52.459
784.27	51.034
784.57	57.724
784.88	49.219
785.19	52.000
785.50	55.000
785.81	45.690
786.11	44.828
786.42	50.485
786.73	53.636
787.04	53.061
787.34	53.571
787.65	46.667
787.96	46.903
788.26	52.727
788.57	44.444
788.88	50.781
789.19	41.270
789.49	39.130
789.80	52.041
790.11	52.525
790.41	47.273
790.72	46.739
791.03	47.727
791.33	62.500
791.64	57.500
791.95	44.186
792.25	45.745
792.56	51.685
792.87	54.795
793.17	63.768
793.48	52.000
793.79	47.500
794.09	52.500
794.40	39.623
794.70	50.485
795.01	42.276
795.32	43.590
795.62	35.238
795.93	42.157
796.23	44.340
796.54	50.000
796.85	58.824
797.15	60.563
797.46	66.667
797.76	62.121
798.07	44.186
798.37	43.421
798.68	48.485
798.99	51.852
799.29	55.714
799.60	43.478
799.90	48.000
800.21	49.180
800.51	38.462
800.82	54.237
801.12	42.029
801.43	68.852
801.73	52.381
802.04	50.000
802.34	41.791
802.65	67.308
802.95	46.429
803.26	30.769
803.56	43.137
803.87	50.000
804.17	60.000
804.48	60.317
804.78	50.000
805.09	39.130
805.39	46.667
805.70	51.852
806.00	31.579
806.30	42.254
806.61	47.143
806.91	22.222
807.22	46.053
807.52	48.000
807.83	36.364
808.13	43.056
808.43	60.294
808.74	35.821
809.04	44.068
809.35	40.385
809.65	57.813
809.95	27.027
810.26	52.273
810.56	41.096
810.86	61.905
811.17	36.000
811.47	65.306
811.77	44.737
812.08	52.273
812.38	35.849
812.69	32.500
812.99	12.121
813.29	57.895
813.59	40.000
813.90	72.727
814.20	38.462
814.50	44.231
814.81	52.830
815.11	23.404
815.41	45.763
815.72	61.905
816.02	62.745
816.32	27.083
816.62	34.146
816.93	43.243
817.23	22.857
817.53	50.000
817.84	4.348
818.14	42.308
818.44	23.684
818.74	60.870
819.04	25.000
819.35	64.865
819.65	14.706
819.95	2.778
820.25	33.333
820.56	62.500
820.86	24.138
821.16	70.000
821.46	46.809
821.76	50.000
822.07	30.233
822.37	5.405
822.67	37.500
822.97	57.143
823.27	3.571
823.57	40.000
823.88	62.963
824.18	71.429
824.48	32.353
824.78	45.161
825.08	56.522
825.38	48.485
825.69	4.167
825.99	44.737
826.29	25.000
826.59	73.333
826.89	23.810
827.19	30.435
827.49	35.000
827.79	17.143
828.09	64.286
828.39	48.485
828.70	83.784
829.00	78.571
829.30	-19.048
829.60	16.667
829.90	96.875
830.20	28.947
830.50	0.000
830.80	73.913
831.10	50.000
831.40	48.485
831.70	45.161
832.00	52.381
832.30	61.905
832.60	83.333
832.90	55.172
833.20	5.000
833.50	15.152
833.80	18.519
834.10	3.846
834.40	71.875
834.70	-11.111
835.00	68.421
835.30	53.846
835.60	80.000
835.90	64.516
836.20	63.636
836.50	50.000
836.80	23.077
837.10	25.000
837.40	33.333
837.70	31.818
838.00	90.909
838.30	56.522
838.60	53.846
838.90	45.455
839.19	14.286
839.49	16.667
839.79	76.923
840.09	-8.333
840.39	46.429
840.69	-3.571
840.99	15.385
841.29	0.000
841.59	50.000
841.88	27.273
842.18	0.000
842.48	43.750
842.78	86.667
843.08	11.111
843.38	-10.000
843.68	56.522
843.97	40.000
844.27	6.667
844.57	50.000
844.87	11.111
845.17	38.095
845.47	53.333
845.76	28.571
846.06	47.059
846.36	50.000
846.66	-14.286
846.96	26.667
847.25	-75.000
847.55	121.429
847.85	-37.500
848.15	-13.636
848.44	-66.667
848.74	40.000
849.04	55.556
849.34	-9.091
849.63	-100.000
849.93	-200.000
850.23	38.889
850.53	90.000
850.82	-30.769
851.12	11.111
851.42	33.333
851.71	-7.692
852.01	78.571
852.31	100.000
852.61	63.636
852.90	30.000
853.20	21.053
853.50	66.667
853.79	39.130
854.09	25.000
854.39	36.842
854.68	45.833
854.98	51.613
855.28	65.385
855.57	25.000
855.87	44.444
856.17	25.926
856.46	0.000
856.76	13.333
857.05	11.111
857.35	28.000
857.65	50.000
857.94	0.000
858.24	41.379
858.53	16.667
858.83	33.333
859.13	9.091
859.42	-17.391
859.72	200.000
860.01	-566.667
860.31	0.000
860.60	28.571
860.90	300.000
861.20	-26.667
861.49	-300.000
861.79	-40.000
862.08	5.000
862.38	100.000
862.67	-80.000
862.97	-50.000
863.26	41.667
863.56	27.778
863.85	-500.000
864.15	27.778
864.44	-70.000
864.74	100.000
865.03	275.000
865.33	60.000
865.62	66.667
865.92	8.333
866.21	-83.333
866.51	6.250
866.80	-54.545
867.10	-150.000
867.39	58.333
867.69	0.000
867.98	53.846
868.27	-100.000
868.57	0.000
868.86	0.000
869.16	0.000
869.45	53.333
869.75	-1000.000
870.04	0.000
870.33	-42.857
870.63	4.762
870.92	400.000
871.22	0.000
871.51	700.000
871.80	-33.333
872.10	200.000
>>>>>End Processed Spectral Data<<<<<
