SpectraSuite Data File
++++++++++++++++++++++++++++++++++++
Date: Fri May 15 21:00:49 PDT 2015
User: schluterlab
Dark Spectrum Present: Yes
Reference Spectrum Present: Yes
Number of Sampled Component Spectra: 1
Spectrometers: USB2E3373
Integration Time (usec): 3000 (USB2E3373)
Spectra Averaged: 3 (USB2E3373)
Boxcar Smoothing: 0 (USB2E3373)
Correct for Electrical Dark: No (USB2E3373)
Strobe/Lamp Enabled: No (USB2E3373)
Correct for Detector Non-linearity: No (USB2E3373)
Correct for Stray Light: No (USB2E3373)
Number of Pixels in Processed Spectrum: 2048
>>>>>Begin Processed Spectral Data<<<<<
178.53	0.000
178.91	0.000
179.29	62.500
179.67	-750.000
180.04	157.143
180.42	250.000
180.80	-500.000
181.18	166.667
181.56	500.000
181.94	-50.000
182.31	200.000
182.69	80.000
183.07	-333.333
183.45	-20.000
183.83	316.667
184.20	0.000
184.58	222.222
184.96	50.000
185.34	333.333
185.72	-350.000
186.09	123.077
186.47	-500.000
186.85	150.000
187.23	144.444
187.61	1100.000
187.98	-366.667
188.36	-22.222
188.74	-200.000
189.12	17.647
189.49	11.111
189.87	0.000
190.25	92.857
190.63	-100.000
191.00	-66.667
191.38	21.053
191.76	-100.000
192.14	150.000
192.51	350.000
192.89	-177.778
193.27	-28.571
193.65	300.000
194.02	209.091
194.40	-30.000
194.78	-200.000
195.15	-8.333
195.53	-112.500
195.91	225.000
196.29	50.000
196.66	61.538
197.04	142.857
197.42	-55.556
197.79	-300.000
198.17	-69.231
198.55	1100.000
198.92	-66.667
199.30	-100.000
199.68	-180.000
200.05	-133.333
200.43	0.000
200.81	-133.333
201.18	-33.333
201.56	200.000
201.94	150.000
202.31	33.333
202.69	-400.000
203.07	200.000
203.44	200.000
203.82	0.000
204.19	35.714
204.57	-433.333
204.95	112.500
205.32	-50.000
205.70	-57.143
206.08	-200.000
206.45	155.556
206.83	35.714
207.20	-42.857
207.58	500.000
207.96	-300.000
208.33	-70.000
208.71	0.000
209.08	-183.333
209.46	-700.000
209.84	-100.000
210.21	-1000.000
210.59	-85.714
210.96	-16.667
211.34	-100.000
211.71	0.000
212.09	-200.000
212.46	-1900.000
212.84	0.000
213.22	10.000
213.59	900.000
213.97	-38.462
214.34	-36.364
214.72	-50.000
215.09	500.000
215.47	-69.231
215.84	-9.091
216.22	-366.667
216.59	-25.000
216.97	-50.000
217.34	-200.000
217.72	-100.000
218.09	12.500
218.47	125.000
218.84	-500.000
219.22	-122.222
219.59	-180.000
219.97	166.667
220.34	200.000
220.72	-71.429
221.09	-400.000
221.47	-150.000
221.84	-850.000
222.22	-900.000
222.59	0.000
222.97	75.000
223.34	-33.333
223.72	-50.000
224.09	23.810
224.46	21.429
224.84	266.667
225.21	-130.000
225.59	20.000
225.96	-150.000
226.34	300.000
226.71	-142.857
227.08	-183.333
227.46	0.000
227.83	-850.000
228.21	-33.333
228.58	-72.727
228.95	-87.500
229.33	160.000
229.70	-6.250
230.08	-100.000
230.45	-171.429
230.82	-142.857
231.20	-66.667
231.57	21.429
231.95	-171.429
232.32	-150.000
232.69	-21.429
233.07	233.333
233.44	0.000
233.81	-70.000
234.19	-11.111
234.56	-23.529
234.93	650.000
235.31	50.000
235.68	-200.000
236.05	-92.308
236.43	-20.000
236.80	-5.882
237.17	6.250
237.55	-30.000
237.92	7.407
238.29	8.333
238.67	23.333
239.04	-2.941
239.41	-31.707
239.79	-13.333
240.16	7.317
240.53	2.632
240.91	2.174
241.28	1.587
241.65	14.286
242.02	19.178
242.40	6.667
242.77	6.780
243.14	15.152
243.51	20.000
243.89	22.989
244.26	10.345
244.63	29.762
245.00	20.619
245.38	9.278
245.75	4.494
246.12	9.483
246.49	13.223
246.87	16.346
247.24	16.807
247.61	5.263
247.98	13.821
248.36	12.500
248.73	24.342
249.10	14.286
249.47	18.987
249.84	11.765
250.22	16.471
250.59	13.072
250.96	20.657
251.33	16.279
251.70	14.706
252.08	14.721
252.45	17.327
252.82	16.080
253.19	14.747
253.56	13.551
253.94	18.919
254.31	17.826
254.68	17.544
255.05	18.504
255.42	16.594
255.79	18.147
256.16	21.401
256.54	22.015
256.91	15.970
257.28	18.587
257.65	17.228
258.02	15.603
258.39	19.192
258.76	20.147
259.14	19.601
259.51	18.770
259.88	18.557
260.25	16.993
260.62	19.444
260.99	17.966
261.36	14.384
261.73	14.873
262.10	17.629
262.47	17.178
262.85	19.122
263.22	18.154
263.59	18.069
263.96	18.323
264.33	21.212
264.70	16.667
265.07	20.833
265.44	22.096
265.81	20.056
266.18	18.579
266.55	19.023
266.92	18.653
267.29	18.538
267.66	16.624
268.03	18.848
268.40	17.232
268.77	21.123
269.14	17.986
269.51	17.995
269.88	17.456
270.25	15.816
270.62	17.317
270.99	14.066
271.36	17.604
271.73	19.014
272.10	20.681
272.47	18.676
272.84	18.812
273.21	21.114
273.58	20.000
273.95	19.680
274.32	18.476
274.69	17.421
275.06	20.759
275.43	15.420
275.80	19.205
276.17	16.552
276.54	16.488
276.91	19.298
277.28	18.559
277.65	19.628
278.02	17.234
278.39	18.818
278.76	18.449
279.13	15.768
279.50	18.067
279.87	16.415
280.23	16.559
280.60	19.883
280.97	18.586
281.34	18.846
281.71	18.480
282.08	16.360
282.45	18.200
282.82	17.761
283.19	17.795
283.56	19.461
283.92	17.837
284.29	16.154
284.66	16.085
285.03	17.682
285.40	17.391
285.77	16.696
286.14	17.870
286.51	17.528
286.87	16.636
287.24	16.390
287.61	16.931
287.98	19.123
288.35	16.118
288.72	15.061
289.08	17.014
289.45	17.047
289.82	17.483
290.19	16.212
290.56	15.952
290.93	16.667
291.29	14.638
291.66	14.803
292.03	15.470
292.40	16.613
292.77	14.673
293.13	13.474
293.50	13.961
293.87	15.725
294.24	15.301
294.60	15.946
294.97	14.881
295.34	15.337
295.71	14.009
296.08	14.798
296.44	13.229
296.81	13.750
297.18	13.768
297.55	14.092
297.91	14.384
298.28	14.776
298.65	13.704
299.02	13.881
299.38	11.081
299.75	12.828
300.12	14.660
300.48	13.307
300.85	14.195
301.22	12.597
301.59	12.368
301.95	13.544
302.32	13.619
302.69	14.055
303.05	12.376
303.42	12.702
303.79	13.435
304.15	12.784
304.52	11.891
304.89	13.099
305.25	11.743
305.62	11.085
305.99	12.515
306.35	12.948
306.72	12.373
307.09	12.201
307.45	14.581
307.82	11.574
308.19	13.589
308.55	12.214
308.92	12.636
309.29	12.514
309.65	12.271
310.02	12.431
310.38	12.075
310.75	14.536
311.12	13.563
311.48	11.983
311.85	12.775
312.22	12.342
312.58	13.376
312.95	12.593
313.31	12.836
313.68	11.937
314.05	12.551
314.41	12.474
314.78	13.196
315.14	14.183
315.51	12.940
315.87	13.115
316.24	15.571
316.61	15.157
316.97	15.774
317.34	15.430
317.70	13.958
318.07	15.096
318.43	15.294
318.80	15.152
319.16	15.527
319.53	15.195
319.89	15.157
320.26	17.206
320.62	15.246
320.99	15.449
321.35	15.930
321.72	18.069
322.08	19.235
322.45	18.477
322.81	19.253
323.18	19.333
323.54	17.278
323.91	18.208
324.27	18.750
324.64	20.131
325.00	19.799
325.37	19.927
325.73	18.858
326.10	20.254
326.46	21.794
326.83	20.735
327.19	21.273
327.56	22.415
327.92	22.183
328.29	23.214
328.65	23.396
329.01	22.335
329.38	23.502
329.74	21.624
330.11	23.911
330.47	23.469
330.84	23.942
331.20	25.570
331.56	23.611
331.93	23.744
332.29	24.290
332.66	24.072
333.02	24.721
333.38	24.106
333.75	25.549
334.11	24.172
334.48	25.204
334.84	25.824
335.20	25.435
335.57	23.391
335.93	25.113
336.29	24.494
336.66	23.797
337.02	25.093
337.38	25.000
337.75	24.818
338.11	25.879
338.47	25.547
338.84	25.416
339.20	26.417
339.56	26.514
339.93	25.604
340.29	24.128
340.65	26.254
341.02	24.468
341.38	24.159
341.74	25.000
342.11	23.917
342.47	24.110
342.83	26.298
343.20	23.693
343.56	24.783
343.92	24.092
344.28	25.278
344.65	24.957
345.01	24.460
345.37	23.633
345.73	24.686
346.10	25.971
346.46	24.474
346.82	24.468
347.19	23.608
347.55	26.984
347.91	24.838
348.27	25.222
348.63	24.787
349.00	24.938
349.36	24.938
349.72	24.378
350.08	24.672
350.45	24.421
350.81	23.671
351.17	24.511
351.53	25.469
351.89	25.599
352.26	25.360
352.62	25.403
352.98	22.892
353.34	25.121
353.70	25.890
354.07	23.065
354.43	25.060
354.79	25.351
355.15	25.873
355.51	24.763
355.87	25.971
356.24	23.899
356.60	25.303
356.96	25.397
357.32	24.760
357.68	24.629
358.04	24.879
358.40	24.437
358.77	25.199
359.13	24.660
359.49	24.345
359.85	24.415
360.21	24.880
360.57	23.489
360.93	25.492
361.29	24.547
361.66	25.157
362.02	25.000
362.38	25.209
362.74	24.375
363.10	25.357
363.46	25.426
363.82	26.071
364.18	24.871
364.54	24.485
364.90	24.803
365.26	25.036
365.62	26.788
365.98	25.660
366.35	26.001
366.71	25.942
367.07	24.964
367.43	25.449
367.79	25.300
368.15	24.695
368.51	26.293
368.87	24.838
369.23	24.549
369.59	26.239
369.95	25.880
370.31	25.145
370.67	26.045
371.03	24.944
371.39	25.675
371.75	25.421
372.11	26.462
372.47	27.145
372.83	25.692
373.19	25.749
373.55	24.621
373.91	25.702
374.27	26.648
374.63	26.777
374.99	26.525
375.35	26.393
375.71	26.923
376.07	26.264
376.42	26.871
376.78	27.181
377.14	26.405
377.50	26.162
377.86	26.841
378.22	26.930
378.58	27.885
378.94	25.394
379.30	26.762
379.66	27.210
380.02	28.204
380.38	27.145
380.74	27.528
381.09	29.141
381.45	26.544
381.81	28.254
382.17	27.221
382.53	27.670
382.89	27.621
383.25	28.065
383.61	27.988
383.97	28.381
384.32	28.330
384.68	28.173
385.04	27.206
385.40	27.567
385.76	28.805
386.12	29.107
386.48	29.055
386.83	28.345
387.19	28.755
387.55	28.795
387.91	27.934
388.27	28.510
388.62	29.956
388.98	28.668
389.34	29.294
389.70	29.832
390.06	28.634
390.42	29.663
390.77	29.823
391.13	30.580
391.49	29.948
391.85	30.019
392.20	30.257
392.56	28.926
392.92	30.065
393.28	28.833
393.64	29.009
393.99	30.533
394.35	29.791
394.71	30.587
395.07	30.295
395.42	29.630
395.78	31.466
396.14	30.580
396.50	31.959
396.85	30.972
397.21	31.015
397.57	30.721
397.92	30.677
398.28	30.747
398.64	30.060
399.00	31.603
399.35	30.587
399.71	29.983
400.07	31.378
400.42	31.273
400.78	31.170
401.14	32.184
401.49	31.626
401.85	31.200
402.21	31.747
402.57	32.938
402.92	30.803
403.28	32.393
403.63	31.967
403.99	32.589
404.35	32.730
404.70	31.131
405.06	31.727
405.42	32.194
405.77	32.307
406.13	31.723
406.49	32.919
406.84	33.680
407.20	32.992
407.55	32.711
407.91	32.888
408.27	32.887
408.62	32.800
408.98	33.703
409.34	32.838
409.69	32.364
410.05	33.313
410.40	33.395
410.76	33.052
411.11	34.312
411.47	34.122
411.83	33.271
412.18	34.427
412.54	33.708
412.89	33.744
413.25	34.717
413.60	33.851
413.96	33.681
414.31	34.817
414.67	34.381
415.03	33.955
415.38	35.313
415.74	35.179
416.09	34.226
416.45	35.111
416.80	34.435
417.16	35.497
417.51	36.043
417.87	35.593
418.22	36.528
418.58	35.452
418.93	35.987
419.29	34.443
419.64	35.191
420.00	37.028
420.35	36.537
420.71	35.905
421.06	35.359
421.42	36.298
421.77	35.376
422.12	33.428
422.48	35.463
422.83	36.891
423.19	36.174
423.54	36.626
423.90	36.219
424.25	35.591
424.61	37.638
424.96	36.585
425.31	37.666
425.67	36.854
426.02	38.280
426.38	37.821
426.73	39.346
427.09	38.987
427.44	37.765
427.79	37.596
428.15	38.228
428.50	37.614
428.85	36.118
429.21	36.672
429.56	38.868
429.92	37.442
430.27	37.744
430.62	36.853
430.98	38.694
431.33	38.538
431.68	38.305
432.04	38.290
432.39	37.365
432.74	38.485
433.10	39.713
433.45	38.590
433.80	38.363
434.16	37.784
434.51	38.978
434.86	39.199
435.22	38.923
435.57	40.050
435.92	40.000
436.28	38.879
436.63	38.106
436.98	38.065
437.34	39.322
437.69	40.608
438.04	39.772
438.39	39.279
438.75	40.194
439.10	39.842
439.45	39.501
439.81	40.489
440.16	40.796
440.51	40.537
440.86	42.598
441.22	39.876
441.57	41.060
441.92	40.871
442.27	41.408
442.63	40.257
442.98	40.839
443.33	41.291
443.68	41.273
444.03	42.226
444.39	41.121
444.74	42.921
445.09	41.759
445.44	41.311
445.79	42.909
446.15	42.126
446.50	42.651
446.85	42.349
447.20	41.867
447.55	42.578
447.91	43.091
448.26	42.857
448.61	43.754
448.96	43.259
449.31	42.890
449.66	42.218
450.02	43.639
450.37	43.154
450.72	41.581
451.07	44.177
451.42	43.134
451.77	42.737
452.12	42.644
452.47	41.597
452.83	43.168
453.18	43.707
453.53	44.311
453.88	44.627
454.23	44.130
454.58	44.458
454.93	43.492
455.28	42.476
455.63	44.761
455.98	45.039
456.34	44.444
456.69	44.790
457.04	44.739
457.39	43.196
457.74	44.377
458.09	43.143
458.44	43.710
458.79	43.473
459.14	43.936
459.49	44.299
459.84	44.275
460.19	43.629
460.54	44.682
460.89	44.773
461.24	44.348
461.59	45.012
461.94	43.270
462.29	45.959
462.64	45.515
462.99	45.633
463.34	44.367
463.69	44.080
464.04	44.128
464.39	43.966
464.74	44.601
465.09	44.541
465.44	45.009
465.79	43.197
466.14	43.843
466.49	43.588
466.84	44.795
467.19	44.681
467.54	43.359
467.89	44.409
468.24	45.925
468.59	44.952
468.94	44.190
469.29	44.000
469.64	45.181
469.99	46.882
470.34	43.891
470.68	46.383
471.03	45.931
471.38	45.007
471.73	45.448
472.08	44.912
472.43	46.242
472.78	43.592
473.13	45.034
473.48	45.081
473.83	44.583
474.17	44.754
474.52	45.437
474.87	44.242
475.22	44.173
475.57	44.664
475.92	46.078
476.27	45.809
476.61	45.718
476.96	44.730
477.31	45.214
477.66	44.663
478.01	45.312
478.36	44.390
478.70	46.166
479.05	45.440
479.40	45.416
479.75	44.526
480.10	44.240
480.45	45.050
480.79	45.065
481.14	46.516
481.49	44.877
481.84	45.753
482.19	45.182
482.53	44.940
482.88	44.439
483.23	44.674
483.58	45.283
483.92	44.579
484.27	44.895
484.62	44.016
484.97	44.610
485.31	43.316
485.66	41.134
486.01	41.053
486.36	41.245
486.70	42.847
487.05	44.070
487.40	44.261
487.75	43.972
488.09	44.592
488.44	44.601
488.79	45.387
489.13	44.992
489.48	45.062
489.83	45.516
490.17	44.944
490.52	44.434
490.87	43.730
491.22	45.224
491.56	44.639
491.91	44.646
492.26	45.649
492.60	44.050
492.95	45.745
493.30	44.064
493.64	46.365
493.99	44.686
494.34	44.903
494.68	44.619
495.03	45.109
495.37	44.504
495.72	45.129
496.07	45.220
496.41	44.245
496.76	44.404
497.11	43.549
497.45	45.489
497.80	46.569
498.14	45.107
498.49	45.455
498.84	45.010
499.18	44.679
499.53	45.734
499.87	44.455
500.22	44.263
500.56	45.134
500.91	45.181
501.26	44.142
501.60	44.171
501.95	45.075
502.29	44.310
502.64	44.691
502.98	45.387
503.33	43.420
503.67	44.434
504.02	45.748
504.36	45.324
504.71	45.152
505.06	44.892
505.40	45.381
505.75	46.289
506.09	45.413
506.44	45.277
506.78	45.255
507.13	44.984
507.47	44.700
507.82	44.765
508.16	44.057
508.51	45.331
508.85	45.945
509.19	45.024
509.54	46.059
509.88	44.876
510.23	46.261
510.57	46.499
510.92	44.243
511.26	46.645
511.61	46.590
511.95	45.425
512.30	44.900
512.64	46.132
512.98	46.547
513.33	45.831
513.67	46.219
514.02	48.055
514.36	46.286
514.70	48.019
515.05	47.356
515.39	46.576
515.74	47.126
516.08	47.639
516.42	47.232
516.77	48.040
517.11	47.300
517.46	47.935
517.80	46.901
518.14	47.214
518.49	46.394
518.83	47.631
519.17	47.544
519.52	45.885
519.86	47.119
520.20	47.691
520.55	47.280
520.89	47.616
521.23	47.308
521.58	47.508
521.92	48.654
522.26	48.471
522.61	47.597
522.95	49.073
523.29	47.459
523.64	49.238
523.98	48.412
524.32	47.036
524.66	49.616
525.01	49.610
525.35	49.060
525.69	49.024
526.04	48.082
526.38	49.481
526.72	47.024
527.06	49.481
527.41	48.681
527.75	48.727
528.09	48.771
528.43	49.291
528.78	48.119
529.12	48.710
529.46	48.278
529.80	49.778
530.15	47.723
530.49	50.640
530.83	50.274
531.17	47.884
531.51	48.700
531.86	49.422
532.20	48.573
532.54	49.149
532.88	50.103
533.22	48.992
533.57	49.214
533.91	48.695
534.25	49.414
534.59	49.711
534.93	46.885
535.27	47.018
535.62	49.060
535.96	50.033
536.30	49.802
536.64	50.586
536.98	49.129
537.32	51.565
537.66	50.210
538.01	50.350
538.35	48.752
538.69	48.402
539.03	48.872
539.37	50.135
539.71	47.716
540.05	49.559
540.39	49.792
540.73	50.349
541.07	50.207
541.42	48.790
541.76	50.241
542.10	48.796
542.44	50.174
542.78	47.970
543.12	48.764
543.46	49.166
543.80	49.688
544.14	47.730
544.48	48.634
544.82	49.487
545.16	51.161
545.50	47.864
545.84	50.567
546.18	50.993
546.52	50.252
546.86	49.389
547.20	50.215
547.54	48.339
547.88	49.117
548.22	47.469
548.56	48.153
548.90	49.865
549.24	48.209
549.58	48.731
549.92	48.606
550.26	49.158
550.60	50.632
550.94	50.187
551.28	51.932
551.62	52.000
551.96	48.421
552.30	49.927
552.64	48.660
552.98	48.594
553.32	50.214
553.66	50.145
554.00	49.270
554.34	49.926
554.68	48.894
555.02	50.298
555.36	50.860
555.69	48.938
556.03	48.965
556.37	49.110
556.71	49.386
557.05	50.261
557.39	49.517
557.73	52.324
558.07	50.302
558.41	50.153
558.75	50.351
559.08	51.852
559.42	50.317
559.76	50.761
560.10	49.083
560.44	49.665
560.78	49.510
561.12	50.987
561.45	51.160
561.79	51.471
562.13	51.171
562.47	51.007
562.81	49.568
563.15	50.494
563.48	50.283
563.82	50.240
564.16	50.836
564.50	49.257
564.84	48.728
565.17	48.625
565.51	50.273
565.85	51.578
566.19	50.597
566.52	50.737
566.86	51.478
567.20	49.128
567.54	49.270
567.88	50.381
568.21	49.095
568.55	49.674
568.89	49.281
569.23	48.387
569.56	47.067
569.90	47.787
570.24	46.036
570.57	47.164
570.91	46.776
571.25	46.103
571.59	46.278
571.92	44.919
572.26	45.622
572.60	46.326
572.93	45.529
573.27	45.266
573.61	46.480
573.95	45.030
574.28	45.021
574.62	44.699
574.96	45.051
575.29	45.255
575.63	44.312
575.97	44.755
576.30	45.375
576.64	45.060
576.98	45.534
577.31	45.834
577.65	45.344
577.98	45.224
578.32	44.567
578.66	44.122
578.99	44.829
579.33	45.141
579.67	44.890
580.00	45.823
580.34	45.299
580.67	44.906
581.01	45.389
581.35	44.488
581.68	45.031
582.02	44.192
582.35	44.977
582.69	45.247
583.02	46.144
583.36	45.375
583.70	46.729
584.03	47.512
584.37	47.600
584.70	46.731
585.04	45.518
585.37	45.627
585.71	46.211
586.04	45.587
586.38	45.772
586.72	46.198
587.05	46.938
587.39	46.519
587.72	47.048
588.06	46.997
588.39	46.596
588.73	46.703
589.06	48.010
589.40	47.494
589.73	48.193
590.07	48.792
590.40	48.375
590.73	49.588
591.07	48.728
591.40	48.353
591.74	48.733
592.07	48.980
592.41	48.101
592.74	47.033
593.08	46.001
593.41	45.898
593.75	46.811
594.08	46.790
594.41	47.817
594.75	48.015
595.08	47.749
595.42	48.215
595.75	48.892
596.09	48.944
596.42	48.987
596.75	49.067
597.09	48.975
597.42	47.832
597.75	49.198
598.09	48.665
598.42	48.421
598.76	47.791
599.09	47.877
599.42	46.722
599.76	47.065
600.09	47.662
600.42	47.195
600.76	46.731
601.09	47.634
601.42	47.787
601.76	48.670
602.09	48.762
602.42	49.410
602.76	48.981
603.09	48.547
603.42	49.331
603.76	48.226
604.09	48.360
604.42	49.535
604.76	49.755
605.09	50.137
605.42	48.668
605.75	49.256
606.09	48.832
606.42	47.957
606.75	48.528
607.09	48.835
607.42	47.807
607.75	48.535
608.08	48.023
608.42	47.693
608.75	49.735
609.08	49.128
609.41	50.102
609.75	49.748
610.08	49.825
610.41	50.048
610.74	49.683
611.07	50.284
611.41	50.182
611.74	50.640
612.07	49.946
612.40	50.109
612.73	50.734
613.07	50.450
613.40	50.274
613.73	50.588
614.06	51.252
614.39	50.874
614.72	50.588
615.06	50.168
615.39	50.328
615.72	48.977
616.05	50.223
616.38	49.972
616.71	50.948
617.05	51.513
617.38	51.163
617.71	50.818
618.04	52.127
618.37	52.711
618.70	52.871
619.03	53.333
619.36	53.184
619.69	53.829
620.03	54.273
620.36	52.861
620.69	52.534
621.02	53.746
621.35	56.349
621.68	55.782
622.01	54.500
622.34	52.913
622.67	53.470
623.00	53.369
623.33	53.201
623.66	52.880
623.99	53.858
624.32	53.840
624.65	52.556
624.99	53.574
625.32	54.284
625.65	54.831
625.98	54.795
626.31	53.367
626.64	54.939
626.97	56.370
627.30	54.991
627.63	55.979
627.96	55.975
628.29	55.782
628.62	56.735
628.95	56.914
629.28	57.157
629.61	56.331
629.94	56.109
630.26	54.447
630.59	56.920
630.92	57.744
631.25	55.795
631.58	58.150
631.91	56.689
632.24	59.862
632.57	58.523
632.90	59.668
633.23	58.706
633.56	62.217
633.89	60.666
634.22	59.753
634.55	60.229
634.88	58.748
635.20	59.231
635.53	60.533
635.86	58.648
636.19	61.061
636.52	60.969
636.85	59.181
637.18	57.358
637.51	58.239
637.83	58.344
638.16	61.937
638.49	59.946
638.82	59.868
639.15	58.752
639.48	60.523
639.81	62.483
640.13	61.183
640.46	61.079
640.79	62.445
641.12	62.186
641.45	59.459
641.77	57.481
642.10	63.033
642.43	62.219
642.76	64.686
643.09	62.843
643.41	62.945
643.74	61.120
644.07	62.562
644.40	63.851
644.73	65.849
645.05	61.242
645.38	63.668
645.71	63.652
646.04	65.709
646.36	63.652
646.69	64.388
647.02	65.217
647.35	67.351
647.67	63.437
648.00	65.858
648.33	61.604
648.66	60.847
648.98	58.961
649.31	62.645
649.64	60.754
649.96	60.616
650.29	62.351
650.62	62.393
650.94	61.852
651.27	63.315
651.60	62.883
651.92	63.287
652.25	60.924
652.58	59.000
652.90	62.436
653.23	61.681
653.56	60.745
653.88	62.199
654.21	61.646
654.54	61.630
654.86	62.649
655.19	58.480
655.52	56.579
655.84	46.005
656.17	49.314
656.49	66.320
656.82	69.966
657.15	55.270
657.47	42.509
657.80	32.021
658.13	31.781
658.45	50.149
658.78	51.463
659.10	51.403
659.43	51.971
659.75	53.823
660.08	54.414
660.41	56.997
660.73	58.702
661.06	61.872
661.38	62.427
661.71	57.906
662.03	63.734
662.36	67.033
662.68	64.381
663.01	65.721
663.33	66.357
663.66	65.581
663.98	62.791
664.31	60.554
664.63	65.207
664.96	58.478
665.28	62.472
665.61	65.152
665.93	66.522
666.26	66.377
666.58	64.653
666.91	65.647
667.23	63.915
667.56	64.692
667.88	66.427
668.21	66.826
668.53	66.667
668.86	67.925
669.18	65.330
669.50	64.165
669.83	64.186
670.15	66.434
670.48	66.507
670.80	65.438
671.13	61.074
671.45	58.447
671.77	63.090
672.10	61.386
672.42	58.989
672.75	62.522
673.07	59.034
673.39	61.468
673.72	56.805
674.04	60.833
674.37	63.559
674.69	64.454
675.01	65.333
675.34	62.613
675.66	65.046
675.98	64.745
676.31	63.761
676.63	63.420
676.95	64.091
677.28	62.118
677.60	65.301
677.92	66.055
678.25	60.394
678.57	62.554
678.89	62.605
679.22	65.996
679.54	58.635
679.86	56.262
680.18	62.330
680.51	60.606
680.83	57.256
681.15	61.600
681.48	65.574
681.80	62.397
682.12	58.065
682.44	60.251
682.77	66.004
683.09	63.158
683.41	61.364
683.73	61.060
684.06	61.726
684.38	59.355
684.70	62.527
685.02	60.788
685.34	57.905
685.67	58.349
685.99	56.600
686.31	57.345
686.63	59.926
686.96	57.414
687.28	56.970
687.60	59.506
687.92	60.000
688.24	59.073
688.56	62.227
688.89	60.714
689.21	62.889
689.53	61.253
689.85	61.163
690.17	57.812
690.49	61.229
690.82	61.893
691.14	63.571
691.46	60.514
691.78	61.036
692.10	61.290
692.42	60.173
692.74	60.256
693.06	60.811
693.39	58.371
693.71	60.407
694.03	58.430
694.35	57.710
694.67	62.374
694.99	60.574
695.31	65.013
695.63	60.000
695.95	56.313
696.27	63.212
696.59	61.111
696.91	60.504
697.23	60.154
697.56	60.891
697.88	56.559
698.20	59.453
698.52	61.882
698.84	58.134
699.16	61.000
699.48	60.652
699.80	59.305
700.12	58.221
700.44	60.784
700.76	61.337
701.08	60.606
701.40	57.229
701.72	64.506
702.04	69.307
702.36	66.890
702.68	59.459
703.00	64.242
703.32	63.343
703.64	60.734
703.96	59.130
704.28	66.564
704.60	60.952
704.91	59.621
705.23	62.126
705.55	71.731
705.87	66.787
706.19	65.185
706.51	60.825
706.83	61.415
707.15	56.698
707.47	60.784
707.79	57.292
708.11	56.750
708.43	58.750
708.74	56.589
709.06	59.718
709.38	62.385
709.70	58.284
710.02	60.510
710.34	62.229
710.66	58.013
710.98	66.225
711.29	60.328
711.61	60.678
711.93	60.912
712.25	62.887
712.57	67.399
712.89	59.701
713.20	61.592
713.52	59.930
713.84	63.140
714.16	64.605
714.48	60.968
714.80	61.859
715.11	56.231
715.43	57.053
715.75	57.667
716.07	58.472
716.39	56.711
716.70	57.565
717.02	58.779
717.34	58.704
717.66	68.584
717.97	61.739
718.29	63.598
718.61	60.630
718.93	55.426
719.24	58.555
719.56	63.855
719.88	55.670
720.20	63.258
720.51	58.621
720.83	61.004
721.15	66.807
721.46	58.065
721.78	57.708
722.10	54.647
722.42	59.336
722.73	62.041
723.05	61.224
723.37	66.525
723.68	61.261
724.00	63.675
724.32	55.556
724.63	64.091
724.95	58.515
725.27	66.359
725.58	60.169
725.90	55.952
726.22	59.459
726.53	56.610
726.85	61.423
727.16	59.245
727.48	52.227
727.80	58.300
728.11	53.390
728.43	52.157
728.74	53.226
729.06	57.600
729.38	54.511
729.69	61.355
730.01	55.769
730.32	55.224
730.64	58.657
730.96	58.113
731.27	51.000
731.59	53.559
731.90	51.592
732.22	53.628
732.53	57.143
732.85	58.511
733.16	59.259
733.48	55.396
733.80	54.348
734.11	53.220
734.43	57.732
734.74	53.030
735.06	53.746
735.37	54.985
735.69	55.892
736.00	54.704
736.32	54.698
736.63	54.225
736.95	54.266
737.26	50.178
737.58	50.000
737.89	49.817
738.21	53.383
738.52	59.671
738.83	58.079
739.15	58.079
739.46	57.480
739.78	51.648
740.09	53.595
740.41	55.072
740.72	49.606
741.04	53.441
741.35	50.213
741.66	55.924
741.98	55.102
742.29	61.881
742.61	61.780
742.92	45.498
743.23	50.000
743.55	60.181
743.86	60.287
744.18	54.545
744.49	54.787
744.80	57.065
745.12	60.963
745.43	56.585
745.74	60.417
746.06	51.707
746.37	54.974
746.68	56.872
747.00	59.043
747.31	60.697
747.62	54.854
747.94	57.416
748.25	53.465
748.56	53.005
748.88	56.545
749.19	65.957
749.50	56.650
749.82	57.075
750.13	53.670
750.44	52.256
750.75	55.597
751.07	52.555
751.38	52.107
751.69	52.157
752.01	56.589
752.32	50.199
752.63	53.755
752.94	55.172
753.26	63.180
753.57	50.226
753.88	49.115
754.19	52.917
754.51	50.413
754.82	53.846
755.13	60.000
755.44	51.613
755.75	60.156
756.07	56.420
756.38	49.434
756.69	48.276
757.00	52.000
757.31	48.366
757.63	50.000
757.94	44.167
758.25	48.767
758.56	43.351
758.87	47.025
759.18	48.287
759.50	56.000
759.81	54.515
760.12	52.581
760.43	47.879
760.74	50.309
761.05	49.538
761.36	49.716
761.67	53.636
761.99	52.721
762.30	48.364
762.61	52.174
762.92	51.584
763.23	52.703
763.54	50.467
763.85	53.390
764.16	50.207
764.47	53.629
764.78	48.352
765.10	50.842
765.41	45.426
765.72	44.762
766.03	49.248
766.34	47.080
766.65	52.191
766.96	48.990
767.27	53.191
767.58	60.345
767.89	53.191
768.20	49.432
768.51	49.451
768.82	55.172
769.13	45.622
769.44	49.785
769.75	47.945
770.06	45.259
770.37	48.077
770.68	51.269
770.99	47.511
771.30	58.333
771.61	45.701
771.92	48.707
772.23	57.143
772.54	54.839
772.85	56.173
773.16	54.494
773.47	60.131
773.78	52.288
774.09	47.904
774.39	41.333
774.70	53.503
775.01	57.931
775.32	52.143
775.63	53.719
775.94	41.985
776.25	62.205
776.56	53.333
776.87	57.692
777.18	53.846
777.48	60.345
777.79	49.565
778.10	54.286
778.41	45.045
778.72	48.413
779.03	50.376
779.34	48.936
779.65	52.055
779.95	41.781
780.26	44.138
780.57	47.154
780.88	48.819
781.19	48.276
781.50	48.837
781.80	39.645
782.11	41.509
782.42	49.231
782.73	41.727
783.04	53.333
783.34	47.222
783.65	40.171
783.96	51.639
784.27	49.655
784.57	47.154
784.88	46.094
785.19	61.000
785.50	51.000
785.81	47.414
786.11	48.276
786.42	47.573
786.73	54.545
787.04	56.122
787.34	42.857
787.65	49.524
787.96	44.248
788.26	47.273
788.57	47.863
788.88	50.781
789.19	44.444
789.49	47.826
789.80	50.000
790.11	46.465
790.41	35.455
790.72	50.000
791.03	44.318
791.33	57.500
791.64	47.500
791.95	37.209
792.25	37.234
792.56	48.315
792.87	46.575
793.17	60.870
793.48	33.333
793.79	45.000
794.09	55.000
794.40	29.245
794.70	33.981
795.01	31.707
795.32	38.462
795.62	45.714
795.93	50.000
796.23	47.170
796.54	46.875
796.85	51.471
797.15	46.479
797.46	58.333
797.76	57.576
798.07	45.349
798.37	42.105
798.68	48.485
798.99	37.037
799.29	44.286
799.60	42.029
799.90	25.333
800.21	55.738
800.51	44.615
800.82	23.729
801.12	52.174
801.43	42.623
801.73	44.444
802.04	38.000
802.34	52.239
802.65	59.615
802.95	35.714
803.26	40.385
803.56	50.980
803.87	23.913
804.17	45.333
804.48	55.556
804.78	51.852
805.09	45.652
805.39	26.667
805.70	66.667
806.00	43.860
806.30	38.028
806.61	34.286
806.91	30.556
807.22	57.895
807.52	44.000
807.83	38.182
808.13	38.889
808.43	41.176
808.74	43.284
809.04	37.288
809.35	42.308
809.65	32.812
809.95	29.730
810.26	31.818
810.56	23.288
810.86	71.429
811.17	40.000
811.47	42.857
811.77	23.684
812.08	40.909
812.38	43.396
812.69	42.500
812.99	75.758
813.29	21.053
813.59	22.857
813.90	52.273
814.20	28.205
814.50	30.769
814.81	37.736
815.11	36.170
815.41	30.508
815.72	16.667
816.02	52.941
816.32	37.500
816.62	63.415
816.93	10.811
817.23	25.714
817.53	33.333
817.84	41.304
818.14	28.846
818.44	28.947
818.74	30.435
819.04	-2.500
819.35	48.649
819.65	11.765
819.95	27.778
820.25	33.333
820.56	42.500
820.86	-10.345
821.16	35.000
821.46	42.553
821.76	30.000
822.07	37.209
822.37	5.405
822.67	9.375
822.97	47.619
823.27	10.714
823.57	32.000
823.88	14.815
824.18	10.714
824.48	38.235
824.78	3.226
825.08	26.087
825.38	39.394
825.69	20.833
825.99	21.053
826.29	36.111
826.59	-13.333
826.89	9.524
827.19	30.435
827.49	15.000
827.79	20.000
828.09	35.714
828.39	36.364
828.70	40.541
829.00	32.143
829.30	47.619
829.60	40.000
829.90	12.500
830.20	10.526
830.50	7.407
830.80	-4.348
831.10	4.545
831.40	54.545
831.70	54.839
832.00	14.286
832.30	-14.286
832.60	66.667
832.90	31.034
833.20	20.000
833.50	3.030
833.80	3.704
834.10	42.308
834.40	37.500
834.70	11.111
835.00	-5.263
835.30	73.077
835.60	60.000
835.90	51.613
836.20	13.636
836.50	57.143
836.80	11.538
837.10	21.429
837.40	-200.000
837.70	18.182
838.00	-100.000
838.30	-4.348
838.60	-23.077
838.90	18.182
839.19	7.143
839.49	66.667
839.79	-30.769
840.09	-66.667
840.39	64.286
840.69	35.714
840.99	3.846
841.29	-57.895
841.59	-140.000
841.88	-9.091
842.18	-30.000
842.48	-25.000
842.78	60.000
843.08	14.815
843.38	-70.000
843.68	4.348
843.97	33.333
844.27	-6.667
844.57	0.000
844.87	22.222
845.17	28.571
845.47	-6.667
845.76	-9.524
846.06	47.059
846.36	-70.000
846.66	-35.714
846.96	26.667
847.25	-112.500
847.55	78.571
847.85	-37.500
848.15	-59.091
848.44	-266.667
848.74	20.000
849.04	48.148
849.34	81.818
849.63	-66.667
849.93	-80.000
850.23	16.667
850.53	20.000
850.82	23.077
851.12	-33.333
851.42	-6.667
851.71	23.077
852.01	7.143
852.31	-100.000
852.61	-81.818
852.90	25.000
853.20	36.842
853.50	25.000
853.79	52.174
854.09	75.000
854.39	-15.789
854.68	-25.000
854.98	45.161
855.28	15.385
855.57	-5.000
855.87	-50.000
856.17	14.815
856.46	-7.143
856.76	26.667
857.05	-22.222
857.35	48.000
857.65	33.333
857.94	-92.308
858.24	31.034
858.53	61.111
858.83	29.630
859.13	27.273
859.42	0.000
859.72	150.000
860.01	-500.000
860.31	32.000
860.60	14.286
860.90	100.000
861.20	-53.333
861.49	-450.000
861.79	-66.667
862.08	35.000
862.38	86.667
862.67	-200.000
862.97	50.000
863.26	-66.667
863.56	55.556
863.85	-400.000
864.15	55.556
864.44	10.000
864.74	35.714
865.03	275.000
865.33	-260.000
865.62	50.000
865.92	-33.333
866.21	-200.000
866.51	50.000
866.80	36.364
867.10	250.000
867.39	16.667
867.69	0.000
867.98	38.462
868.27	-66.667
868.57	6.667
868.86	33.333
869.16	-53.846
869.45	113.333
869.75	-2000.000
870.04	0.000
870.33	-185.714
870.63	4.762
870.92	-66.667
871.22	-140.000
871.51	-700.000
871.80	0.000
872.10	466.667
>>>>>End Processed Spectral Data<<<<<
