SpectraSuite Data File
++++++++++++++++++++++++++++++++++++
Date: Fri May 15 21:04:49 PDT 2015
User: schluterlab
Dark Spectrum Present: Yes
Reference Spectrum Present: Yes
Number of Sampled Component Spectra: 1
Spectrometers: USB2E3373
Integration Time (usec): 3000 (USB2E3373)
Spectra Averaged: 3 (USB2E3373)
Boxcar Smoothing: 0 (USB2E3373)
Correct for Electrical Dark: No (USB2E3373)
Strobe/Lamp Enabled: No (USB2E3373)
Correct for Detector Non-linearity: No (USB2E3373)
Correct for Stray Light: No (USB2E3373)
Number of Pixels in Processed Spectrum: 2048
>>>>>Begin Processed Spectral Data<<<<<
178.53	0.000
178.91	0.000
179.29	-75.000
179.67	-650.000
180.04	100.000
180.42	-25.000
180.80	-900.000
181.18	200.000
181.56	550.000
181.94	-600.000
182.31	200.000
182.69	-80.000
183.07	-400.000
183.45	20.000
183.83	166.667
184.20	0.000
184.58	211.111
184.96	275.000
185.34	66.667
185.72	0.000
186.09	100.000
186.47	-600.000
186.85	216.667
187.23	233.333
187.61	200.000
187.98	-500.000
188.36	-100.000
188.74	-366.667
189.12	35.294
189.49	27.778
189.87	0.000
190.25	42.857
190.63	50.000
191.00	-333.333
191.38	36.842
191.76	-50.000
192.14	375.000
192.51	-300.000
192.89	-88.889
193.27	-242.857
193.65	200.000
194.02	172.727
194.40	-50.000
194.78	-112.500
195.15	41.667
195.53	-100.000
195.91	300.000
196.29	-150.000
196.66	138.462
197.04	142.857
197.42	-22.222
197.79	-500.000
198.17	-92.308
198.55	1700.000
198.92	-200.000
199.30	-100.000
199.68	-60.000
200.05	-266.667
200.43	0.000
200.81	-133.333
201.18	-366.667
201.56	400.000
201.94	-300.000
202.31	333.333
202.69	-340.000
203.07	150.000
203.44	200.000
203.82	0.000
204.19	21.429
204.57	-466.667
204.95	62.500
205.32	-10.000
205.70	14.286
206.08	-150.000
206.45	122.222
206.83	57.143
207.20	-114.286
207.58	900.000
207.96	-200.000
208.33	-70.000
208.71	-250.000
209.08	-83.333
209.46	-400.000
209.84	-60.000
210.21	-1400.000
210.59	-100.000
210.96	-166.667
211.34	-225.000
211.71	-60.000
212.09	-142.857
212.46	-1400.000
212.84	0.000
213.22	-50.000
213.59	450.000
213.97	69.231
214.34	-54.545
214.72	100.000
215.09	275.000
215.47	7.692
215.84	-100.000
216.22	-433.333
216.59	-62.500
216.97	150.000
217.34	-175.000
217.72	-300.000
218.09	-125.000
218.47	212.500
218.84	-900.000
219.22	-44.444
219.59	40.000
219.97	400.000
220.34	250.000
220.72	-185.714
221.09	-700.000
221.47	-350.000
221.84	-500.000
222.22	-1200.000
222.59	18.182
222.97	-41.667
223.34	-233.333
223.72	-78.571
224.09	-61.905
224.46	17.857
224.84	333.333
225.21	-70.000
225.59	13.333
225.96	-500.000
226.34	375.000
226.71	-85.714
227.08	-16.667
227.46	-125.000
227.83	-750.000
228.21	-11.111
228.58	-72.727
228.95	-87.500
229.33	160.000
229.70	-87.500
230.08	-275.000
230.45	-100.000
230.82	-171.429
231.20	-46.667
231.57	-28.571
231.95	-85.714
232.32	-120.000
232.69	7.143
233.07	233.333
233.44	-140.000
233.81	-120.000
234.19	11.111
234.56	-5.882
234.93	300.000
235.31	-100.000
235.68	-180.000
236.05	-84.615
236.43	-55.000
236.80	-29.412
237.17	-15.625
237.55	30.000
237.92	-55.556
238.29	0.000
238.67	-10.000
239.04	-11.765
239.41	-34.146
239.79	-23.333
240.16	-9.756
240.53	-5.263
240.91	-28.261
241.28	9.524
241.65	-5.357
242.02	16.438
242.40	11.667
242.77	8.475
243.14	10.606
243.51	8.750
243.89	20.690
244.26	0.000
244.63	-4.762
245.00	7.216
245.38	8.247
245.75	1.124
246.12	11.207
246.49	9.917
246.87	1.923
247.24	4.202
247.61	4.386
247.98	4.878
248.36	13.750
248.73	23.026
249.10	5.195
249.47	5.696
249.84	11.111
250.22	6.471
250.59	18.954
250.96	14.085
251.33	12.209
251.70	9.412
252.08	11.168
252.45	9.406
252.82	13.065
253.19	13.825
253.56	11.215
253.94	10.360
254.31	10.870
254.68	14.912
255.05	14.567
255.42	11.790
255.79	17.761
256.16	12.840
256.54	12.313
256.91	12.928
257.28	10.781
257.65	8.989
258.02	11.348
258.39	12.795
258.76	12.821
259.14	13.621
259.51	15.858
259.88	10.309
260.25	12.092
260.62	16.319
260.99	11.186
261.36	10.959
261.73	15.190
262.10	16.109
262.47	11.043
262.85	9.091
263.22	11.385
263.59	12.461
263.96	14.596
264.33	13.333
264.70	13.393
265.07	11.607
265.44	13.314
265.81	13.842
266.18	11.749
266.55	14.139
266.92	12.694
267.29	14.360
267.66	12.788
268.03	14.921
268.40	10.966
268.77	13.636
269.14	13.429
269.51	11.825
269.88	8.978
270.25	12.245
270.62	10.488
270.99	13.043
271.36	11.247
271.73	13.146
272.10	11.436
272.47	12.057
272.84	12.129
273.21	12.761
273.58	11.325
273.95	12.357
274.32	9.700
274.69	10.181
275.06	16.295
275.43	11.338
275.80	12.804
276.17	15.402
276.54	11.563
276.91	13.596
277.28	13.319
277.65	12.397
278.02	13.191
278.39	11.597
278.76	11.111
279.13	10.166
279.50	13.235
279.87	13.175
280.23	11.828
280.60	14.815
280.97	13.131
281.34	10.577
281.71	13.142
282.08	9.816
282.45	12.329
282.82	11.776
283.19	12.959
283.56	10.790
283.92	11.195
284.29	11.346
284.66	12.016
285.03	12.574
285.40	11.909
285.77	12.302
286.14	10.108
286.51	14.022
286.87	9.872
287.24	12.155
287.61	10.758
287.98	11.930
288.35	11.785
288.72	12.960
289.08	11.806
289.45	11.424
289.82	11.014
290.19	8.703
290.56	10.635
290.93	10.438
291.29	9.707
291.66	10.394
292.03	9.410
292.40	10.645
292.77	11.324
293.13	9.416
293.50	9.408
293.87	10.534
294.24	11.283
294.60	11.177
294.97	11.310
295.34	7.975
295.71	9.687
296.08	10.613
296.44	9.531
296.81	9.583
297.18	10.145
297.55	10.976
297.91	8.082
298.28	12.929
298.65	9.091
299.02	10.377
299.38	7.524
299.75	9.655
300.12	8.508
300.48	8.564
300.85	11.153
301.22	7.922
301.59	8.289
301.95	10.380
302.32	10.506
302.69	8.706
303.05	9.901
303.42	10.959
303.79	9.930
304.15	10.275
304.52	8.561
304.89	7.719
305.25	8.111
305.62	8.051
305.99	9.474
306.35	9.595
306.72	7.537
307.09	8.438
307.45	9.529
307.82	7.986
308.19	10.453
308.55	9.597
308.92	9.586
309.29	8.603
309.65	8.504
310.02	8.361
310.38	9.001
310.75	9.399
311.12	8.288
311.48	8.696
311.85	9.215
312.22	8.122
312.58	9.766
312.95	9.605
313.31	9.524
313.68	9.634
314.05	8.061
314.41	10.412
314.78	10.619
315.14	11.100
315.51	10.455
315.87	10.246
316.24	12.639
316.61	10.433
316.97	10.813
317.34	11.523
317.70	11.568
318.07	11.250
318.43	13.824
318.80	11.742
319.16	13.867
319.53	13.485
319.89	12.992
320.26	13.360
320.62	14.042
320.99	13.048
321.35	15.211
321.72	15.992
322.08	15.005
322.45	16.447
322.81	16.994
323.18	15.407
323.54	16.023
323.91	16.943
324.27	17.383
324.64	19.288
325.00	18.339
325.37	20.478
325.73	20.399
326.10	20.799
326.46	20.987
326.83	21.697
327.19	21.883
327.56	22.763
327.92	23.151
328.29	24.196
328.65	23.774
329.01	24.081
329.38	24.332
329.74	24.174
330.11	24.560
330.47	23.284
330.84	25.865
331.20	27.852
331.56	25.370
331.93	25.845
332.29	26.031
332.66	27.149
333.02	27.230
333.38	25.023
333.75	26.648
334.11	26.589
334.48	28.286
334.84	27.473
335.20	26.990
335.57	26.473
335.93	27.733
336.29	26.888
336.66	27.157
337.02	27.881
337.38	29.352
337.75	28.364
338.11	28.133
338.47	28.923
338.84	28.466
339.20	29.616
339.56	28.807
339.93	28.559
340.29	28.257
340.65	29.211
341.02	29.521
341.38	30.531
341.74	29.417
342.11	28.769
342.47	28.826
342.83	29.325
343.20	29.443
343.56	30.696
343.92	31.355
344.28	30.231
344.65	29.534
345.01	30.337
345.37	29.689
345.73	31.381
346.10	31.579
346.46	31.203
346.82	29.787
347.19	29.593
347.55	30.493
347.91	30.421
348.27	30.962
348.63	32.112
349.00	29.204
349.36	31.006
349.72	31.426
350.08	30.328
350.45	31.445
350.81	31.312
351.17	31.515
351.53	32.571
351.89	30.388
352.26	29.520
352.62	31.855
352.98	30.763
353.34	30.515
353.70	31.553
354.07	31.774
354.43	30.504
354.79	31.709
355.15	31.508
355.51	32.041
355.87	31.877
356.24	30.832
356.60	30.881
356.96	32.063
357.32	32.428
357.68	31.587
358.04	32.068
358.40	31.752
358.77	33.094
359.13	32.906
359.49	32.280
359.85	32.683
360.21	32.297
360.57	32.288
360.93	32.753
361.29	31.269
361.66	32.837
362.02	32.727
362.38	33.206
362.74	32.854
363.10	32.882
363.46	33.284
363.82	34.410
364.18	33.210
364.54	32.426
364.90	31.971
365.26	32.023
365.62	35.182
365.98	33.504
366.35	34.741
366.71	32.373
367.07	33.309
367.43	32.998
367.79	34.346
368.15	35.032
368.51	33.576
368.87	33.453
369.23	32.274
369.59	33.090
369.95	32.991
370.31	33.526
370.67	34.552
371.03	33.458
371.39	32.823
371.75	33.919
372.11	33.096
372.47	34.985
372.83	33.286
373.19	33.595
373.55	33.430
373.91	34.845
374.27	35.507
374.63	34.314
374.99	32.908
375.35	33.357
375.71	35.594
376.07	35.042
376.42	35.034
376.78	34.228
377.14	33.717
377.50	33.931
377.86	34.873
378.22	34.397
378.58	35.128
378.94	34.405
379.30	34.623
379.66	35.423
380.02	34.948
380.38	34.206
380.74	34.590
381.09	35.767
381.45	34.557
381.81	34.732
382.17	34.835
382.53	35.978
382.89	36.095
383.25	36.092
383.61	35.305
383.97	34.540
384.32	34.647
384.68	35.480
385.04	35.662
385.40	34.723
385.76	37.107
386.12	35.705
386.48	36.207
386.83	35.193
387.19	36.264
387.55	36.700
387.91	35.819
388.27	35.348
388.62	36.312
388.98	35.114
389.34	36.665
389.70	35.674
390.06	34.928
390.42	35.751
390.77	34.925
391.13	36.003
391.49	36.675
391.85	34.503
392.20	34.903
392.56	35.855
392.92	35.643
393.28	34.257
393.64	34.655
393.99	36.552
394.35	35.610
394.71	35.441
395.07	35.575
395.42	34.973
395.78	36.352
396.14	35.750
396.50	35.954
396.85	35.673
397.21	36.028
397.57	34.796
397.92	35.950
398.28	35.402
398.64	35.000
399.00	36.005
399.35	34.368
399.71	35.325
400.07	34.583
400.42	34.884
400.78	35.028
401.14	35.390
401.49	34.604
401.85	34.186
402.21	35.723
402.57	35.500
402.92	33.563
403.28	34.962
403.63	35.057
403.99	34.247
404.35	34.853
404.70	34.286
405.06	34.489
405.42	33.996
405.77	34.282
406.13	32.887
406.49	33.570
406.84	33.741
407.20	34.497
407.55	33.612
407.91	33.088
408.27	32.696
408.62	33.600
408.98	34.319
409.34	33.891
409.69	32.946
410.05	32.328
410.40	32.716
410.76	33.414
411.11	33.437
411.47	33.465
411.83	33.082
412.18	34.363
412.54	32.085
412.89	32.204
413.25	33.875
413.60	32.857
413.96	33.006
414.31	33.171
414.67	32.264
415.03	32.157
415.38	31.593
415.74	32.378
416.09	32.920
416.45	32.816
416.80	32.386
417.16	32.942
417.51	32.578
417.87	32.464
418.22	32.513
418.58	31.639
418.93	33.166
419.29	31.306
419.64	32.793
420.00	33.060
420.35	31.821
420.71	33.111
421.06	31.246
421.42	32.512
421.77	31.908
422.12	32.577
422.48	32.269
422.83	31.439
423.19	31.828
423.54	32.569
423.90	31.979
424.25	31.114
424.61	32.619
424.96	31.069
425.31	32.698
425.67	32.394
426.02	32.450
426.38	31.497
426.73	32.809
427.09	32.405
427.44	31.647
427.79	32.410
428.15	31.917
428.50	31.678
428.85	29.607
429.21	31.126
429.56	32.399
429.92	31.793
430.27	31.980
430.62	30.528
430.98	31.157
431.33	30.547
431.68	30.926
432.04	31.247
432.39	30.120
432.74	30.367
433.10	31.552
433.45	30.048
433.80	30.528
434.16	29.640
434.51	30.376
434.86	30.604
435.22	31.071
435.57	30.381
435.92	31.198
436.28	29.994
436.63	29.720
436.98	30.012
437.34	29.280
437.69	30.829
438.04	30.370
438.39	30.544
438.75	29.569
439.10	30.334
439.45	29.884
439.81	30.031
440.16	30.641
440.51	30.687
440.86	30.695
441.22	29.129
441.57	29.801
441.92	30.483
442.27	30.211
442.63	29.443
442.98	29.868
443.33	28.325
443.68	29.602
444.03	30.005
444.39	29.661
444.74	29.822
445.09	29.677
445.44	30.142
445.79	29.706
446.15	29.185
446.50	29.007
446.85	28.959
447.20	29.145
447.55	29.520
447.91	29.272
448.26	29.254
448.61	29.131
448.96	28.973
449.31	28.671
449.66	28.397
450.02	28.237
450.37	28.512
450.72	27.778
451.07	29.051
451.42	28.402
451.77	27.788
452.12	27.452
452.47	27.560
452.83	28.681
453.18	28.147
453.53	26.991
453.88	28.476
454.23	27.966
454.58	27.897
454.93	27.899
455.28	26.476
455.63	28.022
455.98	27.901
456.34	27.458
456.69	27.128
457.04	28.670
457.39	27.157
457.74	26.058
458.09	26.133
458.44	26.858
458.79	25.826
459.14	27.288
459.49	27.940
459.84	27.355
460.19	26.942
460.54	27.078
460.89	26.761
461.24	26.894
461.59	26.188
461.94	25.660
462.29	26.779
462.64	26.512
462.99	25.999
463.34	27.191
463.69	25.740
464.04	25.605
464.39	25.955
464.74	25.153
465.09	27.137
465.44	26.197
465.79	25.283
466.14	25.713
466.49	25.589
466.84	26.234
467.19	25.219
467.54	24.521
467.89	25.016
468.24	25.182
468.59	25.143
468.94	25.270
469.29	25.377
469.64	24.675
469.99	24.947
470.34	25.119
470.68	26.398
471.03	24.841
471.38	23.680
471.73	25.070
472.08	24.559
472.43	24.765
472.78	23.304
473.13	24.966
473.48	24.821
473.83	23.288
474.17	24.806
474.52	23.995
474.87	24.303
475.22	24.466
475.57	23.941
475.92	24.410
476.27	23.923
476.61	23.611
476.96	22.867
477.31	23.580
477.66	23.708
478.01	23.695
478.36	23.420
478.70	23.817
479.05	23.516
479.40	23.529
479.75	22.941
480.10	23.195
480.45	23.650
480.79	23.112
481.14	22.695
481.49	22.562
481.84	23.407
482.19	22.264
482.53	22.542
482.88	22.721
483.23	22.169
483.58	22.170
483.92	22.943
484.27	21.923
484.62	22.232
484.97	21.476
485.31	21.604
485.66	21.118
486.01	21.685
486.36	21.516
486.70	22.505
487.05	22.091
487.40	21.406
487.75	22.113
488.09	21.693
488.44	21.320
488.79	21.517
489.13	21.274
489.48	21.548
489.83	20.987
490.17	21.169
490.52	21.201
490.87	21.240
491.22	21.968
491.56	21.395
491.91	20.746
492.26	20.758
492.60	21.689
492.95	21.790
493.30	20.322
493.64	21.660
493.99	20.145
494.34	20.388
494.68	20.381
495.03	20.195
495.37	21.344
495.72	20.444
496.07	20.341
496.41	20.047
496.76	20.728
497.11	20.540
497.45	20.477
497.80	20.888
498.14	20.070
498.49	19.959
498.84	19.511
499.18	20.281
499.53	20.139
499.87	19.455
500.22	20.030
500.56	19.869
500.91	18.825
501.26	19.427
501.60	19.823
501.95	19.117
502.29	19.903
502.64	18.919
502.98	19.388
503.33	18.780
503.67	18.747
504.02	19.453
504.36	19.990
504.71	19.394
505.06	18.873
505.40	19.492
505.75	19.072
506.09	18.702
506.44	19.713
506.78	19.439
507.13	19.183
507.47	18.433
507.82	18.857
508.16	18.489
508.51	18.678
508.85	19.205
509.19	18.254
509.54	19.410
509.88	18.716
510.23	18.881
510.57	18.867
510.92	17.644
511.26	18.712
511.61	19.197
511.95	18.849
512.30	19.124
512.64	18.642
512.98	18.248
513.33	18.467
513.67	18.931
514.02	18.879
514.36	18.971
514.70	19.639
515.05	19.389
515.39	18.182
515.74	19.162
516.08	18.589
516.42	18.316
516.77	18.724
517.11	18.101
517.46	18.971
517.80	18.355
518.14	18.922
518.49	18.690
518.83	18.530
519.17	18.011
519.52	17.288
519.86	18.007
520.20	18.165
520.55	17.761
520.89	18.193
521.23	19.063
521.58	18.864
521.92	19.679
522.26	17.957
522.61	18.052
522.95	18.940
523.29	18.869
523.64	18.107
523.98	19.054
524.32	17.655
524.66	18.182
525.01	19.351
525.35	18.795
525.69	18.249
526.04	18.320
526.38	18.807
526.72	16.743
527.06	17.315
527.41	17.810
527.75	17.225
528.09	17.674
528.43	19.244
528.78	17.426
529.12	17.677
529.46	17.154
529.80	19.189
530.15	19.274
530.49	17.508
530.83	17.715
531.17	17.058
531.51	18.399
531.86	17.335
532.20	17.258
532.54	17.291
532.88	18.412
533.22	17.675
533.57	16.907
533.91	16.253
534.25	18.294
534.59	17.319
534.93	16.614
535.27	16.751
535.62	16.980
535.96	18.069
536.30	16.821
536.64	17.712
536.98	17.840
537.32	17.354
537.66	18.163
538.01	17.063
538.35	16.644
538.69	17.909
539.03	16.678
539.37	17.026
539.71	16.155
540.05	16.904
540.39	17.313
540.73	16.946
541.07	17.818
541.42	16.935
541.76	17.825
542.10	16.586
542.44	16.261
542.78	16.105
543.12	17.376
543.46	17.038
543.80	17.280
544.14	15.955
544.48	16.855
544.82	17.225
545.16	16.598
545.50	17.089
545.84	16.643
546.18	16.738
546.52	16.222
546.86	14.953
547.20	16.667
547.54	15.830
547.88	15.829
548.22	16.042
548.56	15.963
548.90	14.825
549.24	16.804
549.58	16.432
549.92	15.654
550.26	16.044
550.60	16.357
550.94	15.161
551.28	14.992
551.62	16.846
551.96	14.511
552.30	16.447
552.64	15.938
552.98	16.104
553.32	15.692
553.66	15.747
554.00	15.693
554.34	15.805
554.68	15.339
555.02	15.327
555.36	15.108
555.69	14.579
556.03	15.346
556.37	15.302
556.71	15.018
557.05	15.436
557.39	14.796
557.73	15.217
558.07	16.139
558.41	16.233
558.75	15.744
559.08	14.894
559.42	15.000
559.76	14.492
560.10	15.443
560.44	14.073
560.78	16.084
561.12	14.810
561.45	14.828
561.79	15.336
562.13	15.259
562.47	15.036
562.81	15.562
563.15	15.444
563.48	15.064
563.82	15.511
564.16	15.111
564.50	13.919
564.84	15.596
565.17	15.627
565.51	16.803
565.85	15.706
566.19	15.252
566.52	16.287
566.86	16.388
567.20	14.819
567.54	14.842
567.88	15.583
568.21	15.328
568.55	14.293
568.89	14.938
569.23	15.022
569.56	15.105
569.90	15.428
570.24	15.259
570.57	14.800
570.91	15.162
571.25	15.061
571.59	14.419
571.92	15.111
572.26	14.764
572.60	14.915
572.93	15.218
573.27	14.796
573.61	14.529
573.95	14.637
574.28	14.778
574.62	14.162
574.96	14.485
575.29	14.538
575.63	14.201
575.97	13.635
576.30	14.422
576.64	14.225
576.98	14.749
577.31	14.672
577.65	14.702
577.98	14.518
578.32	14.473
578.66	14.614
578.99	14.693
579.33	14.189
579.67	14.257
580.00	14.304
580.34	14.428
580.67	14.194
581.01	14.697
581.35	14.276
581.68	14.151
582.02	14.443
582.35	14.280
582.69	14.823
583.02	14.377
583.36	14.833
583.70	15.161
584.03	14.039
584.37	15.048
584.70	14.615
585.04	13.990
585.37	14.423
585.71	14.515
586.04	14.145
586.38	13.924
586.72	14.290
587.05	14.327
587.39	14.481
587.72	14.489
588.06	14.226
588.39	14.184
588.73	14.560
589.06	14.808
589.40	14.587
589.73	14.859
590.07	14.539
590.40	14.783
590.73	14.539
591.07	14.377
591.40	14.559
591.74	14.525
592.07	15.121
592.41	14.576
592.74	14.297
593.08	13.971
593.41	14.300
593.75	14.360
594.08	13.663
594.41	14.374
594.75	14.160
595.08	14.226
595.42	13.949
595.75	13.819
596.09	13.878
596.42	13.601
596.75	14.121
597.09	13.986
597.42	14.092
597.75	14.475
598.09	14.079
598.42	13.809
598.76	13.471
599.09	14.263
599.42	13.907
599.76	13.619
600.09	13.688
600.42	13.760
600.76	13.559
601.09	13.855
601.42	14.023
601.76	13.775
602.09	14.563
602.42	13.943
602.76	14.049
603.09	13.206
603.42	14.381
603.76	13.710
604.09	13.892
604.42	14.213
604.76	14.464
605.09	14.168
605.42	14.131
605.75	13.047
606.09	14.183
606.42	13.803
606.75	14.113
607.09	13.670
607.42	13.336
607.75	13.721
608.08	13.073
608.42	14.253
608.75	14.169
609.08	14.549
609.41	14.061
609.75	13.407
610.08	13.380
610.41	13.285
610.74	13.067
611.07	14.109
611.41	13.492
611.74	13.913
612.07	13.383
612.40	14.223
612.73	13.164
613.07	14.286
613.40	13.457
613.73	12.535
614.06	14.079
614.39	13.536
614.72	13.333
615.06	14.469
615.39	13.701
615.72	13.778
616.05	14.190
616.38	12.650
616.71	13.333
617.05	13.403
617.38	14.268
617.71	13.522
618.04	13.841
618.37	14.565
618.70	13.795
619.03	13.889
619.36	13.097
619.69	13.116
620.03	14.682
620.36	13.734
620.69	14.632
621.02	13.609
621.35	14.274
621.68	14.116
622.01	13.333
622.34	13.727
622.67	14.353
623.00	14.012
623.33	13.415
623.66	13.538
623.99	13.616
624.32	13.688
624.65	13.233
624.99	13.770
625.32	13.040
625.65	14.925
625.98	13.860
626.31	13.217
626.64	14.298
626.97	14.311
627.30	13.135
627.63	14.905
627.96	13.118
628.29	13.043
628.62	13.078
628.95	13.727
629.28	13.710
629.61	11.864
629.94	13.392
630.26	13.340
630.59	14.048
630.92	13.333
631.25	15.179
631.58	13.546
631.91	11.842
632.24	13.073
632.57	14.545
632.90	13.405
633.23	14.706
633.56	11.839
633.89	11.714
634.22	15.679
634.55	13.088
634.88	13.410
635.20	13.077
635.53	13.067
635.86	12.094
636.19	13.325
636.52	13.138
636.85	13.027
637.18	14.088
637.51	13.962
637.83	13.535
638.16	15.143
638.49	11.172
638.82	15.526
639.15	12.619
639.48	12.930
639.81	14.086
640.13	12.987
640.46	12.974
640.79	11.046
641.12	12.555
641.45	11.562
641.77	14.074
642.10	13.112
642.43	12.862
642.76	12.376
643.09	13.247
643.41	11.327
643.74	14.003
644.07	13.793
644.40	13.007
644.73	13.835
645.05	13.591
645.38	12.698
645.71	11.879
646.04	14.004
646.36	13.298
646.69	14.209
647.02	14.367
647.35	10.634
647.67	11.517
648.00	15.299
648.33	15.529
648.66	12.881
648.98	12.060
649.31	12.893
649.64	11.931
649.96	12.966
650.29	13.118
650.62	13.162
650.94	13.704
651.27	10.428
651.60	12.793
651.92	12.413
652.25	13.499
652.58	12.833
652.90	13.551
653.23	12.941
653.56	13.198
653.88	12.715
654.21	10.158
654.54	12.733
654.86	13.752
655.19	11.696
655.52	14.474
655.84	13.118
656.17	14.809
656.49	20.242
656.82	20.792
657.15	15.711
657.47	11.626
657.80	8.649
658.13	8.323
658.45	12.811
658.78	12.401
659.10	12.458
659.43	12.658
659.75	12.432
660.08	12.000
660.41	12.870
660.73	12.293
661.06	15.771
661.38	11.155
661.71	10.472
662.03	14.807
662.36	12.747
662.68	12.168
663.01	13.100
663.33	9.977
663.66	11.860
663.98	11.860
664.31	13.006
664.63	11.060
664.96	6.087
665.28	12.362
665.61	11.039
665.93	11.957
666.26	13.666
666.58	10.738
666.91	13.412
667.23	12.028
667.56	11.848
667.88	11.751
668.21	11.217
668.53	12.293
668.86	11.792
669.18	12.500
669.50	9.927
669.83	10.698
670.15	14.918
670.48	11.722
670.80	13.825
671.13	14.094
671.45	10.731
671.77	12.446
672.10	11.089
672.42	12.547
672.75	11.723
673.07	13.417
673.39	14.128
673.72	8.284
674.04	12.083
674.37	15.678
674.69	11.991
675.01	14.222
675.34	12.387
675.66	12.500
675.98	12.639
676.31	12.156
676.63	9.026
676.95	10.682
677.28	13.176
677.60	16.386
677.92	11.239
678.25	14.661
678.57	10.390
678.89	13.025
679.22	12.528
679.54	11.647
679.86	10.139
680.18	11.456
680.51	10.417
680.83	9.940
681.15	12.400
681.48	12.295
681.80	13.223
682.12	12.298
682.44	12.343
682.77	10.155
683.09	10.984
683.41	10.909
683.73	10.369
684.06	10.619
684.38	9.462
684.70	12.854
685.02	11.411
685.34	11.067
685.67	11.069
685.99	13.201
686.31	13.274
686.63	13.544
686.96	10.646
687.28	9.495
687.60	10.837
687.92	14.545
688.24	11.089
688.56	11.354
688.89	10.714
689.21	12.667
689.53	11.137
689.85	11.163
690.17	13.393
690.49	14.421
690.82	12.621
691.14	11.190
691.46	11.682
691.78	13.739
692.10	12.043
692.42	12.338
692.74	11.752
693.06	10.360
693.39	11.765
693.71	12.670
694.03	8.545
694.35	10.981
694.67	12.879
694.99	9.661
695.31	13.316
695.63	13.000
695.95	10.354
696.27	6.736
696.59	9.444
696.91	13.445
697.23	9.512
697.56	10.396
697.88	13.548
698.20	12.528
698.52	10.118
698.84	10.287
699.16	11.250
699.48	11.028
699.80	12.159
700.12	9.704
700.44	10.644
700.76	7.849
701.08	13.636
701.40	12.651
701.72	13.889
702.04	9.241
702.36	11.706
702.68	8.709
703.00	11.212
703.32	9.677
703.64	8.757
703.96	11.014
704.28	11.043
704.60	11.111
704.91	7.571
705.23	11.960
705.55	13.074
705.87	11.191
706.19	8.889
706.51	7.216
706.83	9.968
707.15	8.411
707.47	11.204
707.79	12.760
708.11	11.500
708.43	11.250
708.74	11.111
709.06	13.803
709.38	13.150
709.70	11.243
710.02	13.694
710.34	12.384
710.66	7.372
710.98	8.609
711.29	14.426
711.61	13.898
711.93	10.749
712.25	18.213
712.57	8.791
712.89	10.075
713.20	13.149
713.52	12.892
713.84	11.945
714.16	11.684
714.48	8.710
714.80	12.821
715.11	10.638
715.43	7.524
715.75	11.333
716.07	11.628
716.39	11.409
716.70	5.904
717.02	8.015
717.34	13.765
717.66	10.619
717.97	7.391
718.29	11.297
718.61	12.598
718.93	10.465
719.24	14.449
719.56	10.442
719.88	10.309
720.20	10.606
720.51	9.962
720.83	12.355
721.15	8.403
721.46	11.290
721.78	6.719
722.10	10.781
722.42	7.884
722.73	10.612
723.05	13.061
723.37	13.559
723.68	14.865
724.00	9.402
724.32	10.222
724.63	8.636
724.95	15.284
725.27	13.364
725.58	5.508
725.90	8.730
726.22	15.444
726.53	12.881
726.85	11.985
727.16	11.321
727.48	4.453
727.80	13.360
728.11	5.085
728.43	6.275
728.74	2.016
729.06	10.000
729.38	13.534
729.69	9.960
730.01	4.615
730.32	14.179
730.64	14.134
730.96	7.547
731.27	13.000
731.59	10.169
731.90	9.236
732.22	12.303
732.53	11.628
732.85	10.638
733.16	10.438
733.48	5.755
733.80	5.435
734.11	7.797
734.43	10.309
734.74	11.818
735.06	7.166
735.37	9.970
735.69	13.805
736.00	9.059
736.32	8.725
736.63	10.915
736.95	12.287
737.26	8.541
737.58	7.718
737.89	9.890
738.21	10.526
738.52	6.584
738.83	12.664
739.15	7.424
739.46	10.630
739.78	9.524
740.09	9.150
740.41	3.623
740.72	7.480
741.04	12.551
741.35	11.915
741.66	8.057
741.98	8.673
742.29	5.446
742.61	10.471
742.92	6.161
743.23	0.926
743.55	10.860
743.86	10.526
744.18	13.397
744.49	6.383
744.80	9.239
745.12	12.834
745.43	6.829
745.74	8.333
746.06	12.195
746.37	14.136
746.68	9.479
747.00	6.915
747.31	14.428
747.62	9.709
747.94	6.699
748.25	5.446
748.56	4.918
748.88	6.806
749.19	10.638
749.50	13.300
749.82	4.717
750.13	5.963
750.44	13.910
750.75	11.940
751.07	13.139
751.38	11.111
751.69	8.627
752.01	8.527
752.32	9.163
752.63	8.300
752.94	7.759
753.26	17.155
753.57	10.860
753.88	8.850
754.19	8.750
754.51	4.545
754.82	10.121
755.13	12.917
755.44	12.097
755.75	14.453
756.07	9.339
756.38	8.302
756.69	7.663
757.00	10.667
757.31	7.190
757.63	11.890
757.94	10.000
758.25	7.397
758.56	12.766
758.87	10.198
759.18	9.657
759.50	6.909
759.81	13.043
760.12	10.323
760.43	12.121
760.74	10.494
761.05	9.846
761.36	10.227
761.67	12.727
761.99	12.585
762.30	9.455
762.61	12.648
762.92	8.145
763.23	6.757
763.54	5.140
763.85	11.441
764.16	4.149
764.47	5.645
764.78	8.059
765.10	13.805
765.41	10.410
765.72	12.698
766.03	7.519
766.34	10.219
766.65	11.554
766.96	9.091
767.27	7.979
767.58	4.023
767.89	-2.837
768.20	6.818
768.51	10.440
768.82	8.374
769.13	4.608
769.44	6.438
769.75	6.393
770.06	12.500
770.37	8.654
770.68	7.107
770.99	7.692
771.30	9.314
771.61	7.692
771.92	12.500
772.23	14.778
772.54	10.215
772.85	8.642
773.16	11.798
773.47	9.804
773.78	9.150
774.09	8.383
774.39	3.333
774.70	10.828
775.01	11.034
775.32	5.000
775.63	5.785
775.94	9.924
776.25	3.937
776.56	8.333
776.87	8.654
777.18	5.983
777.48	-0.862
777.79	4.348
778.10	-7.619
778.41	-8.108
778.72	13.492
779.03	10.526
779.34	9.220
779.65	7.534
779.95	5.479
780.26	5.517
780.57	8.130
780.88	4.724
781.19	1.724
781.50	11.628
781.80	11.834
782.11	8.176
782.42	5.385
782.73	2.158
783.04	0.000
783.34	8.333
783.65	4.274
783.96	5.738
784.27	16.552
784.57	12.195
784.88	6.250
785.19	12.000
785.50	3.000
785.81	14.655
786.11	9.483
786.42	-6.796
786.73	10.909
787.04	-1.020
787.34	3.571
787.65	5.714
787.96	7.080
788.26	9.091
788.57	1.709
788.88	9.375
789.19	-0.794
789.49	0.000
789.80	-8.163
790.11	4.040
790.41	8.182
790.72	15.217
791.03	0.000
791.33	-1.250
791.64	3.750
791.95	1.163
792.25	11.702
792.56	8.989
792.87	0.000
793.17	7.246
793.48	-12.000
793.79	11.250
794.09	3.750
794.40	-0.943
794.70	-4.854
795.01	4.065
795.32	-6.838
795.62	0.000
795.93	8.824
796.23	9.434
796.54	4.167
796.85	13.235
797.15	12.676
797.46	-5.556
797.76	21.212
798.07	4.651
798.37	0.000
798.68	-7.576
798.99	14.815
799.29	8.571
799.60	-2.899
799.90	17.333
800.21	6.557
800.51	12.308
800.82	0.000
801.12	14.493
801.43	1.639
801.73	7.937
802.04	2.000
802.34	-4.478
802.65	-1.923
802.95	-19.643
803.26	7.692
803.56	1.961
803.87	-26.087
804.17	18.667
804.48	17.460
804.78	-1.852
805.09	15.217
805.39	-26.667
805.70	1.852
806.00	0.000
806.30	-2.817
806.61	2.857
806.91	-8.333
807.22	0.000
807.52	-1.333
807.83	-7.273
808.13	9.722
808.43	5.882
808.74	-8.955
809.04	8.475
809.35	-13.462
809.65	-1.562
809.95	-35.135
810.26	0.000
810.56	0.000
810.86	-21.429
811.17	-12.000
811.47	-14.286
811.77	-23.684
812.08	-13.636
812.38	-13.208
812.69	-35.000
812.99	-36.364
813.29	-7.895
813.59	-11.429
813.90	-9.091
814.20	-33.333
814.50	-21.154
814.81	1.887
815.11	-4.255
815.41	22.034
815.72	0.000
816.02	23.529
816.32	18.750
816.62	9.756
816.93	0.000
817.23	-31.429
817.53	-2.083
817.84	-23.913
818.14	21.154
818.44	-7.895
818.74	0.000
819.04	-30.000
819.35	13.514
819.65	-8.824
819.95	-11.111
820.25	-9.524
820.56	10.000
820.86	-41.379
821.16	7.500
821.46	-6.383
821.76	7.500
822.07	6.977
822.37	-16.216
822.67	-9.375
822.97	14.286
823.27	-25.000
823.57	-36.000
823.88	-40.741
824.18	-14.286
824.48	-11.765
824.78	16.129
825.08	-8.696
825.38	12.121
825.69	-87.500
825.99	-2.632
826.29	-16.667
826.59	-6.667
826.89	-71.429
827.19	0.000
827.49	-20.000
827.79	25.714
828.09	-7.143
828.39	24.242
828.70	37.838
829.00	-25.000
829.30	-14.286
829.60	-6.667
829.90	-6.250
830.20	-44.737
830.50	7.407
830.80	0.000
831.10	-9.091
831.40	12.121
831.70	25.806
832.00	23.810
832.30	-23.810
832.60	-75.000
832.90	-6.897
833.20	-95.000
833.50	12.121
833.80	-22.222
834.10	-23.077
834.40	-12.500
834.70	-88.889
835.00	-47.368
835.30	42.308
835.60	-6.667
835.90	12.903
836.20	-36.364
836.50	0.000
836.80	-65.385
837.10	3.571
837.40	-600.000
837.70	-27.273
838.00	-136.364
838.30	4.348
838.60	-46.154
838.90	-31.818
839.19	-7.143
839.49	33.333
839.79	15.385
840.09	-141.667
840.39	17.857
840.69	14.286
840.99	-26.923
841.29	-47.368
841.59	-150.000
841.88	-36.364
842.18	-140.000
842.48	-18.750
842.78	-20.000
843.08	-29.630
843.38	-150.000
843.68	-4.348
843.97	-13.333
844.27	-86.667
844.57	-50.000
844.87	5.556
845.17	-47.619
845.47	-53.333
845.76	-61.905
846.06	-11.765
846.36	-10.000
846.66	-64.286
846.96	6.667
847.25	-162.500
847.55	-78.571
847.85	50.000
848.15	-18.182
848.44	-800.000
848.74	-30.000
849.04	29.630
849.34	-27.273
849.63	-300.000
849.93	-360.000
850.23	-27.778
850.53	50.000
850.82	-53.846
851.12	0.000
851.42	-40.000
851.71	7.692
852.01	-57.143
852.31	-300.000
852.61	-127.273
852.90	-15.000
853.20	0.000
853.50	-58.333
853.79	-8.696
854.09	8.333
854.39	-10.526
854.68	12.500
854.98	3.226
855.28	-3.846
855.57	-35.000
855.87	-50.000
856.17	-3.704
856.46	-35.714
856.76	-73.333
857.05	-66.667
857.35	32.000
857.65	-66.667
857.94	-69.231
858.24	20.690
858.53	-22.222
858.83	22.222
859.13	-13.636
859.42	-30.435
859.72	-300.000
860.01	-533.333
860.31	12.000
860.60	14.286
860.90	-500.000
861.20	-66.667
861.49	-700.000
861.79	-40.000
862.08	-10.000
862.38	-26.667
862.67	-280.000
862.97	-200.000
863.26	-116.667
863.56	-27.778
863.85	-533.333
864.15	-16.667
864.44	-70.000
864.74	-50.000
865.03	650.000
865.33	-460.000
865.62	-150.000
865.92	33.333
866.21	-216.667
866.51	-37.500
866.80	-100.000
867.10	-350.000
867.39	-8.333
867.69	0.000
867.98	0.000
868.27	-166.667
868.57	-33.333
868.86	16.667
869.16	-76.923
869.45	20.000
869.75	-1100.000
870.04	0.000
870.33	-200.000
870.63	-19.048
870.92	500.000
871.22	-200.000
871.51	-1100.000
871.80	55.556
872.10	466.667
>>>>>End Processed Spectral Data<<<<<
