SpectraSuite Data File
++++++++++++++++++++++++++++++++++++
Date: Fri May 15 20:49:47 PDT 2015
User: schluterlab
Dark Spectrum Present: Yes
Reference Spectrum Present: Yes
Number of Sampled Component Spectra: 1
Spectrometers: USB2E3373
Integration Time (usec): 3000 (USB2E3373)
Spectra Averaged: 3 (USB2E3373)
Boxcar Smoothing: 0 (USB2E3373)
Correct for Electrical Dark: No (USB2E3373)
Strobe/Lamp Enabled: No (USB2E3373)
Correct for Detector Non-linearity: No (USB2E3373)
Correct for Stray Light: No (USB2E3373)
Number of Pixels in Processed Spectrum: 2048
>>>>>Begin Processed Spectral Data<<<<<
178.53	0.000
178.91	0.000
179.29	-37.500
179.67	-50.000
180.04	185.714
180.42	150.000
180.80	-700.000
181.18	166.667
181.56	450.000
181.94	-200.000
182.31	300.000
182.69	0.000
183.07	-433.333
183.45	-20.000
183.83	133.333
184.20	-27.273
184.58	133.333
184.96	-25.000
185.34	166.667
185.72	-700.000
186.09	100.000
186.47	-100.000
186.85	83.333
187.23	66.667
187.61	1100.000
187.98	-66.667
188.36	-88.889
188.74	-166.667
189.12	41.176
189.49	55.556
189.87	0.000
190.25	42.857
190.63	-150.000
191.00	-400.000
191.38	15.789
191.76	250.000
192.14	-200.000
192.51	650.000
192.89	-77.778
193.27	-228.571
193.65	183.333
194.02	218.182
194.40	50.000
194.78	-112.500
195.15	-125.000
195.53	-212.500
195.91	275.000
196.29	-50.000
196.66	92.308
197.04	71.429
197.42	-11.111
197.79	-900.000
198.17	-23.077
198.55	1200.000
198.92	-366.667
199.30	-800.000
199.68	-140.000
200.05	-600.000
200.43	0.000
200.81	-133.333
201.18	33.333
201.56	1700.000
201.94	-300.000
202.31	-200.000
202.69	-180.000
203.07	175.000
203.44	-300.000
203.82	0.000
204.19	0.000
204.57	-400.000
204.95	137.500
205.32	-90.000
205.70	-142.857
206.08	-25.000
206.45	177.778
206.83	28.571
207.20	-28.571
207.58	1100.000
207.96	-300.000
208.33	-80.000
208.71	-225.000
209.08	-183.333
209.46	-400.000
209.84	-40.000
210.21	-1000.000
210.59	57.143
210.96	0.000
211.34	225.000
211.71	13.333
212.09	-214.286
212.46	-2200.000
212.84	0.000
213.22	20.000
213.59	700.000
213.97	23.077
214.34	-63.636
214.72	-116.667
215.09	450.000
215.47	30.769
215.84	-54.545
216.22	-333.333
216.59	-125.000
216.97	-300.000
217.34	-275.000
217.72	0.000
218.09	-62.500
218.47	112.500
218.84	-1000.000
219.22	-88.889
219.59	-20.000
219.97	266.667
220.34	275.000
220.72	-57.143
221.09	-175.000
221.47	-200.000
221.84	-800.000
222.22	-800.000
222.59	-27.273
222.97	8.333
223.34	-533.333
223.72	-50.000
224.09	-14.286
224.46	35.714
224.84	366.667
225.21	-10.000
225.59	40.000
225.96	-350.000
226.34	225.000
226.71	-171.429
227.08	-200.000
227.46	-137.500
227.83	-750.000
228.21	-11.111
228.58	0.000
228.95	-62.500
229.33	110.000
229.70	-12.500
230.08	-62.500
230.45	-114.286
230.82	-71.429
231.20	0.000
231.57	42.857
231.95	-57.143
232.32	-90.000
232.69	-71.429
233.07	166.667
233.44	-80.000
233.81	-50.000
234.19	22.222
234.56	-11.765
234.93	650.000
235.31	25.000
235.68	-180.000
236.05	-30.769
236.43	-65.000
236.80	17.647
237.17	-12.500
237.55	-5.000
237.92	11.111
238.29	8.333
238.67	66.667
239.04	-8.824
239.41	-19.512
239.79	-30.000
240.16	21.951
240.53	26.316
240.91	-13.043
241.28	14.286
241.65	8.929
242.02	17.808
242.40	23.333
242.77	1.695
243.14	4.545
243.51	16.250
243.89	27.586
244.26	19.540
244.63	10.714
245.00	19.588
245.38	23.711
245.75	10.112
246.12	14.655
246.49	9.917
246.87	26.923
247.24	14.286
247.61	16.667
247.98	14.634
248.36	19.375
248.73	16.447
249.10	15.584
249.47	18.987
249.84	15.033
250.22	15.294
250.59	23.529
250.96	25.352
251.33	19.186
251.70	24.706
252.08	18.782
252.45	17.822
252.82	20.101
253.19	26.728
253.56	19.626
253.94	22.973
254.31	18.696
254.68	24.561
255.05	22.835
255.42	20.087
255.79	24.710
256.16	21.012
256.54	25.000
256.91	16.730
257.28	18.587
257.65	22.097
258.02	21.631
258.39	25.589
258.76	24.176
259.14	21.927
259.51	24.595
259.88	22.680
260.25	20.915
260.62	25.694
260.99	17.288
261.36	17.123
261.73	22.785
262.10	21.581
262.47	22.393
262.85	22.257
263.22	22.154
263.59	24.611
263.96	23.292
264.33	20.606
264.70	23.214
265.07	24.107
265.44	24.079
265.81	23.446
266.18	21.585
266.55	23.393
266.92	22.798
267.29	23.499
267.66	22.251
268.03	23.037
268.40	21.410
268.77	25.134
269.14	23.261
269.51	26.478
269.88	21.197
270.25	20.663
270.62	21.463
270.99	25.064
271.36	22.494
271.73	22.300
272.10	23.844
272.47	24.350
272.84	21.782
273.21	22.274
273.58	23.133
273.95	22.197
274.32	21.709
274.69	22.172
275.06	23.661
275.43	20.181
275.80	23.841
276.17	23.678
276.54	21.627
276.91	23.684
277.28	22.271
277.65	23.967
278.02	19.362
278.39	22.101
278.76	22.432
279.13	17.842
279.50	24.160
279.87	22.246
280.23	23.011
280.60	21.442
280.97	20.808
281.34	22.885
281.71	24.025
282.08	18.200
282.45	20.939
282.82	24.324
283.19	20.890
283.56	23.121
283.92	21.063
284.29	21.346
284.66	18.992
285.03	21.415
285.40	20.605
285.77	19.859
286.14	19.675
286.51	21.956
286.87	20.475
287.24	20.810
287.61	20.459
287.98	21.930
288.35	20.797
288.72	22.242
289.08	20.312
289.45	20.738
289.82	18.706
290.19	19.113
290.56	17.324
290.93	19.192
291.29	17.565
291.66	19.843
292.03	19.458
292.40	19.355
292.77	18.979
293.13	19.481
293.50	17.754
293.87	18.321
294.24	21.020
294.60	18.927
294.97	18.601
295.34	15.798
295.71	18.778
296.08	17.339
296.44	16.643
296.81	15.694
297.18	17.536
297.55	17.886
297.91	16.438
298.28	16.755
298.65	18.453
299.02	17.116
299.38	14.637
299.75	17.103
300.12	16.230
300.48	15.679
300.85	15.970
301.22	15.714
301.59	15.132
301.95	16.709
302.32	17.250
302.69	15.174
303.05	16.584
303.42	15.816
303.79	16.589
304.15	15.651
304.52	14.150
304.89	16.491
305.25	15.254
305.62	14.702
305.99	16.023
306.35	15.838
306.72	16.085
307.09	15.393
307.45	15.155
307.82	15.509
308.19	15.912
308.55	15.594
308.92	17.102
309.29	14.749
309.65	14.747
310.02	14.741
310.38	15.697
310.75	15.847
311.12	14.639
311.48	15.270
311.85	16.335
312.22	14.873
312.58	15.393
312.95	14.088
313.31	14.907
313.68	15.393
314.05	14.082
314.41	15.979
314.78	16.598
315.14	16.136
315.51	15.942
315.87	14.652
316.24	17.796
316.61	17.323
316.97	17.163
317.34	15.137
317.70	16.826
318.07	16.250
318.43	17.255
318.80	16.856
319.16	17.578
319.53	18.993
319.89	16.535
320.26	17.206
320.62	18.556
320.99	16.701
321.35	16.958
321.72	18.692
322.08	17.523
322.45	18.071
322.81	18.468
323.18	18.057
323.54	18.822
323.91	18.014
324.27	19.629
324.64	18.820
325.00	19.069
325.37	20.845
325.73	18.404
326.10	19.709
326.46	19.552
326.83	20.210
327.19	19.965
327.56	18.332
327.92	21.831
328.29	20.446
328.65	21.038
329.01	19.945
329.38	20.461
329.74	18.791
330.11	20.945
330.47	19.202
330.84	19.712
331.20	22.909
331.56	20.093
331.93	21.553
332.29	21.723
332.66	20.724
333.02	21.654
333.38	21.448
333.75	20.696
334.11	19.606
334.48	21.668
334.84	21.978
335.20	19.579
335.57	21.306
335.93	21.680
336.29	20.902
336.66	19.619
337.02	20.539
337.38	19.352
337.75	20.909
338.11	21.821
338.47	21.168
338.84	20.980
339.20	20.475
339.56	21.743
339.93	20.412
340.29	21.193
340.65	21.147
341.02	21.897
341.38	21.062
341.74	19.611
342.11	20.884
342.47	20.819
342.83	22.405
343.20	20.819
343.56	21.217
343.92	21.789
344.28	20.581
344.65	21.416
345.01	20.225
345.37	20.521
345.73	22.678
346.10	21.484
346.46	21.362
346.82	21.031
347.19	21.031
347.55	21.136
347.91	21.197
348.27	20.614
348.63	21.380
349.00	21.329
349.36	21.363
349.72	21.559
350.08	21.230
350.45	21.149
350.81	20.598
351.17	21.254
351.53	20.408
351.89	20.809
352.26	20.800
352.62	20.323
352.98	20.643
353.34	20.451
353.70	22.330
354.07	21.210
354.43	21.057
354.79	20.809
355.15	21.349
355.51	21.282
355.87	21.359
356.24	19.494
356.60	21.746
356.96	21.825
357.32	21.565
357.68	21.110
358.04	21.082
358.40	19.936
358.77	22.010
359.13	20.897
359.49	20.416
359.85	20.983
360.21	21.691
360.57	20.888
360.93	20.953
361.29	20.393
361.66	22.335
362.02	21.894
362.38	21.554
362.74	21.575
363.10	20.692
363.46	20.830
363.82	22.164
364.18	20.959
364.54	20.809
364.90	20.215
365.26	21.033
365.62	21.825
365.98	21.481
366.35	22.068
366.71	21.508
367.07	22.206
367.43	21.352
367.79	21.484
368.15	20.818
368.51	21.631
368.87	20.962
369.23	20.578
369.59	20.991
369.95	22.214
370.31	21.604
370.67	21.194
371.03	21.583
371.39	21.225
371.75	21.245
372.11	22.111
372.47	22.707
372.83	21.434
373.19	22.325
373.55	21.588
373.91	22.030
374.27	21.970
374.63	21.823
374.99	21.560
375.35	22.284
375.71	23.007
376.07	22.051
376.42	22.449
376.78	23.289
377.14	22.139
377.50	23.373
377.86	22.758
378.22	22.336
378.58	22.821
378.94	21.865
379.30	22.458
379.66	23.950
380.02	22.685
380.38	22.946
380.74	22.861
381.09	23.742
381.45	23.303
381.81	22.702
382.17	22.906
382.53	22.174
382.89	22.850
383.25	22.962
383.61	23.963
383.97	22.603
384.32	23.702
384.68	23.282
385.04	23.713
385.40	23.398
385.76	24.340
386.12	23.933
386.48	24.393
386.83	23.716
387.19	24.115
387.55	24.404
387.91	23.961
388.27	24.359
388.62	25.047
388.98	24.187
389.34	23.548
389.70	25.047
390.06	24.795
390.42	24.093
390.77	24.264
391.13	24.212
391.49	24.127
391.85	24.496
392.20	25.047
392.56	24.857
392.92	25.073
393.28	24.175
393.64	25.285
393.99	25.956
394.35	25.364
394.71	25.862
395.07	25.581
395.42	24.529
395.78	26.189
396.14	26.103
396.50	25.618
396.85	25.306
397.21	25.063
397.57	25.204
397.92	25.225
398.28	25.747
398.64	25.361
399.00	26.185
399.35	25.621
399.71	25.503
400.07	26.602
400.42	25.826
400.78	26.516
401.14	26.255
401.49	26.802
401.85	26.935
402.21	26.867
402.57	26.875
402.92	26.035
403.28	26.504
403.63	28.499
403.99	26.531
404.35	26.483
404.70	26.190
405.06	27.145
405.42	27.284
405.77	26.322
406.13	27.125
406.49	26.939
406.84	26.773
407.20	28.116
407.55	28.010
407.91	27.540
408.27	28.043
408.62	27.938
408.98	27.172
409.34	28.067
409.69	27.519
410.05	27.278
410.40	27.778
410.76	28.589
411.11	27.375
411.47	28.863
411.83	28.060
412.18	28.893
412.54	28.090
412.89	26.909
413.25	28.941
413.60	27.702
413.96	27.301
414.31	29.146
414.67	29.057
415.03	28.562
415.38	29.243
415.74	29.967
416.09	29.327
416.45	29.372
416.80	29.081
417.16	30.387
417.51	29.247
417.87	28.944
418.22	29.922
418.58	29.900
418.93	30.658
419.29	28.489
419.64	29.164
420.00	31.108
420.35	29.373
420.71	29.951
421.06	29.650
421.42	30.709
421.77	30.347
422.12	29.285
422.48	30.374
422.83	29.988
423.19	29.628
423.54	30.041
423.90	30.094
424.25	30.367
424.61	31.028
424.96	29.326
425.31	31.254
425.67	30.692
426.02	30.624
426.38	31.810
426.73	31.356
427.09	31.772
427.44	31.412
427.79	30.053
428.15	31.371
428.50	31.133
428.85	30.160
429.21	31.183
429.56	31.536
429.92	31.125
430.27	30.075
430.62	30.319
430.98	31.104
431.33	31.441
431.68	31.554
432.04	31.191
432.39	30.747
432.74	30.728
433.10	31.782
433.45	32.378
433.80	30.934
434.16	30.803
434.51	31.667
434.86	30.836
435.22	32.249
435.57	31.441
435.92	30.958
436.28	31.246
436.63	31.888
436.98	31.518
437.34	31.155
437.69	32.856
438.04	32.080
438.39	30.788
438.75	32.726
439.10	32.032
439.45	32.075
439.81	31.865
440.16	32.898
440.51	33.791
440.86	33.051
441.22	32.579
441.57	32.561
441.92	32.686
442.27	32.650
442.63	32.709
442.98	32.740
443.33	32.443
443.68	31.671
444.03	32.886
444.39	32.022
444.74	34.058
445.09	33.630
445.44	33.447
445.79	33.471
446.15	32.709
446.50	32.280
446.85	33.209
447.20	32.795
447.55	33.594
447.91	32.769
448.26	33.125
448.61	32.988
448.96	33.563
449.31	33.410
449.66	33.275
450.02	32.573
450.37	33.432
450.72	32.589
451.07	34.177
451.42	32.459
451.77	32.489
452.12	32.895
452.47	33.419
452.83	33.687
453.18	33.144
453.53	34.450
453.88	32.605
454.23	33.497
454.58	34.131
454.93	33.247
455.28	32.508
455.63	33.106
455.98	33.915
456.34	32.439
456.69	33.736
457.04	33.774
457.39	33.293
457.74	33.978
458.09	31.901
458.44	32.651
458.79	33.277
459.14	33.467
459.49	33.194
459.84	32.995
460.19	33.799
460.54	33.252
460.89	33.580
461.24	33.354
461.59	33.373
461.94	33.585
462.29	34.077
462.64	35.216
462.99	33.446
463.34	33.449
463.69	33.784
464.04	33.838
464.39	33.475
464.74	32.822
465.09	33.999
465.44	33.583
465.79	32.653
466.14	34.265
466.49	33.410
466.84	33.432
467.19	33.229
467.54	33.269
467.89	34.365
468.24	34.428
468.59	34.349
468.94	34.222
469.29	34.230
469.64	33.630
469.99	34.548
470.34	33.379
470.68	35.272
471.03	34.324
471.38	34.094
471.73	35.364
472.08	33.514
472.43	34.430
472.78	34.750
473.13	33.946
473.48	34.658
473.83	32.254
474.17	33.808
474.52	34.588
474.87	33.879
475.22	33.740
475.57	33.597
475.92	34.284
476.27	33.877
476.61	35.012
476.96	33.017
477.31	34.451
477.66	33.876
478.01	33.015
478.36	34.695
478.70	34.421
479.05	33.571
479.40	34.075
479.75	32.899
480.10	33.333
480.45	33.500
480.79	34.592
481.14	34.939
481.49	34.384
481.84	34.846
482.19	33.630
482.53	33.429
482.88	33.842
483.23	33.637
483.58	33.160
483.92	33.253
484.27	33.592
484.62	33.707
484.97	33.416
485.31	32.478
485.66	30.790
486.01	30.407
486.36	30.479
486.70	32.108
487.05	32.410
487.40	32.627
487.75	33.042
488.09	33.282
488.44	34.285
488.79	34.217
489.13	34.255
489.48	33.647
489.83	33.587
490.17	32.629
490.52	34.365
490.87	33.781
491.22	34.527
491.56	33.397
491.91	33.939
492.26	34.565
492.60	33.733
492.95	34.678
493.30	32.829
493.64	34.086
493.99	34.106
494.34	33.641
494.68	34.333
495.03	33.820
495.37	33.759
495.72	33.872
496.07	34.390
496.41	33.255
496.76	34.040
497.11	33.209
497.45	33.652
497.80	34.914
498.14	34.078
498.49	33.926
498.84	34.531
499.18	33.936
499.53	34.375
499.87	33.317
500.22	33.531
500.56	34.695
500.91	33.635
501.26	33.811
501.60	33.005
501.95	33.916
502.29	32.494
502.64	33.929
502.98	33.794
503.33	33.285
503.67	33.639
504.02	34.018
504.36	34.191
504.71	32.828
505.06	34.524
505.40	33.858
505.75	33.454
506.09	33.908
506.44	34.651
506.78	34.286
507.13	34.230
507.47	33.577
507.82	34.135
508.16	34.337
508.51	34.050
508.85	34.118
509.19	33.475
509.54	34.102
509.88	34.574
510.23	34.212
510.57	34.741
510.92	33.689
511.26	34.915
511.61	34.213
511.95	34.521
512.30	35.366
512.64	34.391
512.98	33.857
513.33	35.031
513.67	34.736
514.02	35.698
514.36	35.771
514.70	34.732
515.05	35.781
515.39	35.950
515.74	35.868
516.08	34.788
516.42	34.688
516.77	35.986
517.11	36.142
517.46	35.607
517.80	35.042
518.14	35.334
518.49	34.976
518.83	36.027
519.17	34.809
519.52	34.932
519.86	35.054
520.20	35.905
520.55	34.396
520.89	37.139
521.23	34.769
521.58	35.836
521.92	36.218
522.26	35.654
522.61	35.714
522.95	37.152
523.29	36.277
523.64	37.230
523.98	36.552
524.32	36.082
524.66	36.364
525.01	35.909
525.35	37.330
525.69	36.431
526.04	35.317
526.38	37.095
526.72	35.317
527.06	34.565
527.41	36.214
527.75	35.188
528.09	36.346
528.43	36.732
528.78	35.710
529.12	36.129
529.46	36.062
529.80	35.339
530.15	35.908
530.49	36.094
530.83	36.731
531.17	35.191
531.51	37.756
531.86	36.778
532.20	36.465
532.54	36.692
532.88	36.550
533.22	35.618
533.57	35.911
533.91	35.052
534.25	36.458
534.59	35.664
534.93	36.060
535.27	33.947
535.62	35.450
535.96	35.616
536.30	36.807
536.64	36.733
536.98	35.261
537.32	36.486
537.66	37.237
538.01	37.343
538.35	35.922
538.69	36.751
539.03	35.885
539.37	36.608
539.71	36.128
540.05	35.777
540.39	36.150
540.73	35.425
541.07	36.188
541.42	35.685
541.76	36.201
542.10	35.926
542.44	36.067
542.78	34.825
543.12	34.478
543.46	35.327
543.80	35.739
544.14	33.712
544.48	35.909
544.82	35.202
545.16	34.973
545.50	36.248
545.84	36.615
546.18	36.738
546.52	35.761
546.86	35.298
547.20	35.265
547.54	34.912
547.88	35.938
548.22	35.306
548.56	34.433
548.90	35.580
549.24	35.055
549.58	34.203
549.92	35.525
550.26	35.238
550.60	36.059
550.94	36.370
551.28	37.017
551.62	36.154
551.96	36.391
552.30	35.453
552.64	34.838
552.98	36.146
553.32	34.665
553.66	34.833
554.00	35.401
554.34	36.189
554.68	34.661
555.02	36.682
555.36	35.752
555.69	34.872
556.03	35.118
556.37	33.167
556.71	35.668
557.05	35.869
557.39	34.944
557.73	35.607
558.07	36.275
558.41	35.528
558.75	35.853
559.08	35.461
559.42	37.222
559.76	36.349
560.10	35.703
560.44	34.773
560.78	34.266
561.12	35.472
561.45	35.980
561.79	34.174
562.13	35.557
562.47	34.460
562.81	35.591
563.15	34.203
563.48	35.149
563.82	34.454
564.16	34.680
564.50	33.581
564.84	34.203
565.17	33.870
565.51	35.656
565.85	34.225
566.19	34.483
566.52	34.920
566.86	34.383
567.20	33.313
567.54	34.367
567.88	34.681
568.21	33.767
568.55	33.424
568.89	33.008
569.23	32.836
569.56	31.524
569.90	31.953
570.24	31.038
570.57	30.982
570.91	31.614
571.25	30.483
571.59	30.614
571.92	30.252
572.26	30.978
572.60	31.318
572.93	30.750
573.27	30.909
573.61	30.907
573.95	30.311
574.28	30.535
574.62	30.028
574.96	30.192
575.29	29.833
575.63	29.386
575.97	30.008
576.30	29.800
576.64	29.801
576.98	30.167
577.31	30.179
577.65	29.564
577.98	29.480
578.32	29.197
578.66	29.400
578.99	29.808
579.33	29.903
579.67	29.119
580.00	30.278
580.34	30.100
580.67	29.847
581.01	29.803
581.35	29.522
581.68	28.675
582.02	28.941
582.35	29.415
582.69	28.983
583.02	29.652
583.36	30.021
583.70	30.919
584.03	31.888
584.37	31.705
584.70	30.440
585.04	29.819
585.37	29.631
585.71	29.450
586.04	29.324
586.38	29.208
586.72	30.531
587.05	30.474
587.39	30.361
587.72	30.290
588.06	30.169
588.39	30.419
588.73	30.556
589.06	30.985
589.40	30.522
589.73	31.033
590.07	31.647
590.40	31.308
590.73	31.960
591.07	31.976
591.40	31.523
591.74	31.719
592.07	31.679
592.41	31.449
592.74	29.789
593.08	29.235
593.41	29.325
593.75	29.212
594.08	29.969
594.41	29.876
594.75	30.573
595.08	30.420
595.42	29.481
595.75	31.055
596.09	30.649
596.42	31.170
596.75	30.506
597.09	31.298
597.42	30.759
597.75	30.829
598.09	30.285
598.42	30.776
598.76	29.515
599.09	29.808
599.42	28.837
599.76	29.421
600.09	29.789
600.42	29.757
600.76	29.123
601.09	29.885
601.42	29.495
601.76	29.536
602.09	30.116
602.42	31.003
602.76	30.263
603.09	30.565
603.42	31.229
603.76	29.194
604.09	29.648
604.42	30.034
604.76	30.975
605.09	30.256
605.42	30.926
605.75	29.641
606.09	29.724
606.42	29.858
606.75	30.390
607.09	29.978
607.42	29.375
607.75	29.707
608.08	29.515
608.42	29.785
608.75	30.410
609.08	30.294
609.41	30.152
609.75	29.788
610.08	30.005
610.41	29.903
610.74	30.522
611.07	31.008
611.41	31.085
611.74	31.183
612.07	30.193
612.40	31.072
612.73	29.661
613.07	30.259
613.40	30.306
613.73	30.666
614.06	30.440
614.39	30.231
614.72	30.140
615.06	29.888
615.39	29.367
615.72	29.386
616.05	30.056
616.38	28.604
616.71	31.193
617.05	30.821
617.38	30.735
617.71	30.503
618.04	30.921
618.37	30.580
618.70	32.013
619.03	32.500
619.36	32.055
619.69	32.070
620.03	32.286
620.36	31.044
620.69	31.478
621.02	31.575
621.35	32.697
621.68	34.779
622.01	31.833
622.34	31.445
622.67	32.492
623.00	31.853
623.33	31.555
623.66	31.040
623.99	31.770
624.32	31.179
624.65	31.278
624.99	31.603
625.32	31.387
625.65	32.600
625.98	32.554
626.31	32.003
626.64	32.149
626.97	33.944
627.30	32.662
627.63	33.536
627.96	32.884
628.29	33.210
628.62	34.120
628.95	33.567
629.28	33.266
629.61	33.300
629.94	32.160
630.26	32.510
630.59	34.339
630.92	33.744
631.25	32.000
631.58	33.921
631.91	32.675
632.24	32.339
632.57	33.636
632.90	32.503
633.23	33.294
633.56	33.753
633.89	34.155
634.22	33.210
634.55	34.053
634.88	33.716
635.20	32.436
635.53	34.133
635.86	34.590
636.19	35.317
636.52	34.694
636.85	32.010
637.18	32.704
637.51	33.711
637.83	32.852
638.16	35.471
638.49	32.289
638.82	34.342
639.15	33.107
639.48	33.012
639.81	34.310
640.13	36.075
640.46	33.090
640.79	34.315
641.12	33.826
641.45	33.183
641.77	37.037
642.10	36.177
642.43	35.852
642.76	35.314
643.09	35.218
643.41	33.981
643.74	35.914
644.07	35.468
644.40	35.980
644.73	36.602
645.05	35.906
645.38	35.626
645.71	35.638
646.04	37.702
646.36	34.397
646.69	35.252
647.02	37.429
647.35	35.634
647.67	35.283
648.00	36.007
648.33	33.788
648.66	33.898
648.98	31.491
649.31	31.736
649.64	31.554
649.96	32.901
650.29	34.753
650.62	35.043
650.94	36.481
651.27	36.872
651.60	36.036
651.92	35.140
652.25	34.636
652.58	32.833
652.90	36.192
653.23	33.613
653.56	33.503
653.88	34.021
654.21	30.823
654.54	33.786
654.86	32.767
655.19	29.971
655.52	29.876
655.84	23.326
656.17	25.028
656.49	35.155
656.82	38.152
657.15	30.510
657.47	23.652
657.80	17.808
658.13	18.283
658.45	29.083
658.78	30.051
659.10	30.247
659.43	31.284
659.75	31.672
660.08	33.034
660.41	32.686
660.73	33.011
661.06	34.835
661.38	34.638
661.71	31.622
662.03	35.622
662.36	34.945
662.68	33.186
663.01	36.463
663.33	32.251
663.66	34.186
663.98	33.721
664.31	33.902
664.63	33.180
664.96	32.174
665.28	32.892
665.61	33.766
665.93	36.304
666.26	30.586
666.58	31.320
666.91	33.882
667.23	35.377
667.56	34.834
667.88	34.532
668.21	35.561
668.53	36.879
668.86	36.557
669.18	34.434
669.50	33.172
669.83	35.116
670.15	32.867
670.48	34.211
670.80	32.028
671.13	33.333
671.45	30.594
671.77	36.266
672.10	31.881
672.42	30.524
672.75	31.261
673.07	31.843
673.39	30.275
673.72	29.980
674.04	30.417
674.37	31.568
674.69	30.407
675.01	34.444
675.34	33.108
675.66	35.185
675.98	34.590
676.31	34.633
676.63	31.829
676.95	34.091
677.28	33.882
677.60	33.494
677.92	32.798
678.25	31.947
678.57	28.788
678.89	27.941
679.22	32.438
679.54	31.727
679.86	28.628
680.18	31.650
680.51	31.439
680.83	28.231
681.15	33.400
681.48	33.811
681.80	32.645
682.12	32.661
682.44	30.753
682.77	32.671
683.09	30.664
683.41	29.545
683.73	29.954
684.06	29.867
684.38	32.258
684.70	30.501
685.02	29.668
685.34	26.087
685.67	28.893
685.99	29.656
686.31	29.204
686.63	28.571
686.96	28.897
687.28	26.061
687.60	29.278
687.92	30.909
688.24	30.444
688.56	29.913
688.89	29.241
689.21	35.556
689.53	33.643
689.85	31.860
690.17	31.696
690.49	29.551
690.82	30.097
691.14	30.238
691.46	28.505
691.78	29.054
692.10	29.677
692.42	29.221
692.74	30.983
693.06	29.505
693.39	25.566
693.71	27.376
694.03	27.021
694.35	29.439
694.67	29.293
694.99	28.982
695.31	30.026
695.63	31.500
695.95	29.545
696.27	28.756
696.59	33.889
696.91	28.852
697.23	29.306
697.56	28.713
697.88	29.677
698.20	28.702
698.52	26.353
698.84	27.512
699.16	30.750
699.48	30.827
699.80	28.288
700.12	29.111
700.44	29.972
700.76	29.360
701.08	27.879
701.40	29.217
701.72	32.407
702.04	25.743
702.36	32.776
702.68	30.030
703.00	28.182
703.32	26.100
703.64	25.706
703.96	30.145
704.28	30.982
704.60	33.968
704.91	29.968
705.23	27.907
705.55	34.629
705.87	32.130
706.19	31.481
706.51	32.990
706.83	25.080
707.15	26.791
707.47	28.291
707.79	25.000
708.11	28.750
708.43	26.500
708.74	27.649
709.06	30.423
709.38	28.746
709.70	29.586
710.02	31.210
710.34	27.864
710.66	25.962
710.98	26.159
711.29	26.557
711.61	31.186
711.93	29.967
712.25	31.271
712.57	31.868
712.89	25.746
713.20	26.990
713.52	26.132
713.84	25.597
714.16	27.835
714.48	27.742
714.80	26.923
715.11	27.964
715.43	23.824
715.75	27.333
716.07	25.249
716.39	25.839
716.70	29.151
717.02	24.427
717.34	29.150
717.66	28.761
717.97	32.174
718.29	28.452
718.61	31.102
718.93	28.682
719.24	26.996
719.56	26.506
719.88	26.117
720.20	26.894
720.51	22.989
720.83	24.710
721.15	26.891
721.46	23.387
721.78	18.577
722.10	27.509
722.42	19.502
722.73	22.041
723.05	25.306
723.37	31.356
723.68	27.928
724.00	29.060
724.32	23.111
724.63	25.909
724.95	27.948
725.27	29.032
725.58	30.085
725.90	24.603
726.22	27.799
726.53	27.119
726.85	24.345
727.16	27.925
727.48	24.696
727.80	27.935
728.11	26.271
728.43	23.922
728.74	24.194
729.06	22.000
729.38	29.323
729.69	25.896
730.01	20.385
730.32	29.104
730.64	26.502
730.96	24.151
731.27	25.000
731.59	21.695
731.90	24.522
732.22	28.707
732.53	24.252
732.85	25.887
733.16	26.263
733.48	24.820
733.80	23.913
734.11	21.695
734.43	25.773
734.74	21.212
735.06	22.150
735.37	26.888
735.69	28.283
736.00	23.693
736.32	25.168
736.63	23.592
736.95	23.208
737.26	24.555
737.58	23.826
737.89	21.612
738.21	24.812
738.52	25.514
738.83	26.201
739.15	20.961
739.46	25.984
739.78	21.612
740.09	27.124
740.41	25.725
740.72	23.622
741.04	23.077
741.35	23.404
741.66	24.645
741.98	23.469
742.29	26.238
742.61	27.225
742.92	19.431
743.23	22.685
743.55	27.602
743.86	19.617
744.18	23.923
744.49	21.809
744.80	27.717
745.12	26.203
745.43	22.927
745.74	28.125
746.06	17.561
746.37	23.560
746.68	27.014
747.00	20.745
747.31	25.373
747.62	24.757
747.94	25.359
748.25	25.248
748.56	19.126
748.88	28.796
749.19	28.191
749.50	25.616
749.82	21.226
750.13	21.101
750.44	22.180
750.75	23.507
751.07	28.467
751.38	23.755
751.69	23.137
752.01	27.132
752.32	21.514
752.63	24.111
752.94	18.966
753.26	29.289
753.57	28.054
753.88	26.106
754.19	20.000
754.51	20.661
754.82	26.721
755.13	30.417
755.44	21.774
755.75	27.734
756.07	22.568
756.38	18.491
756.69	21.073
757.00	20.667
757.31	21.895
757.63	17.683
757.94	22.222
758.25	16.164
758.56	17.553
758.87	20.963
759.18	20.249
759.50	21.455
759.81	23.077
760.12	24.516
760.43	21.212
760.74	20.679
761.05	23.385
761.36	24.148
761.67	23.939
761.99	25.510
762.30	21.091
762.61	19.763
762.92	21.267
763.23	20.270
763.54	15.421
763.85	27.966
764.16	22.822
764.47	23.790
764.78	23.077
765.10	26.936
765.41	17.981
765.72	24.762
766.03	16.541
766.34	21.898
766.65	25.896
766.96	28.788
767.27	23.936
767.58	16.667
767.89	15.603
768.20	19.886
768.51	20.330
768.82	22.167
769.13	17.051
769.44	20.172
769.75	18.265
770.06	19.397
770.37	24.038
770.68	20.812
770.99	23.529
771.30	23.039
771.61	18.552
771.92	25.431
772.23	25.123
772.54	23.118
772.85	21.605
773.16	22.472
773.47	26.797
773.78	19.608
774.09	20.958
774.39	16.667
774.70	22.293
775.01	26.207
775.32	20.714
775.63	22.314
775.94	21.374
776.25	16.535
776.56	16.667
776.87	25.000
777.18	26.496
777.48	13.793
777.79	20.000
778.10	17.143
778.41	9.009
778.72	26.190
779.03	21.053
779.34	19.858
779.65	24.658
779.95	20.548
780.26	21.379
780.57	12.195
780.88	13.386
781.19	16.379
781.50	14.729
781.80	17.160
782.11	11.950
782.42	23.077
782.73	20.863
783.04	24.444
783.34	16.667
783.65	5.983
783.96	16.393
784.27	26.207
784.57	13.821
784.88	21.875
785.19	27.000
785.50	28.000
785.81	18.103
786.11	8.621
786.42	18.447
786.73	26.364
787.04	8.163
787.34	20.536
787.65	15.238
787.96	26.549
788.26	28.182
788.57	14.530
788.88	27.344
789.19	15.079
789.49	14.783
789.80	24.490
790.11	15.152
790.41	21.818
790.72	21.739
791.03	17.045
791.33	25.000
791.64	5.000
791.95	11.628
792.25	23.404
792.56	29.213
792.87	5.479
793.17	21.739
793.48	13.333
793.79	5.000
794.09	21.250
794.40	15.094
794.70	16.505
795.01	14.634
795.32	24.786
795.62	16.190
795.93	12.745
796.23	29.245
796.54	18.750
796.85	22.059
797.15	28.169
797.46	16.667
797.76	28.788
798.07	15.116
798.37	7.895
798.68	15.152
798.99	18.519
799.29	18.571
799.60	13.043
799.90	29.333
800.21	26.230
800.51	21.538
800.82	18.644
801.12	18.841
801.43	27.869
801.73	42.857
802.04	4.000
802.34	1.493
802.65	13.462
802.95	-1.786
803.26	7.692
803.56	33.333
803.87	-2.174
804.17	10.667
804.48	20.635
804.78	16.667
805.09	17.391
805.39	-20.000
805.70	11.111
806.00	-7.018
806.30	11.268
806.61	15.714
806.91	-5.556
807.22	25.000
807.52	13.333
807.83	-3.636
808.13	36.111
808.43	5.882
808.74	8.955
809.04	6.780
809.35	11.538
809.65	10.938
809.95	-24.324
810.26	0.000
810.56	17.808
810.86	23.810
811.17	14.000
811.47	20.408
811.77	-2.632
812.08	2.273
812.38	1.887
812.69	0.000
812.99	-21.212
813.29	-10.526
813.59	-25.714
813.90	6.818
814.20	7.692
814.50	15.385
814.81	5.660
815.11	-17.021
815.41	28.814
815.72	9.524
816.02	23.529
816.32	22.917
816.62	4.878
816.93	18.919
817.23	-40.000
817.53	12.500
817.84	-4.348
818.14	7.692
818.44	-15.789
818.74	23.913
819.04	-20.000
819.35	-5.405
819.65	5.882
819.95	-11.111
820.25	14.286
820.56	5.000
820.86	0.000
821.16	25.000
821.46	21.277
821.76	30.000
822.07	9.302
822.37	2.703
822.67	-31.250
822.97	16.667
823.27	-3.571
823.57	4.000
823.88	-18.519
824.18	-10.714
824.48	26.471
824.78	16.129
825.08	-47.826
825.38	12.121
825.69	-29.167
825.99	0.000
826.29	0.000
826.59	-53.333
826.89	4.762
827.19	21.739
827.49	-5.000
827.79	-2.857
828.09	-21.429
828.39	9.091
828.70	16.216
829.00	17.857
829.30	0.000
829.60	3.333
829.90	0.000
830.20	34.211
830.50	14.815
830.80	-13.043
831.10	-31.818
831.40	33.333
831.70	9.677
832.00	71.429
832.30	-9.524
832.60	-33.333
832.90	37.931
833.20	-30.000
833.50	12.121
833.80	14.815
834.10	-11.538
834.40	3.125
834.70	22.222
835.00	0.000
835.30	42.308
835.60	6.667
835.90	41.935
836.20	-27.273
836.50	25.000
836.80	-30.769
837.10	-17.857
837.40	-200.000
837.70	-13.636
838.00	-81.818
838.30	17.391
838.60	-76.923
838.90	9.091
839.19	10.714
839.49	10.000
839.79	-84.615
840.09	-41.667
840.39	14.286
840.69	-7.143
840.99	-23.077
841.29	-110.526
841.59	-140.000
841.88	-72.727
842.18	-110.000
842.48	0.000
842.78	0.000
843.08	40.741
843.38	-170.000
843.68	26.087
843.97	13.333
844.27	-100.000
844.57	-10.000
844.87	-11.111
845.17	-52.381
845.47	46.667
845.76	0.000
846.06	11.765
846.36	10.000
846.66	-7.143
846.96	60.000
847.25	-200.000
847.55	-14.286
847.85	-112.500
848.15	-27.273
848.44	-533.333
848.74	20.000
849.04	22.222
849.34	-9.091
849.63	-83.333
849.93	-360.000
850.23	-27.778
850.53	10.000
850.82	-38.462
851.12	-88.889
851.42	26.667
851.71	-30.769
852.01	-7.143
852.31	-475.000
852.61	0.000
852.90	-10.000
853.20	5.263
853.50	0.000
853.79	17.391
854.09	91.667
854.39	-31.579
854.68	0.000
854.98	32.258
855.28	0.000
855.57	-30.000
855.87	22.222
856.17	-3.704
856.46	-14.286
856.76	-80.000
857.05	88.889
857.35	24.000
857.65	-44.444
857.94	-100.000
858.24	24.138
858.53	-5.556
858.83	55.556
859.13	9.091
859.42	-39.130
859.72	-75.000
860.01	-666.667
860.31	-20.000
860.60	14.286
860.90	-433.333
861.20	-53.333
861.49	-550.000
861.79	-93.333
862.08	-30.000
862.38	60.000
862.67	-60.000
862.97	-50.000
863.26	58.333
863.56	16.667
863.85	-433.333
864.15	33.333
864.44	-10.000
864.74	-14.286
865.03	275.000
865.33	-20.000
865.62	-100.000
865.92	50.000
866.21	-183.333
866.51	0.000
866.80	-63.636
867.10	-500.000
867.39	-58.333
867.69	0.000
867.98	30.769
868.27	-166.667
868.57	-53.333
868.86	5.556
869.16	-69.231
869.45	53.333
869.75	-1000.000
870.04	0.000
870.33	42.857
870.63	14.286
870.92	500.000
871.22	-40.000
871.51	-800.000
871.80	77.778
872.10	633.333
>>>>>End Processed Spectral Data<<<<<
