SpectraSuite Data File
++++++++++++++++++++++++++++++++++++
Date: Fri May 15 20:47:49 PDT 2015
User: schluterlab
Dark Spectrum Present: Yes
Reference Spectrum Present: Yes
Number of Sampled Component Spectra: 1
Spectrometers: USB2E3373
Integration Time (usec): 3000 (USB2E3373)
Spectra Averaged: 3 (USB2E3373)
Boxcar Smoothing: 0 (USB2E3373)
Correct for Electrical Dark: No (USB2E3373)
Strobe/Lamp Enabled: No (USB2E3373)
Correct for Detector Non-linearity: No (USB2E3373)
Correct for Stray Light: No (USB2E3373)
Number of Pixels in Processed Spectrum: 2048
>>>>>Begin Processed Spectral Data<<<<<
178.53	0.000
178.91	0.000
179.29	-87.500
179.67	-650.000
180.04	-42.857
180.42	225.000
180.80	-1000.000
181.18	33.333
181.56	600.000
181.94	50.000
182.31	400.000
182.69	0.000
183.07	133.333
183.45	-120.000
183.83	116.667
184.20	-36.364
184.58	188.889
184.96	50.000
185.34	-33.333
185.72	-200.000
186.09	100.000
186.47	-1100.000
186.85	183.333
187.23	111.111
187.61	600.000
187.98	-266.667
188.36	-122.222
188.74	-200.000
189.12	52.941
189.49	27.778
189.87	0.000
190.25	14.286
190.63	-150.000
191.00	-233.333
191.38	-52.632
191.76	-450.000
192.14	225.000
192.51	-300.000
192.89	-33.333
193.27	-100.000
193.65	100.000
194.02	136.364
194.40	-30.000
194.78	-187.500
195.15	-58.333
195.53	-100.000
195.91	325.000
196.29	-275.000
196.66	92.308
197.04	157.143
197.42	-77.778
197.79	-533.333
198.17	-100.000
198.55	900.000
198.92	-400.000
199.30	-100.000
199.68	-140.000
200.05	-666.667
200.43	0.000
200.81	-133.333
201.18	-300.000
201.56	900.000
201.94	-350.000
202.31	400.000
202.69	-280.000
203.07	325.000
203.44	1000.000
203.82	0.000
204.19	-21.429
204.57	-733.333
204.95	112.500
205.32	-80.000
205.70	-85.714
206.08	-175.000
206.45	166.667
206.83	0.000
207.20	-200.000
207.58	1400.000
207.96	-366.667
208.33	-170.000
208.71	-225.000
209.08	-166.667
209.46	-500.000
209.84	-420.000
210.21	-1400.000
210.59	-114.286
210.96	-33.333
211.34	-150.000
211.71	-6.667
212.09	-14.286
212.46	-800.000
212.84	0.000
213.22	0.000
213.59	700.000
213.97	69.231
214.34	-45.455
214.72	-66.667
215.09	425.000
215.47	23.077
215.84	-127.273
216.22	-166.667
216.59	-50.000
216.97	-400.000
217.34	-150.000
217.72	-180.000
218.09	12.500
218.47	237.500
218.84	-300.000
219.22	-88.889
219.59	-260.000
219.97	333.333
220.34	300.000
220.72	57.143
221.09	-100.000
221.47	100.000
221.84	-750.000
222.22	-900.000
222.59	-9.091
222.97	50.000
223.34	-266.667
223.72	-85.714
224.09	-14.286
224.46	-17.857
224.84	100.000
225.21	-10.000
225.59	-26.667
225.96	-300.000
226.34	250.000
226.71	-128.571
227.08	-83.333
227.46	0.000
227.83	-550.000
228.21	33.333
228.58	-45.455
228.95	-87.500
229.33	60.000
229.70	-12.500
230.08	-225.000
230.45	-57.143
230.82	71.429
231.20	-93.333
231.57	21.429
231.95	0.000
232.32	-160.000
232.69	21.429
233.07	-200.000
233.44	40.000
233.81	-80.000
234.19	-22.222
234.56	-29.412
234.93	-150.000
235.31	-125.000
235.68	-300.000
236.05	-76.923
236.43	0.000
236.80	17.647
237.17	12.500
237.55	-10.000
237.92	-14.815
238.29	-8.333
238.67	-3.333
239.04	23.529
239.41	9.756
239.79	-20.000
240.16	41.463
240.53	0.000
240.91	2.174
241.28	14.286
241.65	28.571
242.02	21.918
242.40	36.667
242.77	28.814
243.14	19.697
243.51	30.000
243.89	29.885
244.26	24.138
244.63	33.333
245.00	21.649
245.38	35.052
245.75	17.978
246.12	20.690
246.49	29.752
246.87	36.538
247.24	22.689
247.61	24.561
247.98	28.455
248.36	27.500
248.73	34.211
249.10	26.623
249.47	36.709
249.84	30.719
250.22	28.235
250.59	37.908
250.96	36.620
251.33	35.465
251.70	36.471
252.08	32.487
252.45	29.703
252.82	31.658
253.19	35.023
253.56	30.374
253.94	32.883
254.31	38.696
254.68	37.719
255.05	27.953
255.42	33.188
255.79	33.205
256.16	36.187
256.54	31.716
256.91	35.741
257.28	31.227
257.65	31.086
258.02	30.496
258.39	33.670
258.76	31.868
259.14	33.887
259.51	33.333
259.88	35.739
260.25	30.719
260.62	33.681
260.99	35.932
261.36	30.822
261.73	36.392
262.10	37.690
262.47	33.742
262.85	29.467
263.22	34.462
263.59	35.202
263.96	36.025
264.33	34.242
264.70	32.440
265.07	34.226
265.44	33.428
265.81	33.051
266.18	34.699
266.55	35.476
266.92	32.124
267.29	35.248
267.66	32.481
268.03	33.508
268.40	31.070
268.77	33.422
269.14	33.094
269.51	36.247
269.88	35.162
270.25	33.673
270.62	34.634
270.99	36.061
271.36	34.230
271.73	31.925
272.10	32.360
272.47	35.934
272.84	32.673
273.21	36.659
273.58	33.494
273.95	33.410
274.32	33.718
274.69	28.733
275.06	36.161
275.43	32.880
275.80	32.230
276.17	31.724
276.54	28.694
276.91	30.921
277.28	33.406
277.65	31.612
278.02	32.128
278.39	31.947
278.76	35.220
279.13	28.216
279.50	33.824
279.87	33.261
280.23	31.183
280.60	28.850
280.97	32.121
281.34	31.154
281.71	34.292
282.08	30.879
282.45	31.507
282.82	31.853
283.19	32.302
283.56	31.599
283.92	30.171
284.29	31.154
284.66	28.295
285.03	33.006
285.40	31.380
285.77	27.241
286.14	30.325
286.51	32.657
286.87	30.713
287.24	31.492
287.61	29.630
287.98	31.579
288.35	29.809
288.72	29.422
289.08	28.472
289.45	31.986
289.82	30.420
290.19	30.034
290.56	27.273
290.93	28.620
291.29	26.040
291.66	28.976
292.03	28.230
292.40	28.871
292.77	27.273
293.13	22.890
293.50	26.100
293.87	24.733
294.24	26.121
294.60	25.037
294.97	27.083
295.34	24.693
295.71	23.547
296.08	24.664
296.44	24.324
296.81	25.556
297.18	25.507
297.55	25.203
297.91	24.384
298.28	23.483
298.65	21.981
299.02	22.237
299.38	21.888
299.75	23.310
300.12	22.513
300.48	22.793
300.85	20.279
301.22	23.377
301.59	22.763
301.95	22.152
302.32	23.346
302.69	22.761
303.05	20.545
303.42	21.793
303.79	22.079
304.15	24.492
304.52	21.284
304.89	22.222
305.25	22.276
305.62	20.653
305.99	22.339
306.35	21.040
306.72	20.810
307.09	21.779
307.45	20.666
307.82	20.023
308.19	20.790
308.55	21.156
308.92	22.767
309.29	21.564
309.65	20.344
310.02	20.132
310.38	21.405
310.75	21.639
311.12	21.098
311.48	20.891
311.85	21.990
312.22	20.464
312.58	20.807
312.95	19.744
313.31	19.358
313.68	19.476
314.05	20.816
314.41	21.443
314.78	20.722
315.14	20.658
315.51	21.429
315.87	20.492
316.24	20.526
316.61	19.390
316.97	20.238
317.34	19.629
317.70	19.120
318.07	19.904
318.43	20.294
318.80	19.981
319.16	19.727
319.53	20.038
319.89	21.063
320.26	20.445
320.62	21.264
320.99	19.207
321.35	18.808
321.72	20.249
322.08	19.335
322.45	21.624
322.81	22.397
323.18	19.627
323.54	19.015
323.91	19.474
324.27	20.117
324.64	20.880
325.00	19.343
325.37	20.753
325.73	19.311
326.10	20.799
326.46	20.090
326.83	20.210
327.19	19.442
327.56	19.548
327.92	20.599
328.29	19.554
328.65	20.094
329.01	19.301
329.38	19.908
329.74	19.075
330.11	18.906
330.47	19.573
330.84	18.365
331.20	20.152
331.56	18.704
331.93	20.365
332.29	19.982
332.66	19.367
333.02	19.796
333.38	18.515
333.75	19.322
334.11	17.278
334.48	20.580
334.84	19.597
335.20	19.305
335.57	19.039
335.93	19.241
336.29	20.166
336.66	18.438
337.02	18.587
337.38	18.889
337.75	18.818
338.11	19.297
338.47	20.438
338.84	19.963
339.20	19.561
339.56	18.624
339.93	18.532
340.29	18.716
340.65	19.176
341.02	18.883
341.38	18.761
341.74	17.756
342.11	17.591
342.47	19.306
342.83	19.291
343.20	18.118
343.56	18.870
343.92	19.043
344.28	19.300
344.65	18.653
345.01	17.286
345.37	17.241
345.73	20.000
346.10	18.896
346.46	17.998
346.82	18.249
347.19	17.290
347.55	19.048
347.91	18.447
348.27	18.998
348.63	18.825
349.00	18.212
349.36	19.202
349.72	18.823
350.08	18.197
350.45	18.675
350.81	18.605
351.17	18.730
351.53	17.796
351.89	18.415
352.26	18.400
352.62	19.032
352.98	18.394
353.34	16.989
353.70	19.822
354.07	17.581
354.43	16.974
354.79	18.662
355.15	17.937
355.51	18.038
355.87	18.123
356.24	17.374
356.60	18.027
356.96	18.016
357.32	17.732
357.68	17.357
358.04	17.932
358.40	18.650
358.77	18.102
359.13	16.653
359.49	17.026
359.85	17.239
360.21	17.464
360.57	17.062
360.93	17.852
361.29	16.012
361.66	18.103
362.02	18.182
362.38	17.822
362.74	17.260
363.10	17.908
363.46	17.939
363.82	18.557
364.18	17.269
364.54	16.985
364.90	17.563
365.26	16.812
365.62	17.883
365.98	16.716
366.35	17.698
366.71	17.147
367.07	16.763
367.43	17.110
367.79	16.678
368.15	17.229
368.51	17.407
368.87	16.368
369.23	16.029
369.59	17.128
369.95	17.449
370.31	17.413
370.67	17.612
371.03	16.654
371.39	16.703
371.75	17.582
372.11	16.049
372.47	16.864
372.83	17.104
373.19	16.976
373.55	16.751
373.91	16.703
374.27	16.442
374.63	16.798
374.99	15.532
375.35	16.643
375.71	16.993
376.07	16.503
376.42	16.259
376.78	17.383
377.14	16.046
377.50	16.866
377.86	16.667
378.22	16.911
378.58	17.436
378.94	16.383
379.30	16.532
379.66	17.116
380.02	16.248
380.38	15.946
380.74	16.577
381.09	16.810
381.45	16.820
381.81	16.286
382.17	16.180
382.53	15.803
382.89	16.573
383.25	16.988
383.61	17.256
383.97	15.873
384.32	17.073
384.68	15.913
385.04	16.422
385.40	15.619
385.76	17.170
386.12	16.171
386.48	16.092
386.83	15.853
387.19	16.484
387.55	16.939
387.91	16.748
388.27	15.751
388.62	16.111
388.98	15.899
389.34	17.427
389.70	16.905
390.06	16.048
390.42	15.738
390.77	16.220
391.13	15.195
391.49	15.977
391.85	16.244
392.20	15.882
392.56	16.020
392.92	16.853
393.28	16.922
393.64	15.556
393.99	17.492
394.35	16.003
394.71	16.986
395.07	16.279
395.42	15.968
395.78	16.482
396.14	16.267
396.50	16.107
396.85	15.905
397.21	15.915
397.57	15.987
397.92	16.357
398.28	15.747
398.64	16.024
399.00	16.366
399.35	15.632
399.71	16.829
400.07	15.780
400.42	16.585
400.78	16.595
401.14	15.245
401.49	16.200
401.85	16.392
402.21	16.506
402.57	16.375
402.92	15.621
403.28	16.416
403.63	15.889
403.99	16.008
404.35	16.177
404.70	16.310
405.06	15.217
405.42	16.159
405.77	16.037
406.13	15.367
406.49	15.690
406.84	16.381
407.20	15.774
407.55	15.261
407.91	15.107
408.27	15.105
408.62	16.677
408.98	16.081
409.34	16.109
409.69	15.633
410.05	15.887
410.40	16.235
410.76	16.224
411.11	15.500
411.47	16.765
411.83	15.631
412.18	16.281
412.54	16.792
412.89	15.887
413.25	17.449
413.60	15.776
413.96	15.276
414.31	16.037
414.67	15.908
415.03	15.446
415.38	16.123
415.74	16.547
416.09	16.264
416.45	15.598
416.80	15.400
417.16	16.229
417.51	16.389
417.87	16.102
418.22	15.868
418.58	16.656
418.93	16.740
419.29	14.789
419.64	15.749
420.00	16.877
420.35	15.522
420.71	16.889
421.06	15.470
421.42	16.526
421.77	15.896
422.12	15.834
422.48	15.809
422.83	15.951
423.19	15.688
423.54	15.109
423.90	15.960
424.25	16.188
424.61	16.830
424.96	15.679
425.31	15.829
425.67	15.669
426.02	16.372
426.38	16.155
426.73	16.283
427.09	16.899
427.44	16.941
427.79	16.264
428.15	16.626
428.50	16.414
428.85	15.848
429.21	17.091
429.56	16.712
429.92	16.127
430.27	16.291
430.62	15.316
430.98	15.340
431.33	16.667
431.68	15.751
432.04	16.713
432.39	15.744
432.74	16.296
433.10	16.839
433.45	16.069
433.80	15.264
434.16	14.681
434.51	16.129
434.86	16.144
435.22	16.769
435.57	15.970
435.92	17.126
436.28	15.027
436.63	16.486
436.98	16.338
437.34	16.152
437.69	15.623
438.04	15.783
438.39	16.005
438.75	16.029
439.10	15.450
439.45	15.825
439.81	16.208
440.16	16.924
440.51	16.597
440.86	16.858
441.22	16.403
441.57	16.336
441.92	16.684
442.27	16.297
442.63	16.649
442.98	16.715
443.33	16.639
443.68	16.340
444.03	16.443
444.39	16.872
444.74	17.726
445.09	16.815
445.44	16.752
445.79	17.329
446.15	15.749
446.50	16.528
446.85	16.153
447.20	16.736
447.55	17.578
447.91	16.582
448.26	17.131
448.61	16.926
448.96	16.867
449.31	16.127
449.66	15.738
450.02	16.942
450.37	17.131
450.72	16.781
451.07	17.152
451.42	17.478
451.77	17.119
452.12	16.208
452.47	16.291
452.83	16.961
453.18	16.762
453.53	17.383
453.88	16.515
454.23	17.148
454.58	18.010
454.93	17.784
455.28	15.746
455.63	17.111
455.98	18.040
456.34	16.858
456.69	17.598
457.04	16.824
457.39	16.707
457.74	16.505
458.09	16.539
458.44	17.262
458.79	16.583
459.14	17.906
459.49	17.970
459.84	17.879
460.19	16.990
460.54	16.748
460.89	16.080
461.24	17.329
461.59	18.171
461.94	16.730
462.29	17.370
462.64	17.010
462.99	17.739
463.34	16.273
463.69	17.117
464.04	17.676
464.39	16.434
464.74	16.687
465.09	16.407
465.44	17.773
465.79	16.837
466.14	17.503
466.49	16.849
466.84	17.490
467.19	16.646
467.54	16.922
467.89	16.993
468.24	16.788
468.59	18.413
468.94	17.270
469.29	17.902
469.64	17.703
469.99	18.150
470.34	16.928
470.68	18.195
471.03	17.551
471.38	17.760
471.73	18.347
472.08	18.250
472.43	17.718
472.78	17.615
473.13	17.415
473.48	17.785
473.83	17.497
474.17	17.422
474.52	17.167
474.87	18.424
475.22	17.572
475.57	17.730
475.92	18.486
476.27	17.870
476.61	18.056
476.96	17.289
477.31	18.010
477.66	17.528
478.01	16.788
478.36	16.939
478.70	17.836
479.05	18.407
479.40	17.806
479.75	17.518
480.10	17.512
480.45	18.150
480.79	18.228
481.14	18.186
481.49	17.783
481.84	18.002
482.19	17.727
482.53	17.650
482.88	17.661
483.23	17.562
483.58	16.698
483.92	18.054
484.27	17.046
484.62	17.795
484.97	16.750
485.31	16.944
485.66	16.335
486.01	16.519
486.36	16.491
486.70	16.973
487.05	16.819
487.40	17.115
487.75	17.408
488.09	16.996
488.44	17.435
488.79	18.117
489.13	17.989
489.48	17.871
489.83	18.027
490.17	17.843
490.52	17.598
490.87	17.492
491.22	18.004
491.56	17.837
491.91	17.878
492.26	18.522
492.60	18.186
492.95	18.987
493.30	17.880
493.64	18.026
493.99	18.599
494.34	17.427
494.68	18.095
495.03	18.589
495.37	18.744
495.72	18.677
496.07	18.146
496.41	18.019
496.76	18.010
497.11	18.305
497.45	18.520
497.80	19.072
498.14	18.231
498.49	17.877
498.84	19.212
499.18	18.725
499.53	18.948
499.87	17.704
500.22	17.310
500.56	18.507
500.91	17.871
501.26	17.845
501.60	17.757
501.95	18.001
502.29	18.354
502.64	18.726
502.98	17.859
503.33	17.435
503.67	18.024
504.02	18.768
504.36	18.704
504.71	18.485
505.06	17.765
505.40	18.528
505.75	18.299
506.09	17.892
506.44	19.148
506.78	18.265
507.13	18.097
507.47	18.016
507.82	18.216
508.16	18.278
508.51	19.307
508.85	18.891
509.19	18.840
509.54	19.303
509.88	18.662
510.23	19.419
510.57	18.920
510.92	18.284
511.26	18.931
511.61	18.812
511.95	19.288
512.30	19.124
512.64	19.755
512.98	18.922
513.33	19.026
513.67	18.590
514.02	19.851
514.36	19.314
514.70	20.047
515.05	19.095
515.39	19.008
515.74	19.820
516.08	19.307
516.42	19.611
516.77	20.187
517.11	18.932
517.46	19.749
517.80	19.726
518.14	19.657
518.49	19.050
518.83	19.684
519.17	19.163
519.52	18.887
519.86	18.848
520.20	19.380
520.55	19.950
520.89	20.075
521.23	19.886
521.58	20.694
521.92	20.064
522.26	20.299
522.61	20.909
522.95	20.861
523.29	19.504
523.64	19.949
523.98	20.739
524.32	19.330
524.66	19.974
525.01	20.779
525.35	20.285
525.69	19.731
526.04	20.040
526.38	21.141
526.72	19.882
527.06	19.326
527.41	20.976
527.75	18.968
528.09	20.864
528.43	20.662
528.78	19.736
529.12	20.452
529.46	20.338
529.80	20.329
530.15	20.924
530.49	20.673
530.83	20.315
531.17	20.013
531.51	21.614
531.86	19.782
532.20	19.346
532.54	20.626
532.88	20.260
533.22	19.288
533.57	19.332
533.91	20.431
534.25	21.029
534.59	19.692
534.93	19.257
535.27	19.099
535.62	19.443
535.96	20.026
536.30	20.580
536.64	20.400
536.98	20.348
537.32	21.408
537.66	21.178
538.01	21.259
538.35	20.666
538.69	21.238
539.03	20.506
539.37	20.794
539.71	20.245
540.05	20.774
540.39	21.399
540.73	21.618
541.07	20.373
541.42	21.035
541.76	20.991
542.10	20.785
542.44	21.195
542.78	19.959
543.12	20.810
543.46	21.419
543.80	20.611
544.14	19.626
544.48	20.720
544.82	20.643
545.16	21.380
545.50	21.028
545.84	20.609
546.18	20.780
546.52	20.043
546.86	19.482
547.20	21.531
547.54	20.071
547.88	21.128
548.22	20.118
548.56	19.987
548.90	20.283
549.24	19.215
549.58	20.733
549.92	19.728
550.26	20.806
550.60	20.743
550.94	20.836
551.28	20.170
551.62	20.769
551.96	20.602
552.30	20.760
552.64	20.240
552.98	19.761
553.32	21.113
553.66	19.884
554.00	20.292
554.34	21.196
554.68	20.723
555.02	21.131
555.36	20.419
555.69	20.073
556.03	20.485
556.37	20.925
556.71	21.011
557.05	20.731
557.39	19.331
557.73	20.990
558.07	21.493
558.41	20.138
558.75	20.499
559.08	21.434
559.42	20.397
559.76	20.576
560.10	20.642
560.44	20.328
560.78	20.629
561.12	20.310
561.45	20.590
561.79	20.728
562.13	20.653
562.47	20.288
562.81	21.758
563.15	21.650
563.48	19.448
563.82	21.482
564.16	20.961
564.50	20.135
564.84	20.616
565.17	20.993
565.51	20.902
565.85	22.016
566.19	19.761
566.52	21.113
566.86	21.272
567.20	19.676
567.54	21.229
567.88	20.328
568.21	20.192
568.55	19.348
568.89	20.175
569.23	19.788
569.56	18.958
569.90	19.813
570.24	18.869
570.57	18.764
570.91	18.752
571.25	18.349
571.59	18.686
571.92	18.222
572.26	18.659
572.60	18.419
572.93	18.136
573.27	18.119
573.61	18.049
573.95	18.296
574.28	17.929
574.62	17.518
574.96	17.651
575.29	17.996
575.63	17.777
575.97	18.406
576.30	17.908
576.64	17.801
576.98	18.250
577.31	18.211
577.65	18.028
577.98	17.836
578.32	17.685
578.66	17.430
578.99	17.642
579.33	17.837
579.67	17.865
580.00	17.696
580.34	18.035
580.67	17.730
581.01	17.963
581.35	17.657
581.68	17.438
582.02	17.196
582.35	17.307
582.69	17.355
583.02	17.667
583.36	18.027
583.70	18.562
584.03	18.627
584.37	19.170
584.70	18.077
585.04	17.461
585.37	17.838
585.71	18.020
586.04	17.827
586.38	17.738
586.72	18.221
587.05	18.198
587.39	18.311
587.72	18.644
588.06	18.323
588.39	18.599
588.73	18.773
589.06	19.374
589.40	19.011
589.73	19.496
590.07	19.222
590.40	19.234
590.73	18.616
591.07	19.550
591.40	19.679
591.74	19.638
592.07	19.527
592.41	19.788
592.74	18.240
593.08	18.128
593.41	18.616
593.75	18.646
594.08	18.435
594.41	18.777
594.75	18.550
595.08	18.313
595.42	18.955
595.75	18.438
596.09	18.882
596.42	19.636
596.75	19.005
597.09	18.633
597.42	19.332
597.75	19.698
598.09	18.425
598.42	18.231
598.76	18.533
599.09	18.590
599.42	18.568
599.76	18.059
600.09	19.155
600.42	18.802
600.76	18.016
601.09	18.206
601.42	18.723
601.76	18.658
602.09	18.853
602.42	19.587
602.76	19.185
603.09	19.435
603.42	19.231
603.76	18.468
604.09	18.226
604.42	18.739
604.76	19.537
605.09	19.333
605.42	19.278
605.75	18.433
606.09	19.745
606.42	19.058
606.75	19.221
607.09	19.385
607.42	18.609
607.75	18.828
608.08	18.643
608.42	19.233
608.75	18.940
609.08	19.432
609.41	19.645
609.75	19.556
610.08	18.822
610.41	18.647
610.74	19.503
611.07	19.793
611.41	19.564
611.74	19.829
612.07	18.897
612.40	19.748
612.73	19.266
613.07	18.841
613.40	20.295
613.73	19.250
614.06	19.922
614.39	20.756
614.72	20.168
615.06	19.106
615.39	18.941
615.72	18.945
616.05	20.000
616.38	19.259
616.71	19.694
617.05	20.136
617.38	20.742
617.71	20.063
618.04	20.444
618.37	21.438
618.70	21.122
619.03	20.972
619.36	20.767
619.69	21.380
620.03	21.914
620.36	21.102
620.69	20.771
621.02	20.566
621.35	21.660
621.68	21.514
622.01	21.500
622.34	21.628
622.67	21.372
623.00	21.057
623.33	20.579
623.66	20.494
623.99	21.256
624.32	22.053
624.65	20.526
624.99	20.843
625.32	19.712
625.65	21.524
625.98	21.757
626.31	19.618
626.64	21.577
626.97	21.553
627.30	22.154
627.63	22.010
627.96	22.192
628.29	22.109
628.62	23.107
628.95	22.144
629.28	21.875
629.61	23.131
629.94	21.701
630.26	22.134
630.59	24.766
630.92	22.359
631.25	21.333
631.58	23.018
631.91	22.917
632.24	22.821
632.57	24.545
632.90	20.285
633.23	22.588
633.56	22.922
633.89	24.044
634.22	23.704
634.55	24.142
634.88	23.372
635.20	22.949
635.53	24.133
635.86	23.667
636.19	23.545
636.52	21.556
636.85	21.464
637.18	22.516
637.51	23.899
637.83	23.127
638.16	24.966
638.49	23.433
638.82	23.947
639.15	25.102
639.48	23.934
639.81	23.431
640.13	25.685
640.46	22.595
640.79	25.331
641.12	23.043
641.45	24.474
641.77	24.444
642.10	26.382
642.43	24.759
642.76	24.917
643.09	26.333
643.41	24.272
643.74	24.547
644.07	26.273
644.40	28.885
644.73	25.919
645.05	26.342
645.38	24.691
645.71	25.532
646.04	25.494
646.36	23.582
646.69	27.878
647.02	22.873
647.35	27.985
647.67	23.949
648.00	27.425
648.33	25.256
648.66	26.610
648.98	23.283
649.31	22.479
649.64	24.333
649.96	21.070
650.29	23.339
650.62	24.786
650.94	24.815
651.27	24.767
651.60	26.306
651.92	26.923
652.25	22.558
652.58	24.167
652.90	26.244
653.23	23.025
653.56	23.012
653.88	23.196
654.21	23.818
654.54	24.278
654.86	24.788
655.19	22.076
655.52	21.130
655.84	16.844
656.17	18.155
656.49	24.898
656.82	26.244
657.15	20.482
657.47	15.757
657.80	11.878
658.13	11.977
658.45	18.480
658.78	18.602
659.10	18.743
659.43	19.566
659.75	19.882
660.08	20.414
660.41	23.391
660.73	22.790
661.06	26.170
661.38	22.309
661.71	24.230
662.03	26.609
662.36	25.934
662.68	23.451
663.01	27.729
663.33	24.594
663.66	21.163
663.98	25.116
664.31	26.652
664.63	22.581
664.96	25.870
665.28	23.841
665.61	22.944
665.93	24.130
666.26	26.681
666.58	25.056
666.91	24.000
667.23	28.774
667.56	26.777
667.88	24.940
668.21	26.969
668.53	26.005
668.86	27.594
669.18	27.123
669.50	22.760
669.83	27.209
670.15	23.310
670.48	23.684
670.80	25.806
671.13	25.280
671.45	22.146
671.77	24.464
672.10	25.149
672.42	25.281
672.75	24.334
673.07	25.760
673.39	23.303
673.72	21.499
674.04	23.958
674.37	24.788
674.69	24.197
675.01	25.778
675.34	23.198
675.66	27.083
675.98	25.277
676.31	22.706
676.63	22.328
676.95	23.864
677.28	25.412
677.60	26.988
677.92	25.000
678.25	24.508
678.57	24.242
678.89	23.529
679.22	24.385
679.54	22.691
679.86	22.465
680.18	23.301
680.51	23.485
680.83	21.272
681.15	23.400
681.48	25.615
681.80	22.107
682.12	25.202
682.44	23.222
682.77	24.503
683.09	22.426
683.41	19.091
683.73	24.424
684.06	24.558
684.38	21.935
684.70	20.261
685.02	23.651
685.34	21.739
685.67	21.388
685.99	24.412
686.31	22.832
686.63	23.191
686.96	21.103
687.28	20.404
687.60	20.152
687.92	25.859
688.24	22.984
688.56	22.926
688.89	24.554
689.21	26.222
689.53	21.810
689.85	21.860
690.17	25.446
690.49	24.113
690.82	23.058
691.14	18.810
691.46	23.832
691.78	23.423
692.10	25.806
692.42	22.294
692.74	23.077
693.06	24.775
693.39	20.136
693.71	20.588
694.03	23.557
694.35	21.028
694.67	22.475
694.99	19.582
695.31	25.326
695.63	25.250
695.95	22.222
696.27	24.093
696.59	25.833
696.91	25.490
697.23	24.679
697.56	23.762
697.88	24.946
698.20	22.779
698.52	23.294
698.84	20.574
699.16	22.250
699.48	26.065
699.80	23.573
700.12	23.181
700.44	26.611
700.76	25.000
701.08	26.364
701.40	26.506
701.72	28.395
702.04	24.422
702.36	22.742
702.68	21.922
703.00	24.242
703.32	23.460
703.64	17.514
703.96	20.870
704.28	24.847
704.60	26.984
704.91	25.552
705.23	23.588
705.55	22.615
705.87	27.437
706.19	22.963
706.51	26.460
706.83	26.045
707.15	20.872
707.47	23.810
707.79	21.615
708.11	23.500
708.43	23.250
708.74	21.189
709.06	25.634
709.38	23.547
709.70	23.964
710.02	22.611
710.34	27.245
710.66	19.551
710.98	22.517
711.29	19.672
711.61	24.407
711.93	25.733
712.25	27.491
712.57	26.007
712.89	16.791
713.20	26.644
713.52	18.118
713.84	22.526
714.16	25.430
714.48	23.548
714.80	24.359
715.11	26.140
715.43	17.868
715.75	21.667
716.07	20.598
716.39	23.490
716.70	24.723
717.02	20.611
717.34	27.126
717.66	26.106
717.97	20.000
718.29	21.339
718.61	27.165
718.93	23.256
719.24	24.715
719.56	21.285
719.88	20.619
720.20	22.348
720.51	24.904
720.83	23.166
721.15	24.790
721.46	21.371
721.78	20.553
722.10	20.074
722.42	19.087
722.73	20.816
723.05	23.265
723.37	22.034
723.68	22.072
724.00	22.650
724.32	15.556
724.63	21.818
724.95	24.454
725.27	29.032
725.58	23.729
725.90	25.397
726.22	22.780
726.53	27.458
726.85	22.472
727.16	27.547
727.48	23.077
727.80	25.101
728.11	18.644
728.43	22.353
728.74	14.919
729.06	20.400
729.38	24.060
729.69	22.311
730.01	20.000
730.32	22.761
730.64	21.908
730.96	23.019
731.27	20.000
731.59	23.051
731.90	19.427
732.22	23.659
732.53	24.252
732.85	22.695
733.16	20.875
733.48	19.065
733.80	21.739
734.11	20.678
734.43	20.275
734.74	19.091
735.06	19.544
735.37	22.054
735.69	22.896
736.00	17.770
736.32	21.477
736.63	23.239
736.95	21.502
737.26	20.641
737.58	15.101
737.89	20.879
738.21	19.173
738.52	20.988
738.83	24.017
739.15	14.410
739.46	21.654
739.78	17.582
740.09	20.588
740.41	20.652
740.72	18.504
741.04	22.267
741.35	19.574
741.66	21.801
741.98	23.980
742.29	21.287
742.61	23.560
742.92	15.166
743.23	16.667
743.55	23.529
743.86	23.923
744.18	21.053
744.49	20.213
744.80	15.761
745.12	22.995
745.43	18.049
745.74	27.604
746.06	20.488
746.37	19.895
746.68	27.488
747.00	22.872
747.31	26.368
747.62	22.816
747.94	25.359
748.25	20.297
748.56	18.579
748.88	24.607
749.19	29.787
749.50	25.616
749.82	15.566
750.13	16.514
750.44	23.308
750.75	24.627
751.07	23.358
751.38	24.904
751.69	20.784
752.01	24.031
752.32	16.733
752.63	22.925
752.94	23.276
753.26	28.870
753.57	21.719
753.88	22.566
754.19	15.417
754.51	14.050
754.82	18.623
755.13	28.750
755.44	21.774
755.75	19.922
756.07	21.790
756.38	16.981
756.69	16.475
757.00	18.000
757.31	22.876
757.63	19.512
757.94	18.611
758.25	17.808
758.56	18.351
758.87	14.731
759.18	17.445
759.50	19.636
759.81	20.067
760.12	20.968
760.43	19.091
760.74	20.679
761.05	20.615
761.36	17.330
761.67	21.515
761.99	21.088
762.30	18.909
762.61	22.925
762.92	20.362
763.23	20.721
763.54	12.150
763.85	16.525
764.16	18.672
764.47	16.129
764.78	20.147
765.10	25.589
765.41	17.350
765.72	18.095
766.03	17.293
766.34	20.438
766.65	21.514
766.96	22.222
767.27	21.809
767.58	16.667
767.89	15.603
768.20	19.318
768.51	13.187
768.82	18.719
769.13	17.972
769.44	15.880
769.75	17.808
770.06	19.397
770.37	22.115
770.68	19.289
770.99	18.100
771.30	17.157
771.61	17.195
771.92	23.707
772.23	18.719
772.54	24.731
772.85	17.284
773.16	19.101
773.47	27.451
773.78	20.915
774.09	23.353
774.39	20.667
774.70	25.478
775.01	28.966
775.32	18.571
775.63	18.182
775.94	23.664
776.25	24.409
776.56	17.500
776.87	20.192
777.18	16.239
777.48	24.138
777.79	15.652
778.10	7.619
778.41	22.523
778.72	17.460
779.03	24.812
779.34	24.113
779.65	17.123
779.95	22.603
780.26	22.759
780.57	9.756
780.88	11.024
781.19	14.655
781.50	21.705
781.80	21.302
782.11	16.981
782.42	19.231
782.73	16.547
783.04	22.222
783.34	15.972
783.65	-1.709
783.96	15.574
784.27	20.690
784.57	18.699
784.88	16.406
785.19	20.000
785.50	21.000
785.81	25.000
786.11	12.069
786.42	14.563
786.73	26.364
787.04	11.224
787.34	14.286
787.65	20.952
787.96	14.159
788.26	10.909
788.57	21.368
788.88	21.094
789.19	13.492
789.49	10.435
789.80	8.163
790.11	17.172
790.41	15.455
790.72	16.304
791.03	23.864
791.33	28.750
791.64	16.250
791.95	20.930
792.25	18.085
792.56	21.348
792.87	6.849
793.17	20.290
793.48	22.667
793.79	7.500
794.09	27.500
794.40	12.264
794.70	14.563
795.01	14.634
795.32	20.513
795.62	14.286
795.93	19.608
796.23	23.585
796.54	15.625
796.85	22.059
797.15	25.352
797.46	22.222
797.76	24.242
798.07	18.605
798.37	11.842
798.68	-13.636
798.99	14.815
799.29	41.429
799.60	18.841
799.90	20.000
800.21	11.475
800.51	15.385
800.82	23.729
801.12	24.638
801.43	27.869
801.73	25.397
802.04	12.000
802.34	7.463
802.65	7.692
802.95	-7.143
803.26	17.308
803.56	13.725
803.87	-8.696
804.17	9.333
804.48	25.397
804.78	11.111
805.09	13.043
805.39	6.667
805.70	3.704
806.00	7.018
806.30	16.901
806.61	15.714
806.91	6.944
807.22	26.316
807.52	5.333
807.83	14.545
808.13	29.167
808.43	38.235
808.74	14.925
809.04	0.000
809.35	3.846
809.65	15.625
809.95	-21.622
810.26	0.000
810.56	6.849
810.86	-2.381
811.17	32.000
811.47	16.327
811.77	10.526
812.08	0.000
812.38	5.660
812.69	2.500
812.99	0.000
813.29	13.158
813.59	-5.714
813.90	-11.364
814.20	5.128
814.50	5.769
814.81	15.094
815.11	8.511
815.41	18.644
815.72	7.143
816.02	29.412
816.32	-8.333
816.62	19.512
816.93	8.108
817.23	-2.857
817.53	16.667
817.84	6.522
818.14	15.385
818.44	-13.158
818.74	30.435
819.04	-35.000
819.35	27.027
819.65	-17.647
819.95	5.556
820.25	7.143
820.56	35.000
820.86	-34.483
821.16	32.500
821.46	10.638
821.76	15.000
822.07	-11.628
822.37	-10.811
822.67	6.250
822.97	23.810
823.27	-10.714
823.57	28.000
823.88	-7.407
824.18	-10.714
824.48	2.941
824.78	0.000
825.08	-13.043
825.38	15.152
825.69	-50.000
825.99	13.158
826.29	8.333
826.59	-33.333
826.89	-33.333
827.19	32.609
827.49	25.000
827.79	25.714
828.09	17.857
828.39	12.121
828.70	37.838
829.00	-14.286
829.30	-4.762
829.60	0.000
829.90	-6.250
830.20	-5.263
830.50	-33.333
830.80	-34.783
831.10	4.545
831.40	6.061
831.70	25.806
832.00	4.762
832.30	-14.286
832.60	-66.667
832.90	-27.586
833.20	-50.000
833.50	21.212
833.80	-11.111
834.10	-15.385
834.40	-3.125
834.70	-77.778
835.00	-26.316
835.30	61.538
835.60	13.333
835.90	45.161
836.20	40.909
836.50	32.143
836.80	-19.231
837.10	14.286
837.40	-33.333
837.70	-9.091
838.00	-109.091
838.30	-13.043
838.60	-61.538
838.90	4.545
839.19	-7.143
839.49	16.667
839.79	-84.615
840.09	-150.000
840.39	17.857
840.69	-14.286
840.99	-11.538
841.29	0.000
841.59	-150.000
841.88	-81.818
842.18	-30.000
842.48	-31.250
842.78	-53.333
843.08	11.111
843.38	-120.000
843.68	26.087
843.97	-33.333
844.27	-46.667
844.57	5.000
844.87	72.222
845.17	-47.619
845.47	66.667
845.76	-14.286
846.06	-41.176
846.36	20.000
846.66	-64.286
846.96	-6.667
847.25	-137.500
847.55	-28.571
847.85	-37.500
848.15	-31.818
848.44	-833.333
848.74	10.000
849.04	-3.704
849.34	-72.727
849.63	-166.667
849.93	-300.000
850.23	-22.222
850.53	-30.000
850.82	-76.923
851.12	-11.111
851.42	-26.667
851.71	-30.769
852.01	-35.714
852.31	-150.000
852.61	-45.455
852.90	-20.000
853.20	36.842
853.50	-33.333
853.79	-17.391
854.09	33.333
854.39	-42.105
854.68	-4.167
854.98	25.806
855.28	26.923
855.57	-25.000
855.87	-33.333
856.17	-3.704
856.46	7.143
856.76	-6.667
857.05	-11.111
857.35	-12.000
857.65	-27.778
857.94	-7.692
858.24	24.138
858.53	-5.556
858.83	29.630
859.13	31.818
859.42	-56.522
859.72	-325.000
860.01	-266.667
860.31	8.000
860.60	14.286
860.90	-200.000
861.20	-93.333
861.49	-200.000
861.79	-26.667
862.08	45.000
862.38	86.667
862.67	-120.000
862.97	33.333
863.26	-33.333
863.56	5.556
863.85	-333.333
864.15	0.000
864.44	30.000
864.74	57.143
865.03	275.000
865.33	0.000
865.62	-83.333
865.92	-41.667
866.21	-333.333
866.51	18.750
866.80	-54.545
867.10	-300.000
867.39	8.333
867.69	0.000
867.98	30.769
868.27	-266.667
868.57	-46.667
868.86	5.556
869.16	-92.308
869.45	0.000
869.75	-1100.000
870.04	0.000
870.33	-214.286
870.63	14.286
870.92	666.667
871.22	-180.000
871.51	-1100.000
871.80	166.667
872.10	300.000
>>>>>End Processed Spectral Data<<<<<
