SpectraSuite Data File
++++++++++++++++++++++++++++++++++++
Date: Fri May 15 21:02:52 PDT 2015
User: schluterlab
Dark Spectrum Present: Yes
Reference Spectrum Present: Yes
Number of Sampled Component Spectra: 1
Spectrometers: USB2E3373
Integration Time (usec): 3000 (USB2E3373)
Spectra Averaged: 3 (USB2E3373)
Boxcar Smoothing: 0 (USB2E3373)
Correct for Electrical Dark: No (USB2E3373)
Strobe/Lamp Enabled: No (USB2E3373)
Correct for Detector Non-linearity: No (USB2E3373)
Correct for Stray Light: No (USB2E3373)
Number of Pixels in Processed Spectrum: 2048
>>>>>Begin Processed Spectral Data<<<<<
178.53	0.000
178.91	0.000
179.29	37.500
179.67	-500.000
180.04	42.857
180.42	-100.000
180.80	-1500.000
181.18	300.000
181.56	900.000
181.94	450.000
182.31	400.000
182.69	-140.000
183.07	-233.333
183.45	60.000
183.83	300.000
184.20	-54.545
184.58	133.333
184.96	-75.000
185.34	266.667
185.72	-500.000
186.09	76.923
186.47	-1800.000
186.85	133.333
187.23	100.000
187.61	800.000
187.98	-533.333
188.36	-22.222
188.74	-266.667
189.12	41.176
189.49	27.778
189.87	0.000
190.25	78.571
190.63	300.000
191.00	-200.000
191.38	-21.053
191.76	-50.000
192.14	-75.000
192.51	-600.000
192.89	-77.778
193.27	-57.143
193.65	250.000
194.02	263.636
194.40	-90.000
194.78	-75.000
195.15	-41.667
195.53	-150.000
195.91	50.000
196.29	-300.000
196.66	92.308
197.04	200.000
197.42	-77.778
197.79	-600.000
198.17	-130.769
198.55	1700.000
198.92	-366.667
199.30	-700.000
199.68	-300.000
200.05	-333.333
200.43	0.000
200.81	-133.333
201.18	-333.333
201.56	1200.000
201.94	-250.000
202.31	66.667
202.69	-140.000
203.07	325.000
203.44	-100.000
203.82	0.000
204.19	21.429
204.57	-366.667
204.95	175.000
205.32	-150.000
205.70	128.571
206.08	-450.000
206.45	222.222
206.83	85.714
207.20	-157.143
207.58	100.000
207.96	-366.667
208.33	-100.000
208.71	-200.000
209.08	-200.000
209.46	-200.000
209.84	0.000
210.21	-1400.000
210.59	42.857
210.96	-116.667
211.34	-250.000
211.71	33.333
212.09	-242.857
212.46	-1400.000
212.84	0.000
213.22	40.000
213.59	250.000
213.97	100.000
214.34	45.455
214.72	-50.000
215.09	500.000
215.47	-46.154
215.84	-145.455
216.22	-300.000
216.59	-162.500
216.97	-250.000
217.34	-250.000
217.72	-260.000
218.09	-25.000
218.47	225.000
218.84	-1500.000
219.22	-44.444
219.59	140.000
219.97	366.667
220.34	225.000
220.72	-85.714
221.09	-150.000
221.47	100.000
221.84	-550.000
222.22	-850.000
222.59	-36.364
222.97	16.667
223.34	-333.333
223.72	-50.000
224.09	0.000
224.46	17.857
224.84	433.333
225.21	-60.000
225.59	-13.333
225.96	-900.000
226.34	625.000
226.71	-171.429
227.08	-200.000
227.46	-75.000
227.83	-100.000
228.21	-66.667
228.58	-100.000
228.95	0.000
229.33	150.000
229.70	-37.500
230.08	-175.000
230.45	-28.571
230.82	-128.571
231.20	0.000
231.57	21.429
231.95	-157.143
232.32	-80.000
232.69	-7.143
233.07	33.333
233.44	60.000
233.81	-90.000
234.19	-22.222
234.56	29.412
234.93	300.000
235.31	50.000
235.68	100.000
236.05	-76.923
236.43	-60.000
236.80	17.647
237.17	9.375
237.55	-35.000
237.92	-14.815
238.29	8.333
238.67	36.667
239.04	17.647
239.41	-14.634
239.79	23.333
240.16	7.317
240.53	7.895
240.91	23.913
241.28	36.508
241.65	35.714
242.02	36.986
242.40	28.333
242.77	22.034
243.14	10.606
243.51	26.250
243.89	47.126
244.26	36.782
244.63	34.524
245.00	30.928
245.38	44.330
245.75	30.337
246.12	31.897
246.49	39.669
246.87	42.308
247.24	41.176
247.61	32.456
247.98	39.024
248.36	32.500
248.73	38.816
249.10	35.065
249.47	43.671
249.84	43.791
250.22	42.941
250.59	40.523
250.96	42.254
251.33	35.465
251.70	47.059
252.08	43.147
252.45	38.614
252.82	44.724
253.19	42.396
253.56	41.589
253.94	39.640
254.31	40.435
254.68	46.053
255.05	44.488
255.42	44.978
255.79	44.015
256.16	45.136
256.54	41.791
256.91	40.304
257.28	43.866
257.65	42.697
258.02	40.071
258.39	42.761
258.76	44.322
259.14	43.854
259.51	43.042
259.88	41.924
260.25	40.850
260.62	47.222
260.99	42.373
261.36	43.151
261.73	44.937
262.10	42.857
262.47	48.160
262.85	43.574
263.22	40.923
263.59	45.171
263.96	44.099
264.33	39.697
264.70	44.345
265.07	47.619
265.44	45.892
265.81	43.785
266.18	44.262
266.55	43.188
266.92	40.155
267.29	43.864
267.66	44.246
268.03	44.241
268.40	41.775
268.77	45.989
269.14	42.446
269.51	43.959
269.88	40.150
270.25	41.582
270.62	42.195
270.99	45.780
271.36	44.010
271.73	44.366
272.10	44.282
272.47	45.390
272.84	42.079
273.21	43.619
273.58	41.446
273.95	40.732
274.32	40.647
274.69	41.176
275.06	42.857
275.43	41.043
275.80	42.826
276.17	42.989
276.54	38.758
276.91	44.737
277.28	40.830
277.65	40.083
278.02	40.851
278.39	43.326
278.76	43.396
279.13	37.759
279.50	43.277
279.87	38.445
280.23	41.075
280.60	39.181
280.97	40.808
281.34	39.808
281.71	42.710
282.08	43.354
282.45	41.096
282.82	41.506
283.19	42.360
283.56	39.692
283.92	42.125
284.29	39.615
284.66	39.341
285.03	40.275
285.40	37.618
285.77	37.434
286.14	40.975
286.51	40.221
286.87	40.768
287.24	40.884
287.61	37.919
287.98	37.895
288.35	37.435
288.72	37.303
289.08	38.368
289.45	39.192
289.82	37.937
290.19	37.201
290.56	38.593
290.93	36.364
291.29	35.439
291.66	36.378
292.03	35.247
292.40	36.774
292.77	34.290
293.13	32.955
293.50	34.750
293.87	33.893
294.24	34.776
294.60	32.042
294.97	32.887
295.34	32.515
295.71	32.787
296.08	32.436
296.44	31.152
296.81	34.167
297.18	31.594
297.55	31.978
297.91	31.370
298.28	31.398
298.65	32.700
299.02	30.189
299.38	28.728
299.75	29.517
300.12	30.105
300.48	31.752
300.85	30.292
301.22	29.221
301.59	29.868
301.95	29.494
302.32	32.036
302.69	29.353
303.05	27.599
303.42	29.639
303.79	29.089
304.15	31.302
304.52	26.992
304.89	28.070
305.25	27.966
305.62	27.421
305.99	28.772
306.35	26.127
306.72	26.434
307.09	28.164
307.45	28.243
307.82	26.042
308.19	27.875
308.55	26.281
308.92	28.214
309.29	27.151
309.65	26.050
310.02	27.283
310.38	27.772
310.75	27.760
311.12	27.557
311.48	25.557
311.85	26.283
312.22	27.215
312.58	26.221
312.95	26.467
313.31	25.880
313.68	25.759
314.05	26.020
314.41	27.010
314.78	26.907
315.14	27.030
315.51	26.398
315.87	27.254
316.24	27.705
316.61	26.870
316.97	25.298
317.34	26.367
317.70	25.335
318.07	24.808
318.43	25.882
318.80	26.231
319.16	26.953
319.53	26.971
319.89	26.870
320.26	25.911
320.62	26.379
320.99	24.739
321.35	26.619
321.72	27.310
322.08	25.881
322.45	25.076
322.81	25.639
323.18	26.104
323.54	25.000
323.91	24.732
324.27	26.270
324.64	27.341
325.00	26.734
325.37	27.089
325.73	25.476
326.10	26.521
326.46	27.265
326.83	26.422
327.19	25.981
327.56	26.151
327.92	27.113
328.29	27.500
328.65	27.264
329.01	26.287
329.38	26.636
329.74	25.212
330.11	25.672
330.47	25.510
330.84	26.538
331.20	27.281
331.56	24.815
331.93	26.210
332.29	26.214
332.66	27.059
333.02	26.301
333.38	23.740
333.75	27.289
334.11	25.515
334.48	27.108
334.84	26.740
335.20	25.709
335.57	25.929
335.93	25.203
336.29	27.256
336.66	25.159
337.02	25.558
337.38	25.463
337.75	26.455
338.11	25.338
338.47	26.004
338.84	26.248
339.20	25.868
339.56	25.688
339.93	26.231
340.29	25.596
340.65	26.703
341.02	24.734
341.38	25.752
341.74	23.852
342.11	25.303
342.47	24.199
342.83	26.211
343.20	24.216
343.56	24.957
343.92	24.624
344.28	25.875
344.65	24.957
345.01	23.768
345.37	26.325
345.73	25.188
346.10	25.712
346.46	24.474
346.82	24.386
347.19	24.522
347.55	25.313
347.91	24.919
348.27	24.171
348.63	25.980
349.00	24.774
349.36	25.104
349.72	24.793
350.08	24.590
350.45	25.299
350.81	24.419
351.17	23.290
351.53	23.837
351.89	23.782
352.26	22.880
352.62	23.629
352.98	23.614
353.34	23.349
353.70	25.162
354.07	23.952
354.43	23.299
354.79	24.112
355.15	23.810
355.51	25.158
355.87	24.919
356.24	23.165
356.60	24.091
356.96	24.524
357.32	24.521
357.68	23.925
358.04	23.021
358.40	23.955
358.77	24.322
359.13	23.859
359.49	22.804
359.85	22.075
360.21	23.604
360.57	23.183
360.93	23.828
361.29	22.432
361.66	23.903
362.02	24.015
362.38	23.458
362.74	23.694
363.10	24.153
363.46	23.351
363.82	24.493
364.18	23.985
364.54	22.574
364.90	23.656
365.26	22.707
365.62	23.723
365.98	23.167
366.35	23.598
366.71	22.764
367.07	24.383
367.43	23.436
367.79	23.322
368.15	22.685
368.51	22.287
368.87	22.254
369.23	22.166
369.59	23.469
369.95	23.607
370.31	23.555
370.67	23.134
371.03	23.077
371.39	22.174
371.75	22.784
372.11	23.110
372.47	22.485
372.83	22.640
373.19	23.324
373.55	22.599
373.91	22.822
374.27	22.466
374.63	22.757
374.99	21.631
375.35	23.259
375.71	22.867
376.07	22.753
376.42	21.156
376.78	23.289
377.14	21.869
377.50	21.912
377.86	22.758
378.22	22.591
378.58	21.090
378.94	21.928
379.30	21.647
379.66	22.508
380.02	21.766
380.38	21.789
380.74	21.305
381.09	23.067
381.45	22.324
381.81	22.085
382.17	23.160
382.53	22.798
382.89	22.662
383.25	22.153
383.61	22.134
383.97	21.079
384.32	22.389
384.68	22.415
385.04	21.630
385.40	21.780
385.76	21.761
386.12	22.316
386.48	22.414
386.83	22.321
387.19	21.856
387.55	21.957
387.91	21.883
388.27	22.161
388.62	22.656
388.98	21.424
389.34	21.362
389.70	21.566
390.06	20.579
390.42	21.956
390.77	21.387
391.13	21.059
391.49	21.992
391.85	21.767
392.20	21.783
392.56	21.996
392.92	21.726
393.28	21.875
393.64	21.622
393.99	22.069
394.35	21.885
394.71	22.095
395.07	21.119
395.42	21.129
395.78	21.042
396.14	21.690
396.50	21.370
396.85	21.764
397.21	21.241
397.57	21.505
397.92	21.690
398.28	21.954
398.64	20.663
399.00	21.896
399.35	21.501
399.71	21.310
400.07	20.859
400.42	21.175
400.78	21.249
401.14	21.416
401.49	21.739
401.85	21.572
402.21	21.988
402.57	21.687
402.92	21.205
403.28	21.930
403.63	21.627
403.99	20.727
404.35	21.611
404.70	20.774
405.06	20.858
405.42	21.628
405.77	21.034
406.13	20.838
406.49	20.900
406.84	21.210
407.20	21.011
407.55	21.056
407.91	20.521
408.27	20.841
408.62	21.354
408.98	21.380
409.34	21.623
409.69	21.124
410.05	20.197
410.40	20.864
410.76	21.110
411.11	21.250
411.47	20.447
411.83	20.151
412.18	20.528
412.54	20.724
412.89	21.490
413.25	21.300
413.60	20.497
413.96	20.982
414.31	21.951
414.67	21.167
415.03	21.039
415.38	20.692
415.74	20.326
416.09	21.424
416.45	21.269
416.80	21.481
417.16	21.271
417.51	21.186
417.87	20.795
418.22	20.790
418.58	20.602
418.93	20.752
419.29	21.447
419.64	20.933
420.00	21.977
420.35	21.313
420.71	21.689
421.06	20.810
421.42	20.913
421.77	20.636
422.12	20.545
422.48	21.169
422.83	20.766
423.19	20.598
423.54	20.517
423.90	20.966
424.25	21.355
424.61	21.542
424.96	21.545
425.31	22.299
425.67	21.127
426.02	21.025
426.38	21.227
426.73	20.823
427.09	21.013
427.44	21.529
427.79	21.626
428.15	21.905
428.50	20.715
428.85	19.902
429.21	21.222
429.56	21.348
429.92	20.853
430.27	21.805
430.62	21.275
430.98	20.807
431.33	21.767
431.68	20.513
432.04	21.409
432.39	20.878
432.74	20.445
433.10	21.034
433.45	20.908
433.80	20.313
434.16	20.831
434.51	20.753
434.86	21.545
435.22	21.032
435.57	22.208
435.92	20.659
436.28	21.228
436.63	21.278
436.98	20.973
437.34	20.145
437.69	21.348
438.04	20.741
438.39	20.586
438.75	21.554
439.10	21.336
439.45	21.485
439.81	20.979
440.16	20.903
440.51	21.015
440.86	21.692
441.22	21.550
441.57	21.137
441.92	21.091
442.27	21.286
442.63	21.574
442.98	21.654
443.33	20.868
443.68	20.902
444.03	21.311
444.39	21.545
444.74	22.185
445.09	20.880
445.44	21.538
445.79	22.073
446.15	21.641
446.50	21.409
446.85	20.776
447.20	21.376
447.55	22.321
447.91	21.715
448.26	21.912
448.61	21.474
448.96	21.285
449.31	20.578
449.66	21.603
450.02	22.019
450.37	21.340
450.72	20.619
451.07	21.646
451.42	21.223
451.77	21.157
452.12	20.634
452.47	21.314
452.83	20.730
453.18	21.126
453.53	21.492
453.88	21.676
454.23	20.774
454.58	21.474
454.93	21.070
455.28	19.810
455.63	21.513
455.98	22.189
456.34	21.328
456.69	20.775
457.04	22.369
457.39	21.264
457.74	20.859
458.09	20.777
458.44	22.060
458.79	21.064
459.14	21.968
459.49	22.448
459.84	21.038
460.19	20.874
460.54	21.394
460.89	21.193
461.24	22.298
461.59	22.209
461.94	21.132
462.29	21.170
462.64	21.794
462.99	20.379
463.34	20.515
463.69	21.622
464.04	21.308
464.39	21.407
464.74	20.859
465.09	21.585
465.44	22.274
465.79	20.805
466.14	21.323
466.49	21.507
466.84	21.654
467.19	20.588
467.54	21.903
467.89	20.973
468.24	20.742
468.59	21.206
468.94	20.508
469.29	22.164
469.64	21.053
469.99	22.285
470.34	20.956
470.68	20.656
471.03	21.656
471.38	20.043
471.73	21.078
472.08	20.963
472.43	20.805
472.78	20.631
473.13	21.769
473.48	21.564
473.83	20.797
474.17	21.503
474.52	21.123
474.87	20.727
475.22	21.110
475.57	20.949
475.92	22.381
476.27	21.595
476.61	21.065
476.96	20.803
477.31	21.741
477.66	20.449
478.01	20.438
478.36	21.623
478.70	21.533
479.05	21.978
479.40	20.668
479.75	20.438
480.10	21.352
480.45	21.250
480.79	21.702
481.14	22.131
481.49	20.739
481.84	21.622
482.19	22.123
482.53	20.671
482.88	21.193
483.23	20.825
483.58	21.226
483.92	21.104
484.27	20.419
484.62	20.619
484.97	20.730
485.31	20.592
485.66	22.192
486.01	23.217
486.36	22.617
486.70	22.577
487.05	22.448
487.40	21.536
487.75	20.873
488.09	20.056
488.44	20.083
488.79	20.172
489.13	20.633
489.48	20.393
489.83	20.493
490.17	20.494
490.52	20.831
490.87	20.731
491.22	21.490
491.56	20.778
491.91	20.076
492.26	20.418
492.60	20.441
492.95	21.348
493.30	20.469
493.64	21.611
493.99	21.159
494.34	20.049
494.68	20.762
495.03	21.071
495.37	21.001
495.72	20.798
496.07	20.732
496.41	20.802
496.76	19.760
497.11	20.494
497.45	21.050
497.80	21.292
498.14	20.219
498.49	20.874
498.84	19.960
499.18	20.532
499.53	21.230
499.87	20.525
500.22	19.832
500.56	20.575
500.91	20.030
501.26	20.316
501.60	20.610
501.95	20.573
502.29	20.630
502.64	21.091
502.98	21.164
503.33	18.924
503.67	19.566
504.02	21.017
504.36	20.534
504.71	20.758
505.06	19.678
505.40	20.609
505.75	20.309
506.09	20.071
506.44	20.842
506.78	20.663
507.13	20.269
507.47	20.104
507.82	19.551
508.16	20.338
508.51	20.252
508.85	20.408
509.19	19.798
509.54	20.804
509.88	19.633
510.23	21.087
510.57	20.524
510.92	19.296
511.26	19.422
511.61	20.352
511.95	20.000
512.30	20.233
512.64	19.978
512.98	19.876
513.33	20.761
513.67	19.727
514.02	20.995
514.36	21.029
514.70	20.396
515.05	20.505
515.39	20.720
515.74	19.641
516.08	20.622
516.42	20.730
516.77	21.182
517.11	20.119
517.46	19.988
517.80	19.845
518.14	19.106
518.49	20.072
518.83	20.352
519.17	20.133
519.52	19.005
519.86	19.868
520.20	19.502
520.55	19.199
520.89	20.389
521.23	20.139
521.58	20.757
521.92	20.000
522.26	19.323
522.61	20.065
522.95	20.530
523.29	19.759
523.64	20.267
523.98	20.674
524.32	19.459
524.66	20.359
525.01	19.935
525.35	20.609
525.69	18.653
526.04	19.378
526.38	20.947
526.72	19.097
527.06	19.066
527.41	21.306
527.75	18.633
528.09	20.199
528.43	20.527
528.78	20.858
529.12	19.742
529.46	19.948
529.80	20.519
530.15	20.660
530.49	19.461
530.83	20.588
531.17	19.946
531.51	19.904
531.86	19.511
532.20	18.928
532.54	19.537
532.88	19.439
533.22	19.825
533.57	21.298
533.91	19.125
534.25	20.964
534.59	19.756
534.93	19.320
535.27	19.670
535.62	20.026
535.96	21.070
536.30	20.712
536.64	20.193
536.98	19.512
537.32	19.772
537.66	20.126
538.01	19.930
538.35	20.596
538.69	20.040
539.03	20.711
539.37	20.458
539.71	20.586
540.05	20.706
540.39	19.875
540.73	19.874
541.07	19.820
541.42	21.505
541.76	20.440
542.10	19.821
542.44	21.056
542.78	20.096
543.12	19.643
543.46	20.515
543.80	20.472
544.14	19.493
544.48	20.720
544.82	20.574
545.16	20.423
545.50	20.961
545.84	20.609
546.18	21.064
546.52	19.971
546.86	19.698
547.20	20.529
547.54	18.940
547.88	20.584
548.22	20.316
548.56	20.383
548.90	19.946
549.24	19.353
549.58	20.522
549.92	19.585
550.26	19.780
550.60	20.818
550.94	20.538
551.28	19.629
551.62	19.692
551.96	20.602
552.30	20.249
552.64	20.522
552.98	20.394
553.32	20.328
553.66	19.521
554.00	20.292
554.34	20.236
554.68	19.690
555.02	21.280
555.36	20.269
555.69	19.267
556.03	19.129
556.37	20.214
556.71	20.722
557.05	19.911
557.39	20.149
557.73	20.015
558.07	20.513
558.41	20.138
558.75	20.187
559.08	20.252
559.42	19.365
559.76	19.936
560.10	19.648
560.44	20.253
560.78	21.049
561.12	20.522
561.45	21.082
561.79	20.238
562.13	20.653
562.47	20.144
562.81	20.173
563.15	20.028
563.48	20.297
563.82	21.002
564.16	21.100
564.50	20.270
564.84	20.415
565.17	19.987
565.51	22.063
565.85	20.439
566.19	20.889
566.52	21.582
566.86	21.530
567.20	20.859
567.54	20.803
567.88	21.617
568.21	22.172
568.55	22.011
568.89	22.793
569.23	21.858
569.56	21.410
569.90	23.183
570.24	22.404
570.57	22.655
570.91	23.249
571.25	21.769
571.59	22.423
571.92	21.778
572.26	22.434
572.60	21.860
572.93	21.588
573.27	21.724
573.61	21.987
573.95	22.802
574.28	21.954
574.62	22.375
574.96	22.513
575.29	22.211
575.63	21.741
575.97	21.225
576.30	21.366
576.64	21.801
576.98	22.291
577.31	22.561
577.65	22.890
577.98	22.971
578.32	22.815
578.66	22.050
578.99	21.947
579.33	21.709
579.67	21.524
580.00	22.203
580.34	21.692
580.67	21.686
581.01	22.142
581.35	22.674
581.68	22.830
582.02	23.160
582.35	22.878
582.69	22.828
583.02	21.961
583.36	22.238
583.70	21.521
584.03	21.713
584.37	22.134
584.70	21.676
585.04	21.632
585.37	21.794
585.71	22.266
586.04	22.214
586.38	22.166
586.72	22.525
587.05	22.617
587.39	22.477
587.72	22.991
588.06	21.865
588.39	21.817
588.73	22.222
589.06	22.440
589.40	21.604
589.73	21.760
590.07	21.677
590.40	21.594
590.73	21.829
591.07	21.883
591.40	21.282
591.74	21.312
592.07	21.382
592.41	21.776
592.74	22.103
593.08	22.284
593.41	22.405
593.75	22.375
594.08	21.696
594.41	22.125
594.75	21.450
595.08	22.210
595.42	21.862
595.75	22.381
596.09	21.970
596.42	21.786
596.75	21.492
597.09	20.866
597.42	21.364
597.75	21.347
598.09	21.503
598.42	21.480
598.76	21.236
599.09	22.155
599.42	21.675
599.76	21.971
600.09	21.795
600.42	21.911
600.76	21.768
601.09	21.832
601.42	21.230
601.76	21.636
602.09	21.246
602.42	21.988
602.76	21.689
603.09	21.968
603.42	22.575
603.76	21.573
604.09	21.952
604.42	21.997
604.76	22.474
605.09	21.755
605.42	21.670
605.75	21.629
606.09	21.359
606.42	21.768
606.75	21.126
607.09	21.407
607.42	21.311
607.75	21.448
608.08	21.069
608.42	21.243
608.75	21.976
609.08	22.023
609.41	21.269
609.75	20.766
610.08	21.268
610.41	21.643
610.74	21.745
611.07	21.395
611.41	22.314
611.74	22.175
612.07	20.985
612.40	21.827
612.73	21.130
613.07	20.529
613.40	21.827
613.73	21.265
614.06	20.701
614.39	20.925
614.72	21.176
615.06	20.894
615.39	20.961
615.72	21.044
616.05	20.670
616.38	20.741
616.71	20.979
617.05	20.939
617.38	20.490
617.71	20.503
618.04	21.397
618.37	21.375
618.70	21.650
619.03	21.458
619.36	20.984
619.69	20.849
620.03	21.987
620.36	21.030
620.69	20.128
621.02	19.419
621.35	20.332
621.68	20.068
622.01	19.917
622.34	20.511
622.67	20.505
623.00	20.750
623.33	19.893
623.66	20.419
623.99	20.802
624.32	20.989
624.65	19.699
624.99	21.144
625.32	20.243
625.65	20.581
625.98	21.273
626.31	19.119
626.64	20.104
626.97	19.634
627.30	20.665
627.63	20.451
627.96	20.575
628.29	18.409
628.62	20.452
628.95	19.539
629.28	20.262
629.61	19.342
629.94	20.723
630.26	19.664
630.59	20.187
630.92	19.590
631.25	19.795
631.58	19.163
631.91	17.982
632.24	18.578
632.57	19.659
632.90	17.794
633.23	20.000
633.56	17.884
633.89	17.386
634.22	20.247
634.55	19.441
634.88	18.519
635.20	18.974
635.53	19.733
635.86	18.466
636.19	21.475
636.52	18.367
636.85	18.610
637.18	19.623
637.51	19.874
637.83	19.054
638.16	19.100
638.49	17.166
638.82	19.868
639.15	19.946
639.48	19.120
639.81	18.689
640.13	18.326
640.46	19.679
640.79	16.937
641.12	18.021
641.45	19.820
641.77	19.852
642.10	18.641
642.43	17.363
642.76	20.957
643.09	18.417
643.41	17.152
643.74	16.310
644.07	18.062
644.40	19.595
644.73	18.914
645.05	20.470
645.38	17.989
645.71	16.489
646.04	18.671
646.36	18.262
646.69	21.223
647.02	19.660
647.35	17.724
647.67	17.367
648.00	18.470
648.33	18.771
648.66	19.492
648.98	16.415
649.31	17.190
649.64	17.425
649.96	17.828
650.29	19.080
650.62	16.410
650.94	17.593
651.27	15.456
651.60	17.658
651.92	18.706
652.25	17.229
652.58	18.833
652.90	18.868
653.23	20.000
653.56	17.428
653.88	17.010
654.21	16.462
654.54	18.676
654.86	19.525
655.19	20.322
655.52	24.845
655.84	27.113
656.17	29.856
656.49	39.546
656.82	38.842
657.15	27.903
657.47	20.032
657.80	14.340
658.13	13.319
658.45	19.216
658.78	18.346
659.10	17.733
659.43	17.143
659.75	16.527
660.08	16.414
660.41	15.935
660.73	16.989
661.06	17.158
661.38	16.634
661.71	17.043
662.03	16.738
662.36	17.143
662.68	15.044
663.01	16.812
663.33	17.401
663.66	16.512
663.98	12.093
664.31	19.829
664.63	14.977
664.96	16.087
665.28	15.673
665.61	16.667
665.93	19.565
666.26	18.004
666.58	15.884
666.91	16.706
667.23	17.217
667.56	17.773
667.88	18.225
668.21	17.900
668.53	19.149
668.86	14.623
669.18	14.387
669.50	14.286
669.83	16.279
670.15	14.685
670.48	18.182
670.80	17.281
671.13	18.792
671.45	13.927
671.77	15.880
672.10	18.218
672.42	20.412
672.75	18.295
673.07	20.394
673.39	20.000
673.72	15.187
674.04	16.458
674.37	18.644
674.69	14.347
675.01	18.667
675.34	16.216
675.66	18.056
675.98	18.847
676.31	17.431
676.63	13.777
676.95	18.409
677.28	18.118
677.60	16.386
677.92	14.679
678.25	20.788
678.57	18.182
678.89	17.437
679.22	18.345
679.54	17.068
679.86	17.495
680.18	19.612
680.51	17.235
680.83	18.290
681.15	19.200
681.48	19.057
681.80	18.802
682.12	18.952
682.44	15.481
682.77	18.102
683.09	16.705
683.41	15.909
683.73	18.203
684.06	17.478
684.38	16.559
684.70	17.429
685.02	16.598
685.34	17.391
685.67	18.574
685.99	20.072
686.31	19.292
686.63	19.852
686.96	18.251
687.28	16.162
687.60	15.970
687.92	20.202
688.24	16.532
688.56	16.812
688.89	16.071
689.21	19.333
689.53	15.545
689.85	16.977
690.17	18.750
690.49	15.603
690.82	17.233
691.14	15.476
691.46	17.757
691.78	17.793
692.10	20.215
692.42	17.316
692.74	17.949
693.06	17.117
693.39	15.611
693.71	15.385
694.03	18.014
694.35	17.523
694.67	15.657
694.99	15.144
695.31	19.843
695.63	19.500
695.95	17.929
696.27	15.803
696.59	16.667
696.91	16.246
697.23	17.738
697.56	17.574
697.88	21.290
698.20	17.540
698.52	15.059
698.84	16.986
699.16	14.750
699.48	15.539
699.80	18.859
700.12	16.442
700.44	18.487
700.76	15.116
701.08	14.848
701.40	14.157
701.72	22.222
702.04	16.172
702.36	17.391
702.68	15.616
703.00	15.152
703.32	19.941
703.64	17.797
703.96	18.261
704.28	14.724
704.60	18.730
704.91	11.356
705.23	14.618
705.55	21.908
705.87	16.606
706.19	13.704
706.51	14.777
706.83	15.434
707.15	9.034
707.47	21.289
707.79	16.406
708.11	18.250
708.43	18.000
708.74	18.605
709.06	20.845
709.38	16.514
709.70	18.935
710.02	15.605
710.34	17.647
710.66	16.987
710.98	13.576
711.29	14.098
711.61	13.559
711.93	19.218
712.25	24.399
712.57	12.088
712.89	14.925
713.20	13.841
713.52	17.770
713.84	19.795
714.16	17.869
714.48	16.452
714.80	17.308
715.11	17.325
715.43	14.734
715.75	15.667
716.07	15.947
716.39	17.114
716.70	14.391
717.02	17.939
717.34	15.789
717.66	12.389
717.97	13.478
718.29	15.063
718.61	21.260
718.93	15.116
719.24	16.350
719.56	16.064
719.88	16.838
720.20	16.667
720.51	12.644
720.83	13.514
721.15	17.647
721.46	20.161
721.78	16.206
722.10	13.383
722.42	12.448
722.73	15.102
723.05	19.592
723.37	19.068
723.68	21.171
724.00	16.239
724.32	13.333
724.63	14.091
724.95	15.721
725.27	14.286
725.58	16.525
725.90	16.667
726.22	13.900
726.53	17.966
726.85	19.850
727.16	21.887
727.48	14.575
727.80	18.219
728.11	16.949
728.43	17.255
728.74	10.484
729.06	18.000
729.38	22.180
729.69	14.343
730.01	15.769
730.32	19.403
730.64	19.788
730.96	20.000
731.27	16.333
731.59	15.932
731.90	18.471
732.22	23.344
732.53	20.930
732.85	18.794
733.16	21.549
733.48	16.547
733.80	17.391
734.11	17.627
734.43	19.588
734.74	18.182
735.06	18.893
735.37	21.450
735.69	19.865
736.00	15.331
736.32	16.443
736.63	17.254
736.95	16.724
737.26	20.641
737.58	15.436
737.89	20.147
738.21	18.797
738.52	21.399
738.83	20.087
739.15	18.341
739.46	17.717
739.78	19.048
740.09	18.301
740.41	17.029
740.72	15.354
741.04	15.789
741.35	16.596
741.66	15.166
741.98	15.306
742.29	16.337
742.61	14.660
742.92	15.640
743.23	8.796
743.55	17.647
743.86	17.225
744.18	16.746
744.49	8.511
744.80	15.217
745.12	24.064
745.43	10.732
745.74	23.438
746.06	14.634
746.37	18.325
746.68	18.957
747.00	8.511
747.31	15.920
747.62	11.165
747.94	16.268
748.25	15.842
748.56	11.475
748.88	19.372
749.19	12.766
749.50	15.271
749.82	10.377
750.13	16.972
750.44	24.060
750.75	20.522
751.07	19.708
751.38	15.709
751.69	18.431
752.01	18.605
752.32	20.319
752.63	21.344
752.94	15.086
753.26	23.849
753.57	15.837
753.88	17.699
754.19	10.417
754.51	14.050
754.82	14.980
755.13	20.833
755.44	17.339
755.75	18.359
756.07	18.288
756.38	16.226
756.69	14.943
757.00	21.667
757.31	16.340
757.63	16.463
757.94	18.333
758.25	17.808
758.56	16.489
758.87	16.714
759.18	17.445
759.50	14.545
759.81	21.070
760.12	26.452
760.43	22.121
760.74	19.136
761.05	19.692
761.36	21.875
761.67	20.909
761.99	22.109
762.30	10.182
762.61	14.625
762.92	16.290
763.23	13.964
763.54	15.421
763.85	18.644
764.16	18.672
764.47	15.323
764.78	20.147
765.10	26.599
765.41	21.136
765.72	14.603
766.03	15.414
766.34	21.168
766.65	17.928
766.96	17.172
767.27	14.362
767.58	16.092
767.89	5.674
768.20	17.045
768.51	10.989
768.82	14.778
769.13	14.747
769.44	18.884
769.75	18.721
770.06	17.672
770.37	22.115
770.68	16.751
770.99	17.195
771.30	24.510
771.61	19.005
771.92	25.000
772.23	21.675
772.54	20.430
772.85	15.432
773.16	17.416
773.47	20.261
773.78	15.686
774.09	14.970
774.39	12.667
774.70	14.013
775.01	20.000
775.32	16.429
775.63	8.264
775.94	12.977
776.25	18.898
776.56	9.167
776.87	3.846
777.18	20.513
777.48	8.621
777.79	6.087
778.10	10.476
778.41	2.703
778.72	18.254
779.03	14.286
779.34	24.823
779.65	21.233
779.95	9.589
780.26	18.621
780.57	8.130
780.88	7.874
781.19	12.931
781.50	10.853
781.80	15.976
782.11	10.692
782.42	16.154
782.73	11.511
783.04	16.296
783.34	10.417
783.65	5.128
783.96	12.295
784.27	21.379
784.57	13.821
784.88	17.188
785.19	12.000
785.50	17.000
785.81	14.655
786.11	15.517
786.42	19.417
786.73	22.727
787.04	15.306
787.34	7.143
787.65	24.762
787.96	7.965
788.26	20.000
788.57	17.949
788.88	21.094
789.19	12.698
789.49	10.435
789.80	4.082
790.11	12.121
790.41	5.455
790.72	11.957
791.03	7.955
791.33	17.500
791.64	12.500
791.95	11.628
792.25	15.957
792.56	17.978
792.87	15.068
793.17	15.942
793.48	-5.333
793.79	1.250
794.09	12.500
794.40	3.774
794.70	6.796
795.01	4.065
795.32	14.530
795.62	7.619
795.93	17.647
796.23	16.038
796.54	11.458
796.85	7.353
797.15	11.268
797.46	0.000
797.76	19.697
798.07	17.442
798.37	-2.632
798.68	1.515
798.99	17.284
799.29	24.286
799.60	8.696
799.90	22.667
800.21	6.557
800.51	-1.538
800.82	1.695
801.12	-8.696
801.43	24.590
801.73	12.698
802.04	0.000
802.34	2.985
802.65	7.692
802.95	-14.286
803.26	-11.538
803.56	21.569
803.87	-15.217
804.17	4.000
804.48	19.048
804.78	-7.407
805.09	13.043
805.39	11.111
805.70	7.407
806.00	-12.281
806.30	4.225
806.61	21.429
806.91	0.000
807.22	7.895
807.52	16.000
807.83	-14.545
808.13	-11.111
808.43	19.118
808.74	13.433
809.04	1.695
809.35	13.462
809.65	14.062
809.95	-2.703
810.26	-15.909
810.56	-2.740
810.86	-4.762
811.17	-2.000
811.47	-10.204
811.77	-15.789
812.08	6.818
812.38	-1.887
812.69	-20.000
812.99	-9.091
813.29	-18.421
813.59	-48.571
813.90	11.364
814.20	12.821
814.50	-11.538
814.81	7.547
815.11	-10.638
815.41	28.814
815.72	-14.286
816.02	7.843
816.32	14.583
816.62	-2.439
816.93	-10.811
817.23	11.429
817.53	10.417
817.84	6.522
818.14	-5.769
818.44	-28.947
818.74	23.913
819.04	-47.500
819.35	-16.216
819.65	-2.941
819.95	-2.778
820.25	11.905
820.56	45.000
820.86	-27.586
821.16	15.000
821.46	17.021
821.76	12.500
822.07	-6.977
822.37	-32.432
822.67	3.125
822.97	23.810
823.27	-32.143
823.57	-24.000
823.88	-40.741
824.18	0.000
824.48	11.765
824.78	12.903
825.08	-43.478
825.38	3.030
825.69	-66.667
825.99	15.789
826.29	-11.111
826.59	-73.333
826.89	-42.857
827.19	26.087
827.49	-5.000
827.79	-11.429
828.09	-7.143
828.39	-21.212
828.70	18.919
829.00	-10.714
829.30	-23.810
829.60	-10.000
829.90	-15.625
830.20	-5.263
830.50	-37.037
830.80	-17.391
831.10	-45.455
831.40	0.000
831.70	6.452
832.00	-19.048
832.30	-33.333
832.60	-25.000
832.90	6.897
833.20	-60.000
833.50	15.152
833.80	-7.407
834.10	-3.846
834.40	-6.250
834.70	-88.889
835.00	-89.474
835.30	11.538
835.60	0.000
835.90	22.581
836.20	4.545
836.50	-10.714
836.80	-61.538
837.10	-28.571
837.40	-433.333
837.70	-31.818
838.00	-109.091
838.30	13.043
838.60	-84.615
838.90	9.091
839.19	-3.571
839.49	3.333
839.79	-30.769
840.09	-175.000
840.39	21.429
840.69	0.000
840.99	-65.385
841.29	-100.000
841.59	-130.000
841.88	-118.182
842.18	0.000
842.48	-31.250
842.78	-53.333
843.08	-40.741
843.38	-150.000
843.68	-13.043
843.97	-20.000
844.27	-120.000
844.57	-45.000
844.87	-22.222
845.17	-47.619
845.47	-40.000
845.76	-42.857
846.06	-11.765
846.36	-150.000
846.66	-28.571
846.96	-33.333
847.25	-162.500
847.55	-28.571
847.85	-137.500
848.15	-36.364
848.44	-566.667
848.74	-20.000
849.04	7.407
849.34	0.000
849.63	-183.333
849.93	-320.000
850.23	-66.667
850.53	-30.000
850.82	-76.923
851.12	-100.000
851.42	6.667
851.71	-19.231
852.01	-78.571
852.31	-250.000
852.61	-100.000
852.90	-5.000
853.20	-15.789
853.50	75.000
853.79	-13.043
854.09	16.667
854.39	5.263
854.68	20.833
854.98	-9.677
855.28	0.000
855.57	-30.000
855.87	33.333
856.17	18.519
856.46	7.143
856.76	-86.667
857.05	-66.667
857.35	12.000
857.65	44.444
857.94	0.000
858.24	-3.448
858.53	-22.222
858.83	3.704
859.13	36.364
859.42	-17.391
859.72	-125.000
860.01	-333.333
860.31	-4.000
860.60	-38.095
860.90	-700.000
861.20	-73.333
861.49	-750.000
861.79	-93.333
862.08	-10.000
862.38	0.000
862.67	-100.000
862.97	-150.000
863.26	-16.667
863.56	33.333
863.85	-433.333
864.15	-16.667
864.44	-70.000
864.74	85.714
865.03	350.000
865.33	-340.000
865.62	-66.667
865.92	-83.333
866.21	-233.333
866.51	-18.750
866.80	-63.636
867.10	-750.000
867.39	-33.333
867.69	0.000
867.98	-69.231
868.27	-366.667
868.57	-60.000
868.86	-5.556
869.16	-61.538
869.45	53.333
869.75	-2100.000
870.04	0.000
870.33	-57.143
870.63	-14.286
870.92	500.000
871.22	-280.000
871.51	-900.000
871.80	22.222
872.10	400.000
>>>>>End Processed Spectral Data<<<<<
