SpectraSuite Data File
++++++++++++++++++++++++++++++++++++
Date: Fri May 15 21:09:41 PDT 2015
User: schluterlab
Dark Spectrum Present: Yes
Reference Spectrum Present: Yes
Number of Sampled Component Spectra: 1
Spectrometers: USB2E3373
Integration Time (usec): 3000 (USB2E3373)
Spectra Averaged: 3 (USB2E3373)
Boxcar Smoothing: 0 (USB2E3373)
Correct for Electrical Dark: No (USB2E3373)
Strobe/Lamp Enabled: No (USB2E3373)
Correct for Detector Non-linearity: No (USB2E3373)
Correct for Stray Light: No (USB2E3373)
Number of Pixels in Processed Spectrum: 2048
>>>>>Begin Processed Spectral Data<<<<<
178.53	0.000
178.91	0.000
179.29	150.000
179.67	-850.000
180.04	42.857
180.42	100.000
180.80	-1800.000
181.18	100.000
181.56	300.000
181.94	150.000
182.31	1000.000
182.69	0.000
183.07	-266.667
183.45	100.000
183.83	100.000
184.20	-18.182
184.58	166.667
184.96	-100.000
185.34	-133.333
185.72	0.000
186.09	84.615
186.47	-600.000
186.85	66.667
187.23	177.778
187.61	400.000
187.98	-533.333
188.36	-33.333
188.74	-366.667
189.12	-17.647
189.49	27.778
189.87	0.000
190.25	0.000
190.63	700.000
191.00	-166.667
191.38	-26.316
191.76	-200.000
192.14	100.000
192.51	-200.000
192.89	-100.000
193.27	-42.857
193.65	133.333
194.02	72.727
194.40	80.000
194.78	-137.500
195.15	-50.000
195.53	-87.500
195.91	225.000
196.29	-150.000
196.66	76.923
197.04	128.571
197.42	-33.333
197.79	-233.333
198.17	-61.538
198.55	1200.000
198.92	200.000
199.30	-700.000
199.68	-340.000
200.05	-366.667
200.43	0.000
200.81	0.000
201.18	200.000
201.56	1900.000
201.94	-100.000
202.31	233.333
202.69	-180.000
203.07	75.000
203.44	400.000
203.82	0.000
204.19	21.429
204.57	-266.667
204.95	162.500
205.32	10.000
205.70	-28.571
206.08	-175.000
206.45	255.556
206.83	71.429
207.20	0.000
207.58	1200.000
207.96	-133.333
208.33	-150.000
208.71	-75.000
209.08	-100.000
209.46	-1100.000
209.84	-240.000
210.21	-700.000
210.59	42.857
210.96	-33.333
211.34	-350.000
211.71	53.333
212.09	-128.571
212.46	-1000.000
212.84	0.000
213.22	-30.000
213.59	750.000
213.97	0.000
214.34	36.364
214.72	-33.333
215.09	375.000
215.47	-38.462
215.84	9.091
216.22	-433.333
216.59	-112.500
216.97	-200.000
217.34	-300.000
217.72	-460.000
218.09	100.000
218.47	125.000
218.84	200.000
219.22	-77.778
219.59	-140.000
219.97	-0.000
220.34	150.000
220.72	-14.286
221.09	-150.000
221.47	0.000
221.84	-700.000
222.22	-900.000
222.59	-9.091
222.97	8.333
223.34	-433.333
223.72	-35.714
224.09	23.810
224.46	3.571
224.84	33.333
225.21	60.000
225.59	40.000
225.96	-450.000
226.34	50.000
226.71	14.286
227.08	-116.667
227.46	-25.000
227.83	-300.000
228.21	88.889
228.58	-63.636
228.95	-237.500
229.33	140.000
229.70	31.250
230.08	12.500
230.45	-42.857
230.82	57.143
231.20	33.333
231.57	28.571
231.95	0.000
232.32	-50.000
232.69	7.143
233.07	200.000
233.44	-40.000
233.81	-30.000
234.19	-44.444
234.56	-41.176
234.93	200.000
235.31	-50.000
235.68	-60.000
236.05	-7.692
236.43	-65.000
236.80	-41.176
237.17	21.875
237.55	-10.000
237.92	-48.148
238.29	16.667
238.67	-26.667
239.04	-2.941
239.41	-31.707
239.79	20.000
240.16	41.463
240.53	-18.421
240.91	-10.870
241.28	9.524
241.65	19.643
242.02	19.178
242.40	21.667
242.77	8.475
243.14	13.636
243.51	21.250
243.89	19.540
244.26	8.046
244.63	9.524
245.00	6.186
245.38	6.186
245.75	6.742
246.12	10.345
246.49	17.355
246.87	15.385
247.24	10.924
247.61	7.018
247.98	20.325
248.36	18.125
248.73	15.789
249.10	14.935
249.47	17.722
249.84	12.418
250.22	11.765
250.59	16.340
250.96	15.493
251.33	9.302
251.70	13.529
252.08	14.213
252.45	19.307
252.82	18.090
253.19	13.364
253.56	14.019
253.94	16.216
254.31	17.391
254.68	17.105
255.05	11.811
255.42	12.227
255.79	21.236
256.16	15.564
256.54	18.284
256.91	17.110
257.28	14.498
257.65	13.858
258.02	18.085
258.39	18.855
258.76	17.582
259.14	22.924
259.51	18.770
259.88	16.495
260.25	15.686
260.62	18.403
260.99	16.949
261.36	16.438
261.73	13.608
262.10	16.109
262.47	16.258
262.85	17.555
263.22	19.077
263.59	15.888
263.96	18.012
264.33	17.879
264.70	17.262
265.07	20.238
265.44	18.414
265.81	16.667
266.18	18.579
266.55	18.766
266.92	18.135
267.29	14.360
267.66	19.437
268.03	16.492
268.40	17.755
268.77	18.182
269.14	16.787
269.51	22.365
269.88	16.708
270.25	14.541
270.62	18.293
270.99	14.578
271.36	18.337
271.73	18.779
272.10	19.221
272.47	17.494
272.84	16.337
273.21	18.561
273.58	16.867
273.95	16.934
274.32	14.781
274.69	14.480
275.06	18.750
275.43	15.873
275.80	19.205
276.17	16.552
276.54	14.133
276.91	18.860
277.28	15.721
277.65	17.149
278.02	15.106
278.39	14.004
278.76	14.885
279.13	14.730
279.50	14.496
279.87	18.143
280.23	14.839
280.60	17.154
280.97	17.172
281.34	16.154
281.71	18.480
282.08	15.542
282.45	15.068
282.82	14.865
283.19	17.795
283.56	19.075
283.92	15.939
284.29	14.615
284.66	16.860
285.03	15.128
285.40	14.934
285.77	15.466
286.14	17.329
286.51	16.605
286.87	13.894
287.24	14.365
287.61	13.933
287.98	14.737
288.35	14.558
288.72	17.513
289.08	13.368
289.45	15.466
289.82	14.685
290.19	13.652
290.56	15.266
290.93	13.973
291.29	12.327
291.66	15.276
292.03	14.514
292.40	14.194
292.77	14.195
293.13	8.929
293.50	13.809
293.87	12.672
294.24	14.065
294.60	15.201
294.97	14.583
295.34	12.117
295.71	14.009
296.08	13.453
296.44	11.522
296.81	13.194
297.18	12.319
297.55	12.873
297.91	12.877
298.28	13.588
298.65	12.619
299.02	13.073
299.38	10.944
299.75	12.828
300.12	12.304
300.48	12.516
300.85	13.054
301.22	12.338
301.59	11.711
301.95	12.911
302.32	12.062
302.69	11.318
303.05	11.634
303.42	12.702
303.79	13.668
304.15	13.381
304.52	11.296
304.89	10.877
305.25	11.259
305.62	11.552
305.99	12.515
306.35	11.445
306.72	10.574
307.09	13.113
307.45	12.744
307.82	10.648
308.19	11.034
308.55	12.323
308.92	12.527
309.29	12.737
309.65	12.809
310.02	12.101
310.38	13.392
310.75	11.803
311.12	12.056
311.48	12.619
311.85	13.194
312.22	13.502
312.58	12.951
312.95	12.914
313.31	12.422
313.68	11.832
314.05	13.878
314.41	14.639
314.78	14.742
315.14	15.622
315.51	16.874
315.87	16.291
316.24	17.391
316.61	16.831
316.97	17.262
317.34	18.555
317.70	18.451
318.07	19.615
318.43	19.706
318.80	20.360
319.16	21.094
319.53	22.127
319.89	22.047
320.26	25.000
320.62	23.170
320.99	23.800
321.35	25.283
321.72	27.414
322.08	27.492
322.45	29.543
322.81	28.782
323.18	29.146
323.54	31.081
323.91	32.132
324.27	33.203
324.64	35.206
325.00	34.672
325.37	36.455
325.73	37.443
326.10	39.146
326.46	39.552
326.83	41.120
327.19	41.064
327.56	42.224
327.92	42.870
328.29	43.036
328.65	44.906
329.01	45.129
329.38	45.991
329.74	45.703
330.11	46.895
330.47	47.495
330.84	47.885
331.20	49.144
331.56	48.519
331.93	49.041
332.29	49.588
332.66	48.597
333.02	50.558
333.38	49.221
333.75	52.015
334.11	49.776
334.48	50.680
334.84	50.183
335.20	51.967
335.57	51.133
335.93	53.568
336.29	52.486
336.66	52.589
337.02	53.160
337.38	51.204
337.75	51.818
338.11	52.390
338.47	53.741
338.84	54.991
339.20	53.291
339.56	55.505
339.93	54.790
340.29	55.229
340.65	54.480
341.02	53.546
341.38	53.628
341.74	54.594
342.11	52.513
342.47	54.982
342.83	54.325
343.20	53.310
343.56	55.565
343.92	55.093
344.28	54.398
344.65	53.627
345.01	54.797
345.37	53.574
345.73	55.732
346.10	56.859
346.46	55.088
346.82	55.483
347.19	54.530
347.55	56.976
347.91	54.207
348.27	54.810
348.63	56.133
349.00	54.799
349.36	56.110
349.72	57.463
350.08	55.738
350.45	54.908
350.81	56.478
351.17	55.049
351.53	54.531
351.89	56.235
352.26	55.040
352.62	55.726
352.98	55.261
353.34	53.704
353.70	56.311
354.07	54.758
354.43	56.285
354.79	57.391
355.15	56.905
355.51	55.380
355.87	56.877
356.24	56.036
356.60	55.538
356.96	56.667
357.32	57.588
357.68	54.652
358.04	56.381
358.40	56.431
358.77	56.140
359.13	57.166
359.49	55.162
359.85	57.488
360.21	56.619
360.57	54.399
360.93	56.430
361.29	55.287
361.66	55.564
362.02	56.212
362.38	57.502
362.74	57.305
363.10	58.841
363.46	57.228
363.82	57.325
364.18	55.572
364.54	55.735
364.90	57.204
365.26	56.696
365.62	57.299
365.98	57.478
366.35	57.538
366.71	58.093
367.07	56.894
367.43	57.728
367.79	58.092
368.15	57.215
368.51	57.174
368.87	57.071
369.23	56.534
369.59	57.872
369.95	57.185
370.31	56.214
370.67	58.657
371.03	56.983
371.39	57.257
371.75	57.802
372.11	57.133
372.47	58.506
372.83	57.842
373.19	57.204
373.55	57.545
373.91	57.451
374.27	58.611
374.63	57.071
374.99	57.589
375.35	57.591
375.71	57.972
376.07	57.935
376.42	58.095
376.78	58.255
377.14	56.669
377.50	58.234
377.86	57.831
378.22	58.009
378.58	57.244
378.94	57.719
379.30	58.890
379.66	57.743
380.02	57.756
380.38	55.813
380.74	57.630
381.09	57.730
381.45	57.859
381.81	57.125
382.17	57.424
382.53	56.402
382.89	57.627
383.25	58.183
383.61	57.805
383.97	57.460
384.32	56.285
384.68	57.152
385.04	57.292
385.40	57.312
385.76	58.994
386.12	57.439
386.48	60.281
386.83	59.163
387.19	59.280
387.55	58.971
387.91	57.824
388.27	56.166
388.62	58.842
388.98	57.090
389.34	58.089
389.70	57.800
390.06	56.702
390.42	58.549
390.77	59.581
391.13	58.071
391.49	58.603
391.85	57.635
392.20	58.318
392.56	57.724
392.92	58.426
393.28	58.137
393.64	57.838
393.99	58.621
394.35	59.203
394.71	58.557
395.07	56.442
395.42	58.470
395.78	57.655
396.14	57.440
396.50	57.197
396.85	58.403
397.21	57.143
397.57	57.179
397.92	57.100
398.28	57.586
398.64	56.867
399.00	58.014
399.35	56.264
399.71	57.381
400.07	57.134
400.42	57.589
400.78	58.298
401.14	56.624
401.49	57.296
401.85	56.734
402.21	56.145
402.57	58.500
402.92	57.465
403.28	57.268
403.63	58.764
403.99	57.972
404.35	57.589
404.70	55.655
405.06	56.228
405.42	56.992
405.77	56.421
406.13	58.673
406.49	56.424
406.84	58.191
407.20	57.495
407.55	56.214
407.91	57.487
408.27	56.597
408.62	57.477
408.98	57.671
409.34	56.568
409.69	56.589
410.05	57.820
410.40	57.469
410.76	56.212
411.11	57.250
411.47	57.462
411.83	57.250
412.18	57.400
412.54	55.556
412.89	56.034
413.25	56.498
413.60	56.832
413.96	55.644
414.31	55.915
414.67	55.356
415.03	55.792
415.38	54.765
415.74	55.700
416.09	57.283
416.45	55.908
416.80	55.915
417.16	56.561
417.51	57.229
417.87	55.476
418.22	56.477
418.58	57.057
418.93	56.176
419.29	54.481
419.64	56.448
420.00	57.620
420.35	54.806
420.71	56.622
421.06	56.231
421.42	56.010
421.77	53.988
422.12	56.129
422.48	56.037
422.83	54.582
423.19	55.361
423.54	54.145
423.90	54.770
424.25	56.372
424.61	55.692
424.96	55.633
425.31	56.210
425.67	56.103
426.02	55.065
426.38	57.170
426.73	56.053
427.09	56.392
427.44	56.176
427.79	54.744
428.15	54.672
428.50	56.632
428.85	55.344
429.21	54.839
429.56	55.687
429.92	54.802
430.27	53.734
430.62	54.679
430.98	54.459
431.33	54.206
431.68	54.003
432.04	55.729
432.39	54.706
432.74	53.818
433.10	55.402
433.45	54.958
433.80	55.369
434.16	53.518
434.51	55.108
434.86	53.833
435.22	54.851
435.57	54.460
435.92	55.329
436.28	54.621
436.63	54.364
436.98	54.461
437.34	54.265
437.69	54.800
438.04	54.131
438.39	55.773
438.75	55.495
439.10	53.763
439.45	54.291
439.81	54.801
440.16	56.295
440.51	55.463
440.86	54.804
441.22	54.242
441.57	54.581
441.92	55.719
442.27	53.825
442.63	55.300
442.98	54.451
443.33	52.755
443.68	53.899
444.03	55.241
444.39	53.369
444.74	55.518
445.09	54.343
445.44	54.644
445.79	54.719
446.15	54.075
446.50	54.243
446.85	53.560
447.20	54.223
447.55	52.902
447.91	54.597
448.26	54.639
448.61	54.059
448.96	55.364
449.31	54.740
449.66	54.762
450.02	53.508
450.37	54.179
450.72	53.895
451.07	55.063
451.42	53.059
451.77	54.852
452.12	53.648
452.47	53.059
452.83	53.534
453.18	54.080
453.53	54.298
453.88	54.220
454.23	54.395
454.58	54.849
454.93	54.768
455.28	53.206
455.63	54.495
455.98	53.638
456.34	54.151
456.69	53.939
457.04	54.820
457.39	54.435
457.74	54.051
458.09	51.736
458.44	53.657
458.79	53.109
459.14	54.405
459.49	53.731
459.84	53.638
460.19	52.549
460.54	53.362
460.89	54.261
461.24	52.919
461.59	53.979
461.94	52.767
462.29	54.343
462.64	53.821
462.99	54.299
463.34	52.156
463.69	53.732
464.04	52.482
464.39	53.426
464.74	52.454
465.09	53.026
465.44	53.318
465.79	50.794
466.14	51.596
466.49	51.466
466.84	52.885
467.19	52.315
467.54	52.618
467.89	53.064
468.24	51.946
468.59	53.270
468.94	53.143
469.29	53.705
469.64	52.085
469.99	52.978
470.34	51.672
470.68	54.437
471.03	53.291
471.38	53.495
471.73	52.661
472.08	52.782
472.43	53.557
472.78	52.502
473.13	53.061
473.48	52.117
473.83	51.993
474.17	52.591
474.52	52.329
474.87	52.364
475.22	52.044
475.57	51.158
475.92	52.825
476.27	51.863
476.61	52.894
476.96	50.307
477.31	52.190
477.66	50.843
478.01	51.376
478.36	51.797
478.70	51.822
479.05	52.418
479.40	50.450
479.75	50.365
480.10	50.435
480.45	51.550
480.79	51.511
481.14	51.793
481.49	50.985
481.84	51.207
482.19	50.935
482.53	51.127
482.88	50.597
483.23	50.048
483.58	51.226
483.92	50.000
484.27	49.818
484.62	50.560
484.97	48.922
485.31	48.772
485.66	47.340
486.01	46.415
486.36	46.470
486.70	46.865
487.05	47.599
487.40	47.079
487.75	47.268
488.09	46.910
488.44	46.905
488.79	48.450
489.13	49.199
489.48	49.124
489.83	48.206
490.17	48.719
490.52	48.776
490.87	48.913
491.22	50.573
491.56	49.431
491.91	48.231
492.26	49.344
492.60	49.808
492.95	49.926
493.30	49.243
493.64	50.147
493.99	49.372
494.34	49.320
494.68	49.524
495.03	48.029
495.37	49.117
495.72	49.571
496.07	49.854
496.41	48.538
496.76	48.595
497.11	47.508
497.45	48.687
497.80	49.092
498.14	49.478
498.49	49.213
498.84	48.653
499.18	49.849
499.53	48.264
499.87	47.617
500.22	48.269
500.56	48.411
500.91	48.695
501.26	47.751
501.60	48.205
501.95	49.005
502.29	48.136
502.64	47.828
502.98	48.446
503.33	47.166
503.67	47.325
504.02	47.752
504.36	48.194
504.71	46.970
505.06	48.012
505.40	47.716
505.75	47.784
506.09	47.491
506.44	48.357
506.78	47.908
507.13	48.811
507.47	48.355
507.82	47.329
508.16	48.442
508.51	47.796
508.85	48.299
509.19	48.217
509.54	48.525
509.88	47.465
510.23	48.359
510.57	48.423
510.92	46.269
511.26	47.190
511.61	47.745
511.95	48.055
512.30	47.007
512.64	48.414
512.98	47.165
513.33	49.021
513.67	47.527
514.02	49.428
514.36	49.829
514.70	47.960
515.05	49.412
515.39	49.115
515.74	48.503
516.08	47.998
516.42	47.998
516.77	49.093
517.11	49.555
517.46	49.611
517.80	47.437
518.14	47.642
518.49	47.837
518.83	48.299
519.17	47.119
519.52	47.425
519.86	46.939
520.20	47.327
520.55	47.655
520.89	47.742
521.23	46.738
521.58	47.950
521.92	48.910
522.26	48.992
522.61	48.701
522.95	49.139
523.29	48.920
523.64	46.950
523.98	47.829
524.32	48.067
524.66	48.207
525.01	48.052
525.35	49.060
525.69	47.744
526.04	46.958
526.38	48.444
526.72	46.043
527.06	47.211
527.41	47.823
527.75	46.046
528.09	47.110
528.43	48.886
528.78	46.931
529.12	46.903
529.46	48.083
529.80	46.358
530.15	49.043
530.49	46.195
530.83	47.196
531.17	46.407
531.51	47.743
531.86	46.363
532.20	46.973
532.54	46.154
532.88	47.912
533.22	45.968
533.57	46.592
533.91	46.410
534.25	45.638
534.59	44.580
534.93	44.871
535.27	44.353
535.62	45.237
535.96	45.466
536.30	45.053
536.64	45.830
536.98	44.739
537.32	47.368
537.66	46.283
538.01	46.154
538.35	44.591
538.69	44.874
539.03	46.206
539.37	46.164
539.71	43.899
540.05	43.924
540.39	45.291
540.73	44.700
541.07	45.580
541.42	45.363
541.76	45.217
542.10	44.873
542.44	44.475
542.78	43.152
543.12	44.505
543.46	44.089
543.80	43.858
544.14	43.057
544.48	43.504
544.82	43.746
545.16	44.126
545.50	44.526
545.84	44.688
546.18	44.894
546.52	44.989
546.86	44.141
547.20	44.993
547.54	44.099
547.88	42.459
548.22	42.669
548.56	42.810
548.90	42.183
549.24	42.837
549.58	43.159
549.92	41.959
550.26	43.004
550.60	44.387
550.94	43.615
551.28	43.045
551.62	44.615
551.96	43.008
552.30	43.567
552.64	41.749
552.98	43.108
553.32	41.512
553.66	42.380
554.00	43.358
554.34	43.648
554.68	43.289
555.02	43.899
555.36	43.979
555.69	42.271
556.03	42.541
556.37	41.851
556.71	42.238
557.05	43.102
557.39	41.190
557.73	42.579
558.07	42.836
558.41	42.496
558.75	43.726
559.08	43.341
559.42	43.413
559.76	43.635
560.10	41.514
560.44	41.400
560.78	41.608
561.12	42.595
561.45	42.797
561.79	40.616
562.13	42.441
562.47	41.583
562.81	42.147
563.15	40.409
563.48	41.301
563.82	40.906
564.16	41.435
564.50	39.730
564.84	40.830
565.17	39.973
565.51	42.008
565.85	41.427
566.19	41.114
566.52	40.550
566.86	41.067
567.20	40.660
567.54	39.842
567.88	39.660
568.21	39.423
568.55	38.261
568.89	39.374
569.23	38.613
569.56	38.266
569.90	37.799
570.24	36.100
570.57	36.036
570.91	36.494
571.25	35.876
571.59	35.098
571.92	33.926
572.26	34.511
572.60	33.829
572.93	33.699
573.27	34.326
573.61	33.771
573.95	34.134
574.28	33.792
574.62	32.672
574.96	32.760
575.29	32.408
575.63	32.055
575.97	32.339
576.30	32.246
576.64	32.795
576.98	33.050
577.31	33.030
577.65	33.234
577.98	32.566
578.32	31.658
578.66	31.292
578.99	31.680
579.33	31.801
579.67	31.340
580.00	32.152
580.34	31.692
580.67	32.122
581.01	32.301
581.35	31.331
581.68	31.588
582.02	31.088
582.35	31.161
582.69	31.145
583.02	31.318
583.36	31.157
583.70	31.854
584.03	32.360
584.37	32.947
584.70	31.813
585.04	31.813
585.37	31.622
585.71	31.893
586.04	31.241
586.38	31.475
586.72	32.080
587.05	32.496
587.39	32.346
587.72	33.297
588.06	32.245
588.39	31.615
588.73	31.838
589.06	33.105
589.40	32.008
589.73	32.457
590.07	32.931
590.40	33.746
590.73	33.320
591.07	34.054
591.40	33.393
591.74	34.299
592.07	34.045
592.41	34.143
592.74	32.855
593.08	31.994
593.41	31.664
593.75	31.469
594.08	31.754
594.41	32.606
594.75	32.519
595.08	31.933
595.42	31.837
595.75	32.445
596.09	32.330
596.42	32.162
596.75	33.171
597.09	33.895
597.42	33.153
597.75	33.394
598.09	32.866
598.42	33.529
598.76	32.347
599.09	32.252
599.42	31.338
599.76	31.189
600.09	31.561
600.42	32.032
600.76	31.426
601.09	31.107
601.42	31.688
601.76	32.037
602.09	31.312
602.42	32.266
602.76	31.664
603.09	32.018
603.42	32.400
603.76	31.855
604.09	31.794
604.42	32.657
604.76	32.488
605.09	32.678
605.42	32.777
605.75	32.005
606.09	31.592
606.42	31.693
606.75	31.126
607.09	32.440
607.42	31.192
607.75	31.261
608.08	30.323
608.42	31.247
608.75	33.398
609.08	32.436
609.41	32.386
609.75	32.107
610.08	31.453
610.41	31.546
610.74	31.692
611.07	33.540
611.41	32.849
611.74	32.996
612.07	32.066
612.40	32.713
612.73	32.881
613.07	32.171
613.40	32.495
613.73	33.016
614.06	32.832
614.39	32.431
614.72	32.437
615.06	32.682
615.39	31.605
615.72	31.862
616.05	33.017
616.38	31.510
616.71	32.783
617.05	32.427
617.38	33.564
617.71	33.270
618.04	32.952
618.37	33.670
618.70	34.191
619.03	34.236
619.36	32.634
619.69	34.951
620.03	34.624
620.36	34.621
620.69	34.333
621.02	33.792
621.35	35.934
621.68	36.990
622.01	35.083
622.34	33.759
622.67	35.016
623.00	33.844
623.33	35.213
623.66	34.854
623.99	34.418
624.32	34.449
624.65	32.857
624.99	35.139
625.32	32.373
625.65	35.114
625.98	35.214
626.31	33.915
626.64	35.442
626.97	35.428
627.30	35.814
627.63	36.135
627.96	36.478
628.29	34.875
628.62	36.676
628.95	36.273
629.28	37.097
629.61	35.992
629.94	36.266
630.26	37.154
630.59	38.398
630.92	37.026
631.25	35.385
631.58	37.885
631.91	36.513
632.24	36.697
632.57	38.409
632.90	38.553
633.23	38.706
633.56	39.673
633.89	39.457
634.22	39.877
634.55	38.882
634.88	38.059
635.20	38.590
635.53	40.267
635.86	37.061
636.19	39.457
636.52	38.265
636.85	35.856
637.18	37.233
637.51	38.868
637.83	38.633
638.16	41.337
638.49	37.057
638.82	39.211
639.15	38.942
639.48	37.001
639.81	38.494
640.13	38.095
640.46	38.921
640.79	39.912
641.12	39.143
641.45	39.339
641.77	39.704
642.10	41.390
642.43	40.675
642.76	38.449
643.09	40.388
643.41	38.511
643.74	38.550
644.07	41.379
644.40	40.034
644.73	43.608
645.05	40.604
645.38	41.446
645.71	39.007
646.04	42.011
646.36	41.844
646.69	42.086
647.02	41.966
647.35	41.045
647.67	41.499
648.00	40.672
648.33	40.956
648.66	38.475
648.98	38.023
649.31	38.678
649.64	37.206
649.96	36.629
650.29	39.353
650.62	40.000
650.94	39.630
651.27	40.037
651.60	42.342
651.92	40.210
652.25	37.655
652.58	40.500
652.90	37.564
653.23	39.160
653.56	37.056
653.88	36.942
654.21	34.501
654.54	35.823
654.86	39.389
655.19	34.503
655.52	32.353
655.84	26.605
656.17	28.221
656.49	37.202
656.82	37.624
657.15	27.912
657.47	20.824
657.80	15.576
658.13	15.008
658.45	23.513
658.78	23.340
659.10	23.597
659.43	23.942
659.75	25.802
660.08	26.690
660.41	29.520
660.73	35.221
661.06	34.489
661.38	37.573
661.71	37.782
662.03	40.987
662.36	40.659
662.68	38.717
663.01	42.795
663.33	38.051
663.66	38.605
663.98	40.698
664.31	39.019
664.63	38.710
664.96	35.000
665.28	39.073
665.61	40.043
665.93	40.652
666.26	39.696
666.58	38.926
666.91	41.647
667.23	42.217
667.56	42.180
667.88	40.288
668.21	39.379
668.53	39.480
668.86	41.038
669.18	38.443
669.50	38.983
669.83	36.512
670.15	37.995
670.48	37.560
670.80	39.631
671.13	38.479
671.45	37.671
671.77	38.412
672.10	36.634
672.42	36.704
672.75	38.188
673.07	37.209
673.39	37.248
673.72	34.911
674.04	36.042
674.37	40.890
674.69	34.904
675.01	39.111
675.34	38.063
675.66	36.806
675.98	39.911
676.31	39.908
676.63	37.530
676.95	38.636
677.28	36.941
677.60	39.277
677.92	34.633
678.25	37.637
678.57	34.199
678.89	35.924
679.22	39.150
679.54	35.141
679.86	36.382
680.18	35.534
680.51	36.742
680.83	33.797
681.15	36.200
681.48	36.475
681.80	37.603
682.12	35.282
682.44	35.146
682.77	39.073
683.09	36.384
683.41	37.727
683.73	35.023
684.06	36.062
684.38	35.484
684.70	35.948
685.02	34.232
685.34	32.213
685.67	32.083
685.99	35.443
686.31	34.336
686.63	35.250
686.96	31.369
687.28	31.919
687.60	33.650
687.92	35.960
688.24	32.863
688.56	36.900
688.89	33.705
689.21	37.333
689.53	35.963
689.85	34.651
690.17	35.714
690.49	35.934
690.82	36.408
691.14	33.571
691.46	33.178
691.78	33.333
692.10	34.839
692.42	34.416
692.74	34.402
693.06	34.910
693.39	33.937
693.71	33.032
694.03	33.487
694.35	37.150
694.67	37.121
694.99	32.898
695.31	38.903
695.63	35.000
695.95	29.798
696.27	38.342
696.59	38.889
696.91	37.815
697.23	32.391
697.56	33.911
697.88	34.624
698.20	34.169
698.52	33.882
698.84	31.579
699.16	34.750
699.48	38.095
699.80	34.988
700.12	35.580
700.44	37.815
700.76	32.558
701.08	35.758
701.40	36.446
701.72	43.210
702.04	38.944
702.36	36.455
702.68	34.234
703.00	36.364
703.32	36.070
703.64	34.463
703.96	31.014
704.28	33.436
704.60	38.730
704.91	32.808
705.23	31.894
705.55	37.102
705.87	41.155
706.19	35.556
706.51	38.144
706.83	37.621
707.15	33.956
707.47	35.574
707.79	36.719
708.11	33.500
708.43	32.000
708.74	32.817
709.06	39.155
709.38	32.722
709.70	32.840
710.02	34.076
710.34	35.913
710.66	30.128
710.98	34.437
711.29	36.066
711.61	34.915
711.93	39.088
712.25	40.206
712.57	35.165
712.89	32.463
713.20	34.948
713.52	34.146
713.84	36.860
714.16	32.646
714.48	36.129
714.80	33.654
715.11	33.131
715.43	30.721
715.75	31.000
716.07	31.894
716.39	30.872
716.70	33.210
717.02	32.824
717.34	41.700
717.66	35.398
717.97	36.522
718.29	39.331
718.61	34.646
718.93	34.884
719.24	36.502
719.56	36.546
719.88	34.021
720.20	33.333
720.51	34.866
720.83	34.749
721.15	38.235
721.46	35.887
721.78	32.016
722.10	31.227
722.42	29.046
722.73	33.469
723.05	33.878
723.37	36.441
723.68	39.189
724.00	34.615
724.32	36.889
724.63	29.091
724.95	33.624
725.27	36.406
725.58	35.593
725.90	28.175
726.22	35.521
726.53	34.915
726.85	33.708
727.16	35.094
727.48	29.555
727.80	32.794
728.11	30.932
728.43	35.294
728.74	33.065
729.06	34.000
729.38	35.338
729.69	28.685
730.01	29.231
730.32	32.836
730.64	27.915
730.96	30.566
731.27	30.000
731.59	30.169
731.90	31.529
732.22	31.230
732.53	33.555
732.85	28.723
733.16	30.303
733.48	27.338
733.80	30.435
734.11	29.492
734.43	31.959
734.74	30.303
735.06	30.293
735.37	34.441
735.69	30.640
736.00	24.042
736.32	26.174
736.63	34.155
736.95	36.177
737.26	28.114
737.58	30.201
737.89	30.037
738.21	28.947
738.52	32.099
738.83	29.258
739.15	29.694
739.46	34.646
739.78	21.978
740.09	28.431
740.41	25.725
740.72	26.772
741.04	34.818
741.35	28.511
741.66	30.806
741.98	31.633
742.29	32.673
742.61	32.984
742.92	27.014
743.23	26.852
743.55	32.579
743.86	33.493
744.18	30.622
744.49	28.191
744.80	34.239
745.12	40.107
745.43	27.805
745.74	35.938
746.06	33.171
746.37	27.225
746.68	36.019
747.00	28.191
747.31	33.831
747.62	28.155
747.94	30.144
748.25	33.168
748.56	40.437
748.88	32.461
749.19	35.638
749.50	34.483
749.82	26.887
750.13	27.982
750.44	32.331
750.75	29.851
751.07	35.036
751.38	31.801
751.69	30.980
752.01	34.496
752.32	30.677
752.63	26.482
752.94	23.707
753.26	35.983
753.57	35.747
753.88	30.531
754.19	24.583
754.51	29.339
754.82	25.101
755.13	34.583
755.44	32.661
755.75	33.984
756.07	26.848
756.38	27.547
756.69	24.904
757.00	28.000
757.31	26.797
757.63	25.305
757.94	23.889
758.25	25.479
758.56	23.936
758.87	20.113
759.18	25.857
759.50	24.727
759.81	24.080
760.12	30.000
760.43	27.879
760.74	28.086
761.05	26.462
761.36	26.989
761.67	27.879
761.99	27.211
762.30	24.364
762.61	25.296
762.92	30.317
763.23	24.324
763.54	23.364
763.85	27.542
764.16	27.386
764.47	26.613
764.78	23.810
765.10	30.303
765.41	23.975
765.72	26.032
766.03	19.925
766.34	27.007
766.65	31.474
766.96	24.242
767.27	28.723
767.58	25.862
767.89	26.950
768.20	29.545
768.51	32.967
768.82	29.557
769.13	24.424
769.44	24.464
769.75	20.548
770.06	28.879
770.37	25.481
770.68	26.396
770.99	28.507
771.30	29.412
771.61	30.317
771.92	25.431
772.23	30.049
772.54	27.957
772.85	29.012
773.16	30.337
773.47	37.255
773.78	21.569
774.09	26.347
774.39	26.667
774.70	31.847
775.01	28.276
775.32	27.857
775.63	20.661
775.94	30.534
776.25	30.709
776.56	31.667
776.87	37.500
777.18	18.803
777.48	22.414
777.79	28.696
778.10	12.381
778.41	22.523
778.72	27.778
779.03	33.835
779.34	36.170
779.65	26.027
779.95	26.027
780.26	35.172
780.57	21.138
780.88	21.260
781.19	30.172
781.50	31.783
781.80	23.077
782.11	20.755
782.42	16.923
782.73	25.180
783.04	25.185
783.34	19.444
783.65	20.513
783.96	24.590
784.27	30.345
784.57	26.016
784.88	25.781
785.19	26.000
785.50	23.000
785.81	35.345
786.11	29.310
786.42	23.301
786.73	25.455
787.04	20.408
787.34	16.071
787.65	27.619
787.96	18.584
788.26	32.727
788.57	17.949
788.88	23.438
789.19	26.984
789.49	25.217
789.80	15.306
790.11	13.131
790.41	20.000
790.72	38.043
791.03	39.773
791.33	27.500
791.64	16.250
791.95	20.930
792.25	30.851
792.56	40.449
792.87	27.397
793.17	26.087
793.48	24.000
793.79	22.500
794.09	26.250
794.40	19.811
794.70	24.272
795.01	21.138
795.32	20.513
795.62	18.095
795.93	20.588
796.23	19.811
796.54	25.000
796.85	25.000
797.15	16.901
797.46	31.944
797.76	25.758
798.07	11.628
798.37	22.368
798.68	25.758
798.99	28.395
799.29	22.857
799.60	20.290
799.90	24.000
800.21	32.787
800.51	30.769
800.82	35.593
801.12	10.145
801.43	31.148
801.73	46.032
802.04	26.000
802.34	2.985
802.65	21.154
802.95	25.000
803.26	3.846
803.56	25.490
803.87	4.348
804.17	18.667
804.48	28.571
804.78	7.407
805.09	43.478
805.39	22.222
805.70	35.185
806.00	3.509
806.30	19.718
806.61	28.571
806.91	11.111
807.22	30.263
807.52	14.667
807.83	25.455
808.13	29.167
808.43	33.824
808.74	19.403
809.04	6.780
809.35	5.769
809.65	21.875
809.95	-8.108
810.26	2.273
810.56	26.027
810.86	16.667
811.17	32.000
811.47	38.776
811.77	-7.895
812.08	34.091
812.38	20.755
812.69	15.000
812.99	-6.061
813.29	13.158
813.59	-40.000
813.90	13.636
814.20	-7.692
814.50	17.308
814.81	18.868
815.11	21.277
815.41	28.814
815.72	21.429
816.02	50.980
816.32	22.917
816.62	2.439
816.93	13.514
817.23	0.000
817.53	37.500
817.84	6.522
818.14	26.923
818.44	0.000
818.74	32.609
819.04	-10.000
819.35	2.703
819.65	17.647
819.95	5.556
820.25	19.048
820.56	25.000
820.86	-31.034
821.16	50.000
821.46	34.043
821.76	40.000
822.07	32.558
822.37	-16.216
822.67	6.250
822.97	30.952
823.27	21.429
823.57	4.000
823.88	11.111
824.18	46.429
824.48	17.647
824.78	35.484
825.08	65.217
825.38	30.303
825.69	-20.833
825.99	39.474
826.29	-25.000
826.59	0.000
826.89	-9.524
827.19	17.391
827.49	20.000
827.79	25.714
828.09	25.000
828.39	-3.030
828.70	40.541
829.00	7.143
829.30	-19.048
829.60	36.667
829.90	18.750
830.20	2.632
830.50	11.111
830.80	17.391
831.10	-36.364
831.40	9.091
831.70	67.742
832.00	-23.810
832.30	-28.571
832.60	-33.333
832.90	17.241
833.20	-10.000
833.50	27.273
833.80	7.407
834.10	15.385
834.40	15.625
834.70	-44.444
835.00	26.316
835.30	11.538
835.60	33.333
835.90	19.355
836.20	31.818
836.50	39.286
836.80	-23.077
837.10	50.000
837.40	-66.667
837.70	36.364
838.00	9.091
838.30	26.087
838.60	7.692
838.90	22.727
839.19	17.857
839.49	40.000
839.79	7.692
840.09	-41.667
840.39	28.571
840.69	10.714
840.99	19.231
841.29	-42.105
841.59	-90.000
841.88	27.273
842.18	20.000
842.48	-31.250
842.78	-33.333
843.08	22.222
843.38	-100.000
843.68	13.043
843.97	93.333
844.27	-33.333
844.57	0.000
844.87	-22.222
845.17	-57.143
845.47	6.667
845.76	-9.524
846.06	11.765
846.36	-80.000
846.66	-71.429
846.96	-13.333
847.25	-87.500
847.55	14.286
847.85	100.000
848.15	-31.818
848.44	-433.333
848.74	15.000
849.04	40.741
849.34	45.455
849.63	-200.000
849.93	-60.000
850.23	-38.889
850.53	40.000
850.82	-30.769
851.12	55.556
851.42	-66.667
851.71	7.692
852.01	-7.143
852.31	-100.000
852.61	-100.000
852.90	5.000
853.20	15.789
853.50	-66.667
853.79	0.000
854.09	-8.333
854.39	-36.842
854.68	4.167
854.98	0.000
855.28	57.692
855.57	25.000
855.87	38.889
856.17	29.630
856.46	-28.571
856.76	6.667
857.05	-122.222
857.35	0.000
857.65	38.889
857.94	0.000
858.24	10.345
858.53	50.000
858.83	3.704
859.13	0.000
859.42	-26.087
859.72	125.000
860.01	-333.333
860.31	-8.000
860.60	33.333
860.90	-200.000
861.20	-53.333
861.49	150.000
861.79	-40.000
862.08	15.000
862.38	73.333
862.67	-260.000
862.97	-16.667
863.26	-8.333
863.56	27.778
863.85	-400.000
864.15	38.889
864.44	-10.000
864.74	21.429
865.03	125.000
865.33	-100.000
865.62	-116.667
865.92	-33.333
866.21	-133.333
866.51	-12.500
866.80	-9.091
867.10	-700.000
867.39	108.333
867.69	0.000
867.98	7.692
868.27	-233.333
868.57	66.667
868.86	-38.889
869.16	-61.538
869.45	-6.667
869.75	-500.000
870.04	0.000
870.33	-14.286
870.63	76.190
870.92	233.333
871.22	-40.000
871.51	-200.000
871.80	66.667
872.10	233.333
>>>>>End Processed Spectral Data<<<<<
