SpectraSuite Data File
++++++++++++++++++++++++++++++++++++
Date: Fri May 15 20:43:42 PDT 2015
User: schluterlab
Dark Spectrum Present: Yes
Reference Spectrum Present: Yes
Number of Sampled Component Spectra: 1
Spectrometers: USB2E3373
Integration Time (usec): 3000 (USB2E3373)
Spectra Averaged: 3 (USB2E3373)
Boxcar Smoothing: 0 (USB2E3373)
Correct for Electrical Dark: No (USB2E3373)
Strobe/Lamp Enabled: No (USB2E3373)
Correct for Detector Non-linearity: No (USB2E3373)
Correct for Stray Light: No (USB2E3373)
Number of Pixels in Processed Spectrum: 2048
>>>>>Begin Processed Spectral Data<<<<<
178.53	0.000
178.91	0.000
179.29	-12.500
179.67	-250.000
180.04	57.143
180.42	75.000
180.80	-800.000
181.18	100.000
181.56	550.000
181.94	-50.000
182.31	-400.000
182.69	-40.000
183.07	-566.667
183.45	-20.000
183.83	100.000
184.20	-54.545
184.58	122.222
184.96	150.000
185.34	-66.667
185.72	-300.000
186.09	100.000
186.47	-700.000
186.85	166.667
187.23	222.222
187.61	600.000
187.98	100.000
188.36	88.889
188.74	-233.333
189.12	5.882
189.49	11.111
189.87	0.000
190.25	57.143
190.63	-200.000
191.00	33.333
191.38	-31.579
191.76	-200.000
192.14	-200.000
192.51	-250.000
192.89	-77.778
193.27	-100.000
193.65	116.667
194.02	136.364
194.40	-80.000
194.78	-125.000
195.15	16.667
195.53	0.000
195.91	225.000
196.29	-300.000
196.66	146.154
197.04	285.714
197.42	-33.333
197.79	-366.667
198.17	-92.308
198.55	1400.000
198.92	-566.667
199.30	-500.000
199.68	-300.000
200.05	-600.000
200.43	0.000
200.81	-33.333
201.18	-33.333
201.56	800.000
201.94	-50.000
202.31	-33.333
202.69	-260.000
203.07	200.000
203.44	-600.000
203.82	0.000
204.19	-42.857
204.57	-566.667
204.95	187.500
205.32	-40.000
205.70	-14.286
206.08	-275.000
206.45	155.556
206.83	71.429
207.20	-128.571
207.58	700.000
207.96	-66.667
208.33	-50.000
208.71	-150.000
209.08	-133.333
209.46	-600.000
209.84	60.000
210.21	-1000.000
210.59	-85.714
210.96	-150.000
211.34	125.000
211.71	40.000
212.09	-57.143
212.46	-1900.000
212.84	0.000
213.22	60.000
213.59	350.000
213.97	15.385
214.34	9.091
214.72	-116.667
215.09	425.000
215.47	-15.385
215.84	-54.545
216.22	-333.333
216.59	-112.500
216.97	-350.000
217.34	-125.000
217.72	-260.000
218.09	-62.500
218.47	212.500
218.84	-900.000
219.22	-133.333
219.59	-260.000
219.97	233.333
220.34	200.000
220.72	71.429
221.09	-100.000
221.47	-350.000
221.84	-400.000
222.22	-350.000
222.59	27.273
222.97	75.000
223.34	-500.000
223.72	-7.143
224.09	9.524
224.46	21.429
224.84	666.667
225.21	-30.000
225.59	40.000
225.96	-100.000
226.34	450.000
226.71	-128.571
227.08	-50.000
227.46	-125.000
227.83	-400.000
228.21	100.000
228.58	27.273
228.95	12.500
229.33	90.000
229.70	-31.250
230.08	-137.500
230.45	-100.000
230.82	57.143
231.20	40.000
231.57	35.714
231.95	-85.714
232.32	-130.000
232.69	28.571
233.07	133.333
233.44	-300.000
233.81	-10.000
234.19	-88.889
234.56	-47.059
234.93	550.000
235.31	-75.000
235.68	-360.000
236.05	-69.231
236.43	-35.000
236.80	-35.294
237.17	0.000
237.55	25.000
237.92	3.704
238.29	-2.778
238.67	43.333
239.04	32.353
239.41	-17.073
239.79	-3.333
240.16	31.707
240.53	10.526
240.91	0.000
241.28	7.937
241.65	17.857
242.02	27.397
242.40	23.333
242.77	13.559
243.14	13.636
243.51	15.000
243.89	26.437
244.26	22.989
244.63	9.524
245.00	20.619
245.38	30.928
245.75	4.494
246.12	13.793
246.49	30.579
246.87	16.346
247.24	12.605
247.61	18.421
247.98	9.756
248.36	16.250
248.73	19.079
249.10	18.182
249.47	24.684
249.84	20.261
250.22	16.471
250.59	20.261
250.96	19.249
251.33	18.023
251.70	12.941
252.08	17.766
252.45	16.832
252.82	20.101
253.19	22.120
253.56	22.430
253.94	21.171
254.31	25.217
254.68	21.053
255.05	16.535
255.42	22.271
255.79	23.166
256.16	19.455
256.54	20.522
256.91	16.350
257.28	23.792
257.65	20.599
258.02	19.149
258.39	20.875
258.76	19.048
259.14	17.608
259.51	18.447
259.88	14.089
260.25	24.183
260.62	20.486
260.99	16.949
261.36	17.466
261.73	20.570
262.10	19.149
262.47	20.552
262.85	19.122
263.22	20.000
263.59	21.184
263.96	21.739
264.33	21.818
264.70	19.345
265.07	16.964
265.44	21.246
265.81	19.492
266.18	15.847
266.55	21.080
266.92	19.171
267.29	21.671
267.66	20.205
268.03	22.513
268.40	21.149
268.77	21.390
269.14	18.945
269.51	21.851
269.88	18.953
270.25	20.153
270.62	17.805
270.99	19.693
271.36	18.093
271.73	20.657
272.10	20.438
272.47	23.404
272.84	20.545
273.21	21.578
273.58	24.096
273.95	20.824
274.32	20.554
274.69	16.968
275.06	19.866
275.43	19.501
275.80	18.764
276.17	17.241
276.54	21.413
276.91	20.395
277.28	19.214
277.65	21.281
278.02	20.851
278.39	21.007
278.76	18.868
279.13	18.465
279.50	19.958
279.87	19.438
280.23	14.624
280.60	20.078
280.97	19.798
281.34	21.538
281.71	18.275
282.08	19.018
282.45	18.787
282.82	18.533
283.19	20.503
283.56	20.039
283.92	16.509
284.29	16.154
284.66	18.798
285.03	19.057
285.40	19.093
285.77	16.872
286.14	20.758
286.51	21.218
286.87	17.916
287.24	17.495
287.61	18.871
287.98	18.596
288.35	19.584
288.72	20.315
289.08	17.535
289.45	18.453
289.82	16.958
290.19	16.212
290.56	16.810
290.93	14.983
291.29	16.949
291.66	17.165
292.03	14.992
292.40	16.129
292.77	15.630
293.13	15.260
293.50	15.781
293.87	15.725
294.24	17.465
294.60	15.946
294.97	16.071
295.34	15.184
295.71	15.052
296.08	14.051
296.44	14.083
296.81	14.444
297.18	14.493
297.55	15.447
297.91	14.384
298.28	15.435
298.65	13.569
299.02	14.825
299.38	12.312
299.75	14.897
300.12	11.126
300.48	15.283
300.85	14.956
301.22	13.636
301.59	12.895
301.95	14.177
302.32	16.342
302.69	13.060
303.05	13.243
303.42	12.080
303.79	13.318
304.15	15.173
304.52	12.723
304.89	14.152
305.25	12.470
305.62	11.552
305.99	13.801
306.35	12.717
306.72	12.823
307.09	12.657
307.45	13.777
307.82	11.921
308.19	12.660
308.55	13.850
308.92	14.270
309.29	11.844
309.65	12.917
310.02	13.421
310.38	12.404
310.75	13.880
311.12	13.671
311.48	13.256
311.85	10.995
312.22	10.865
312.58	12.951
312.95	11.526
313.31	12.422
313.68	12.670
314.05	11.837
314.41	12.577
314.78	11.959
315.14	12.333
315.51	13.147
315.87	11.578
316.24	13.448
316.61	12.008
316.97	12.401
317.34	12.793
317.70	11.090
318.07	11.635
318.43	12.647
318.80	11.648
319.16	12.305
319.53	12.536
319.89	12.598
320.26	12.348
320.62	12.839
320.99	11.900
321.35	12.230
321.72	13.915
322.08	12.790
322.45	11.675
322.81	13.261
323.18	11.973
323.54	11.486
323.91	12.853
324.27	12.305
324.64	14.139
325.00	13.504
325.37	13.866
325.73	12.783
326.10	13.079
326.46	13.004
326.83	12.598
327.19	13.078
327.56	12.858
327.92	14.173
328.29	13.036
328.65	13.208
329.01	12.500
329.38	13.088
329.74	13.598
330.11	12.882
330.47	13.358
330.84	12.596
331.20	13.973
331.56	12.593
331.93	12.420
332.29	13.841
332.66	13.394
333.02	11.989
333.38	11.549
333.75	13.736
334.11	12.802
334.48	13.146
334.84	12.363
335.20	12.534
335.57	11.605
335.93	13.911
336.29	12.983
336.66	12.262
337.02	11.524
337.38	10.926
337.75	13.727
338.11	12.534
338.47	14.142
338.84	12.939
339.20	13.163
339.56	12.936
339.93	12.802
340.29	13.394
340.65	13.889
341.02	12.855
341.38	12.478
341.74	12.456
342.11	12.132
342.47	12.456
342.83	12.197
343.20	11.672
343.56	12.957
343.92	13.640
344.28	12.895
344.65	12.435
345.01	11.322
345.37	12.868
345.73	12.385
346.10	13.115
346.46	12.195
346.82	12.848
347.19	11.554
347.55	12.448
347.91	12.864
348.27	12.449
348.63	12.947
349.00	11.075
349.36	12.386
349.72	13.018
350.08	11.393
350.45	12.769
350.81	12.625
351.17	12.052
351.53	12.490
351.89	11.726
352.26	12.320
352.62	12.097
352.98	12.691
353.34	11.675
353.70	13.107
354.07	12.581
354.43	12.410
354.79	12.221
355.15	13.651
355.51	12.104
355.87	11.974
356.24	11.990
356.60	11.722
356.96	13.333
357.32	12.061
357.68	11.572
358.04	11.793
358.40	11.656
358.77	12.281
359.13	12.170
359.49	10.709
359.85	12.402
360.21	11.722
360.57	11.630
360.93	12.405
361.29	11.329
361.66	12.069
362.02	13.106
362.38	11.957
362.74	10.977
363.10	12.792
363.46	11.638
363.82	12.998
364.18	11.661
364.54	11.544
364.90	11.183
365.26	12.373
365.62	13.285
365.98	11.290
366.35	12.891
366.71	11.308
367.07	12.119
367.43	11.071
367.79	11.590
368.15	12.276
368.51	11.580
368.87	11.199
369.23	10.686
369.59	10.714
369.95	11.804
370.31	12.645
370.67	10.821
371.03	11.576
371.39	11.306
371.75	11.868
372.11	12.197
372.47	10.133
372.83	12.065
373.19	11.626
373.55	11.841
373.91	11.447
374.27	12.048
374.63	12.276
374.99	11.064
375.35	11.560
375.71	12.517
376.07	10.815
376.42	11.293
376.78	11.678
377.14	11.781
377.50	11.620
377.86	11.245
378.22	11.232
378.58	11.538
378.94	11.279
379.30	11.478
379.66	10.846
380.02	11.097
380.38	10.895
380.74	10.832
381.09	11.902
381.45	11.009
381.81	11.474
382.17	11.739
382.53	11.430
382.89	11.488
383.25	11.512
383.61	12.073
383.97	11.048
384.32	11.194
384.68	11.084
385.04	10.600
385.40	11.139
385.76	12.390
386.12	10.996
386.48	11.750
386.83	11.097
387.19	11.538
387.55	11.543
387.91	11.491
388.27	11.233
388.62	11.391
388.98	11.234
389.34	12.430
389.70	11.249
390.06	11.202
390.42	11.464
390.77	11.511
391.13	10.845
391.49	10.867
391.85	11.566
392.20	11.174
392.56	10.871
392.92	11.274
393.28	12.205
393.64	11.832
393.99	12.351
394.35	10.689
394.71	11.239
395.07	10.497
395.42	11.111
395.78	11.205
396.14	11.917
396.50	11.351
396.85	11.848
397.21	11.278
397.57	11.097
397.92	11.684
398.28	11.379
398.64	10.361
399.00	11.682
399.35	10.214
399.71	11.660
400.07	11.306
400.42	11.506
400.78	12.002
401.14	10.708
401.49	12.031
401.85	10.603
402.21	12.530
402.57	11.125
402.92	10.226
403.28	12.343
403.63	11.349
403.99	11.161
404.35	11.243
404.70	11.905
405.06	11.105
405.42	11.684
405.77	10.808
406.13	11.059
406.49	11.545
406.84	10.880
407.20	11.198
407.55	10.625
407.91	10.628
408.27	10.899
408.62	11.631
408.98	11.152
409.34	12.701
409.69	10.917
410.05	10.899
410.40	11.728
410.76	11.701
411.11	11.875
411.47	12.229
411.83	10.986
412.18	10.811
412.54	12.360
412.89	11.453
413.25	11.733
413.60	11.429
413.96	10.859
414.31	12.439
414.67	11.225
415.03	11.718
415.38	11.358
415.74	11.401
416.09	12.476
416.45	12.221
416.80	11.500
417.16	11.464
417.51	11.925
417.87	11.473
418.22	12.241
418.58	11.773
418.93	13.041
419.29	11.652
419.64	11.406
420.00	13.035
420.35	11.940
420.71	11.725
421.06	11.786
421.42	11.779
421.77	12.197
422.12	12.145
422.48	11.857
422.83	11.427
423.19	12.020
423.54	10.347
423.90	11.955
424.25	12.227
424.61	12.301
424.96	12.079
425.31	12.247
425.67	11.678
426.02	12.544
426.38	12.210
426.73	12.349
427.09	12.152
427.44	12.824
427.79	11.844
428.15	12.682
428.50	12.235
428.85	12.285
429.21	12.677
429.56	12.075
429.92	12.738
430.27	12.231
430.62	11.657
430.98	11.677
431.33	12.566
431.68	11.931
432.04	12.241
432.39	11.466
432.74	11.064
433.10	12.529
433.45	12.425
433.80	12.130
434.16	11.524
434.51	12.581
434.86	12.195
435.22	11.441
435.57	12.601
435.92	11.976
436.28	11.628
436.63	12.949
436.98	11.530
437.34	11.615
437.69	11.688
438.04	12.650
438.39	11.546
438.75	12.447
439.10	11.715
439.45	12.355
439.81	11.865
440.16	12.708
440.51	12.896
440.86	13.293
441.22	12.557
441.57	12.472
441.92	13.064
442.27	12.528
442.63	12.794
442.98	12.522
443.33	12.632
443.68	12.414
444.03	13.115
444.39	12.494
444.74	12.876
445.09	12.528
445.44	12.934
445.79	12.996
446.15	12.555
446.50	12.257
446.85	12.912
447.20	12.878
447.55	12.946
447.91	12.578
448.26	13.147
448.61	12.953
448.96	13.196
449.31	12.775
449.66	13.240
450.02	12.721
450.37	13.159
450.72	12.944
451.07	13.671
451.42	12.609
451.77	13.803
452.12	12.022
452.47	13.007
452.83	13.310
453.18	13.536
453.53	12.769
453.88	13.297
454.23	13.399
454.58	13.728
454.93	12.951
455.28	12.508
455.63	14.135
455.98	13.590
456.34	13.793
456.69	13.787
457.04	13.170
457.39	13.062
457.74	13.603
458.09	12.242
458.44	13.224
458.79	12.829
459.14	13.673
459.49	14.328
459.84	13.536
460.19	12.500
460.54	13.875
460.89	13.295
461.24	13.665
461.59	13.895
461.94	13.019
462.29	13.691
462.64	13.488
462.99	13.135
463.34	12.726
463.69	13.063
464.04	13.862
464.39	13.038
464.74	12.883
465.09	14.847
465.44	13.676
465.79	12.812
466.14	13.569
466.49	13.686
466.84	13.623
467.19	14.143
467.54	13.474
467.89	13.329
468.24	13.564
468.59	13.270
468.94	13.397
469.29	13.115
469.64	13.807
469.99	13.875
470.34	12.491
470.68	13.274
471.03	15.004
471.38	13.124
471.73	13.585
472.08	13.772
472.43	13.557
472.78	13.571
473.13	13.469
473.48	13.681
473.83	14.134
474.17	13.795
474.52	14.486
474.87	14.121
475.22	13.423
475.57	14.060
475.92	14.098
476.27	13.446
476.61	13.831
476.96	13.107
477.31	14.873
477.66	13.708
478.01	13.476
478.36	13.889
478.70	14.084
479.05	14.560
479.40	14.255
479.75	14.025
480.10	13.978
480.45	14.000
480.79	14.250
481.14	14.088
481.49	13.645
481.84	13.369
482.19	13.517
482.53	13.957
482.88	13.986
483.23	13.916
483.58	13.585
483.92	13.166
484.27	13.674
484.62	14.478
484.97	13.889
485.31	14.198
485.66	13.864
486.01	14.044
486.36	14.321
486.70	13.982
487.05	13.871
487.40	13.935
487.75	13.662
488.09	13.257
488.44	13.274
488.79	13.597
489.13	14.103
489.48	14.322
489.83	13.587
490.17	12.719
490.52	14.088
490.87	14.160
491.22	14.327
491.56	13.330
491.91	13.671
492.26	13.320
492.60	13.964
492.95	13.920
493.30	13.923
493.64	14.096
493.99	14.251
494.34	14.078
494.68	14.286
495.03	13.674
495.37	13.984
495.72	13.983
496.07	14.049
496.41	13.774
496.76	13.819
497.11	13.740
497.45	13.795
497.80	14.127
498.14	14.009
498.49	13.763
498.84	14.222
499.18	13.353
499.53	14.236
499.87	13.278
500.22	13.897
500.56	13.817
500.91	14.458
501.26	13.643
501.60	13.970
501.95	13.925
502.29	14.431
502.64	13.851
502.98	14.110
503.33	13.929
503.67	14.265
504.02	14.907
504.36	13.657
504.71	13.889
505.06	13.790
505.40	13.909
505.75	14.381
506.09	13.583
506.44	14.990
506.78	15.000
507.13	14.943
507.47	13.890
507.82	13.835
508.16	13.524
508.51	14.376
508.85	14.600
509.19	14.689
509.54	14.638
509.88	13.916
510.23	14.094
510.57	14.484
510.92	13.539
511.26	14.184
511.61	14.356
511.95	14.192
512.30	14.246
512.64	14.580
512.98	13.588
513.33	14.829
513.67	14.156
514.02	15.732
514.36	15.429
514.70	15.501
515.05	15.217
515.39	14.994
515.74	14.671
516.08	14.286
516.42	15.371
516.77	14.745
517.11	14.421
517.46	14.303
517.80	15.197
518.14	14.268
518.49	14.303
518.83	14.034
519.17	13.705
519.52	14.624
519.86	14.166
520.20	15.128
520.55	14.009
520.89	14.617
521.23	13.680
521.58	15.268
521.92	14.423
522.26	15.029
522.61	15.260
522.95	14.636
523.29	14.168
523.64	14.930
523.98	15.100
524.32	14.175
524.66	15.685
525.01	14.545
525.35	15.100
525.69	14.074
526.04	13.624
526.38	15.694
526.72	14.258
527.06	14.916
527.41	14.578
527.75	14.276
528.09	14.086
528.43	15.327
528.78	14.323
529.12	15.226
529.46	15.010
529.80	14.566
530.15	15.050
530.49	14.478
530.83	16.074
531.17	14.439
531.51	14.843
531.86	14.548
532.20	14.266
532.54	15.044
532.88	13.621
533.22	15.659
533.57	15.662
533.91	15.013
534.25	15.234
534.59	14.240
534.93	15.167
535.27	13.579
535.62	14.517
535.96	15.068
536.30	15.369
536.64	15.369
536.98	14.634
537.32	15.434
537.66	15.849
538.01	15.455
538.35	13.870
538.69	14.847
539.03	15.379
539.37	15.545
539.71	14.928
540.05	15.275
540.39	15.512
540.73	14.156
541.07	15.262
541.42	15.659
541.76	14.797
542.10	15.485
542.44	14.454
542.78	14.040
543.12	14.286
543.46	15.855
543.80	15.961
544.14	15.020
544.48	15.123
544.82	15.516
545.16	15.779
545.50	16.155
545.84	15.368
546.18	15.674
546.52	14.852
546.86	15.241
547.20	15.808
547.54	14.841
547.88	15.421
548.22	15.056
548.56	16.029
548.90	15.768
549.24	16.391
549.58	14.739
549.92	14.582
550.26	15.385
550.60	15.390
550.94	16.057
551.28	15.688
551.62	15.846
551.96	15.865
552.30	16.082
552.64	15.092
552.98	16.596
553.32	14.907
553.66	15.385
554.00	16.277
554.34	15.805
554.68	15.487
555.02	15.997
555.36	15.183
555.69	15.458
556.03	14.561
556.37	14.947
556.71	15.884
557.05	15.436
557.39	13.903
557.73	15.742
558.07	16.290
558.41	15.926
558.75	14.965
559.08	15.366
559.42	15.317
559.76	14.732
560.10	15.902
560.44	14.669
560.78	15.734
561.12	16.079
561.45	15.320
561.79	15.826
562.13	15.046
562.47	15.324
562.81	15.634
563.15	15.656
563.48	15.488
563.82	15.923
564.16	16.086
564.50	15.676
564.84	17.068
565.17	15.493
565.51	17.350
565.85	16.324
566.19	15.119
566.52	15.751
566.86	17.224
567.20	16.252
567.54	16.241
567.88	16.344
568.21	16.403
568.55	15.598
568.89	16.119
569.23	15.599
569.56	15.674
569.90	16.362
570.24	15.891
570.57	15.855
570.91	15.789
571.25	15.554
571.59	15.353
571.92	15.230
572.26	14.946
572.60	15.473
572.93	15.218
573.27	15.235
573.61	15.543
573.95	15.756
574.28	15.572
574.62	15.256
574.96	15.233
575.29	15.548
575.63	15.289
575.97	14.774
576.30	14.872
576.64	14.702
576.98	15.804
577.31	15.901
577.65	15.528
577.98	15.533
578.32	15.370
578.66	15.087
578.99	15.325
579.33	15.214
579.67	15.216
580.00	15.266
580.34	15.149
580.67	14.985
581.01	15.178
581.35	15.568
581.68	15.686
582.02	15.764
582.35	15.395
582.69	15.602
583.02	15.317
583.36	15.306
583.70	15.498
584.03	15.541
584.37	15.951
584.70	15.385
585.04	15.389
585.37	15.430
585.71	15.478
586.04	15.456
586.38	15.124
586.72	16.241
587.05	16.147
587.39	15.935
587.72	15.746
588.06	15.721
588.39	15.921
588.73	16.239
589.06	16.601
589.40	16.488
589.73	16.283
590.07	16.352
590.40	16.293
590.73	16.557
591.07	16.243
591.40	15.895
591.74	16.018
592.07	16.976
592.41	17.226
592.74	16.049
593.08	16.067
593.41	16.211
593.75	16.389
594.08	15.723
594.41	15.830
594.75	16.298
595.08	16.232
595.42	16.047
595.75	15.847
596.09	15.833
596.42	16.453
596.75	16.341
597.09	16.128
597.42	16.396
597.75	16.399
598.09	15.754
598.42	16.245
598.76	16.860
599.09	16.827
599.42	16.067
599.76	15.651
600.09	16.365
600.42	16.300
600.76	15.639
601.09	16.489
601.42	16.216
601.76	16.435
602.09	15.470
602.42	16.976
602.76	16.214
603.09	16.321
603.42	16.973
603.76	16.855
604.09	16.120
604.42	16.328
604.76	16.288
605.09	16.179
605.42	16.479
605.75	16.375
606.09	16.476
606.42	15.763
606.75	16.277
607.09	16.571
607.42	16.704
607.75	15.719
608.08	16.128
608.42	16.583
608.75	17.494
609.08	15.894
609.41	16.650
609.75	15.827
610.08	16.925
610.41	15.990
610.74	16.138
611.07	16.796
611.41	16.502
611.74	17.217
612.07	16.006
612.40	16.521
612.73	15.876
613.07	15.973
613.40	16.575
613.73	16.284
614.06	16.861
614.39	16.469
614.72	15.518
615.06	16.592
615.39	16.485
615.72	16.738
616.05	16.425
616.38	16.125
616.71	15.168
617.05	16.492
617.38	16.782
617.71	16.415
618.04	16.698
618.37	17.276
618.70	16.832
619.03	17.153
619.36	15.268
619.69	15.997
620.03	17.020
620.36	16.810
620.69	16.345
621.02	17.125
621.35	17.178
621.68	16.752
622.01	17.583
622.34	17.558
622.67	18.060
623.00	17.228
623.33	18.216
623.66	17.352
623.99	18.003
624.32	18.023
624.65	15.940
624.99	17.156
625.32	15.466
625.65	17.282
625.98	16.277
626.31	15.877
626.64	16.724
626.97	17.277
627.30	17.163
627.63	17.591
627.96	17.610
628.29	17.114
628.62	16.323
628.95	17.034
629.28	16.028
629.61	16.550
629.94	17.302
630.26	17.885
630.59	18.106
630.92	16.821
631.25	15.897
631.58	17.621
631.91	16.557
632.24	17.546
632.57	18.636
632.90	16.251
633.23	17.059
633.56	17.003
633.89	17.263
634.22	18.519
634.55	16.137
634.88	16.347
635.20	15.128
635.53	17.067
635.86	17.555
636.19	17.076
636.52	16.582
636.85	17.246
637.18	16.101
637.51	16.730
637.83	16.557
638.16	18.008
638.49	15.668
638.82	18.816
639.15	16.418
639.48	16.781
639.81	17.992
640.13	17.316
640.46	17.493
640.79	18.115
641.12	17.134
641.45	16.216
641.77	17.037
642.10	19.747
642.43	17.685
642.76	17.492
643.09	19.063
643.41	16.667
643.74	17.628
644.07	17.734
644.40	19.257
644.73	16.988
645.05	18.624
645.38	16.578
645.71	16.667
646.04	18.671
646.36	16.844
646.69	19.964
647.02	17.580
647.35	17.910
647.67	19.378
648.00	19.403
648.33	18.259
648.66	16.610
648.98	14.740
649.31	19.504
649.64	17.425
649.96	17.180
650.29	17.206
650.62	18.632
650.94	18.148
651.27	17.318
651.60	17.838
651.92	16.958
652.25	17.229
652.58	17.833
652.90	18.353
653.23	17.815
653.56	15.905
653.88	18.729
654.21	15.587
654.54	17.997
654.86	19.525
655.19	16.228
655.52	19.892
655.84	18.353
656.17	20.089
656.49	26.569
656.82	26.329
657.15	19.545
657.47	14.121
657.80	10.404
658.13	10.076
658.45	14.621
658.78	14.306
659.10	13.749
659.43	13.562
659.75	13.764
660.08	13.448
660.41	14.402
660.73	16.713
661.06	18.718
661.38	16.243
661.71	17.043
662.03	18.455
662.36	18.022
662.68	16.593
663.01	19.214
663.33	17.633
663.66	16.047
663.98	16.977
664.31	16.205
664.63	18.203
664.96	14.130
665.28	16.336
665.61	14.935
665.93	18.478
666.26	18.221
666.58	17.897
666.91	15.765
667.23	18.632
667.56	15.877
667.88	19.424
668.21	19.332
668.53	17.258
668.86	17.689
669.18	16.038
669.50	13.559
669.83	15.116
670.15	17.249
670.48	16.507
670.80	19.124
671.13	14.094
671.45	16.210
671.77	18.884
672.10	18.218
672.42	16.854
672.75	20.249
673.07	18.784
673.39	18.716
673.72	16.371
674.04	17.083
674.37	15.678
674.69	18.415
675.01	19.556
675.34	16.892
675.66	17.824
675.98	20.399
676.31	19.725
676.63	14.489
676.95	16.136
677.28	18.353
677.60	19.277
677.92	17.661
678.25	19.037
678.57	17.749
678.89	16.176
679.22	17.002
679.54	18.273
679.86	15.507
680.18	18.835
680.51	19.129
680.83	14.513
681.15	19.000
681.48	18.033
681.80	18.388
682.12	17.137
682.44	15.690
682.77	20.530
683.09	18.993
683.41	17.727
683.73	16.590
684.06	16.593
684.38	13.763
684.70	18.083
685.02	17.635
685.34	15.217
685.67	18.199
685.99	17.541
686.31	17.168
686.63	16.883
686.96	18.061
687.28	15.152
687.60	15.019
687.92	18.990
688.24	18.750
688.56	17.467
688.89	15.625
689.21	18.222
689.53	15.313
689.85	17.442
690.17	17.411
690.49	16.312
690.82	15.777
691.14	18.095
691.46	16.822
691.78	17.342
692.10	17.419
692.42	15.584
692.74	18.376
693.06	16.441
693.39	14.932
693.71	15.385
694.03	18.476
694.35	18.224
694.67	18.939
694.99	16.449
695.31	17.755
695.63	18.250
695.95	18.434
696.27	16.321
696.59	19.722
696.91	15.686
697.23	14.396
697.56	18.317
697.88	20.000
698.20	18.907
698.52	17.176
698.84	17.943
699.16	14.000
699.48	20.050
699.80	18.859
700.12	16.442
700.44	17.927
700.76	15.698
701.08	15.758
701.40	18.675
701.72	20.988
702.04	17.822
702.36	17.726
702.68	16.517
703.00	13.636
703.32	13.783
703.64	14.124
703.96	18.551
704.28	18.098
704.60	18.413
704.91	13.880
705.23	16.944
705.55	19.435
705.87	15.884
706.19	14.815
706.51	17.526
706.83	20.900
707.15	14.642
707.47	19.328
707.79	19.531
708.11	18.250
708.43	17.750
708.74	15.504
709.06	19.437
709.38	16.820
709.70	20.710
710.02	17.197
710.34	19.814
710.66	15.064
710.98	15.894
711.29	18.689
711.61	15.932
711.93	20.847
712.25	20.275
712.57	16.484
712.89	14.925
713.20	19.031
713.52	12.195
713.84	19.795
714.16	13.746
714.48	14.839
714.80	21.474
715.11	17.021
715.43	13.480
715.75	19.333
716.07	19.269
716.39	17.114
716.70	15.129
717.02	14.504
717.34	15.789
717.66	16.372
717.97	16.522
718.29	14.226
718.61	17.323
718.93	18.605
719.24	19.392
719.56	16.867
719.88	19.588
720.20	14.773
720.51	15.326
720.83	18.147
721.15	16.387
721.46	19.355
721.78	16.206
722.10	16.729
722.42	10.373
722.73	14.694
723.05	22.449
723.37	23.729
723.68	19.369
724.00	20.940
724.32	13.778
724.63	18.182
724.95	18.777
725.27	12.442
725.58	16.525
725.90	18.651
726.22	19.691
726.53	17.288
726.85	19.101
727.16	19.245
727.48	17.004
727.80	17.409
728.11	18.220
728.43	15.686
728.74	10.484
729.06	16.400
729.38	22.180
729.69	12.749
730.01	12.692
730.32	19.403
730.64	19.435
730.96	16.226
731.27	18.333
731.59	17.288
731.90	18.153
732.22	21.136
732.53	21.262
732.85	18.794
733.16	23.569
733.48	16.547
733.80	16.304
734.11	15.593
734.43	16.151
734.74	20.303
735.06	13.355
735.37	18.429
735.69	18.519
736.00	16.725
736.32	15.772
736.63	16.549
736.95	19.454
737.26	14.235
737.58	15.436
737.89	12.821
738.21	17.293
738.52	16.872
738.83	14.410
739.15	18.777
739.46	18.898
739.78	15.018
740.09	19.608
740.41	17.754
740.72	11.417
741.04	16.194
741.35	17.021
741.66	11.848
741.98	19.388
742.29	16.337
742.61	14.660
742.92	8.057
743.23	12.963
743.55	20.814
743.86	19.617
744.18	15.789
744.49	11.702
744.80	14.130
745.12	24.064
745.43	20.488
745.74	22.396
746.06	17.073
746.37	19.372
746.68	13.744
747.00	11.170
747.31	22.388
747.62	9.223
747.94	17.703
748.25	12.376
748.56	18.033
748.88	13.613
749.19	17.553
749.50	17.241
749.82	11.321
750.13	16.055
750.44	25.188
750.75	22.761
751.07	20.073
751.38	14.943
751.69	16.078
752.01	15.504
752.32	17.530
752.63	13.439
752.94	17.241
753.26	18.410
753.57	16.742
753.88	14.159
754.19	12.917
754.51	16.116
754.82	19.028
755.13	25.417
755.44	20.565
755.75	20.312
756.07	19.455
756.38	19.245
756.69	18.391
757.00	19.000
757.31	19.935
757.63	16.768
757.94	15.278
758.25	18.082
758.56	15.426
758.87	12.465
759.18	14.953
759.50	17.091
759.81	19.064
760.12	16.129
760.43	19.091
760.74	16.975
761.05	18.769
761.36	14.205
761.67	17.576
761.99	18.027
762.30	15.636
762.61	16.601
762.92	20.362
763.23	13.964
763.54	11.682
763.85	15.678
764.16	12.863
764.47	18.548
764.78	16.117
765.10	18.855
765.41	16.088
765.72	18.095
766.03	17.293
766.34	15.693
766.65	19.124
766.96	20.202
767.27	16.489
767.58	13.218
767.89	14.894
768.20	15.341
768.51	15.934
768.82	15.764
769.13	10.138
769.44	10.300
769.75	14.155
770.06	20.259
770.37	17.308
770.68	18.274
770.99	10.407
771.30	23.039
771.61	14.480
771.92	15.086
772.23	23.645
772.54	13.978
772.85	21.605
773.16	19.663
773.47	24.183
773.78	14.379
774.09	16.168
774.39	16.000
774.70	15.924
775.01	20.690
775.32	18.571
775.63	20.661
775.94	21.374
776.25	14.961
776.56	10.833
776.87	19.231
777.18	5.983
777.48	10.345
777.79	12.174
778.10	0.952
778.41	9.910
778.72	18.254
779.03	16.541
779.34	24.823
779.65	17.808
779.95	9.589
780.26	13.793
780.57	7.317
780.88	20.472
781.19	13.793
781.50	17.054
781.80	15.976
782.11	8.176
782.42	20.769
782.73	17.266
783.04	19.259
783.34	13.889
783.65	2.564
783.96	14.754
784.27	20.690
784.57	4.065
784.88	22.656
785.19	19.000
785.50	10.000
785.81	16.379
786.11	8.621
786.42	12.621
786.73	14.545
787.04	7.143
787.34	12.500
787.65	7.619
787.96	10.619
788.26	11.818
788.57	7.692
788.88	14.063
789.19	11.111
789.49	8.696
789.80	7.143
790.11	17.172
790.41	16.364
790.72	17.391
791.03	0.000
791.33	18.750
791.64	6.250
791.95	8.140
792.25	13.830
792.56	13.483
792.87	21.918
793.17	4.348
793.48	22.667
793.79	0.000
794.09	12.500
794.40	16.981
794.70	17.476
795.01	5.691
795.32	17.949
795.62	7.619
795.93	9.804
796.23	11.321
796.54	18.750
796.85	26.471
797.15	7.042
797.46	8.333
797.76	24.242
798.07	19.767
798.37	7.895
798.68	-12.121
798.99	8.642
799.29	17.143
799.60	20.290
799.90	14.667
800.21	9.836
800.51	12.308
800.82	13.559
801.12	17.391
801.43	9.836
801.73	31.746
802.04	18.000
802.34	5.970
802.65	9.615
802.95	1.786
803.26	0.000
803.56	19.608
803.87	0.000
804.17	17.333
804.48	15.873
804.78	11.111
805.09	28.261
805.39	8.889
805.70	16.667
806.00	-21.053
806.30	30.986
806.61	17.143
806.91	1.389
807.22	19.737
807.52	18.667
807.83	3.636
808.13	15.278
808.43	26.471
808.74	7.463
809.04	5.085
809.35	-7.692
809.65	15.625
809.95	-18.919
810.26	-2.273
810.56	5.479
810.86	9.524
811.17	10.000
811.47	12.245
811.77	-26.316
812.08	2.273
812.38	16.981
812.69	5.000
812.99	0.000
813.29	28.947
813.59	-2.857
813.90	-2.273
814.20	-2.564
814.50	5.769
814.81	26.415
815.11	8.511
815.41	18.644
815.72	21.429
816.02	19.608
816.32	-16.667
816.62	4.878
816.93	-10.811
817.23	20.000
817.53	27.083
817.84	2.174
818.14	7.692
818.44	-7.895
818.74	39.130
819.04	-12.500
819.35	2.703
819.65	17.647
819.95	8.333
820.25	-7.143
820.56	22.500
820.86	-82.759
821.16	32.500
821.46	14.894
821.76	27.500
822.07	13.953
822.37	13.514
822.67	-9.375
822.97	28.571
823.27	-10.714
823.57	-16.000
823.88	18.519
824.18	10.714
824.48	8.824
824.78	16.129
825.08	-17.391
825.38	15.152
825.69	-20.833
825.99	5.263
826.29	16.667
826.59	-26.667
826.89	-71.429
827.19	26.087
827.49	2.500
827.79	14.286
828.09	-7.143
828.39	21.212
828.70	54.054
829.00	-10.714
829.30	-38.095
829.60	10.000
829.90	9.375
830.20	0.000
830.50	0.000
830.80	-30.435
831.10	-18.182
831.40	42.424
831.70	-19.355
832.00	19.048
832.30	-57.143
832.60	-25.000
832.90	-6.897
833.20	-50.000
833.50	33.333
833.80	0.000
834.10	11.538
834.40	40.625
834.70	-77.778
835.00	-47.368
835.30	57.692
835.60	-13.333
835.90	9.677
836.20	13.636
836.50	10.714
836.80	-7.692
837.10	0.000
837.40	-333.333
837.70	40.909
838.00	-90.909
838.30	-17.391
838.60	0.000
838.90	4.545
839.19	0.000
839.49	30.000
839.79	46.154
840.09	-66.667
840.39	32.143
840.69	0.000
840.99	-19.231
841.29	-52.632
841.59	-100.000
841.88	-118.182
842.18	-30.000
842.48	12.500
842.78	-6.667
843.08	33.333
843.38	-140.000
843.68	17.391
843.97	-13.333
844.27	-53.333
844.57	50.000
844.87	27.778
845.17	-38.095
845.47	13.333
845.76	28.571
846.06	5.882
846.36	-70.000
846.66	14.286
846.96	13.333
847.25	-100.000
847.55	0.000
847.85	-87.500
848.15	-9.091
848.44	-466.667
848.74	0.000
849.04	0.000
849.34	-45.455
849.63	-66.667
849.93	-140.000
850.23	16.667
850.53	70.000
850.82	-23.077
851.12	-166.667
851.42	46.667
851.71	3.846
852.01	-64.286
852.31	-450.000
852.61	-9.091
852.90	-25.000
853.20	-5.263
853.50	-58.333
853.79	-34.783
854.09	50.000
854.39	0.000
854.68	-37.500
854.98	-12.903
855.28	15.385
855.57	15.000
855.87	0.000
856.17	44.444
856.46	-57.143
856.76	26.667
857.05	11.111
857.35	24.000
857.65	38.889
857.94	30.769
858.24	31.034
858.53	16.667
858.83	40.741
859.13	31.818
859.42	0.000
859.72	-225.000
860.01	-433.333
860.31	24.000
860.60	14.286
860.90	-500.000
861.20	-6.667
861.49	-1200.000
861.79	0.000
862.08	35.000
862.38	60.000
862.67	-380.000
862.97	-50.000
863.26	-33.333
863.56	33.333
863.85	-333.333
864.15	-33.333
864.44	-100.000
864.74	14.286
865.03	25.000
865.33	-100.000
865.62	16.667
865.92	16.667
866.21	-233.333
866.51	18.750
866.80	-54.545
867.10	-350.000
867.39	58.333
867.69	0.000
867.98	-84.615
868.27	-233.333
868.57	-20.000
868.86	16.667
869.16	-92.308
869.45	66.667
869.75	-2800.000
870.04	0.000
870.33	-200.000
870.63	9.524
870.92	366.667
871.22	-240.000
871.51	-400.000
871.80	-55.556
872.10	333.333
>>>>>End Processed Spectral Data<<<<<
