SpectraSuite Data File
++++++++++++++++++++++++++++++++++++
Date: Fri May 15 20:55:07 PDT 2015
User: schluterlab
Dark Spectrum Present: Yes
Reference Spectrum Present: Yes
Number of Sampled Component Spectra: 1
Spectrometers: USB2E3373
Integration Time (usec): 3000 (USB2E3373)
Spectra Averaged: 3 (USB2E3373)
Boxcar Smoothing: 0 (USB2E3373)
Correct for Electrical Dark: No (USB2E3373)
Strobe/Lamp Enabled: No (USB2E3373)
Correct for Detector Non-linearity: No (USB2E3373)
Correct for Stray Light: No (USB2E3373)
Number of Pixels in Processed Spectrum: 2048
>>>>>Begin Processed Spectral Data<<<<<
178.53	0.000
178.91	0.000
179.29	-25.000
179.67	-150.000
180.04	71.429
180.42	125.000
180.80	-700.000
181.18	-200.000
181.56	250.000
181.94	300.000
182.31	600.000
182.69	160.000
183.07	-166.667
183.45	40.000
183.83	200.000
184.20	54.545
184.58	100.000
184.96	-25.000
185.34	-0.000
185.72	-250.000
186.09	92.308
186.47	-800.000
186.85	150.000
187.23	166.667
187.61	-600.000
187.98	-300.000
188.36	33.333
188.74	-100.000
189.12	64.706
189.49	11.111
189.87	0.000
190.25	64.286
190.63	300.000
191.00	-366.667
191.38	-5.263
191.76	250.000
192.14	75.000
192.51	400.000
192.89	-111.111
193.27	-57.143
193.65	-50.000
194.02	118.182
194.40	-60.000
194.78	-112.500
195.15	-50.000
195.53	-75.000
195.91	225.000
196.29	0.000
196.66	15.385
197.04	171.429
197.42	-22.222
197.79	-700.000
198.17	-84.615
198.55	400.000
198.92	-100.000
199.30	-800.000
199.68	-260.000
200.05	-166.667
200.43	0.000
200.81	-300.000
201.18	-266.667
201.56	800.000
201.94	-50.000
202.31	-0.000
202.69	-260.000
203.07	175.000
203.44	1000.000
203.82	0.000
204.19	42.857
204.57	-200.000
204.95	-62.500
205.32	10.000
205.70	28.571
206.08	50.000
206.45	166.667
206.83	57.143
207.20	-185.714
207.58	100.000
207.96	-133.333
208.33	-60.000
208.71	-125.000
209.08	-100.000
209.46	-1100.000
209.84	-120.000
210.21	-400.000
210.59	-14.286
210.96	-83.333
211.34	-200.000
211.71	73.333
212.09	71.429
212.46	-1100.000
212.84	0.000
213.22	90.000
213.59	200.000
213.97	46.154
214.34	0.000
214.72	-83.333
215.09	225.000
215.47	-30.769
215.84	-54.545
216.22	133.333
216.59	-25.000
216.97	-100.000
217.34	-25.000
217.72	-220.000
218.09	112.500
218.47	37.500
218.84	-400.000
219.22	-11.111
219.59	100.000
219.97	300.000
220.34	250.000
220.72	14.286
221.09	-100.000
221.47	-100.000
221.84	-800.000
222.22	-900.000
222.59	63.636
222.97	16.667
223.34	-266.667
223.72	28.571
224.09	9.524
224.46	17.857
224.84	300.000
225.21	-10.000
225.59	20.000
225.96	-100.000
226.34	325.000
226.71	-85.714
227.08	-100.000
227.46	37.500
227.83	-400.000
228.21	-66.667
228.58	0.000
228.95	-112.500
229.33	130.000
229.70	75.000
230.08	-87.500
230.45	28.571
230.82	-14.286
231.20	-60.000
231.57	28.571
231.95	-128.571
232.32	20.000
232.69	7.143
233.07	100.000
233.44	-60.000
233.81	-10.000
234.19	44.444
234.56	-29.412
234.93	300.000
235.31	25.000
235.68	-260.000
236.05	-30.769
236.43	-20.000
236.80	-5.882
237.17	3.125
237.55	-30.000
237.92	11.111
238.29	5.556
238.67	-10.000
239.04	14.706
239.41	-24.390
239.79	-26.667
240.16	14.634
240.53	-13.158
240.91	2.174
241.28	-1.587
241.65	1.786
242.02	-4.110
242.40	-13.333
242.77	13.559
243.14	-10.606
243.51	-7.500
243.89	16.092
244.26	-5.747
244.63	2.381
245.00	6.186
245.38	2.062
245.75	-7.865
246.12	1.724
246.49	4.959
246.87	17.308
247.24	-1.681
247.61	-3.509
247.98	1.626
248.36	5.625
248.73	4.605
249.10	3.247
249.47	3.797
249.84	-0.654
250.22	2.941
250.59	-0.654
250.96	9.390
251.33	-5.233
251.70	-2.941
252.08	-1.015
252.45	1.980
252.82	6.533
253.19	2.765
253.56	-1.402
253.94	6.306
254.31	7.826
254.68	3.070
255.05	0.000
255.42	1.310
255.79	5.405
256.16	2.335
256.54	6.716
256.91	1.521
257.28	2.230
257.65	0.000
258.02	1.418
258.39	7.744
258.76	4.762
259.14	3.322
259.51	3.236
259.88	0.000
260.25	1.961
260.62	5.208
260.99	2.712
261.36	-0.342
261.73	0.633
262.10	3.647
262.47	0.920
262.85	3.762
263.22	2.154
263.59	2.181
263.96	2.484
264.33	2.424
264.70	1.786
265.07	1.190
265.44	1.133
265.81	3.955
266.18	4.918
266.55	6.941
266.92	3.368
267.29	6.527
267.66	2.813
268.03	3.403
268.40	-1.044
268.77	5.882
269.14	4.556
269.51	5.656
269.88	1.247
270.25	0.255
270.62	3.171
270.99	3.325
271.36	0.489
271.73	4.225
272.10	1.460
272.47	2.837
272.84	3.960
273.21	3.944
273.58	2.169
273.95	5.034
274.32	-0.231
274.69	1.357
275.06	4.018
275.43	2.268
275.80	4.415
276.17	1.609
276.54	2.784
276.91	2.412
277.28	2.620
277.65	3.512
278.02	4.255
278.39	2.407
278.76	2.306
279.13	1.660
279.50	3.361
279.87	3.240
280.23	0.860
280.60	5.848
280.97	2.424
281.34	1.923
281.71	5.133
282.08	3.067
282.45	4.305
282.82	2.317
283.19	2.128
283.56	3.854
283.92	1.708
284.29	1.731
284.66	1.744
285.03	2.947
285.40	3.592
285.77	2.812
286.14	2.527
286.51	4.797
286.87	1.097
287.24	1.473
287.61	3.175
287.98	3.509
288.35	2.253
288.72	3.503
289.08	2.604
289.45	6.327
289.82	1.923
290.19	2.048
290.56	3.431
290.93	3.199
291.29	2.928
291.66	4.409
292.03	4.466
292.40	3.871
292.77	2.552
293.13	0.000
293.50	1.973
293.87	3.511
294.24	3.091
294.60	3.875
294.97	3.125
295.34	2.454
295.71	3.279
296.08	4.335
296.44	2.560
296.81	3.889
297.18	4.493
297.55	5.285
297.91	4.247
298.28	6.332
298.65	5.156
299.02	5.660
299.38	3.146
299.75	3.862
300.12	3.141
300.48	5.534
300.85	5.577
301.22	4.675
301.59	4.342
301.95	5.949
302.32	6.096
302.69	4.851
303.05	5.817
303.42	5.604
303.79	5.607
304.15	7.168
304.52	5.113
304.89	5.614
305.25	6.053
305.62	5.251
305.99	5.146
306.35	5.780
306.72	5.174
307.09	7.640
307.45	6.429
307.82	7.523
308.19	6.736
308.55	6.761
308.92	8.606
309.29	6.257
309.65	7.750
310.02	8.911
310.38	7.903
310.75	9.945
311.12	8.396
311.48	9.756
311.85	9.110
312.22	9.599
312.58	9.236
312.95	8.751
313.31	9.731
313.68	9.634
314.05	11.224
314.41	11.856
314.78	10.825
315.14	13.052
315.51	12.112
315.87	12.295
316.24	13.246
316.61	12.992
316.97	12.897
317.34	14.355
317.70	14.436
318.07	13.365
318.43	14.412
318.80	13.068
319.16	15.234
319.53	16.144
319.89	14.764
320.26	16.802
320.62	17.151
320.99	17.328
321.35	19.322
321.72	20.353
322.08	19.235
322.45	17.563
322.81	19.548
323.18	19.627
323.54	19.498
323.91	21.130
324.27	20.996
324.64	23.689
325.00	22.719
325.37	24.793
325.73	23.844
326.10	25.795
326.46	25.830
326.83	26.772
327.19	27.550
327.56	27.976
327.92	28.609
328.29	28.482
328.65	29.528
329.01	30.882
329.38	29.585
329.74	31.350
330.11	32.715
330.47	31.818
330.84	30.288
331.20	34.696
331.56	32.407
331.93	33.973
332.29	34.922
332.66	34.389
333.02	34.851
333.38	33.089
333.75	34.524
334.11	34.915
334.48	35.539
334.84	36.172
335.20	36.688
335.57	34.905
335.93	36.314
336.29	35.912
336.66	35.967
337.02	36.896
337.38	36.481
337.75	36.545
338.11	37.331
338.47	36.861
338.84	37.153
339.20	37.751
339.56	37.339
339.93	37.601
340.29	37.890
340.65	38.262
341.02	37.766
341.38	37.257
341.74	35.866
342.11	36.742
342.47	37.011
342.83	38.581
343.20	38.589
343.56	38.783
343.92	37.467
344.28	38.343
344.65	37.219
345.01	38.202
345.37	37.090
345.73	38.410
346.10	38.827
346.46	39.277
346.82	38.543
347.19	37.323
347.55	39.766
347.91	38.107
348.27	37.753
348.63	38.501
349.00	39.295
349.36	38.570
349.72	39.552
350.08	39.098
350.45	38.867
350.81	38.455
351.17	39.332
351.53	38.857
351.89	37.077
352.26	38.080
352.62	38.871
352.98	37.912
353.34	38.728
353.70	38.188
354.07	38.952
354.43	37.630
354.79	39.554
355.15	40.714
355.51	40.585
355.87	39.159
356.24	38.254
356.60	38.399
356.96	39.762
357.32	38.898
357.68	39.249
358.04	39.499
358.40	39.871
358.77	40.909
359.13	39.231
359.49	38.136
359.85	39.548
360.21	39.952
360.57	38.409
360.93	40.091
361.29	39.502
361.66	40.752
362.02	40.303
362.38	40.899
362.74	41.408
363.10	41.234
363.46	40.326
363.82	42.524
364.18	40.812
364.54	40.074
364.90	41.147
365.26	41.121
365.62	42.409
365.98	40.469
366.35	42.170
366.71	41.611
367.07	41.800
367.43	41.481
367.79	41.696
368.15	41.924
368.51	42.025
368.87	41.852
369.23	39.928
369.59	41.327
369.95	41.716
370.31	41.691
370.67	41.642
371.03	41.598
371.39	41.721
371.75	42.344
372.11	41.013
372.47	41.790
372.83	41.945
373.19	42.011
373.55	41.083
373.91	42.765
374.27	43.657
374.63	43.001
374.99	41.631
375.35	41.852
375.71	42.308
376.07	43.329
376.42	41.429
376.78	43.221
377.14	42.316
377.50	43.426
377.86	42.637
378.22	42.119
378.58	43.013
378.94	42.848
379.30	42.670
379.66	43.197
380.02	42.489
380.38	42.483
380.74	42.370
381.09	43.620
381.45	43.914
381.81	43.245
382.17	43.591
382.53	42.411
382.89	43.315
383.25	43.373
383.61	44.146
383.97	42.921
384.32	43.402
384.68	43.653
385.04	42.463
385.40	42.813
385.76	44.528
386.12	43.661
386.48	42.912
386.83	43.056
387.19	43.651
387.55	44.166
387.91	43.949
388.27	43.468
388.62	43.172
388.98	41.928
389.34	42.911
389.70	43.257
390.06	42.605
390.42	42.876
390.77	43.623
391.13	42.434
391.49	43.726
391.85	43.405
392.20	43.252
392.56	43.611
392.92	43.805
393.28	42.866
393.64	41.922
393.99	44.013
394.35	42.821
394.71	43.870
395.07	42.363
395.42	42.927
395.78	41.042
396.14	42.938
396.50	43.373
396.85	43.142
397.21	41.855
397.57	42.320
397.92	41.582
398.28	42.414
398.64	41.024
399.00	41.591
399.35	40.181
399.71	41.643
400.07	41.173
400.42	41.616
400.78	42.192
401.14	41.863
401.49	42.347
401.85	41.438
402.21	40.542
402.57	40.688
402.92	41.217
403.28	42.419
403.63	41.362
403.99	40.689
404.35	40.787
404.70	39.583
405.06	40.834
405.42	39.963
405.77	39.396
406.13	40.803
406.49	39.964
406.84	41.137
407.20	40.939
407.55	41.404
407.91	40.040
408.27	40.408
408.62	40.123
408.98	39.187
409.34	40.273
409.69	39.729
410.05	38.670
410.40	39.877
410.76	40.169
411.11	39.875
411.47	39.974
411.83	38.858
412.18	40.476
412.54	40.075
412.89	38.793
413.25	39.591
413.60	39.938
413.96	38.405
414.31	39.878
414.67	39.448
415.03	38.282
415.38	38.838
415.74	38.893
416.09	39.647
416.45	39.500
416.80	38.467
417.16	39.986
417.51	39.507
417.87	38.787
418.22	40.674
418.58	39.732
418.93	39.561
419.29	38.284
419.64	39.404
420.00	40.302
420.35	38.388
420.71	40.765
421.06	39.595
421.42	39.663
421.77	40.173
422.12	39.387
422.48	39.090
422.83	38.631
423.19	39.447
423.54	39.565
423.90	38.869
424.25	40.299
424.61	40.514
424.96	40.825
425.31	41.190
425.67	41.256
426.02	41.343
426.38	41.766
426.73	41.404
427.09	41.962
427.44	41.765
427.79	39.953
428.15	41.505
428.50	42.399
428.85	41.032
429.21	41.200
429.56	41.617
429.92	40.678
430.27	40.902
430.62	40.983
430.98	41.507
431.33	41.851
431.68	41.915
432.04	43.208
432.39	42.442
432.74	41.371
433.10	43.103
433.45	42.772
433.80	42.252
434.16	41.884
434.51	42.419
434.86	42.044
435.22	42.008
435.57	42.233
435.92	42.515
436.28	41.860
436.63	43.012
436.98	43.221
437.34	42.408
437.69	43.053
438.04	43.248
438.39	43.616
438.75	43.655
439.10	44.595
439.45	43.822
439.81	44.159
440.16	44.359
440.51	44.358
440.86	45.619
441.22	45.079
441.57	44.812
441.92	44.911
442.27	44.457
442.63	44.968
442.98	44.802
443.33	44.574
443.68	44.828
444.03	45.802
444.39	45.647
444.74	45.206
445.09	45.379
445.44	44.957
445.79	46.931
446.15	45.209
446.50	44.814
446.85	46.015
447.20	45.151
447.55	44.978
447.91	47.152
448.26	46.101
448.61	46.344
448.96	45.898
449.31	46.532
449.66	46.458
450.02	45.408
450.37	46.710
450.72	46.048
451.07	46.456
451.42	46.067
451.77	46.715
452.12	46.830
452.47	46.941
452.83	47.585
453.18	46.173
453.53	47.661
453.88	47.420
454.23	46.958
454.58	48.866
454.93	47.745
455.28	46.730
455.63	47.427
455.98	46.963
456.34	47.254
456.69	48.602
457.04	48.456
457.39	46.962
457.74	48.005
458.09	46.851
458.44	47.747
458.79	47.451
459.14	47.082
459.49	48.060
459.84	46.531
460.19	47.391
460.54	47.249
460.89	48.182
461.24	46.957
461.59	47.743
461.94	46.352
462.29	47.346
462.64	47.110
462.99	47.393
463.34	47.218
463.69	47.748
464.04	47.094
464.39	47.059
464.74	46.564
465.09	47.785
465.44	46.567
465.79	46.882
466.14	47.719
466.49	46.406
466.84	45.985
467.19	46.370
467.54	47.510
467.89	46.304
468.24	46.594
468.59	48.381
468.94	46.476
469.29	47.410
469.64	47.505
469.99	49.054
470.34	48.396
470.68	47.129
471.03	47.275
471.38	47.646
471.73	47.759
472.08	47.218
472.43	48.322
472.78	47.772
473.13	45.714
473.48	48.274
473.83	47.011
474.17	47.215
474.52	47.862
474.87	45.455
475.22	46.614
475.57	46.527
475.92	47.778
476.27	46.973
476.61	47.396
476.96	45.455
477.31	47.377
477.66	46.517
478.01	46.715
478.36	46.514
478.70	47.961
479.05	47.582
479.40	46.794
479.75	46.298
480.10	46.339
480.45	47.100
480.79	47.784
481.14	46.875
481.49	46.453
481.84	46.815
482.19	45.884
482.53	45.564
482.88	46.014
483.23	45.489
483.58	45.755
483.92	45.692
484.27	45.032
484.62	45.226
484.97	45.730
485.31	44.111
485.66	42.719
486.01	43.292
486.36	42.747
486.70	43.514
487.05	44.271
487.40	44.312
487.75	43.775
488.09	44.468
488.44	44.739
488.79	45.050
489.13	45.152
489.48	46.473
489.83	45.426
490.17	45.124
490.52	45.358
490.87	45.858
491.22	46.514
491.56	45.778
491.91	45.363
492.26	46.232
492.60	46.161
492.95	46.040
493.30	45.481
493.64	46.365
493.99	45.314
494.34	45.146
494.68	45.667
495.03	44.428
495.37	45.780
495.72	46.492
496.07	46.049
496.41	44.858
496.76	44.772
497.11	44.527
497.45	45.107
497.80	45.812
498.14	45.306
498.49	45.861
498.84	45.060
499.18	45.382
499.53	45.238
499.87	43.872
500.22	45.302
500.56	44.377
500.91	44.880
501.26	44.043
501.60	44.122
501.95	44.687
502.29	45.278
502.64	45.367
502.98	44.894
503.33	43.084
503.67	44.289
504.02	45.455
504.36	45.522
504.71	44.444
505.06	44.841
505.40	43.858
505.75	45.515
506.09	43.791
506.44	45.637
506.78	44.541
507.13	45.295
507.47	44.491
507.82	44.444
508.16	44.321
508.51	44.334
508.85	44.689
509.19	44.385
509.54	44.504
509.88	43.851
510.23	44.701
510.57	44.522
510.92	43.390
511.26	44.244
511.61	45.655
511.95	44.603
512.30	45.011
512.64	44.853
512.98	44.638
513.33	44.824
513.67	44.855
514.02	45.023
514.36	46.171
514.70	43.881
515.05	44.595
515.39	45.691
515.74	45.449
516.08	45.129
516.42	44.876
516.77	45.231
517.11	44.273
517.46	44.165
517.80	45.113
518.14	44.274
518.49	43.750
518.83	43.196
519.17	43.481
519.52	43.813
519.86	43.818
520.20	44.897
520.55	44.340
520.89	44.856
521.23	44.522
521.58	44.669
521.92	45.321
522.26	43.071
522.61	43.961
522.95	45.762
523.29	43.456
523.64	44.473
523.98	44.848
524.32	42.977
524.66	44.622
525.01	44.610
525.35	43.616
525.69	43.165
526.04	42.923
526.38	45.460
526.72	43.100
527.06	43.904
527.41	44.921
527.75	43.566
528.09	43.654
528.43	44.024
528.78	42.442
529.12	41.742
529.46	43.405
529.80	42.179
530.15	44.356
530.49	42.559
530.83	42.476
531.17	42.646
531.51	42.955
531.86	43.712
532.20	42.171
532.54	43.022
532.88	42.847
533.22	42.473
533.57	42.464
533.91	40.796
534.25	43.099
534.59	41.244
534.93	41.095
535.27	40.546
535.62	41.089
535.96	43.118
536.30	42.282
536.64	42.178
536.98	40.906
537.32	42.888
537.66	41.585
538.01	42.168
538.35	41.609
538.69	41.278
539.03	41.217
539.37	40.915
539.71	40.900
540.05	39.715
540.39	41.620
540.73	41.353
541.07	40.884
541.42	40.188
541.76	40.674
542.10	40.330
542.44	40.375
542.78	38.679
543.12	40.316
543.46	42.072
543.80	41.360
544.14	39.920
544.48	39.973
544.82	40.875
545.16	40.847
545.50	40.120
545.84	40.156
546.18	40.071
546.52	40.447
546.86	40.187
547.20	40.987
547.54	39.223
547.88	39.810
548.22	39.053
548.56	38.193
548.90	39.757
549.24	38.499
549.58	39.774
549.92	39.242
550.26	39.414
550.60	40.074
550.94	39.806
551.28	40.263
551.62	40.692
551.96	39.323
552.30	39.474
552.64	38.434
552.98	40.436
553.32	38.374
553.66	38.244
554.00	38.175
554.34	39.660
554.68	38.422
555.02	40.179
555.36	38.295
555.69	38.755
556.03	38.901
556.37	37.651
556.71	38.917
557.05	39.597
557.39	38.662
557.73	38.831
558.07	38.989
558.41	39.357
558.75	38.270
559.08	38.219
559.42	38.651
559.76	38.671
560.10	38.761
560.44	37.677
560.78	37.692
561.12	38.011
561.45	39.143
561.79	37.675
562.13	38.680
562.47	37.194
562.81	37.752
563.15	37.659
563.48	38.048
563.82	39.121
564.16	37.604
564.50	37.297
564.84	38.019
565.17	37.156
565.51	39.071
565.85	37.997
566.19	37.003
566.52	38.204
566.86	37.661
567.20	36.364
567.54	36.314
567.88	36.321
568.21	35.577
568.55	35.380
568.89	36.345
569.23	35.002
569.56	34.326
569.90	34.714
570.24	33.792
570.57	33.927
570.91	33.879
571.25	32.983
571.59	32.544
571.92	33.274
572.26	32.186
572.60	32.620
572.93	32.193
573.27	32.069
573.61	31.772
573.95	32.441
574.28	32.177
574.62	31.782
574.96	31.738
575.29	30.969
575.63	31.096
575.97	30.577
576.30	31.262
576.64	31.311
576.98	31.609
577.31	31.482
577.65	31.032
577.98	30.685
578.32	30.615
578.66	30.368
578.99	30.627
579.33	30.752
579.67	30.305
580.00	30.911
580.34	31.045
580.67	30.762
581.01	30.259
581.35	30.297
581.68	30.348
582.02	30.189
582.35	30.269
582.69	30.210
583.02	30.229
583.36	30.944
583.70	31.179
584.03	31.804
584.37	31.564
584.70	31.016
585.04	30.181
585.37	29.681
585.71	30.017
586.04	29.829
586.38	30.648
586.72	31.133
587.05	31.196
587.39	30.696
587.72	31.192
588.06	30.944
588.39	31.074
588.73	30.800
589.06	30.887
589.40	31.352
589.73	32.092
590.07	31.609
590.40	31.734
590.73	32.702
591.07	32.061
591.40	32.369
591.74	32.489
592.07	33.256
592.41	32.332
592.74	31.780
593.08	30.108
593.41	30.906
593.75	31.044
594.08	30.656
594.41	30.968
594.75	30.687
595.08	31.479
595.42	31.027
595.75	31.055
596.09	31.274
596.42	31.087
596.75	31.838
597.09	30.569
597.42	31.075
597.75	30.967
598.09	31.100
598.42	30.641
598.76	31.145
599.09	30.649
599.42	30.049
599.76	30.512
600.09	30.241
600.42	30.326
600.76	29.421
601.09	30.038
601.42	30.748
601.76	29.972
602.09	29.744
602.42	31.171
602.76	30.688
603.09	30.731
603.42	31.940
603.76	30.806
604.09	30.377
604.42	30.711
604.76	31.553
605.09	30.576
605.42	30.429
605.75	30.342
606.09	30.446
606.42	29.983
606.75	29.524
607.09	30.286
607.42	29.464
607.75	29.707
608.08	29.605
608.42	29.968
608.75	30.892
609.08	30.892
609.41	30.355
609.75	30.494
610.08	30.255
610.41	29.517
610.74	29.790
611.07	30.543
611.41	31.396
611.74	32.036
612.07	30.675
612.40	30.908
612.73	31.299
613.07	30.540
613.40	30.470
613.73	29.994
614.06	31.386
614.39	30.288
614.72	30.028
615.06	29.944
615.39	29.585
615.72	29.602
616.05	30.503
616.38	30.142
616.71	30.275
617.05	31.254
617.38	30.547
617.71	30.943
618.04	32.127
618.37	31.589
618.70	32.013
619.03	32.083
619.36	31.838
619.69	32.676
620.03	32.579
620.36	31.688
620.69	32.191
621.02	31.422
621.35	33.112
621.68	33.503
622.01	33.167
622.34	32.402
622.67	32.650
623.00	32.236
623.33	31.402
623.66	30.815
623.99	32.375
624.32	31.635
624.65	30.376
624.99	31.603
625.32	31.539
625.65	32.129
625.98	32.393
626.31	31.837
626.64	32.062
626.97	32.373
627.30	31.786
627.63	31.889
627.96	33.064
628.29	31.822
628.62	32.448
628.95	32.665
629.28	34.778
629.61	33.200
629.94	33.040
630.26	33.202
630.59	34.547
630.92	32.821
631.25	32.205
631.58	34.361
631.91	31.798
632.24	33.372
632.57	33.182
632.90	33.808
633.23	34.235
633.56	34.005
633.89	33.416
634.22	35.185
634.55	35.451
634.88	34.355
635.20	34.103
635.53	34.267
635.86	33.810
636.19	34.411
636.52	33.929
636.85	31.514
637.18	32.453
637.51	34.969
637.83	34.428
638.16	35.607
638.49	30.926
638.82	33.947
639.15	34.328
639.48	33.150
639.81	33.333
640.13	33.189
640.46	34.548
640.79	33.579
641.12	34.417
641.45	33.634
641.77	35.852
642.10	35.861
642.43	33.762
642.76	36.304
643.09	33.603
643.41	34.466
643.74	36.409
644.07	35.140
644.40	35.642
644.73	37.653
645.05	34.396
645.38	35.097
645.71	34.043
646.04	36.086
646.36	35.461
646.69	37.230
647.02	38.374
647.35	33.769
647.67	34.918
648.00	34.888
648.33	34.983
648.66	32.373
648.98	32.496
649.31	33.058
649.64	32.967
649.96	33.225
650.29	33.390
650.62	32.137
650.94	32.963
651.27	32.775
651.60	35.135
651.92	33.916
652.25	33.393
652.58	33.833
652.90	34.991
653.23	33.109
653.56	30.118
653.88	34.536
654.21	33.275
654.54	33.277
654.86	35.144
655.19	30.994
655.52	29.489
655.84	23.680
656.17	25.820
656.49	34.857
656.82	36.448
657.15	28.057
657.47	21.412
657.80	15.781
658.13	15.695
658.45	24.368
658.78	24.222
659.10	24.719
659.43	24.593
659.75	25.752
660.08	26.000
660.41	27.579
660.73	28.591
661.06	31.542
661.38	33.268
661.71	29.979
662.03	36.052
662.36	35.824
662.68	33.186
663.01	34.716
663.33	34.803
663.66	34.186
663.98	32.791
664.31	34.968
664.63	34.101
664.96	30.000
665.28	33.996
665.61	33.333
665.93	33.043
666.26	34.056
666.58	31.767
666.91	30.588
667.23	36.792
667.56	34.123
667.88	32.374
668.21	33.413
668.53	36.170
668.86	35.142
669.18	32.075
669.50	30.508
669.83	30.698
670.15	34.965
670.48	34.450
670.80	37.097
671.13	29.530
671.45	31.050
671.77	33.906
672.10	31.683
672.42	30.712
672.75	31.083
673.07	32.200
673.39	30.275
673.72	25.444
674.04	29.583
674.37	34.746
674.69	29.550
675.01	31.556
675.34	31.982
675.66	33.796
675.98	34.590
676.31	34.404
676.63	33.017
676.95	31.136
677.28	32.235
677.60	34.458
677.92	30.046
678.25	32.604
678.57	31.602
678.89	30.252
679.22	29.083
679.54	32.329
679.86	28.231
680.18	28.350
680.51	29.545
680.83	28.628
681.15	31.800
681.48	31.967
681.80	31.818
682.12	29.234
682.44	29.498
682.77	30.905
683.09	30.206
683.41	30.227
683.73	29.954
684.06	32.301
684.38	31.398
684.70	28.976
685.02	29.461
685.34	29.644
685.67	26.829
685.99	30.199
686.31	28.673
686.63	30.612
686.96	27.757
687.28	25.051
687.60	26.616
687.92	30.101
688.24	29.032
688.56	29.258
688.89	31.027
689.21	31.333
689.53	28.770
689.85	27.674
690.17	30.134
690.49	27.187
690.82	30.825
691.14	28.333
691.46	27.570
691.78	29.054
692.10	27.957
692.42	27.056
692.74	27.350
693.06	26.577
693.39	26.244
693.71	28.281
694.03	26.328
694.35	25.234
694.67	28.535
694.99	27.937
695.31	32.376
695.63	30.250
695.95	28.283
696.27	28.497
696.59	31.944
696.91	33.053
697.23	28.278
697.56	26.238
697.88	28.817
698.20	27.107
698.52	28.941
698.84	27.033
699.16	28.000
699.48	28.321
699.80	28.288
700.12	29.111
700.44	30.252
700.76	29.651
701.08	25.758
701.40	30.723
701.72	30.864
702.04	33.003
702.36	30.435
702.68	29.429
703.00	31.212
703.32	29.032
703.64	26.271
703.96	28.696
704.28	32.209
704.60	30.794
704.91	27.445
705.23	23.256
705.55	27.915
705.87	29.603
706.19	27.778
706.51	29.897
706.83	25.723
707.15	24.611
707.47	26.050
707.79	24.740
708.11	27.250
708.43	26.500
708.74	26.873
709.06	30.423
709.38	25.688
709.70	25.740
710.02	29.299
710.34	26.625
710.66	24.359
710.98	26.490
711.29	31.803
711.61	26.102
711.93	29.316
712.25	32.646
712.57	30.769
712.89	25.746
713.20	26.644
713.52	29.268
713.84	27.986
714.16	27.148
714.48	26.129
714.80	28.526
715.11	25.836
715.43	29.467
715.75	23.333
716.07	26.578
716.39	27.181
716.70	25.830
717.02	24.809
717.34	31.984
717.66	26.106
717.97	28.696
718.29	29.289
718.61	29.134
718.93	24.031
719.24	27.757
719.56	30.120
719.88	26.804
720.20	30.682
720.51	21.839
720.83	22.008
721.15	32.353
721.46	27.419
721.78	24.506
722.10	27.509
722.42	24.896
722.73	23.673
723.05	30.612
723.37	28.814
723.68	32.432
724.00	30.342
724.32	21.778
724.63	25.909
724.95	28.821
725.27	26.728
725.58	31.356
725.90	24.206
726.22	26.641
726.53	26.102
726.85	27.341
727.16	26.792
727.48	21.457
727.80	29.960
728.11	27.966
728.43	21.569
728.74	26.210
729.06	26.800
729.38	30.827
729.69	24.701
730.01	23.846
730.32	30.970
730.64	27.562
730.96	24.906
731.27	24.000
731.59	23.729
731.90	21.019
732.22	24.606
732.53	27.243
732.85	28.014
733.16	27.946
733.48	22.302
733.80	25.000
734.11	22.712
734.43	23.368
734.74	22.727
735.06	22.150
735.37	27.492
735.69	27.609
736.00	20.557
736.32	24.497
736.63	24.296
736.95	27.645
737.26	21.708
737.58	19.128
737.89	24.542
738.21	26.692
738.52	26.337
738.83	23.144
739.15	23.581
739.46	28.346
739.78	17.949
740.09	23.529
740.41	24.275
740.72	21.654
741.04	29.150
741.35	22.979
741.66	21.801
741.98	28.061
742.29	27.723
742.61	20.942
742.92	16.588
743.23	23.611
743.55	26.697
743.86	22.488
744.18	26.794
744.49	25.532
744.80	21.739
745.12	28.342
745.43	23.902
745.74	26.042
746.06	19.024
746.37	23.037
746.68	22.749
747.00	23.936
747.31	29.353
747.62	19.903
747.94	27.751
748.25	22.772
748.56	25.137
748.88	21.990
749.19	30.319
749.50	24.138
749.82	23.113
750.13	24.312
750.44	22.932
750.75	23.881
751.07	27.007
751.38	22.222
751.69	20.784
752.01	24.806
752.32	20.319
752.63	23.320
752.94	24.569
753.26	28.033
753.57	23.982
753.88	19.469
754.19	15.000
754.51	23.967
754.82	19.028
755.13	28.333
755.44	24.194
755.75	26.562
756.07	22.957
756.38	24.528
756.69	19.923
757.00	23.000
757.31	20.588
757.63	20.732
757.94	20.000
758.25	19.452
758.56	19.415
758.87	20.680
759.18	19.938
759.50	16.000
759.81	23.077
760.12	21.935
760.43	20.000
760.74	23.148
761.05	18.462
761.36	22.159
761.67	18.788
761.99	22.449
762.30	20.000
762.61	28.063
762.92	24.887
763.23	22.523
763.54	21.495
763.85	25.424
764.16	23.237
764.47	20.968
764.78	20.147
765.10	23.569
765.41	20.505
765.72	21.587
766.03	16.541
766.34	19.708
766.65	27.092
766.96	19.697
767.27	22.340
767.58	17.241
767.89	16.312
768.20	21.023
768.51	19.231
768.82	19.704
769.13	17.972
769.44	22.747
769.75	17.352
770.06	22.845
770.37	20.192
770.68	21.827
770.99	20.362
771.30	14.706
771.61	24.887
771.92	22.414
772.23	23.645
772.54	20.430
772.85	27.778
773.16	21.348
773.47	28.105
773.78	18.954
774.09	21.557
774.39	20.000
774.70	18.471
775.01	29.655
775.32	22.143
775.63	15.702
775.94	21.374
776.25	27.559
776.56	17.500
776.87	24.038
777.18	15.385
777.48	25.000
777.79	21.739
778.10	13.333
778.41	14.414
778.72	19.841
779.03	17.293
779.34	23.404
779.65	25.342
779.95	21.918
780.26	16.552
780.57	17.073
780.88	18.110
781.19	16.379
781.50	12.403
781.80	19.527
782.11	16.352
782.42	16.923
782.73	23.741
783.04	20.000
783.34	12.500
783.65	7.692
783.96	21.311
784.27	24.828
784.57	17.073
784.88	17.969
785.19	36.000
785.50	25.000
785.81	16.379
786.11	19.828
786.42	14.563
786.73	23.636
787.04	25.510
787.34	17.857
787.65	18.095
787.96	20.354
788.26	21.818
788.57	20.513
788.88	24.219
789.19	18.254
789.49	13.913
789.80	16.327
790.11	16.162
790.41	19.091
790.72	31.522
791.03	29.545
791.33	31.250
791.64	15.000
791.95	22.093
792.25	22.340
792.56	21.348
792.87	15.068
793.17	14.493
793.48	9.333
793.79	20.000
794.09	18.750
794.40	19.811
794.70	30.097
795.01	8.943
795.32	9.402
795.62	10.476
795.93	19.608
796.23	19.811
796.54	25.000
796.85	14.706
797.15	26.761
797.46	13.889
797.76	24.242
798.07	9.302
798.37	13.158
798.68	4.545
798.99	19.753
799.29	21.429
799.60	28.986
799.90	29.333
800.21	31.148
800.51	20.000
800.82	27.119
801.12	27.536
801.43	32.787
801.73	36.508
802.04	6.000
802.34	7.463
802.65	42.308
802.95	-1.786
803.26	23.077
803.56	23.529
803.87	10.870
804.17	17.333
804.48	23.810
804.78	11.111
805.09	21.739
805.39	-17.778
805.70	35.185
806.00	5.263
806.30	14.085
806.61	18.571
806.91	8.333
807.22	35.526
807.52	26.667
807.83	3.636
808.13	25.000
808.43	20.588
808.74	7.463
809.04	15.254
809.35	13.462
809.65	23.437
809.95	0.000
810.26	9.091
810.56	26.027
810.86	4.762
811.17	16.000
811.47	-2.041
811.77	23.684
812.08	20.455
812.38	13.208
812.69	12.500
812.99	12.121
813.29	18.421
813.59	-11.429
813.90	9.091
814.20	20.513
814.50	21.154
814.81	18.868
815.11	12.766
815.41	23.729
815.72	28.571
816.02	37.255
816.32	16.667
816.62	17.073
816.93	10.811
817.23	22.857
817.53	29.167
817.84	2.174
818.14	11.538
818.44	-10.526
818.74	36.957
819.04	5.000
819.35	35.135
819.65	35.294
819.95	0.000
820.25	-2.381
820.56	42.500
820.86	-17.241
821.16	25.000
821.46	-2.128
821.76	15.000
822.07	6.977
822.37	-5.405
822.67	9.375
822.97	19.048
823.27	14.286
823.57	-12.000
823.88	-44.444
824.18	-7.143
824.48	29.412
824.78	0.000
825.08	13.043
825.38	21.212
825.69	-41.667
825.99	2.632
826.29	5.556
826.59	6.667
826.89	-42.857
827.19	26.087
827.49	40.000
827.79	40.000
828.09	21.429
828.39	24.242
828.70	35.135
829.00	-14.286
829.30	-33.333
829.60	16.667
829.90	50.000
830.20	13.158
830.50	-7.407
830.80	34.783
831.10	40.909
831.40	30.303
831.70	58.065
832.00	14.286
832.30	9.524
832.60	8.333
832.90	6.897
833.20	-5.000
833.50	30.303
833.80	14.815
834.10	-11.538
834.40	34.375
834.70	-88.889
835.00	-10.526
835.30	19.231
835.60	66.667
835.90	12.903
836.20	-13.636
836.50	17.857
836.80	-42.308
837.10	42.857
837.40	266.667
837.70	-27.273
838.00	-81.818
838.30	-21.739
838.60	0.000
838.90	50.000
839.19	39.286
839.49	16.667
839.79	0.000
840.09	-91.667
840.39	32.143
840.69	28.571
840.99	-3.846
841.29	-84.211
841.59	10.000
841.88	18.182
842.18	-30.000
842.48	-12.500
842.78	-40.000
843.08	11.111
843.38	-100.000
843.68	17.391
843.97	20.000
844.27	-60.000
844.57	-15.000
844.87	11.111
845.17	-42.857
845.47	26.667
845.76	-23.810
846.06	23.529
846.36	0.000
846.66	-57.143
846.96	13.333
847.25	-137.500
847.55	-28.571
847.85	-162.500
848.15	0.000
848.44	-566.667
848.74	-40.000
849.04	29.630
849.34	45.455
849.63	-200.000
849.93	-120.000
850.23	-16.667
850.53	30.000
850.82	-76.923
851.12	44.444
851.42	33.333
851.71	-42.308
852.01	-7.143
852.31	-175.000
852.61	0.000
852.90	-10.000
853.20	47.368
853.50	16.667
853.79	17.391
854.09	33.333
854.39	-36.842
854.68	25.000
854.98	19.355
855.28	30.769
855.57	10.000
855.87	-27.778
856.17	40.741
856.46	121.429
856.76	-33.333
857.05	-88.889
857.35	28.000
857.65	-16.667
857.94	30.769
858.24	3.448
858.53	61.111
858.83	11.111
859.13	50.000
859.42	8.696
859.72	25.000
860.01	-300.000
860.31	-32.000
860.60	28.571
860.90	-133.333
861.20	-60.000
861.49	-400.000
861.79	-40.000
862.08	-25.000
862.38	40.000
862.67	-80.000
862.97	-16.667
863.26	-33.333
863.56	11.111
863.85	-500.000
864.15	-5.556
864.44	-80.000
864.74	14.286
865.03	225.000
865.33	-220.000
865.62	83.333
865.92	-25.000
866.21	-100.000
866.51	50.000
866.80	-90.909
867.10	0.000
867.39	116.667
867.69	0.000
867.98	15.385
868.27	-166.667
868.57	0.000
868.86	22.222
869.16	-23.077
869.45	33.333
869.75	-800.000
870.04	0.000
870.33	-28.571
870.63	28.571
870.92	-100.000
871.22	-140.000
871.51	-400.000
871.80	77.778
872.10	166.667
>>>>>End Processed Spectral Data<<<<<
