SpectraSuite Data File
++++++++++++++++++++++++++++++++++++
Date: Fri May 15 20:34:21 PDT 2015
User: schluterlab
Dark Spectrum Present: Yes
Reference Spectrum Present: Yes
Number of Sampled Component Spectra: 1
Spectrometers: USB2E3373
Integration Time (usec): 3000 (USB2E3373)
Spectra Averaged: 3 (USB2E3373)
Boxcar Smoothing: 0 (USB2E3373)
Correct for Electrical Dark: No (USB2E3373)
Strobe/Lamp Enabled: No (USB2E3373)
Correct for Detector Non-linearity: No (USB2E3373)
Correct for Stray Light: No (USB2E3373)
Number of Pixels in Processed Spectrum: 2048
>>>>>Begin Processed Spectral Data<<<<<
178.53	0.000
178.91	0.000
179.29	-25.000
179.67	-550.000
180.04	28.571
180.42	50.000
180.80	-600.000
181.18	200.000
181.56	550.000
181.94	-250.000
182.31	400.000
182.69	-160.000
183.07	-100.000
183.45	60.000
183.83	133.333
184.20	-9.091
184.58	77.778
184.96	-25.000
185.34	200.000
185.72	-850.000
186.09	76.923
186.47	-600.000
186.85	233.333
187.23	133.333
187.61	200.000
187.98	-133.333
188.36	0.000
188.74	-33.333
189.12	-23.529
189.49	5.556
189.87	0.000
190.25	-78.571
190.63	-150.000
191.00	-33.333
191.38	31.579
191.76	150.000
192.14	-75.000
192.51	-150.000
192.89	-55.556
193.27	-100.000
193.65	166.667
194.02	118.182
194.40	-30.000
194.78	-150.000
195.15	0.000
195.53	-75.000
195.91	375.000
196.29	-225.000
196.66	138.462
197.04	71.429
197.42	-55.556
197.79	-333.333
198.17	-38.462
198.55	1800.000
198.92	-400.000
199.30	-1200.000
199.68	-140.000
200.05	66.667
200.43	0.000
200.81	-166.667
201.18	-100.000
201.56	700.000
201.94	-550.000
202.31	266.667
202.69	-120.000
203.07	325.000
203.44	-100.000
203.82	0.000
204.19	0.000
204.57	-133.333
204.95	137.500
205.32	-40.000
205.70	-85.714
206.08	-100.000
206.45	100.000
206.83	92.857
207.20	-157.143
207.58	-100.000
207.96	0.000
208.33	-40.000
208.71	-225.000
209.08	-183.333
209.46	-1400.000
209.84	100.000
210.21	-1200.000
210.59	-57.143
210.96	16.667
211.34	-200.000
211.71	20.000
212.09	-42.857
212.46	-1800.000
212.84	0.000
213.22	-30.000
213.59	450.000
213.97	23.077
214.34	27.273
214.72	-150.000
215.09	625.000
215.47	-46.154
215.84	45.455
216.22	-366.667
216.59	-112.500
216.97	300.000
217.34	-250.000
217.72	-140.000
218.09	0.000
218.47	250.000
218.84	-900.000
219.22	-100.000
219.59	-160.000
219.97	566.667
220.34	450.000
220.72	57.143
221.09	-175.000
221.47	100.000
221.84	-550.000
222.22	-900.000
222.59	9.091
222.97	-41.667
223.34	-133.333
223.72	-28.571
224.09	-33.333
224.46	-14.286
224.84	600.000
225.21	-150.000
225.59	-40.000
225.96	-500.000
226.34	375.000
226.71	-171.429
227.08	-83.333
227.46	-12.500
227.83	-650.000
228.21	-22.222
228.58	-36.364
228.95	-87.500
229.33	40.000
229.70	31.250
230.08	-100.000
230.45	-128.571
230.82	-85.714
231.20	-53.333
231.57	28.571
231.95	-14.286
232.32	-180.000
232.69	42.857
233.07	-133.333
233.44	-60.000
233.81	-130.000
234.19	-77.778
234.56	-88.235
234.93	650.000
235.31	50.000
235.68	-260.000
236.05	-76.923
236.43	-55.000
236.80	0.000
237.17	12.500
237.55	-45.000
237.92	-37.037
238.29	19.444
238.67	-23.333
239.04	0.000
239.41	-12.195
239.79	-33.333
240.16	-2.439
240.53	-10.526
240.91	-21.739
241.28	-9.524
241.65	3.571
242.02	15.068
242.40	1.667
242.77	6.780
243.14	-4.545
243.51	-3.750
243.89	14.943
244.26	1.149
244.63	7.143
245.00	3.093
245.38	9.278
245.75	-3.371
246.12	1.724
246.49	7.438
246.87	7.692
247.24	0.840
247.61	7.018
247.98	3.252
248.36	12.500
248.73	7.237
249.10	8.442
249.47	4.430
249.84	16.993
250.22	8.235
250.59	7.190
250.96	15.023
251.33	5.233
251.70	14.706
252.08	5.076
252.45	6.436
252.82	8.040
253.19	7.373
253.56	4.673
253.94	5.405
254.31	8.696
254.68	10.088
255.05	13.386
255.42	6.550
255.79	8.108
256.16	10.117
256.54	8.955
256.91	7.985
257.28	8.178
257.65	5.993
258.02	9.220
258.39	4.714
258.76	8.059
259.14	11.960
259.51	11.003
259.88	9.278
260.25	11.765
260.62	9.375
260.99	6.102
261.36	7.877
261.73	8.544
262.10	11.246
262.47	11.043
262.85	6.897
263.22	7.692
263.59	10.592
263.96	12.112
264.33	7.879
264.70	8.333
265.07	10.417
265.44	12.181
265.81	10.734
266.18	9.016
266.55	10.797
266.92	9.067
267.29	7.833
267.66	10.997
268.03	9.686
268.40	9.661
268.77	12.299
269.14	9.592
269.51	12.082
269.88	7.481
270.25	8.418
270.62	10.000
270.99	5.115
271.36	8.802
271.73	10.329
272.10	10.706
272.47	8.274
272.84	9.158
273.21	12.065
273.58	10.120
273.95	11.442
274.32	8.776
274.69	9.276
275.06	11.607
275.43	9.070
275.80	10.375
276.17	7.126
276.54	9.422
276.91	9.868
277.28	8.297
277.65	10.950
278.02	9.787
278.39	8.972
278.76	9.434
279.13	7.676
279.50	8.824
279.87	6.695
280.23	8.602
280.60	12.281
280.97	9.495
281.34	10.000
281.71	13.552
282.08	7.975
282.45	7.632
282.82	7.529
283.19	7.737
283.56	9.056
283.92	8.539
284.29	8.654
284.66	8.140
285.03	6.876
285.40	8.696
285.77	8.787
286.14	7.040
286.51	10.332
286.87	7.130
287.24	9.024
287.61	8.113
287.98	10.175
288.35	8.666
288.72	10.158
289.08	9.201
289.45	8.787
289.82	9.615
290.19	6.997
290.56	6.175
290.93	7.239
291.29	6.009
291.66	7.717
292.03	6.699
292.40	8.871
292.77	7.974
293.13	6.169
293.50	6.222
293.87	6.870
294.24	8.192
294.60	8.197
294.97	7.143
295.34	7.362
295.71	8.942
296.08	5.531
296.44	5.548
296.81	6.944
297.18	6.667
297.55	8.537
297.91	7.260
298.28	9.631
298.65	6.784
299.02	6.739
299.38	5.609
299.75	8.414
300.12	6.152
300.48	6.324
300.85	6.971
301.22	6.234
301.59	6.447
301.95	7.089
302.32	7.393
302.69	7.338
303.05	5.322
303.42	7.347
303.79	7.360
304.15	8.005
304.52	4.875
304.89	5.614
305.25	5.811
305.62	5.951
305.99	5.965
306.35	6.127
306.72	5.624
307.09	6.385
307.45	7.348
307.82	7.292
308.19	6.272
308.55	6.543
308.92	6.318
309.29	4.022
309.65	6.674
310.02	6.821
310.38	6.367
310.75	7.104
311.12	6.243
311.48	7.635
311.85	6.178
312.22	5.802
312.58	7.325
312.95	5.550
313.31	6.211
313.68	6.702
314.05	6.429
314.41	5.979
314.78	7.526
315.14	7.400
315.51	7.453
315.87	7.992
316.24	9.100
316.61	8.957
316.97	7.242
317.34	7.617
317.70	7.075
318.07	7.885
318.43	8.725
318.80	8.996
319.16	8.984
319.53	9.687
319.89	9.547
320.26	8.704
320.62	10.632
320.99	10.334
321.35	10.072
321.72	11.630
322.08	11.782
322.45	11.472
322.81	12.672
323.18	12.561
323.54	12.355
323.91	12.950
324.27	13.281
324.64	14.326
325.00	15.602
325.37	16.437
325.73	15.775
326.10	14.623
326.46	16.233
326.83	17.060
327.19	17.611
327.56	18.071
327.92	18.222
328.29	18.214
328.65	18.396
329.01	18.199
329.38	18.433
329.74	19.263
330.11	19.277
330.47	19.388
330.84	17.885
331.20	22.148
331.56	19.259
331.93	19.817
332.29	20.073
332.66	21.629
333.02	20.818
333.38	21.907
333.75	22.161
334.11	19.517
334.48	22.303
334.84	21.429
335.20	21.409
335.57	20.762
335.93	21.771
336.29	22.376
336.66	20.527
337.02	19.888
337.38	21.019
337.75	22.091
338.11	22.272
338.47	23.358
338.84	22.366
339.20	22.303
339.56	22.661
339.93	21.576
340.29	21.743
340.65	23.118
341.02	22.163
341.38	21.770
341.74	22.350
342.11	21.750
342.47	21.975
342.83	21.886
343.20	22.300
343.56	23.130
343.92	22.586
344.28	24.338
344.65	22.539
345.01	22.645
345.37	21.867
345.73	22.845
346.10	23.037
346.46	24.222
346.82	22.586
347.19	21.862
347.55	22.807
347.91	23.301
348.27	22.716
348.63	22.828
349.00	21.575
349.36	22.028
349.72	23.715
350.08	23.033
350.45	22.586
350.81	22.674
351.17	22.068
351.53	23.429
351.89	21.883
352.26	22.320
352.62	23.065
352.98	22.811
353.34	23.671
353.70	23.301
354.07	22.177
354.43	21.938
354.79	22.378
355.15	23.492
355.51	23.892
355.87	23.058
356.24	22.023
356.60	23.040
356.96	23.333
357.32	22.843
357.68	22.909
358.04	22.940
358.40	23.714
358.77	24.960
359.13	22.738
359.49	22.650
359.85	23.869
360.21	22.249
360.57	22.647
360.93	23.979
361.29	23.187
361.66	23.668
362.02	23.333
362.38	24.372
362.74	22.786
363.10	24.003
363.46	23.647
363.82	23.366
364.18	23.911
364.54	22.500
364.90	23.584
365.26	23.217
365.62	24.526
365.98	24.194
366.35	23.671
366.71	24.021
367.07	24.383
367.43	24.227
367.79	24.382
368.15	24.480
368.51	24.035
368.87	24.695
369.23	23.466
369.59	23.469
369.95	24.487
370.31	25.217
370.67	24.478
371.03	24.421
371.39	25.018
371.75	25.201
372.11	25.250
372.47	24.556
372.83	24.982
373.19	25.036
373.55	23.538
373.91	25.918
374.27	24.805
374.63	25.341
374.99	23.972
375.35	24.791
375.71	25.455
376.07	25.562
376.42	26.122
376.78	25.973
377.14	25.728
377.50	25.365
377.86	25.033
378.22	25.590
378.58	25.897
378.94	25.079
379.30	26.388
379.66	26.019
380.02	25.690
380.38	25.685
380.74	26.092
381.09	26.503
381.45	26.177
381.81	26.897
382.17	26.713
382.53	27.795
382.89	26.554
383.25	26.758
383.61	26.524
383.97	26.540
384.32	26.517
384.68	27.678
385.04	26.838
385.40	26.322
385.76	27.925
386.12	27.426
386.48	27.395
386.83	26.886
387.19	27.717
387.55	29.109
387.91	27.506
388.27	26.984
388.62	28.005
388.98	27.686
389.34	27.858
389.70	27.470
390.06	27.502
390.42	27.850
390.77	28.319
391.13	28.058
391.49	27.814
391.85	27.355
392.20	27.244
392.56	27.209
392.92	28.479
393.28	28.892
393.64	27.928
393.99	29.028
394.35	27.514
394.71	29.246
395.07	28.284
395.42	27.201
395.78	28.143
396.14	28.247
396.50	28.662
396.85	28.397
397.21	27.444
397.57	28.150
397.92	28.520
398.28	28.333
398.64	27.590
399.00	28.047
399.35	27.314
399.71	27.628
400.07	27.932
400.42	27.601
400.78	28.965
401.14	28.191
401.49	28.112
401.85	27.544
402.21	28.434
402.57	28.438
402.92	27.666
403.28	27.757
403.63	28.878
403.99	27.615
404.35	27.733
404.70	28.274
405.06	28.202
405.42	27.035
405.77	27.600
406.13	27.590
406.49	27.117
406.84	28.178
407.20	28.417
407.55	28.075
407.91	26.805
408.27	27.215
408.62	26.769
408.98	27.665
409.34	28.191
409.69	27.067
410.05	27.894
410.40	27.901
410.76	28.227
411.11	27.000
411.47	27.087
411.83	26.428
412.18	28.185
412.54	27.341
412.89	26.047
413.25	27.858
413.60	26.646
413.96	25.583
414.31	27.622
414.67	26.620
415.03	26.897
415.38	26.110
415.74	27.296
416.09	26.780
416.45	27.819
416.80	27.759
417.16	27.555
417.51	27.715
417.87	26.467
418.22	26.166
418.58	27.692
418.93	27.524
419.29	26.248
419.64	26.507
420.00	28.023
420.35	26.687
420.71	28.129
421.06	27.624
421.42	26.502
421.77	27.052
422.12	27.072
422.48	26.584
422.83	26.450
423.19	26.919
423.54	26.925
423.90	25.795
424.25	27.038
424.61	27.662
424.96	27.003
425.31	27.210
425.67	26.761
426.02	27.739
426.38	26.738
426.73	27.058
427.09	26.899
427.44	27.588
427.79	26.164
428.15	27.609
428.50	27.256
428.85	25.860
429.21	27.051
429.56	27.332
429.92	26.810
430.27	27.018
430.62	25.091
430.98	26.115
431.33	27.445
431.68	26.321
432.04	26.887
432.39	26.868
432.74	26.097
433.10	27.414
433.45	26.404
433.80	26.524
434.16	25.596
434.51	26.559
434.86	26.771
435.22	25.743
435.57	26.825
435.92	26.228
436.28	26.893
436.63	27.096
436.98	26.362
437.34	26.618
437.69	28.086
438.04	27.236
438.39	26.634
438.75	27.444
439.10	26.825
439.45	27.754
439.81	26.789
440.16	28.800
440.51	28.358
440.86	27.492
441.22	26.810
441.57	27.870
441.92	28.279
442.27	27.217
442.63	28.319
442.98	27.858
443.33	27.546
443.68	28.329
444.03	28.614
444.39	27.939
444.74	28.094
445.09	28.731
445.44	28.034
445.79	29.139
446.15	27.588
446.50	27.842
446.85	28.215
447.20	27.685
447.55	28.850
447.91	27.862
448.26	29.254
448.61	28.152
448.96	29.145
449.31	28.786
449.66	27.410
450.02	28.523
450.37	27.445
450.72	28.408
451.07	28.481
451.42	27.778
451.77	27.908
452.12	27.512
452.47	27.495
452.83	29.093
453.18	27.704
453.53	28.382
453.88	28.476
454.23	28.150
454.58	29.156
454.93	29.575
455.28	27.746
455.63	29.076
455.98	28.743
456.34	28.352
456.69	29.543
457.04	28.544
457.39	28.068
457.74	27.449
458.09	27.134
458.44	28.438
458.79	27.171
459.14	28.432
459.49	28.836
459.84	27.975
460.19	27.306
460.54	28.912
460.89	28.239
461.24	27.640
461.59	27.969
461.94	26.855
462.29	27.563
462.64	28.173
462.99	27.082
463.34	27.747
463.69	27.284
464.04	27.906
464.39	27.107
464.74	27.730
465.09	27.636
465.44	27.928
465.79	27.608
466.14	26.853
466.49	27.085
466.84	26.591
467.19	27.785
467.54	26.309
467.89	27.479
468.24	26.946
468.59	27.238
468.94	26.603
469.29	27.148
469.64	26.521
469.99	27.260
470.34	26.553
470.68	27.740
471.03	27.318
471.38	25.963
471.73	26.401
472.08	25.509
472.43	26.980
472.78	25.634
473.13	25.918
473.48	25.537
473.83	26.152
474.17	25.972
474.52	26.739
474.87	25.333
475.22	25.991
475.57	25.692
475.92	26.879
476.27	27.183
476.61	26.447
476.96	25.432
477.31	25.852
477.66	26.292
478.01	24.818
478.36	25.490
478.70	25.938
479.05	26.154
479.40	25.967
479.75	25.182
480.10	25.448
480.45	24.950
480.79	25.428
481.14	25.410
481.49	24.729
481.84	24.855
482.19	24.602
482.53	24.556
482.88	24.869
483.23	25.000
483.58	24.575
483.92	23.475
484.27	24.157
484.62	25.011
484.97	23.798
485.31	23.880
485.66	23.240
486.01	24.062
486.36	23.752
486.70	24.288
487.05	24.235
487.40	23.604
487.75	23.239
488.09	23.177
488.44	23.384
488.79	22.861
489.13	24.239
489.48	23.258
489.83	23.543
490.17	23.640
490.52	23.649
490.87	23.415
491.22	23.305
491.56	23.150
491.91	23.184
492.26	23.529
492.60	23.656
492.95	24.152
493.30	23.205
493.64	23.821
493.99	23.092
494.34	22.718
494.68	22.333
495.03	22.774
495.37	23.209
495.72	22.615
496.07	23.659
496.41	22.311
496.76	21.925
497.11	22.450
497.45	22.673
497.80	22.553
498.14	22.206
498.49	22.092
498.84	21.956
499.18	23.343
499.53	22.520
499.87	21.790
500.22	21.860
500.56	22.441
500.91	21.084
501.26	22.294
501.60	22.036
501.95	21.591
502.29	21.743
502.64	22.683
502.98	21.707
503.33	20.701
503.67	22.602
504.02	22.141
504.36	22.167
504.71	21.465
505.06	21.137
505.40	20.355
505.75	21.907
506.09	21.490
506.44	21.509
506.78	21.480
507.13	21.510
507.47	20.366
507.82	20.085
508.16	20.338
508.51	21.196
508.85	21.088
509.19	20.490
509.54	20.375
509.88	20.874
510.23	20.334
510.57	21.112
510.92	19.030
511.26	20.240
511.61	21.122
511.95	20.767
512.30	20.787
512.64	20.812
512.98	20.157
513.33	21.433
513.67	19.784
514.02	21.682
514.36	21.371
514.70	21.329
515.05	20.975
515.39	20.661
515.74	20.359
516.08	20.861
516.42	20.318
516.77	20.012
517.11	20.356
517.46	19.868
517.80	19.845
518.14	19.473
518.49	19.531
518.83	19.502
519.17	19.042
519.52	19.124
519.86	19.028
520.20	19.623
520.55	18.949
520.89	20.263
521.23	19.253
521.58	20.505
521.92	19.936
522.26	18.608
522.61	20.000
522.95	19.205
523.29	19.441
523.64	19.441
523.98	19.572
524.32	19.008
524.66	19.462
525.01	18.831
525.35	20.026
525.69	17.912
526.04	18.320
526.38	20.169
526.72	18.509
527.06	19.390
527.41	19.591
527.75	18.566
528.09	18.206
528.43	19.109
528.78	19.010
529.12	18.581
529.46	18.324
529.80	17.923
530.15	18.020
530.49	19.192
530.83	18.468
531.17	17.260
531.51	18.536
531.86	17.743
532.20	17.745
532.54	18.856
532.88	17.864
533.22	16.667
533.57	18.087
533.91	17.624
534.25	18.490
534.59	17.319
534.93	17.306
535.27	16.878
535.62	16.656
535.96	17.547
536.30	18.008
536.64	17.850
536.98	16.725
537.32	17.781
537.66	18.163
538.01	17.902
538.35	17.060
538.69	17.443
539.03	16.815
539.37	16.622
539.71	17.178
540.05	17.379
540.39	16.828
540.73	17.294
541.07	16.575
541.42	17.540
541.76	16.999
542.10	16.793
542.44	17.651
542.78	16.173
543.12	16.071
543.46	17.038
543.80	16.516
544.14	16.155
544.48	16.456
544.82	17.567
545.16	17.145
545.50	17.223
545.84	16.643
546.18	16.170
546.52	17.015
546.86	16.751
547.20	17.167
547.54	15.760
547.88	16.644
548.22	16.239
548.56	15.699
548.90	16.644
549.24	15.702
549.58	16.361
549.92	14.868
550.26	16.703
550.60	16.283
550.94	15.459
551.28	15.688
551.62	15.538
551.96	16.316
552.30	16.667
552.64	16.079
552.98	15.612
553.32	15.549
553.66	14.659
554.00	16.204
554.34	15.731
554.68	16.003
555.02	15.476
555.36	14.809
555.69	15.311
556.03	14.632
556.37	15.302
556.71	16.029
557.05	15.138
557.39	14.944
557.73	15.967
558.07	14.857
558.41	15.161
558.75	14.653
559.08	15.051
559.42	15.079
559.76	15.052
560.10	14.220
560.44	14.743
560.78	15.105
561.12	15.867
561.45	15.179
561.79	15.896
562.13	15.188
562.47	14.820
562.81	14.481
563.15	16.079
563.48	15.771
563.82	15.511
564.16	14.206
564.50	14.054
564.84	14.592
565.17	14.755
565.51	14.959
565.85	14.335
566.19	14.390
566.52	15.214
566.86	15.553
567.20	14.321
567.54	14.538
567.88	15.231
568.21	14.876
568.55	14.837
568.89	14.476
569.23	15.070
569.56	14.229
569.90	14.941
570.24	14.552
570.57	14.182
570.91	14.988
571.25	13.745
571.59	13.983
571.92	13.867
572.26	13.889
572.60	14.016
572.93	14.465
573.27	13.856
573.61	13.753
573.95	13.872
574.28	13.745
574.62	13.857
574.96	13.912
575.29	13.705
575.63	13.708
575.97	13.662
576.30	13.495
576.64	13.404
576.98	13.925
577.31	13.787
577.65	13.647
577.98	13.715
578.32	13.556
578.66	13.432
578.99	13.547
579.33	13.065
579.67	13.298
580.00	13.696
580.34	13.632
580.67	13.501
581.01	13.545
581.35	13.480
581.68	13.304
582.02	13.544
582.35	13.519
582.69	13.635
583.02	13.758
583.36	13.485
583.70	13.811
584.03	13.595
584.37	13.721
584.70	13.297
585.04	13.161
585.37	13.587
585.71	13.207
586.04	13.313
586.38	13.257
586.72	13.515
587.05	13.836
587.39	13.671
587.72	13.942
588.06	13.534
588.39	13.301
588.73	13.156
589.06	13.438
589.40	13.619
589.73	13.436
590.07	13.784
590.40	13.816
590.73	13.550
591.07	12.892
591.40	13.402
591.74	13.801
592.07	13.497
592.41	13.428
592.74	13.461
593.08	12.854
593.41	13.575
593.75	13.248
594.08	13.045
594.41	13.464
594.75	13.092
595.08	12.978
595.42	13.876
595.75	13.406
596.09	13.448
596.42	12.898
596.75	13.233
597.09	13.303
597.42	13.550
597.75	13.330
598.09	13.219
598.42	13.087
598.76	13.342
599.09	12.901
599.42	12.997
599.76	13.619
600.09	13.009
600.42	13.154
600.76	12.630
601.09	13.206
601.42	12.769
601.76	13.259
602.09	13.160
602.42	13.016
602.76	12.946
603.09	13.289
603.42	13.462
603.76	13.145
604.09	12.920
604.42	13.494
604.76	13.307
605.09	12.980
605.42	12.235
605.75	12.960
606.09	12.824
606.42	13.053
606.75	12.468
607.09	13.758
607.42	12.893
607.75	12.256
608.08	12.174
608.42	13.248
608.75	13.012
609.08	13.054
609.41	13.147
609.75	11.895
610.08	13.030
610.41	12.754
610.74	12.433
611.07	13.333
611.41	12.662
611.74	13.913
612.07	13.169
612.40	12.856
612.73	13.051
613.07	12.430
613.40	13.239
613.73	12.703
614.06	13.523
614.39	13.142
614.72	12.269
615.06	12.961
615.39	12.172
615.72	12.217
616.05	12.291
616.38	11.795
616.71	12.844
617.05	14.083
617.38	13.262
617.71	12.327
618.04	12.571
618.37	12.799
618.70	12.343
619.03	12.778
619.36	12.952
619.69	12.585
620.03	12.491
620.36	13.448
620.69	12.562
621.02	13.226
621.35	13.610
621.68	13.180
622.01	13.250
622.34	13.647
622.67	12.461
623.00	12.940
623.33	12.881
623.66	12.715
623.99	12.859
624.32	13.536
624.65	12.105
624.99	12.415
625.32	12.737
625.65	12.647
625.98	13.457
626.31	11.970
626.64	13.432
626.97	12.827
627.30	13.135
627.63	13.518
627.96	13.118
628.29	13.136
628.62	11.996
628.95	13.226
629.28	12.399
629.61	12.263
629.94	14.174
630.26	12.352
630.59	13.632
630.92	12.410
631.25	13.538
631.58	13.436
631.91	11.513
632.24	11.812
632.57	13.409
632.90	12.337
633.23	13.176
633.56	12.091
633.89	13.070
634.22	12.346
634.55	12.452
634.88	10.983
635.20	12.949
635.53	13.333
635.86	13.134
636.19	13.842
636.52	12.117
636.85	11.042
637.18	12.453
637.51	12.201
637.83	11.958
638.16	13.643
638.49	10.899
638.82	13.421
639.15	11.669
639.48	12.655
639.81	12.971
640.13	12.121
640.46	12.974
640.79	12.077
641.12	12.112
641.45	12.162
641.77	12.000
642.10	13.744
642.43	12.058
642.76	12.376
643.09	12.763
643.41	10.032
643.74	11.862
644.07	11.002
644.40	14.358
644.73	13.310
645.05	13.087
645.38	11.993
645.71	12.411
646.04	13.824
646.36	11.348
646.69	14.388
647.02	14.745
647.35	12.687
647.67	13.894
648.00	11.567
648.33	12.969
648.66	11.186
648.98	11.223
649.31	11.240
649.64	10.675
649.96	9.887
650.29	14.310
650.62	13.162
650.94	11.481
651.27	11.546
651.60	12.252
651.92	11.713
652.25	11.545
652.58	12.500
652.90	14.065
653.23	10.252
653.56	10.829
653.88	12.371
654.21	9.107
654.54	12.394
654.86	11.375
655.19	11.842
655.52	13.390
655.84	11.732
656.17	13.097
656.49	17.701
656.82	18.118
657.15	13.700
657.47	10.314
657.80	7.694
658.13	7.404
658.45	11.200
658.78	11.008
659.10	11.448
659.43	11.537
659.75	11.248
660.08	11.103
660.41	10.419
660.73	12.707
661.06	11.612
661.38	9.785
661.71	10.678
662.03	12.876
662.36	10.769
662.68	10.177
663.01	12.227
663.33	7.889
663.66	9.302
663.98	8.837
664.31	12.154
664.63	9.447
664.96	10.217
665.28	10.596
665.61	10.173
665.93	12.609
666.26	11.714
666.58	10.515
666.91	9.647
667.23	13.679
667.56	10.900
667.88	12.710
668.21	11.217
668.53	13.002
668.86	9.198
669.18	10.613
669.50	11.380
669.83	11.395
670.15	10.256
670.48	12.919
670.80	10.599
671.13	9.396
671.45	10.502
671.77	13.734
672.10	11.287
672.42	10.300
672.75	12.433
673.07	11.628
673.39	12.844
673.72	10.059
674.04	11.458
674.37	12.924
674.69	10.064
675.01	14.667
675.34	10.811
675.66	12.037
675.98	13.525
676.31	11.468
676.63	11.164
676.95	11.136
677.28	12.471
677.60	12.771
677.92	11.927
678.25	12.910
678.57	8.874
678.89	11.975
679.22	10.291
679.54	9.839
679.86	9.940
680.18	12.233
680.51	12.311
680.83	11.730
681.15	11.600
681.48	11.885
681.80	11.570
682.12	11.694
682.44	10.042
682.77	11.038
683.09	9.611
683.41	11.591
683.73	11.290
684.06	10.841
684.38	9.247
684.70	12.418
685.02	9.336
685.34	9.486
685.67	11.445
685.99	12.839
686.31	10.973
686.63	11.317
686.96	8.935
687.28	8.485
687.60	9.886
687.92	12.323
688.24	10.282
688.56	9.389
688.89	10.268
689.21	10.444
689.53	12.993
689.85	12.093
690.17	11.161
690.49	10.165
690.82	10.680
691.14	8.810
691.46	11.449
691.78	12.162
692.10	12.258
692.42	10.823
692.74	9.829
693.06	8.784
693.39	8.824
693.71	10.407
694.03	8.545
694.35	12.383
694.67	11.364
694.99	11.749
695.31	14.360
695.63	12.000
695.95	9.091
696.27	7.772
696.59	12.778
696.91	8.683
697.23	9.254
697.56	8.416
697.88	10.538
698.20	10.706
698.52	11.529
698.84	7.416
699.16	9.250
699.48	11.028
699.80	12.407
700.12	9.434
700.44	12.605
700.76	7.849
701.08	8.485
701.40	10.241
701.72	13.580
702.04	10.561
702.36	12.375
702.68	10.511
703.00	10.909
703.32	12.903
703.64	7.627
703.96	8.986
704.28	11.043
704.60	13.968
704.91	7.571
705.23	9.967
705.55	9.894
705.87	9.386
706.19	11.111
706.51	10.653
706.83	11.254
707.15	5.296
707.47	10.644
707.79	8.854
708.11	12.250
708.43	9.000
708.74	9.819
709.06	11.831
709.38	9.174
709.70	10.947
710.02	13.376
710.34	9.907
710.66	7.051
710.98	8.609
711.29	10.492
711.61	8.136
711.93	9.772
712.25	10.997
712.57	10.623
712.89	6.716
713.20	10.381
713.52	11.847
713.84	8.874
714.16	7.560
714.48	10.000
714.80	8.013
715.11	8.511
715.43	8.777
715.75	7.000
716.07	11.296
716.39	10.067
716.70	4.797
717.02	10.687
717.34	12.551
717.66	6.195
717.97	9.130
718.29	12.134
718.61	10.236
718.93	6.977
719.24	12.167
719.56	8.434
719.88	9.966
720.20	6.818
720.51	5.747
720.83	7.336
721.15	10.504
721.46	6.855
721.78	8.300
722.10	7.063
722.42	4.149
722.73	11.020
723.05	10.612
723.37	11.441
723.68	9.009
724.00	5.556
724.32	4.000
724.63	5.909
724.95	9.170
725.27	8.295
725.58	8.898
725.90	5.556
726.22	9.653
726.53	12.203
726.85	11.985
727.16	16.604
727.48	6.478
727.80	8.907
728.11	6.780
728.43	5.882
728.74	4.032
729.06	8.000
729.38	16.165
729.69	4.781
730.01	4.231
730.32	8.955
730.64	10.247
730.96	10.566
731.27	4.333
731.59	8.814
731.90	9.554
732.22	8.833
732.53	11.960
732.85	11.348
733.16	11.448
733.48	8.633
733.80	7.246
734.11	7.797
734.43	7.216
734.74	12.727
735.06	2.280
735.37	13.595
735.69	8.418
736.00	9.059
736.32	9.732
736.63	10.915
736.95	10.580
737.26	11.744
737.58	9.396
737.89	8.425
738.21	7.519
738.52	11.934
738.83	11.790
739.15	5.240
739.46	10.236
739.78	9.158
740.09	12.092
740.41	11.232
740.72	5.512
741.04	10.121
741.35	8.085
741.66	8.057
741.98	8.163
742.29	8.911
742.61	10.471
742.92	2.844
743.23	4.167
743.55	9.502
743.86	7.177
744.18	10.526
744.49	10.638
744.80	8.696
745.12	12.299
745.43	2.927
745.74	13.021
746.06	9.756
746.37	3.665
746.68	11.848
747.00	9.043
747.31	10.945
747.62	2.913
747.94	13.397
748.25	3.465
748.56	4.372
748.88	9.424
749.19	13.830
749.50	12.808
749.82	2.358
750.13	6.422
750.44	10.150
750.75	11.567
751.07	10.584
751.38	8.429
751.69	8.627
752.01	8.527
752.32	4.382
752.63	7.510
752.94	4.741
753.26	10.879
753.57	2.262
753.88	14.159
754.19	5.833
754.51	3.719
754.82	6.073
755.13	14.583
755.44	11.290
755.75	10.156
756.07	12.062
756.38	7.170
756.69	8.429
757.00	10.000
757.31	6.863
757.63	8.841
757.94	8.889
758.25	9.041
758.56	9.043
758.87	9.632
759.18	8.411
759.50	3.636
759.81	7.692
760.12	10.000
760.43	11.212
760.74	10.494
761.05	9.538
761.36	8.239
761.67	12.727
761.99	8.503
762.30	6.909
762.61	8.696
762.92	9.050
763.23	4.054
763.54	7.477
763.85	9.322
764.16	9.544
764.47	5.645
764.78	8.791
765.10	10.438
765.41	8.517
765.72	11.746
766.03	3.008
766.34	6.569
766.65	10.359
766.96	11.111
767.27	6.915
767.58	2.299
767.89	-2.837
768.20	8.523
768.51	8.791
768.82	6.897
769.13	2.765
769.44	6.867
769.75	10.959
770.06	12.500
770.37	4.327
770.68	8.629
770.99	6.787
771.30	10.294
771.61	9.050
771.92	10.345
772.23	9.360
772.54	9.140
772.85	11.111
773.16	8.427
773.47	14.379
773.78	5.229
774.09	6.587
774.39	6.000
774.70	7.643
775.01	12.414
775.32	4.286
775.63	9.917
775.94	5.344
776.25	7.874
776.56	3.333
776.87	8.654
777.18	4.274
777.48	11.207
777.79	7.826
778.10	-3.810
778.41	0.901
778.72	8.730
779.03	4.511
779.34	14.184
779.65	13.699
779.95	2.055
780.26	6.897
780.57	-6.504
780.88	1.575
781.19	6.034
781.50	6.202
781.80	8.284
782.11	3.145
782.42	10.769
782.73	8.633
783.04	2.963
783.34	2.778
783.65	-5.128
783.96	9.016
784.27	11.724
784.57	6.504
784.88	7.031
785.19	1.000
785.50	17.000
785.81	5.172
786.11	9.483
786.42	1.942
786.73	11.818
787.04	3.061
787.34	1.786
787.65	5.714
787.96	10.619
788.26	16.364
788.57	11.966
788.88	15.625
789.19	4.762
789.49	6.957
789.80	9.184
790.11	-4.040
790.41	12.727
790.72	14.130
791.03	-3.409
791.33	11.250
791.64	5.000
791.95	10.465
792.25	6.383
792.56	17.978
792.87	9.589
793.17	-2.899
793.48	-8.000
793.79	10.000
794.09	-5.000
794.40	7.547
794.70	-4.854
795.01	4.878
795.32	-3.419
795.62	-1.905
795.93	5.882
796.23	3.774
796.54	12.500
796.85	10.294
797.15	1.408
797.46	-2.778
797.76	4.545
798.07	-4.651
798.37	1.316
798.68	1.515
798.99	-9.877
799.29	10.000
799.60	13.043
799.90	2.667
800.21	13.115
800.51	1.538
800.82	5.085
801.12	-10.145
801.43	13.115
801.73	12.698
802.04	-4.000
802.34	-2.985
802.65	7.692
802.95	-7.143
803.26	-17.308
803.56	-7.843
803.87	-23.913
804.17	9.333
804.48	6.349
804.78	-7.407
805.09	8.696
805.39	-20.000
805.70	22.222
806.00	-12.281
806.30	11.268
806.61	17.143
806.91	-5.556
807.22	6.579
807.52	12.000
807.83	1.818
808.13	8.333
808.43	0.000
808.74	5.970
809.04	-11.864
809.35	-17.308
809.65	9.375
809.95	-16.216
810.26	-18.182
810.56	6.849
810.86	-28.571
811.17	2.000
811.47	-16.327
811.77	-13.158
812.08	0.000
812.38	-11.321
812.69	2.500
812.99	-45.455
813.29	-18.421
813.59	-5.714
813.90	9.091
814.20	7.692
814.50	3.846
814.81	15.094
815.11	-6.383
815.41	10.169
815.72	0.000
816.02	9.804
816.32	14.583
816.62	-12.195
816.93	-21.622
817.23	-5.714
817.53	0.000
817.84	-2.174
818.14	5.769
818.44	-28.947
818.74	-2.174
819.04	-30.000
819.35	2.703
819.65	-23.529
819.95	-13.889
820.25	-16.667
820.56	12.500
820.86	-31.034
821.16	17.500
821.46	-2.128
821.76	20.000
822.07	4.651
822.37	-27.027
822.67	-34.375
822.97	9.524
823.27	-3.571
823.57	-24.000
823.88	0.000
824.18	28.571
824.48	-5.882
824.78	-16.129
825.08	-43.478
825.38	0.000
825.69	-45.833
825.99	0.000
826.29	-30.556
826.59	-66.667
826.89	-76.190
827.19	4.348
827.49	10.000
827.79	2.857
828.09	-7.143
828.39	-9.091
828.70	40.541
829.00	-32.143
829.30	-42.857
829.60	-13.333
829.90	6.250
830.20	-15.789
830.50	22.222
830.80	-34.783
831.10	-27.273
831.40	15.152
831.70	12.903
832.00	23.810
832.30	-71.429
832.60	-108.333
832.90	-17.241
833.20	-40.000
833.50	-3.030
833.80	-11.111
834.10	-46.154
834.40	-15.625
834.70	-22.222
835.00	-52.632
835.30	7.692
835.60	-13.333
835.90	-3.226
836.20	-22.727
836.50	46.429
836.80	-46.154
837.10	-32.143
837.40	-466.667
837.70	-9.091
838.00	-36.364
838.30	-65.217
838.60	-30.769
838.90	13.636
839.19	-28.571
839.49	-13.333
839.79	-53.846
840.09	-83.333
840.39	3.571
840.69	-21.429
840.99	-73.077
841.29	-36.842
841.59	-110.000
841.88	-136.364
842.18	-10.000
842.48	-6.250
842.78	-13.333
843.08	-33.333
843.38	-140.000
843.68	8.696
843.97	86.667
844.27	-80.000
844.57	-25.000
844.87	-22.222
845.17	-38.095
845.47	40.000
845.76	-38.095
846.06	23.529
846.36	-120.000
846.66	-64.286
846.96	-53.333
847.25	-162.500
847.55	-28.571
847.85	-137.500
848.15	-27.273
848.44	-700.000
848.74	-15.000
849.04	3.704
849.34	0.000
849.63	-250.000
849.93	-120.000
850.23	0.000
850.53	90.000
850.82	-46.154
851.12	-122.222
851.42	-46.667
851.71	-26.923
852.01	-7.143
852.31	-300.000
852.61	-100.000
852.90	-5.000
853.20	5.263
853.50	-75.000
853.79	-47.826
854.09	8.333
854.39	-21.053
854.68	-16.667
854.98	-6.452
855.28	-15.385
855.57	-60.000
855.87	-33.333
856.17	37.037
856.46	-50.000
856.76	-20.000
857.05	77.778
857.35	16.000
857.65	22.222
857.94	-69.231
858.24	37.931
858.53	0.000
858.83	29.630
859.13	-13.636
859.42	-17.391
859.72	-125.000
860.01	-700.000
860.31	24.000
860.60	-33.333
860.90	-366.667
861.20	-40.000
861.49	-750.000
861.79	-13.333
862.08	-35.000
862.38	20.000
862.67	-100.000
862.97	-166.667
863.26	-91.667
863.56	-11.111
863.85	-333.333
864.15	50.000
864.44	-100.000
864.74	28.571
865.03	175.000
865.33	-180.000
865.62	-133.333
865.92	-75.000
866.21	-133.333
866.51	50.000
866.80	-63.636
867.10	-850.000
867.39	50.000
867.69	0.000
867.98	-30.769
868.27	-233.333
868.57	-86.667
868.86	11.111
869.16	-76.923
869.45	-20.000
869.75	-1900.000
870.04	0.000
870.33	-114.286
870.63	52.381
870.92	433.333
871.22	-120.000
871.51	-1600.000
871.80	44.444
872.10	400.000
>>>>>End Processed Spectral Data<<<<<
