SpectraSuite Data File
++++++++++++++++++++++++++++++++++++
Date: Fri May 15 20:54:49 PDT 2015
User: schluterlab
Dark Spectrum Present: Yes
Reference Spectrum Present: Yes
Number of Sampled Component Spectra: 1
Spectrometers: USB2E3373
Integration Time (usec): 3000 (USB2E3373)
Spectra Averaged: 3 (USB2E3373)
Boxcar Smoothing: 0 (USB2E3373)
Correct for Electrical Dark: No (USB2E3373)
Strobe/Lamp Enabled: No (USB2E3373)
Correct for Detector Non-linearity: No (USB2E3373)
Correct for Stray Light: No (USB2E3373)
Number of Pixels in Processed Spectrum: 2048
>>>>>Begin Processed Spectral Data<<<<<
178.53	0.000
178.91	0.000
179.29	12.500
179.67	-400.000
180.04	85.714
180.42	100.000
180.80	-600.000
181.18	33.333
181.56	300.000
181.94	-150.000
182.31	800.000
182.69	60.000
183.07	200.000
183.45	0.000
183.83	50.000
184.20	-45.455
184.58	77.778
184.96	-25.000
185.34	-66.667
185.72	100.000
186.09	100.000
186.47	0.000
186.85	100.000
187.23	111.111
187.61	100.000
187.98	-100.000
188.36	133.333
188.74	-266.667
189.12	23.529
189.49	33.333
189.87	0.000
190.25	28.571
190.63	-150.000
191.00	-100.000
191.38	-26.316
191.76	-400.000
192.14	300.000
192.51	-150.000
192.89	0.000
193.27	0.000
193.65	133.333
194.02	100.000
194.40	40.000
194.78	-125.000
195.15	-83.333
195.53	-50.000
195.91	500.000
196.29	-75.000
196.66	153.846
197.04	-28.571
197.42	-66.667
197.79	-433.333
198.17	-15.385
198.55	1200.000
198.92	-133.333
199.30	300.000
199.68	-180.000
200.05	33.333
200.43	0.000
200.81	-300.000
201.18	100.000
201.56	2600.000
201.94	-250.000
202.31	66.667
202.69	-140.000
203.07	175.000
203.44	-100.000
203.82	0.000
204.19	14.286
204.57	-433.333
204.95	50.000
205.32	-80.000
205.70	-71.429
206.08	-350.000
206.45	122.222
206.83	78.571
207.20	-128.571
207.58	200.000
207.96	-200.000
208.33	20.000
208.71	100.000
209.08	-216.667
209.46	-400.000
209.84	-120.000
210.21	-500.000
210.59	-42.857
210.96	-66.667
211.34	0.000
211.71	33.333
212.09	-85.714
212.46	-1200.000
212.84	0.000
213.22	120.000
213.59	500.000
213.97	15.385
214.34	9.091
214.72	-83.333
215.09	325.000
215.47	15.385
215.84	-18.182
216.22	133.333
216.59	-62.500
216.97	100.000
217.34	-25.000
217.72	-100.000
218.09	75.000
218.47	62.500
218.84	-1100.000
219.22	-111.111
219.59	0.000
219.97	200.000
220.34	475.000
220.72	-14.286
221.09	-75.000
221.47	0.000
221.84	-600.000
222.22	-700.000
222.59	0.000
222.97	25.000
223.34	-33.333
223.72	-21.429
224.09	23.810
224.46	3.571
224.84	166.667
225.21	20.000
225.59	100.000
225.96	-350.000
226.34	225.000
226.71	0.000
227.08	-116.667
227.46	-37.500
227.83	-600.000
228.21	44.444
228.58	-9.091
228.95	-62.500
229.33	90.000
229.70	43.750
230.08	-75.000
230.45	-71.429
230.82	185.714
231.20	-13.333
231.57	14.286
231.95	85.714
232.32	-70.000
232.69	114.286
233.07	-100.000
233.44	-220.000
233.81	-30.000
234.19	77.778
234.56	-88.235
234.93	300.000
235.31	0.000
235.68	-300.000
236.05	-30.769
236.43	-5.000
236.80	52.941
237.17	62.500
237.55	40.000
237.92	14.815
238.29	22.222
238.67	40.000
239.04	20.588
239.41	-7.317
239.79	33.333
240.16	31.707
240.53	34.211
240.91	6.522
241.28	19.048
241.65	37.500
242.02	36.986
242.40	40.000
242.77	44.068
243.14	21.212
243.51	28.750
243.89	40.230
244.26	19.540
244.63	7.143
245.00	23.711
245.38	35.052
245.75	25.843
246.12	28.448
246.49	21.488
246.87	26.923
247.24	26.050
247.61	33.333
247.98	31.707
248.36	26.250
248.73	26.974
249.10	29.221
249.47	32.278
249.84	29.412
250.22	24.118
250.59	33.333
250.96	30.516
251.33	27.326
251.70	32.353
252.08	28.426
252.45	29.208
252.82	32.161
253.19	31.336
253.56	32.710
253.94	27.477
254.31	34.348
254.68	33.772
255.05	28.346
255.42	33.624
255.79	33.205
256.16	32.685
256.54	37.687
256.91	30.038
257.28	31.599
257.65	30.712
258.02	29.787
258.39	31.313
258.76	35.165
259.14	38.538
259.51	32.686
259.88	35.052
260.25	33.660
260.62	32.986
260.99	29.492
261.36	27.397
261.73	31.013
262.10	35.562
262.47	31.902
262.85	32.288
263.22	32.308
263.59	34.579
263.96	33.230
264.33	33.939
264.70	30.060
265.07	34.524
265.44	34.278
265.81	35.593
266.18	33.333
266.55	30.334
266.92	31.865
267.29	31.593
267.66	32.737
268.03	33.508
268.40	30.287
268.77	34.225
269.14	32.614
269.51	31.362
269.88	30.175
270.25	32.398
270.62	31.951
270.99	29.923
271.36	31.051
271.73	32.160
272.10	32.117
272.47	31.915
272.84	34.901
273.21	30.162
273.58	32.289
273.95	29.977
274.32	30.716
274.69	30.995
275.06	34.152
275.43	32.200
275.80	32.671
276.17	32.644
276.54	28.908
276.91	29.605
277.28	31.441
277.65	29.339
278.02	29.787
278.39	29.759
278.76	29.140
279.13	30.290
279.50	32.353
279.87	32.613
280.23	28.172
280.60	31.969
280.97	31.717
281.34	26.923
281.71	32.238
282.08	30.266
282.45	28.376
282.82	29.537
283.19	29.981
283.56	29.672
283.92	28.653
284.29	29.038
284.66	27.132
285.03	29.666
285.40	29.301
285.77	28.471
286.14	27.076
286.51	31.919
286.87	28.519
287.24	26.519
287.61	26.984
287.98	30.877
288.35	29.983
288.72	28.371
289.08	28.819
289.45	29.701
289.82	26.573
290.19	27.986
290.56	26.415
290.93	25.253
291.29	26.194
291.66	27.087
292.03	25.997
292.40	25.645
292.77	24.561
293.13	22.890
293.50	23.976
293.87	24.427
294.24	24.420
294.60	24.292
294.97	23.363
295.34	25.153
295.71	25.335
296.08	23.318
296.44	21.622
296.81	24.583
297.18	22.609
297.55	24.390
297.91	22.877
298.28	24.142
298.65	22.524
299.02	22.372
299.38	22.025
299.75	22.345
300.12	20.812
300.48	22.266
300.85	22.053
301.22	21.299
301.59	21.053
301.95	22.278
302.32	22.827
302.69	20.771
303.05	20.050
303.42	22.914
303.79	22.430
304.15	21.386
304.52	21.522
304.89	19.883
305.25	19.249
305.62	18.086
305.99	18.713
306.35	19.769
306.72	19.010
307.09	20.981
307.45	20.207
307.82	18.403
308.19	19.512
308.55	18.212
308.92	20.479
309.29	19.106
309.65	19.699
310.02	18.262
310.38	19.429
310.75	19.563
311.12	19.914
311.48	20.042
311.85	19.581
312.22	19.304
312.58	19.002
312.95	18.783
313.31	18.530
313.68	19.162
314.05	17.857
314.41	19.691
314.78	19.175
315.14	20.658
315.51	19.462
315.87	18.750
316.24	20.425
316.61	19.980
316.97	19.940
317.34	19.824
317.70	19.790
318.07	17.981
318.43	19.510
318.80	18.939
319.16	18.750
319.53	18.803
319.89	19.193
320.26	19.433
320.62	19.759
320.99	19.207
321.35	19.116
321.72	20.042
322.08	20.645
322.45	19.898
322.81	19.548
323.18	19.921
323.54	19.402
323.91	18.987
324.27	20.215
324.64	19.757
325.00	20.347
325.37	21.028
325.73	18.858
326.10	21.435
326.46	20.628
326.83	20.472
327.19	20.924
327.56	19.983
327.92	20.423
328.29	20.089
328.65	20.283
329.01	20.680
329.38	19.631
329.74	19.452
330.11	19.833
330.47	19.944
330.84	19.135
331.20	22.243
331.56	19.907
331.93	19.635
332.29	19.523
332.66	19.729
333.02	21.375
333.38	18.973
333.75	21.429
334.11	18.890
334.48	19.764
334.84	20.513
335.20	19.762
335.57	19.130
335.93	19.783
336.29	19.705
336.66	18.710
337.02	19.610
337.38	18.704
337.75	19.091
338.11	19.206
338.47	19.708
338.84	20.425
339.20	19.104
339.56	20.642
339.93	19.338
340.29	19.541
340.65	19.713
341.02	17.908
341.38	19.646
341.74	18.375
342.11	17.678
342.47	18.594
342.83	19.204
343.20	18.902
343.56	19.043
343.92	18.512
344.28	19.300
344.65	18.221
345.01	18.323
345.37	19.008
345.73	20.502
346.10	19.241
346.46	19.176
346.82	19.640
347.19	18.204
347.55	18.546
347.91	20.065
348.27	18.027
348.63	18.654
349.00	18.786
349.36	19.119
349.72	19.154
350.08	18.443
350.45	18.436
350.81	19.020
351.17	17.508
351.53	19.102
351.89	18.910
352.26	18.560
352.62	18.952
352.98	18.313
353.34	17.874
353.70	19.175
354.07	18.387
354.43	18.255
354.79	17.836
355.15	18.651
355.51	18.434
355.87	16.990
356.24	17.210
356.60	18.593
356.96	18.968
357.32	18.291
357.68	16.497
358.04	17.771
358.40	18.167
358.77	19.059
359.13	17.774
359.49	17.103
359.85	16.693
360.21	17.943
360.57	18.210
360.93	18.911
361.29	16.767
361.66	18.025
362.02	18.485
362.38	16.603
362.74	17.411
363.10	18.134
363.46	16.605
363.82	18.332
364.18	17.048
364.54	17.059
364.90	18.136
365.26	16.812
365.62	18.248
365.98	17.449
366.35	17.771
366.71	18.034
367.07	17.852
367.43	17.541
367.79	17.314
368.15	17.444
368.51	18.063
368.87	16.152
369.23	16.462
369.59	17.201
369.95	17.962
370.31	18.136
370.67	17.239
371.03	17.028
371.39	16.265
371.75	17.289
372.11	17.760
372.47	16.790
372.83	17.033
373.19	17.404
373.55	16.462
373.91	17.351
374.27	17.789
374.63	17.085
374.99	16.454
375.35	17.618
375.71	17.063
376.07	16.362
376.42	17.823
376.78	17.315
377.14	16.791
377.50	17.331
377.86	16.934
378.22	16.592
378.58	17.051
378.94	16.068
379.30	16.469
379.66	17.555
380.02	15.205
380.38	16.859
380.74	16.218
381.09	17.607
381.45	16.575
381.81	16.718
382.17	16.878
382.53	15.678
382.89	16.070
383.25	17.486
383.61	17.134
383.97	16.000
384.32	16.760
384.68	16.904
385.04	16.728
385.40	16.055
385.76	16.981
386.12	17.141
386.48	16.284
386.83	17.375
387.19	16.361
387.55	17.064
387.91	16.687
388.27	15.873
388.62	17.244
388.98	16.206
389.34	17.302
389.70	16.905
390.06	15.859
390.42	16.645
390.77	16.024
391.13	16.393
391.49	16.688
391.85	16.374
392.20	16.008
392.56	15.639
392.92	16.853
393.28	16.038
393.64	16.637
393.99	17.367
394.35	16.382
394.71	16.284
395.07	15.776
395.42	16.393
395.78	15.831
396.14	15.889
396.50	16.360
396.85	16.227
397.21	16.667
397.57	17.116
397.92	16.537
398.28	16.207
398.64	16.566
399.00	17.099
399.35	15.632
399.71	16.542
400.07	16.687
400.42	16.279
400.78	16.779
401.14	17.181
401.49	17.451
401.85	17.124
402.21	16.386
402.57	16.812
402.92	16.311
403.28	16.479
403.63	17.402
403.99	16.645
404.35	17.239
404.70	16.667
405.06	16.392
405.42	16.718
405.77	15.689
406.13	16.240
406.49	16.755
406.84	16.381
407.20	16.918
407.55	16.227
407.91	16.444
408.27	16.252
408.62	16.677
408.98	17.190
409.34	17.100
409.69	16.796
410.05	16.564
410.40	16.852
410.76	16.285
411.11	16.375
411.47	17.160
411.83	17.200
412.18	16.731
412.54	17.291
412.89	16.441
413.25	15.764
413.60	16.460
413.96	16.871
414.31	16.341
414.67	16.613
415.03	16.445
415.38	17.428
415.74	17.655
416.09	17.309
416.45	17.353
416.80	17.118
417.16	16.989
417.51	16.656
417.87	17.080
418.22	17.552
418.58	16.789
418.93	17.931
419.29	16.261
419.64	16.332
420.00	17.947
420.35	16.239
420.71	16.889
421.06	16.513
421.42	17.067
421.77	16.994
422.12	16.969
422.48	17.055
422.83	17.285
423.19	16.986
423.54	16.520
423.90	16.667
424.25	17.279
424.61	17.687
424.96	16.957
425.31	18.140
425.67	16.549
426.02	17.609
426.38	18.222
426.73	18.886
427.09	17.975
427.44	17.235
427.79	17.443
428.15	17.900
428.50	18.292
428.85	17.506
429.21	17.431
429.56	17.736
429.92	17.668
430.27	16.391
430.62	17.250
430.98	17.038
431.33	17.666
431.68	17.582
432.04	17.496
432.39	17.513
432.74	17.378
433.10	18.276
433.45	17.145
433.80	17.411
434.16	17.784
434.51	18.280
434.86	17.770
435.22	18.396
435.57	17.717
435.92	18.323
436.28	16.995
436.63	17.684
436.98	17.092
437.34	18.330
437.69	18.903
438.04	17.664
438.39	17.043
438.75	17.608
439.10	17.827
439.45	18.138
439.81	18.287
440.16	18.112
440.51	18.448
440.86	19.154
441.22	18.609
441.57	18.322
441.92	19.780
442.27	18.792
442.63	18.683
442.98	18.725
443.33	18.865
443.68	18.249
444.03	18.977
444.39	19.134
444.74	18.562
445.09	18.040
445.44	18.974
445.79	19.443
446.15	18.612
446.50	18.192
446.85	18.916
447.20	18.926
447.55	18.248
447.91	18.725
448.26	19.351
448.61	19.286
448.96	19.507
449.31	19.191
449.66	19.628
450.02	18.996
450.37	19.621
450.72	18.843
451.07	19.937
451.42	18.727
451.77	19.108
452.12	18.481
452.47	19.253
452.83	20.141
453.18	18.786
453.53	18.900
453.88	19.854
454.23	19.668
454.58	19.647
454.93	20.812
455.28	19.238
455.63	20.707
455.98	20.866
456.34	19.796
456.69	19.695
457.04	20.983
457.39	19.380
457.74	19.831
458.09	19.247
458.44	19.836
458.79	19.328
459.14	20.137
459.49	20.716
459.84	19.515
460.19	19.721
460.54	20.110
460.89	20.909
461.24	20.497
461.59	20.606
461.94	20.377
462.29	20.808
462.64	21.462
462.99	21.124
463.34	20.723
463.69	19.498
464.04	20.218
464.39	19.648
464.74	20.368
465.09	20.212
465.44	20.369
465.79	19.615
466.14	20.582
466.49	20.184
466.84	21.416
467.19	20.713
467.54	20.754
467.89	20.341
468.24	21.107
468.59	21.333
468.94	21.206
469.29	21.443
469.64	21.599
469.99	21.934
470.34	20.751
470.68	21.924
471.03	22.151
471.38	21.327
471.73	22.339
472.08	21.642
472.43	21.141
472.78	20.699
473.13	21.497
473.48	21.694
473.83	21.108
474.17	21.826
474.52	20.996
474.87	21.697
475.22	22.087
475.57	21.400
475.92	21.338
476.27	21.129
476.61	20.949
476.96	21.417
477.31	21.687
477.66	22.022
478.01	21.954
478.36	21.786
478.70	21.207
479.05	22.747
479.40	22.046
479.75	22.106
480.10	21.761
480.45	21.250
480.79	21.903
481.14	21.977
481.49	21.872
481.84	21.815
482.19	21.469
482.53	21.295
482.88	21.814
483.23	22.025
483.58	22.406
483.92	21.684
484.27	20.875
484.62	21.784
484.97	21.186
485.31	21.315
485.66	19.694
486.01	19.407
486.36	18.912
486.70	18.937
487.05	19.075
487.40	19.442
487.75	20.451
488.09	20.272
488.44	20.186
488.79	21.479
489.13	21.995
489.48	22.061
489.83	22.197
490.17	22.966
490.52	22.956
490.87	21.795
491.22	23.066
491.56	22.676
491.91	22.801
492.26	23.140
492.60	23.752
492.95	23.119
493.30	22.374
493.64	22.348
493.99	23.140
494.34	22.573
494.68	23.048
495.03	21.995
495.37	23.356
495.72	23.372
496.07	23.707
496.41	22.783
496.76	22.110
497.11	22.636
497.45	22.912
497.80	23.158
498.14	23.746
498.49	23.616
498.84	23.453
499.18	23.745
499.53	24.008
499.87	23.006
500.22	23.788
500.56	23.500
500.91	23.695
501.26	23.035
501.60	22.676
501.95	23.144
502.29	22.906
502.64	24.035
502.98	23.187
503.33	23.919
503.67	23.036
504.02	24.389
504.36	23.899
504.71	23.838
505.06	23.352
505.40	24.162
505.75	24.794
506.09	24.328
506.44	24.281
506.78	25.000
507.13	23.940
507.47	23.812
507.82	24.038
508.16	23.877
508.51	24.502
508.85	24.908
509.19	23.842
509.54	24.933
509.88	24.380
510.23	24.852
510.57	25.334
510.92	23.667
511.26	24.386
511.61	25.413
511.95	24.932
512.30	24.778
512.64	25.598
512.98	25.098
513.33	25.797
513.67	25.640
514.02	25.973
514.36	26.514
514.70	26.107
515.05	26.322
515.39	26.505
515.74	26.407
516.08	26.240
516.42	26.502
516.77	26.273
517.11	26.944
517.46	27.289
517.80	26.162
518.14	26.271
518.49	26.623
518.83	26.367
519.17	26.865
519.52	26.229
519.86	26.050
520.20	26.671
520.55	26.266
520.89	26.976
521.23	25.712
521.58	27.760
521.92	27.628
522.26	27.651
522.61	27.727
522.95	29.536
523.29	27.827
523.64	27.891
523.98	27.220
524.32	26.482
524.66	28.681
525.01	27.662
525.35	27.803
525.69	27.340
526.04	27.976
526.38	29.313
526.72	27.273
527.06	27.626
527.41	28.958
527.75	28.418
528.09	27.708
528.43	29.372
528.78	27.261
529.12	26.710
529.46	26.446
529.80	28.056
530.15	27.921
530.49	27.609
530.83	28.933
531.17	27.267
531.51	28.865
531.86	27.804
532.20	28.740
532.54	27.706
532.88	27.447
533.22	27.755
533.57	27.720
533.91	28.003
534.25	27.930
534.59	26.555
534.93	26.998
535.27	26.967
535.62	26.960
535.96	27.202
536.30	28.760
536.64	28.325
536.98	28.223
537.32	29.090
537.66	28.612
538.01	28.951
538.35	27.947
538.69	27.696
539.03	26.999
539.37	28.062
539.71	28.085
540.05	27.902
540.39	27.909
540.73	27.894
541.07	28.177
541.42	28.898
541.76	28.768
542.10	28.768
542.44	27.867
542.78	26.979
543.12	28.228
543.46	28.720
543.80	27.967
544.14	26.769
544.48	27.115
544.82	26.999
545.16	28.074
545.50	28.371
545.84	29.462
546.18	29.504
546.52	28.623
546.86	27.894
547.20	28.398
547.54	26.926
547.88	27.989
548.22	26.824
548.56	27.770
548.90	28.571
549.24	28.306
549.58	29.267
549.92	27.949
550.26	28.132
550.60	28.773
550.94	28.305
551.28	28.903
551.62	29.462
551.96	29.248
552.30	27.851
552.64	28.138
552.98	28.411
553.32	28.388
553.66	28.229
554.00	28.321
554.34	29.025
554.68	27.729
555.02	28.571
555.36	28.048
555.69	28.645
556.03	28.051
556.37	29.181
556.71	28.375
557.05	29.232
557.39	27.955
557.73	28.186
558.07	30.618
558.41	29.556
558.75	29.930
559.08	29.787
559.42	29.841
559.76	30.104
560.10	29.664
560.44	28.146
560.78	29.091
561.12	29.690
561.45	29.515
561.79	29.482
562.13	27.963
562.47	28.129
562.81	28.170
563.15	29.408
563.48	28.642
563.82	28.071
564.16	28.412
564.50	27.365
564.84	27.979
565.17	28.638
565.51	28.689
565.85	28.326
566.19	28.581
566.52	28.686
566.86	27.828
567.20	27.086
567.54	27.007
567.88	27.417
568.21	26.753
568.55	26.141
568.89	26.027
569.23	24.651
569.56	24.431
569.90	24.198
570.24	23.186
570.57	23.345
570.91	23.980
571.25	22.854
571.59	22.361
571.92	21.807
572.26	21.830
572.60	22.171
572.93	22.215
573.27	22.414
573.61	22.076
573.95	21.764
574.28	21.372
574.62	21.078
574.96	21.042
575.29	20.772
575.63	20.627
575.97	20.873
576.30	21.310
576.64	21.483
576.98	21.493
577.31	21.381
577.65	20.757
577.98	21.048
578.32	20.480
578.66	20.030
578.99	20.239
579.33	21.084
579.67	21.373
580.00	21.165
580.34	20.970
580.67	20.697
581.01	20.917
581.35	20.758
581.68	20.035
582.02	19.618
582.35	20.074
582.69	20.218
583.02	20.423
583.36	20.416
583.70	21.184
584.03	21.796
584.37	21.739
584.70	21.676
585.04	20.622
585.37	20.811
585.71	20.711
586.04	21.155
586.38	20.672
586.72	21.607
587.05	21.519
587.39	21.582
587.72	22.007
588.06	21.312
588.39	21.675
588.73	22.039
589.06	22.472
589.40	22.226
589.73	23.111
590.07	22.621
590.40	23.297
590.73	23.723
591.07	23.198
591.40	24.132
591.74	24.344
592.07	24.304
592.41	24.514
592.74	23.417
593.08	22.913
593.41	22.175
593.75	21.524
594.08	21.524
594.41	22.489
594.75	22.443
595.08	22.474
595.42	21.899
595.75	22.606
596.09	22.596
596.42	23.191
596.75	24.290
597.09	23.554
597.42	23.397
597.75	23.775
598.09	23.993
598.42	23.195
598.76	23.252
599.09	22.796
599.42	22.698
599.76	22.761
600.09	23.492
600.42	22.403
600.76	22.325
601.09	22.214
601.42	22.914
601.76	23.025
602.09	22.566
602.42	23.589
602.76	23.684
603.09	23.173
603.42	23.788
603.76	22.137
604.09	22.924
604.42	24.281
604.76	24.700
605.09	23.537
605.42	23.296
605.75	23.074
606.09	22.887
606.42	22.977
606.75	23.550
607.09	23.297
607.42	23.350
607.75	23.046
608.08	22.776
608.42	23.207
608.75	24.386
609.08	24.763
609.41	24.264
609.75	24.194
610.08	24.064
610.41	24.251
610.74	24.183
611.07	24.444
611.41	24.442
611.74	26.333
612.07	25.268
612.40	25.383
612.73	24.915
613.07	25.422
613.40	25.055
613.73	25.070
614.06	24.708
614.39	24.873
614.72	24.930
615.06	24.972
615.39	25.109
615.72	24.543
616.05	24.972
616.38	24.330
616.71	25.688
617.05	25.818
617.38	26.964
617.71	26.101
618.04	27.048
618.37	27.364
618.70	26.403
619.03	27.500
619.36	26.700
619.69	28.052
620.03	28.342
620.36	28.112
620.69	27.409
621.02	27.829
621.35	29.378
621.68	29.422
622.01	30.083
622.34	28.731
622.67	28.233
623.00	29.096
623.33	28.277
623.66	28.347
623.99	28.593
624.32	29.202
624.65	27.293
624.99	28.518
625.32	27.900
625.65	29.537
625.98	30.056
626.31	28.013
626.64	30.069
626.97	31.326
627.30	29.947
627.63	30.936
627.96	30.458
628.29	30.897
628.62	31.268
628.95	31.162
629.28	32.964
629.61	30.508
629.94	32.160
630.26	31.522
630.59	32.050
630.92	32.923
631.25	30.667
631.58	34.141
631.91	32.346
632.24	32.569
632.57	34.659
632.90	33.452
633.23	33.882
633.56	34.761
633.89	34.772
634.22	34.444
634.55	34.816
634.88	35.249
635.20	34.872
635.53	35.467
635.86	37.581
636.19	35.188
636.52	34.056
636.85	32.010
637.18	33.333
637.51	33.082
637.83	33.903
638.16	36.562
638.49	35.286
638.82	36.053
639.15	35.142
639.48	35.213
639.81	38.215
640.13	36.797
640.46	35.277
640.79	35.935
641.12	36.189
641.45	38.739
641.77	37.037
642.10	37.915
642.43	38.907
642.76	39.109
643.09	38.611
643.41	37.379
643.74	39.044
644.07	40.230
644.40	38.851
644.73	38.704
645.05	40.101
645.38	40.212
645.71	37.943
646.04	39.318
646.36	42.021
646.69	40.288
647.02	38.374
647.35	40.485
647.67	39.305
648.00	40.299
648.33	39.420
648.66	37.966
648.98	35.846
649.31	36.364
649.64	37.363
649.96	32.091
650.29	37.138
650.62	37.778
650.94	36.481
651.27	39.292
651.60	39.459
651.92	36.538
652.25	35.879
652.58	34.833
652.90	36.364
653.23	34.286
653.56	35.533
653.88	35.567
654.21	35.377
654.54	37.012
654.86	37.691
655.19	32.602
655.52	27.554
655.84	19.507
656.17	20.974
656.49	27.584
656.82	28.101
657.15	21.462
657.47	16.132
657.80	12.057
658.13	12.041
658.45	19.137
658.78	19.647
659.10	19.557
659.43	20.723
659.75	21.608
660.08	23.655
660.41	27.988
660.73	32.597
661.06	38.475
661.38	37.182
661.71	37.988
662.03	39.700
662.36	40.879
662.68	36.504
663.01	42.576
663.33	40.371
663.66	40.233
663.98	40.233
664.31	40.299
664.63	37.327
664.96	36.304
665.28	38.411
665.61	38.312
665.93	41.739
666.26	40.564
666.58	41.611
666.91	41.647
667.23	40.802
667.56	41.469
667.88	40.048
668.21	41.766
668.53	41.844
668.86	41.509
669.18	41.509
669.50	38.741
669.83	36.744
670.15	44.522
670.48	38.517
670.80	38.018
671.13	38.255
671.45	38.813
671.77	41.631
672.10	39.010
672.42	36.142
672.75	33.748
673.07	35.957
673.39	35.046
673.72	35.306
674.04	38.333
674.37	37.288
674.69	38.330
675.01	38.667
675.34	39.865
675.66	40.046
675.98	40.798
676.31	40.367
676.63	40.855
676.95	36.136
677.28	41.882
677.60	39.036
677.92	38.991
678.25	36.324
678.57	40.260
678.89	39.076
679.22	38.926
679.54	34.739
679.86	33.201
680.18	33.981
680.51	34.659
680.83	35.785
681.15	36.200
681.48	39.549
681.80	40.083
682.12	35.685
682.44	33.473
682.77	39.073
683.09	37.071
683.41	40.000
683.73	36.636
684.06	36.283
684.38	36.989
684.70	35.294
685.02	34.232
685.34	33.202
685.67	32.458
685.99	34.539
686.31	33.451
686.63	35.993
686.96	32.700
687.28	32.727
687.60	32.129
687.92	37.778
688.24	36.694
688.56	35.153
688.89	37.054
689.21	36.667
689.53	35.499
689.85	35.349
690.17	36.161
690.49	39.480
690.82	37.621
691.14	35.238
691.46	37.383
691.78	35.135
692.10	37.204
692.42	35.714
692.74	39.103
693.06	34.910
693.39	34.842
693.71	33.258
694.03	31.409
694.35	37.850
694.67	38.131
694.99	39.164
695.31	39.687
695.63	36.250
695.95	36.364
696.27	37.047
696.59	38.889
696.91	36.134
697.23	33.419
697.56	37.129
697.88	34.409
698.20	35.080
698.52	34.353
698.84	32.536
699.16	36.250
699.48	36.591
699.80	35.484
700.12	37.466
700.44	37.815
700.76	39.244
701.08	37.879
701.40	39.458
701.72	43.519
702.04	40.264
702.36	40.134
702.68	40.541
703.00	38.788
703.32	38.123
703.64	36.441
703.96	38.261
704.28	34.356
704.60	40.635
704.91	36.278
705.23	40.199
705.55	46.290
705.87	45.487
706.19	44.444
706.51	45.361
706.83	41.479
707.15	37.072
707.47	36.975
707.79	34.115
708.11	38.000
708.43	35.000
708.74	35.659
709.06	41.127
709.38	39.755
709.70	37.574
710.02	41.083
710.34	39.938
710.66	38.141
710.98	37.417
711.29	40.328
711.61	38.305
711.93	36.808
712.25	38.832
712.57	41.026
712.89	41.791
713.20	42.907
713.52	41.812
713.84	40.273
714.16	34.708
714.48	39.355
714.80	39.103
715.11	40.426
715.43	33.856
715.75	34.333
716.07	36.545
716.39	36.242
716.70	37.638
717.02	38.550
717.34	42.105
717.66	40.265
717.97	45.217
718.29	41.841
718.61	38.583
718.93	36.822
719.24	43.346
719.56	41.767
719.88	35.739
720.20	39.015
720.51	38.314
720.83	38.610
721.15	39.496
721.46	35.484
721.78	33.202
722.10	36.059
722.42	34.440
722.73	39.184
723.05	45.714
723.37	41.949
723.68	43.243
724.00	42.735
724.32	37.778
724.63	33.636
724.95	36.245
725.27	44.700
725.58	34.322
725.90	34.524
726.22	38.224
726.53	40.339
726.85	36.330
727.16	37.736
727.48	34.818
727.80	36.437
728.11	33.475
728.43	30.588
728.74	32.661
729.06	38.800
729.38	41.353
729.69	33.068
730.01	31.538
730.32	37.687
730.64	35.336
730.96	35.849
731.27	34.333
731.59	32.542
731.90	30.573
732.22	34.069
732.53	36.545
732.85	33.688
733.16	37.037
733.48	31.655
733.80	35.507
734.11	34.237
734.43	32.646
734.74	29.394
735.06	27.362
735.37	27.492
735.69	36.700
736.00	28.571
736.32	30.872
736.63	35.915
736.95	32.765
737.26	33.808
737.58	31.879
737.89	35.897
738.21	34.962
738.52	39.918
738.83	35.371
739.15	32.314
739.46	34.252
739.78	31.136
740.09	32.026
740.41	32.609
740.72	33.071
741.04	35.628
741.35	38.298
741.66	33.175
741.98	38.776
742.29	35.644
742.61	38.743
742.92	30.806
743.23	33.333
743.55	38.462
743.86	38.756
744.18	37.799
744.49	34.043
744.80	38.043
745.12	44.920
745.43	37.561
745.74	39.583
746.06	40.976
746.37	40.838
746.68	37.915
747.00	45.745
747.31	42.289
747.62	37.864
747.94	37.799
748.25	39.109
748.56	43.716
748.88	43.455
749.19	42.021
749.50	41.379
749.82	33.019
750.13	38.991
750.44	35.714
750.75	37.313
751.07	37.226
751.38	37.931
751.69	31.373
752.01	37.597
752.32	36.255
752.63	35.573
752.94	37.069
753.26	39.331
753.57	36.199
753.88	32.301
754.19	37.083
754.51	31.405
754.82	36.842
755.13	37.500
755.44	37.097
755.75	38.281
756.07	34.241
756.38	29.057
756.69	31.801
757.00	33.333
757.31	31.373
757.63	29.573
757.94	31.111
758.25	27.671
758.56	27.660
758.87	27.762
759.18	30.530
759.50	27.636
759.81	36.455
760.12	26.452
760.43	32.727
760.74	31.173
761.05	27.077
761.36	28.693
761.67	36.061
761.99	32.313
762.30	27.636
762.61	37.549
762.92	36.199
763.23	31.532
763.54	34.579
763.85	26.695
764.16	29.461
764.47	31.048
764.78	32.967
765.10	31.987
765.41	27.129
765.72	28.889
766.03	28.571
766.34	29.927
766.65	32.669
766.96	32.828
767.27	30.319
767.58	33.333
767.89	39.716
768.20	26.136
768.51	34.066
768.82	33.990
769.13	28.111
769.44	34.764
769.75	22.831
770.06	34.052
770.37	33.173
770.68	36.548
770.99	30.317
771.30	32.843
771.61	31.222
771.92	30.603
772.23	38.424
772.54	38.172
772.85	37.654
773.16	40.449
773.47	39.216
773.78	42.484
774.09	30.539
774.39	32.000
774.70	35.032
775.01	45.517
775.32	45.714
775.63	32.231
775.94	39.695
776.25	40.157
776.56	45.000
776.87	44.231
777.18	40.171
777.48	33.621
777.79	27.826
778.10	37.143
778.41	40.541
778.72	42.857
779.03	35.338
779.34	40.426
779.65	35.616
779.95	28.767
780.26	37.931
780.57	29.268
780.88	39.370
781.19	29.310
781.50	36.434
781.80	35.503
782.11	31.447
782.42	38.462
782.73	33.094
783.04	36.296
783.34	27.778
783.65	15.385
783.96	36.885
784.27	39.310
784.57	29.268
784.88	39.844
785.19	39.000
785.50	39.000
785.81	42.241
786.11	29.310
786.42	37.864
786.73	41.818
787.04	26.531
787.34	36.607
787.65	37.143
787.96	29.204
788.26	32.727
788.57	30.769
788.88	38.281
789.19	38.889
789.49	34.783
789.80	33.673
790.11	29.293
790.41	31.818
790.72	34.783
791.03	27.273
791.33	38.750
791.64	43.750
791.95	39.535
792.25	41.489
792.56	26.966
792.87	42.466
793.17	30.435
793.48	33.333
793.79	31.250
794.09	46.250
794.40	27.358
794.70	30.097
795.01	26.829
795.32	26.496
795.62	22.857
795.93	24.510
796.23	28.302
796.54	51.042
796.85	35.294
797.15	21.127
797.46	38.889
797.76	43.939
798.07	27.907
798.37	35.526
798.68	25.758
798.99	28.395
799.29	37.143
799.60	28.986
799.90	42.667
800.21	19.672
800.51	21.538
800.82	25.424
801.12	46.377
801.43	39.344
801.73	65.079
802.04	24.000
802.34	37.313
802.65	30.769
802.95	17.857
803.26	28.846
803.56	35.294
803.87	-2.174
804.17	41.333
804.48	58.730
804.78	44.444
805.09	19.565
805.39	40.000
805.70	38.889
806.00	8.772
806.30	21.127
806.61	35.714
806.91	20.833
807.22	30.263
807.52	28.000
807.83	23.636
808.13	20.833
808.43	33.824
808.74	32.836
809.04	8.475
809.35	28.846
809.65	37.500
809.95	-16.216
810.26	25.000
810.56	32.877
810.86	35.714
811.17	44.000
811.47	20.408
811.77	28.947
812.08	34.091
812.38	39.623
812.69	32.500
812.99	51.515
813.29	60.526
813.59	-2.857
813.90	4.545
814.20	23.077
814.50	28.846
814.81	33.962
815.11	25.532
815.41	40.678
815.72	28.571
816.02	21.569
816.32	18.750
816.62	24.390
816.93	13.514
817.23	31.429
817.53	25.000
817.84	26.087
818.14	34.615
818.44	7.895
818.74	39.130
819.04	15.000
819.35	35.135
819.65	44.118
819.95	50.000
820.25	21.429
820.56	55.000
820.86	37.931
821.16	45.000
821.46	34.043
821.76	35.000
822.07	51.163
822.37	-18.919
822.67	18.750
822.97	35.714
823.27	-3.571
823.57	40.000
823.88	7.407
824.18	50.000
824.48	38.235
824.78	38.710
825.08	52.174
825.38	15.152
825.69	8.333
825.99	13.158
826.29	13.889
826.59	-20.000
826.89	-9.524
827.19	36.957
827.49	27.500
827.79	37.143
828.09	50.000
828.39	33.333
828.70	45.946
829.00	21.429
829.30	-4.762
829.60	23.333
829.90	28.125
830.20	10.526
830.50	18.519
830.80	0.000
831.10	18.182
831.40	18.182
831.70	38.710
832.00	57.143
832.30	19.048
832.60	41.667
832.90	13.793
833.20	20.000
833.50	27.273
833.80	3.704
834.10	19.231
834.40	40.625
834.70	66.667
835.00	-15.789
835.30	88.462
835.60	120.000
835.90	19.355
836.20	36.364
836.50	28.571
836.80	11.538
837.10	50.000
837.40	-266.667
837.70	50.000
838.00	54.545
838.30	52.174
838.60	61.538
838.90	22.727
839.19	39.286
839.49	26.667
839.79	53.846
840.09	16.667
840.39	50.000
840.69	17.857
840.99	19.231
841.29	21.053
841.59	-10.000
841.88	18.182
842.18	60.000
842.48	31.250
842.78	6.667
843.08	33.333
843.38	-80.000
843.68	4.348
843.97	66.667
844.27	-80.000
844.57	15.000
844.87	66.667
845.17	9.524
845.47	66.667
845.76	23.810
846.06	17.647
846.36	60.000
846.66	-50.000
846.96	-26.667
847.25	-112.500
847.55	57.143
847.85	12.500
848.15	27.273
848.44	-200.000
848.74	5.000
849.04	59.259
849.34	27.273
849.63	-100.000
849.93	-20.000
850.23	22.222
850.53	190.000
850.82	-38.462
851.12	66.667
851.42	6.667
851.71	23.077
852.01	-28.571
852.31	-350.000
852.61	63.636
852.90	0.000
853.20	26.316
853.50	-8.333
853.79	-8.696
854.09	83.333
854.39	5.263
854.68	8.333
854.98	12.903
855.28	46.154
855.57	-5.000
855.87	16.667
856.17	7.407
856.46	0.000
856.76	-13.333
857.05	33.333
857.35	56.000
857.65	44.444
857.94	92.308
858.24	37.931
858.53	33.333
858.83	48.148
859.13	40.909
859.42	-21.739
859.72	150.000
860.01	-200.000
860.31	12.000
860.60	52.381
860.90	-200.000
861.20	40.000
861.49	-900.000
861.79	40.000
862.08	-5.000
862.38	0.000
862.67	-260.000
862.97	-33.333
863.26	33.333
863.56	27.778
863.85	-366.667
864.15	38.889
864.44	-20.000
864.74	14.286
865.03	-75.000
865.33	-160.000
865.62	100.000
865.92	8.333
866.21	-50.000
866.51	56.250
866.80	0.000
867.10	-650.000
867.39	33.333
867.69	0.000
867.98	0.000
868.27	-66.667
868.57	-40.000
868.86	11.111
869.16	-107.692
869.45	46.667
869.75	-800.000
870.04	0.000
870.33	-142.857
870.63	47.619
870.92	100.000
871.22	0.000
871.51	900.000
871.80	122.222
872.10	366.667
>>>>>End Processed Spectral Data<<<<<
