SpectraSuite Data File
++++++++++++++++++++++++++++++++++++
Date: Fri May 15 20:27:46 PDT 2015
User: schluterlab
Dark Spectrum Present: Yes
Reference Spectrum Present: Yes
Number of Sampled Component Spectra: 1
Spectrometers: USB2E3373
Integration Time (usec): 3000 (USB2E3373)
Spectra Averaged: 3 (USB2E3373)
Boxcar Smoothing: 0 (USB2E3373)
Correct for Electrical Dark: No (USB2E3373)
Strobe/Lamp Enabled: No (USB2E3373)
Correct for Detector Non-linearity: No (USB2E3373)
Correct for Stray Light: No (USB2E3373)
Number of Pixels in Processed Spectrum: 2048
>>>>>Begin Processed Spectral Data<<<<<
178.53	0.000
178.91	0.000
179.29	162.500
179.67	-800.000
180.04	-28.571
180.42	50.000
180.80	-700.000
181.18	-0.000
181.56	50.000
181.94	-350.000
182.31	1300.000
182.69	-40.000
183.07	-300.000
183.45	260.000
183.83	33.333
184.20	18.182
184.58	77.778
184.96	-125.000
185.34	66.667
185.72	-850.000
186.09	7.692
186.47	-600.000
186.85	33.333
187.23	77.778
187.61	400.000
187.98	-466.667
188.36	-11.111
188.74	166.667
189.12	76.471
189.49	44.444
189.87	0.000
190.25	64.286
190.63	100.000
191.00	-133.333
191.38	10.526
191.76	500.000
192.14	50.000
192.51	100.000
192.89	-111.111
193.27	-71.429
193.65	216.667
194.02	100.000
194.40	30.000
194.78	-100.000
195.15	-50.000
195.53	-50.000
195.91	-75.000
196.29	50.000
196.66	69.231
197.04	42.857
197.42	11.111
197.79	-266.667
198.17	-76.923
198.55	2400.000
198.92	-366.667
199.30	-600.000
199.68	-180.000
200.05	-266.667
200.43	0.000
200.81	0.000
201.18	-33.333
201.56	700.000
201.94	-200.000
202.31	166.667
202.69	-160.000
203.07	75.000
203.44	600.000
203.82	0.000
204.19	28.571
204.57	-166.667
204.95	12.500
205.32	30.000
205.70	14.286
206.08	-150.000
206.45	255.556
206.83	85.714
207.20	-57.143
207.58	-600.000
207.96	-100.000
208.33	-40.000
208.71	-125.000
209.08	-166.667
209.46	200.000
209.84	-120.000
210.21	-1000.000
210.59	-28.571
210.96	-66.667
211.34	300.000
211.71	40.000
212.09	0.000
212.46	-1200.000
212.84	0.000
213.22	0.000
213.59	650.000
213.97	15.385
214.34	-9.091
214.72	-250.000
215.09	425.000
215.47	-7.692
215.84	-18.182
216.22	33.333
216.59	50.000
216.97	400.000
217.34	75.000
217.72	-220.000
218.09	-37.500
218.47	112.500
218.84	-400.000
219.22	0.000
219.59	-160.000
219.97	133.333
220.34	225.000
220.72	14.286
221.09	-300.000
221.47	0.000
221.84	-500.000
222.22	-350.000
222.59	45.455
222.97	25.000
223.34	100.000
223.72	0.000
224.09	14.286
224.46	14.286
224.84	533.333
225.21	10.000
225.59	40.000
225.96	-400.000
226.34	200.000
226.71	14.286
227.08	-183.333
227.46	-25.000
227.83	-450.000
228.21	33.333
228.58	-18.182
228.95	37.500
229.33	70.000
229.70	12.500
230.08	-25.000
230.45	-185.714
230.82	71.429
231.20	-20.000
231.57	85.714
231.95	100.000
232.32	-100.000
232.69	92.857
233.07	100.000
233.44	40.000
233.81	40.000
234.19	100.000
234.56	-47.059
234.93	-300.000
235.31	100.000
235.68	20.000
236.05	-38.462
236.43	5.000
236.80	35.294
237.17	31.250
237.55	40.000
237.92	18.519
238.29	30.556
238.67	23.333
239.04	35.294
239.41	26.829
239.79	56.667
240.16	29.268
240.53	42.105
240.91	32.609
241.28	36.508
241.65	41.071
242.02	39.726
242.40	43.333
242.77	37.288
243.14	51.515
243.51	45.000
243.89	49.425
244.26	34.483
244.63	38.095
245.00	50.515
245.38	41.237
245.75	35.955
246.12	37.069
246.49	52.893
246.87	40.385
247.24	46.218
247.61	38.596
247.98	46.341
248.36	40.000
248.73	39.474
249.10	35.065
249.47	44.304
249.84	45.098
250.22	45.294
250.59	39.869
250.96	39.906
251.33	35.465
251.70	45.294
252.08	41.117
252.45	38.614
252.82	50.754
253.19	47.005
253.56	42.991
253.94	39.640
254.31	42.609
254.68	45.614
255.05	42.126
255.42	44.105
255.79	43.629
256.16	42.412
256.54	44.030
256.91	44.106
257.28	40.520
257.65	42.697
258.02	40.780
258.39	40.741
258.76	46.154
259.14	44.518
259.51	40.129
259.88	44.674
260.25	44.771
260.62	41.319
260.99	43.390
261.36	42.466
261.73	43.987
262.10	42.857
262.47	42.638
262.85	45.455
263.22	46.154
263.59	42.056
263.96	47.826
264.33	44.848
264.70	44.345
265.07	40.774
265.44	44.193
265.81	40.960
266.18	43.169
266.55	40.874
266.92	45.855
267.29	42.559
267.66	43.990
268.03	44.503
268.40	45.692
268.77	43.850
269.14	42.926
269.51	45.501
269.88	41.147
270.25	43.112
270.62	41.463
270.99	42.455
271.36	42.298
271.73	42.254
272.10	43.066
272.47	42.790
272.84	43.812
273.21	42.691
273.58	46.024
273.95	41.190
274.32	40.185
274.69	37.783
275.06	43.973
275.43	42.404
275.80	42.384
276.17	40.920
276.54	38.116
276.91	38.158
277.28	41.703
277.65	41.322
278.02	40.213
278.39	42.232
278.76	42.767
279.13	36.307
279.50	41.176
279.87	42.117
280.23	39.355
280.60	41.910
280.97	44.040
281.34	39.423
281.71	42.710
282.08	42.740
282.45	39.530
282.82	37.066
283.19	42.360
283.56	43.545
283.92	39.089
284.29	39.615
284.66	40.116
285.03	38.703
285.40	36.673
285.77	36.731
286.14	42.238
286.51	40.775
286.87	37.660
287.24	40.147
287.61	38.095
287.98	40.175
288.35	40.035
288.72	39.580
289.08	38.021
289.45	38.489
289.82	37.587
290.19	37.201
290.56	35.334
290.93	35.859
291.29	34.669
291.66	37.638
292.03	36.523
292.40	35.645
292.77	33.493
293.13	32.468
293.50	34.294
293.87	34.504
294.24	33.385
294.60	33.532
294.97	34.821
295.34	32.975
295.71	33.979
296.08	33.483
296.44	31.579
296.81	31.667
297.18	33.623
297.55	31.301
297.91	32.055
298.28	33.245
298.65	30.258
299.02	31.536
299.38	30.643
299.75	32.000
300.12	30.759
300.48	30.567
300.85	29.024
301.22	30.909
301.59	30.658
301.95	31.519
302.32	31.647
302.69	31.095
303.05	31.559
303.42	31.009
303.79	31.075
304.15	30.705
304.52	29.964
304.89	29.591
305.25	29.661
305.62	29.522
305.99	29.240
306.35	29.827
306.72	30.371
307.09	32.497
307.45	29.736
307.82	29.282
308.19	31.127
308.55	29.771
308.92	31.699
309.29	29.497
309.65	30.893
310.02	30.583
310.38	30.845
310.75	32.568
311.12	30.893
311.48	29.799
311.85	31.099
312.22	31.646
312.58	32.590
312.95	30.203
313.31	31.781
313.68	31.309
314.05	31.224
314.41	33.711
314.78	32.887
315.14	33.607
315.51	34.161
315.87	33.607
316.24	34.681
316.61	33.071
316.97	34.028
317.34	33.008
317.70	33.556
318.07	33.365
318.43	34.804
318.80	35.701
319.16	36.035
319.53	36.182
319.89	35.728
320.26	37.045
320.62	36.209
320.99	35.282
321.35	36.485
321.72	37.383
322.08	39.074
322.45	38.274
322.81	37.819
323.18	37.095
323.54	37.741
323.91	36.806
324.27	37.891
324.64	40.637
325.00	39.325
325.37	39.669
325.73	38.713
326.10	40.327
326.46	41.435
326.83	41.032
327.19	40.802
327.56	41.268
327.92	41.373
328.29	41.071
328.65	41.792
329.01	41.912
329.38	42.488
329.74	42.493
330.11	41.335
330.47	40.631
330.84	43.462
331.20	44.582
331.56	42.037
331.93	42.100
332.29	43.630
332.66	42.715
333.02	43.309
333.38	42.163
333.75	43.407
334.11	41.540
334.48	43.336
334.84	42.766
335.20	44.282
335.57	41.614
335.93	42.367
336.29	43.370
336.66	43.415
337.02	43.401
337.38	44.444
337.75	44.000
338.11	44.725
338.47	43.704
338.84	43.346
339.20	43.601
339.56	44.679
339.93	44.315
340.29	43.303
340.65	44.355
341.02	43.972
341.38	42.920
341.74	43.375
342.11	41.594
342.47	44.039
342.83	42.561
343.20	41.986
343.56	44.522
343.92	43.224
344.28	43.809
344.65	44.301
345.01	43.647
345.37	42.220
345.73	45.021
346.10	45.557
346.46	43.314
346.82	43.781
347.19	42.643
347.55	44.027
347.91	42.961
348.27	42.118
348.63	42.760
349.00	42.166
349.36	42.477
349.72	43.615
350.08	44.016
350.45	42.378
350.81	43.189
351.17	42.752
351.53	43.347
351.89	42.940
352.26	42.800
352.62	43.952
352.98	42.731
353.34	41.465
353.70	45.388
354.07	42.016
354.43	42.194
354.79	42.444
355.15	42.619
355.51	42.563
355.87	44.417
356.24	42.414
356.60	42.441
356.96	43.254
357.32	41.773
357.68	42.377
358.04	42.246
358.40	42.846
358.77	43.142
359.13	43.555
359.49	42.604
359.85	42.668
360.21	44.099
360.57	43.076
360.93	42.965
361.29	42.900
361.66	43.730
362.02	44.091
362.38	43.945
362.74	43.376
363.10	45.523
363.46	43.069
363.82	44.177
364.18	43.542
364.54	43.897
364.90	43.584
365.26	44.323
365.62	45.620
365.98	44.208
366.35	44.428
366.71	44.420
367.07	44.557
367.43	44.644
367.79	45.018
368.15	45.226
368.51	46.322
368.87	46.949
369.23	43.827
369.59	45.554
369.95	46.114
370.31	47.399
370.67	45.672
371.03	45.482
371.39	44.858
371.75	45.861
372.11	46.719
372.47	47.855
372.83	46.700
373.19	46.291
373.55	47.004
373.91	47.228
374.27	47.626
374.63	46.375
374.99	48.652
375.35	48.468
375.71	49.091
376.07	48.385
376.42	48.435
376.78	48.725
377.14	47.529
377.50	49.734
377.86	49.531
378.22	48.692
378.58	50.192
378.94	49.527
379.30	50.717
379.66	50.846
380.02	50.399
380.38	50.456
380.74	50.688
381.09	51.718
381.45	51.009
381.81	51.326
382.17	51.396
382.53	51.593
382.89	53.923
383.25	52.769
383.61	52.500
383.97	52.381
384.32	52.533
384.68	52.879
385.04	53.002
385.40	53.018
385.76	55.472
386.12	56.080
386.48	55.172
386.83	55.802
387.19	55.372
387.55	56.211
387.91	55.685
388.27	55.433
388.62	56.702
388.98	56.415
389.34	56.902
389.70	56.619
390.06	56.010
390.42	56.541
390.77	58.339
391.13	56.305
391.49	58.021
391.85	59.064
392.20	57.439
392.56	58.805
392.92	57.898
393.28	58.491
393.64	58.679
393.99	58.307
394.35	59.266
394.71	58.748
395.07	57.134
395.42	58.956
395.78	59.609
396.14	59.773
396.50	60.431
396.85	60.013
397.21	59.461
397.57	60.251
397.92	59.916
398.28	60.287
398.64	58.494
399.00	60.722
399.35	59.029
399.71	59.506
400.07	61.185
400.42	59.547
400.78	60.747
401.14	59.891
401.49	60.155
401.85	59.110
402.21	60.060
402.57	58.875
402.92	59.222
403.28	59.962
403.63	60.908
403.99	59.630
404.35	61.087
404.70	59.524
405.06	59.694
405.42	60.970
405.77	59.035
406.13	61.234
406.49	59.147
406.84	61.002
407.20	59.542
407.55	59.047
407.91	59.626
408.27	60.676
408.62	60.246
408.98	59.458
409.34	60.285
409.69	59.884
410.05	59.113
410.40	59.259
410.76	60.615
411.11	61.000
411.47	59.566
411.83	60.013
412.18	60.489
412.54	58.614
412.89	58.621
413.25	59.567
413.60	59.503
413.96	58.773
414.31	59.451
414.67	58.563
415.03	58.788
415.38	59.138
415.74	59.349
416.09	59.046
416.45	60.297
416.80	60.013
417.16	59.461
417.51	58.827
417.87	58.931
418.22	61.075
418.58	59.799
418.93	61.818
419.29	59.219
419.64	60.791
420.00	61.146
420.35	58.985
420.71	60.510
421.06	59.177
421.42	59.916
421.77	59.653
422.12	59.705
422.48	59.339
422.83	59.107
423.19	60.214
423.54	59.965
423.90	58.893
424.25	60.390
424.61	59.731
424.96	59.408
425.31	61.179
425.67	60.211
426.02	61.366
426.38	60.113
426.73	60.593
427.09	60.380
427.44	60.294
427.79	60.460
428.15	60.498
428.50	60.690
428.85	59.889
429.21	60.724
429.56	60.270
429.92	59.425
430.27	59.398
430.62	60.324
430.98	60.191
431.33	61.199
431.68	61.068
432.04	60.760
432.39	59.099
432.74	59.050
433.10	60.460
433.45	62.007
433.80	61.114
434.16	60.443
434.51	60.860
434.86	60.337
435.22	60.796
435.57	60.886
435.92	61.138
436.28	59.809
436.63	60.068
436.98	59.444
437.34	61.525
437.69	62.075
438.04	59.544
438.39	60.293
438.75	63.024
439.10	60.611
439.45	61.656
439.81	60.306
440.16	61.876
440.51	61.194
440.86	62.296
441.22	60.294
441.57	62.141
441.92	63.221
442.27	61.475
442.63	61.777
442.98	61.114
443.33	60.378
443.68	61.220
444.03	61.451
444.39	62.518
444.74	63.545
445.09	61.748
445.44	62.393
445.79	64.518
446.15	61.509
446.50	62.174
446.85	62.646
447.20	62.774
447.55	61.942
447.91	62.267
448.26	62.436
448.61	62.119
448.96	62.995
449.31	63.179
449.66	62.369
450.02	62.293
450.37	62.833
450.72	61.684
451.07	63.354
451.42	62.609
451.77	62.086
452.12	62.141
452.47	60.979
452.83	62.250
453.18	61.417
453.53	62.389
453.88	62.417
454.23	62.139
454.58	63.791
454.93	61.534
455.28	61.206
455.63	63.298
455.98	63.199
456.34	62.835
456.69	62.897
457.04	63.390
457.39	62.880
457.74	61.366
458.09	60.035
458.44	61.615
458.79	61.064
459.14	62.414
459.49	61.851
459.84	61.703
460.19	61.347
460.54	62.225
460.89	61.648
461.24	61.056
461.59	63.124
461.94	60.692
462.29	63.269
462.64	61.794
462.99	62.153
463.34	61.405
463.69	61.840
464.04	62.288
464.39	59.915
464.74	61.227
465.09	62.133
465.44	61.627
465.79	60.658
466.14	61.231
466.49	61.702
466.84	61.273
467.19	60.951
467.54	60.983
467.89	62.603
468.24	60.523
468.59	59.746
468.94	60.571
469.29	60.918
469.64	60.492
469.99	60.056
470.34	60.341
470.68	61.298
471.03	61.571
471.38	61.056
471.73	60.574
472.08	59.973
472.43	60.940
472.78	59.630
473.13	59.252
473.48	59.609
473.83	58.717
474.17	60.751
474.52	59.923
474.87	59.939
475.22	59.732
475.57	59.684
475.92	59.517
476.27	59.371
476.61	60.995
476.96	59.175
477.31	59.438
477.66	58.764
478.01	58.170
478.36	58.333
478.70	59.652
479.05	59.231
479.40	59.300
479.75	58.655
480.10	58.935
480.45	59.200
480.79	60.171
481.14	60.092
481.49	57.931
481.84	59.653
482.19	57.951
482.53	59.712
482.88	57.947
483.23	58.397
483.58	58.443
483.92	57.938
484.27	57.885
484.62	58.539
484.97	57.297
485.31	58.129
485.66	58.114
486.01	58.378
486.36	58.738
486.70	58.991
487.05	58.923
487.40	57.523
487.75	57.099
488.09	56.799
488.44	56.946
488.79	57.191
489.13	56.891
489.48	57.503
489.83	56.906
490.17	57.303
490.52	56.351
490.87	55.669
491.22	56.686
491.56	56.167
491.91	55.497
492.26	57.073
492.60	56.238
492.95	57.600
493.30	55.496
493.64	57.024
493.99	56.135
494.34	55.922
494.68	55.571
495.03	55.572
495.37	56.673
495.72	55.174
496.07	55.415
496.41	56.038
496.76	56.011
497.11	54.355
497.45	54.702
497.80	56.458
498.14	54.049
498.49	55.307
498.84	55.240
499.18	55.472
499.53	54.762
499.87	54.621
500.22	55.094
500.56	54.513
500.91	53.313
501.26	54.523
501.60	53.665
501.95	53.518
502.29	54.286
502.64	54.440
502.98	54.859
503.33	52.450
503.67	53.349
504.02	54.350
504.36	54.132
504.71	53.889
505.06	53.447
505.40	53.401
505.75	53.763
506.09	53.016
506.44	53.799
506.78	53.724
507.13	53.723
507.47	51.749
507.82	52.564
508.16	52.456
508.51	52.886
508.85	53.166
509.19	52.528
509.54	51.796
509.88	52.481
510.23	52.878
510.57	52.165
510.92	51.119
511.26	52.155
511.61	52.695
511.95	52.548
512.30	52.605
512.64	51.753
512.98	50.926
513.33	52.378
513.67	51.052
514.02	52.288
514.36	52.457
514.70	52.506
515.05	52.996
515.39	51.830
515.74	51.856
516.08	52.122
516.42	53.180
516.77	51.024
517.11	52.522
517.46	51.406
517.80	52.861
518.14	51.562
518.49	50.361
518.83	50.486
519.17	50.273
519.52	50.148
519.86	50.900
520.20	51.094
520.55	50.469
520.89	50.502
521.23	48.638
521.58	50.158
521.92	49.679
522.26	50.423
522.61	50.390
522.95	51.126
523.29	49.365
523.64	49.746
523.98	50.940
524.32	49.807
524.66	48.464
525.01	50.649
525.35	49.838
525.69	48.822
526.04	49.603
526.38	50.649
526.72	48.659
527.06	48.444
527.41	48.879
527.75	48.391
528.09	47.442
528.43	49.291
528.78	48.515
529.12	48.774
529.46	48.408
529.80	47.498
530.15	48.251
530.49	49.158
530.83	48.769
531.17	46.877
531.51	49.453
531.86	47.927
532.20	46.903
532.54	47.107
532.88	49.213
533.22	47.849
533.57	47.903
533.91	47.324
534.25	47.656
534.59	47.017
534.93	46.318
535.27	46.764
535.62	46.468
535.96	46.706
536.30	46.504
536.64	46.451
536.98	44.669
537.32	46.373
537.66	46.704
538.01	45.874
538.35	46.186
538.69	45.872
539.03	45.660
539.37	45.760
539.71	46.353
540.05	44.807
540.39	46.468
540.73	45.676
541.07	46.064
541.42	45.901
541.76	45.767
542.10	45.767
542.44	45.935
542.78	44.322
543.12	45.261
543.46	44.645
543.80	45.246
544.14	43.057
544.48	44.370
544.82	44.429
545.16	46.107
545.50	45.060
545.84	44.476
546.18	44.965
546.52	44.845
546.86	44.141
547.20	44.635
547.54	42.686
547.88	44.090
548.22	44.181
548.56	43.470
548.90	44.272
549.24	43.044
549.58	43.159
549.92	41.744
550.26	42.637
550.60	43.346
550.94	42.644
551.28	44.745
551.62	43.846
551.96	44.060
552.30	43.056
552.64	42.454
552.98	42.194
553.32	42.653
553.66	41.800
554.00	41.898
554.34	43.575
554.68	41.962
555.02	43.080
555.36	42.034
555.69	41.832
556.03	41.899
556.37	41.139
556.71	42.599
557.05	41.611
557.39	40.669
557.73	41.679
558.07	42.836
558.41	42.879
558.75	40.920
559.08	41.529
559.42	41.587
559.76	42.354
560.10	40.214
560.44	40.581
560.78	40.979
561.12	42.243
561.45	42.094
561.79	41.807
562.13	41.661
562.47	41.151
562.81	40.418
563.15	40.480
563.48	41.372
563.82	42.279
564.16	41.226
564.50	40.135
564.84	41.700
565.17	39.839
565.51	42.555
565.85	41.358
566.19	41.446
566.52	42.359
566.86	40.617
567.20	40.909
567.54	41.545
567.88	41.476
568.21	41.968
568.55	41.739
568.89	41.632
569.23	40.732
569.56	41.594
569.90	41.738
570.24	40.640
570.57	42.255
570.91	41.931
571.25	40.612
571.59	41.202
571.92	39.615
572.26	40.399
572.60	40.155
572.93	40.195
573.27	40.063
573.61	40.603
573.95	40.224
574.28	40.148
574.62	39.690
574.96	40.165
575.29	39.677
575.63	39.414
575.97	39.333
576.30	39.106
576.64	39.523
576.98	39.949
577.31	40.526
577.65	40.000
577.98	40.004
578.32	39.541
578.66	39.007
578.99	38.606
579.33	38.746
579.67	38.481
580.00	38.886
580.34	39.179
580.67	38.872
581.01	39.361
581.35	39.061
581.68	39.618
582.02	39.218
582.35	39.331
582.69	39.014
583.02	39.244
583.36	39.035
583.70	39.434
584.03	39.561
584.37	39.497
584.70	39.286
585.04	37.824
585.37	38.477
585.71	38.534
586.04	38.956
586.38	38.037
586.72	38.623
587.05	38.966
587.39	38.328
587.72	39.229
588.06	38.860
588.39	37.909
588.73	38.462
589.06	38.911
589.40	37.193
589.73	38.226
590.07	38.218
590.40	38.351
590.73	39.168
591.07	36.980
591.40	38.424
591.74	37.602
592.07	38.451
592.41	38.516
592.74	37.634
593.08	37.513
593.41	37.430
593.75	36.833
594.08	38.105
594.41	37.700
594.75	37.214
595.08	37.647
595.42	37.762
595.75	37.927
596.09	36.943
596.42	37.205
596.75	36.989
597.09	36.583
597.42	37.173
597.75	37.563
598.09	36.713
598.42	36.372
598.76	36.551
599.09	36.939
599.42	36.264
599.76	36.456
600.09	36.538
600.42	36.770
600.76	35.847
601.09	35.802
601.42	35.409
601.76	36.919
602.09	36.180
602.42	36.858
602.76	36.333
603.09	36.794
603.42	38.085
603.76	36.734
604.09	35.682
604.42	37.310
604.76	36.538
605.09	36.700
605.42	35.485
605.75	35.333
606.09	35.669
606.42	35.655
606.75	36.104
607.09	36.396
607.42	35.534
607.75	35.835
608.08	35.265
608.42	34.765
608.75	36.386
609.08	35.675
609.41	35.990
609.75	35.534
610.08	35.547
610.41	35.459
610.74	35.154
611.07	36.176
611.41	35.963
611.74	36.940
612.07	34.529
612.40	35.941
612.73	35.650
613.07	35.771
613.40	35.339
613.73	34.359
614.06	34.613
614.39	35.533
614.72	34.958
615.06	34.972
615.39	34.279
615.72	34.015
616.05	34.916
616.38	33.561
616.71	34.862
617.05	34.960
617.38	33.752
617.71	34.780
618.04	34.603
618.37	35.309
618.70	34.785
619.03	34.792
619.36	35.166
619.69	35.027
620.03	35.793
620.36	34.835
620.69	34.690
621.02	34.939
621.35	34.357
621.68	34.524
622.01	33.750
622.34	35.116
622.67	35.016
623.00	33.844
623.33	34.756
623.66	33.583
623.99	33.207
624.32	35.361
624.65	34.060
624.99	34.838
625.32	33.889
625.65	34.014
625.98	34.005
626.31	33.084
626.64	33.795
626.97	33.857
627.30	32.574
627.63	33.709
627.96	33.962
628.29	32.747
628.62	34.120
628.95	33.667
629.28	32.762
629.61	33.300
629.94	34.311
630.26	33.300
630.59	33.923
630.92	33.026
631.25	33.026
631.58	33.590
631.91	32.127
632.24	32.339
632.57	33.636
632.90	31.079
633.23	32.706
633.56	32.746
633.89	33.416
634.22	32.716
634.55	32.783
634.88	31.673
635.20	31.538
635.53	33.733
635.86	30.559
636.19	33.118
636.52	31.888
636.85	31.141
637.18	32.327
637.51	31.321
637.83	30.880
638.16	34.106
638.49	30.790
638.82	33.026
639.15	32.836
639.48	32.325
639.81	30.823
640.13	31.890
640.46	31.050
640.79	32.842
641.12	32.201
641.45	33.784
641.77	31.852
642.10	31.912
642.43	31.029
642.76	32.013
643.09	30.695
643.41	32.362
643.74	30.313
644.07	30.870
644.40	30.236
644.73	30.473
645.05	31.208
645.38	30.511
645.71	29.965
646.04	33.034
646.36	29.610
646.69	33.094
647.02	30.813
647.35	30.597
647.67	31.810
648.00	34.142
648.33	33.618
648.66	33.051
648.98	31.156
649.31	30.413
649.64	31.083
649.96	29.660
650.29	31.857
650.62	31.795
650.94	31.296
651.27	29.981
651.60	31.712
651.92	30.594
652.25	28.419
652.58	29.667
652.90	32.419
653.23	29.244
653.56	29.442
653.88	29.553
654.21	28.371
654.54	32.767
654.86	32.598
655.19	30.994
655.52	33.746
655.84	33.349
656.17	37.290
656.49	50.239
656.82	52.061
657.15	39.397
657.47	29.503
657.80	21.796
658.13	21.388
658.45	32.823
658.78	32.536
659.10	32.239
659.43	32.080
659.75	31.327
660.08	31.310
660.41	32.074
660.73	30.249
661.06	30.676
661.38	28.180
661.71	26.694
662.03	30.258
662.36	30.769
662.68	27.876
663.01	32.533
663.33	31.555
663.66	26.279
663.98	29.302
664.31	28.571
664.63	31.336
664.96	27.826
665.28	26.711
665.61	31.169
665.93	28.043
666.26	30.803
666.58	29.978
666.91	29.176
667.23	32.547
667.56	31.517
667.88	29.257
668.21	27.208
668.53	30.969
668.86	31.604
669.18	31.368
669.50	28.571
669.83	27.907
670.15	30.070
670.48	27.751
670.80	31.567
671.13	29.754
671.45	28.995
671.77	31.330
672.10	30.297
672.42	29.588
672.75	32.327
673.07	31.485
673.39	29.541
673.72	29.586
674.04	27.917
674.37	30.932
674.69	29.979
675.01	28.889
675.34	27.703
675.66	29.630
675.98	28.603
676.31	30.963
676.63	31.116
676.95	26.364
677.28	32.706
677.60	32.771
677.92	27.982
678.25	29.978
678.57	27.489
678.89	26.681
679.22	30.649
679.54	27.510
679.86	26.243
680.18	29.320
680.51	30.114
680.83	26.839
681.15	29.600
681.48	31.352
681.80	30.579
682.12	29.435
682.44	28.243
682.77	30.464
683.09	28.146
683.41	26.818
683.73	27.880
684.06	30.752
684.38	27.957
684.70	28.976
685.02	29.876
685.34	28.458
685.67	28.705
685.99	30.199
686.31	29.381
686.63	28.571
686.96	25.285
687.28	24.848
687.60	27.567
687.92	27.879
688.24	30.444
688.56	30.786
688.89	29.241
689.21	31.333
689.53	28.538
689.85	30.465
690.17	26.563
690.49	26.005
690.82	27.913
691.14	27.381
691.46	29.907
691.78	28.829
692.10	29.892
692.42	26.623
692.74	27.137
693.06	29.279
693.39	27.828
693.71	27.376
694.03	26.790
694.35	29.907
694.67	28.788
694.99	26.632
695.31	28.460
695.63	31.000
695.95	28.283
696.27	25.389
696.59	29.722
696.91	28.852
697.23	28.535
697.56	27.970
697.88	27.527
698.20	27.790
698.52	28.941
698.84	27.033
699.16	27.750
699.48	29.825
699.80	25.310
700.12	26.954
700.44	26.611
700.76	27.035
701.08	26.364
701.40	31.024
701.72	28.086
702.04	25.743
702.36	27.090
702.68	28.529
703.00	31.212
703.32	29.912
703.64	20.621
703.96	25.217
704.28	27.607
704.60	28.254
704.91	27.129
705.23	26.910
705.55	31.095
705.87	27.437
706.19	32.222
706.51	23.368
706.83	24.759
707.15	26.168
707.47	30.532
707.79	28.906
708.11	30.500
708.43	28.250
708.74	27.649
709.06	30.423
709.38	26.911
709.70	27.811
710.02	26.115
710.34	30.960
710.66	26.282
710.98	23.510
711.29	29.836
711.61	26.780
711.93	30.293
712.25	32.646
712.57	28.938
712.89	26.493
713.20	25.952
713.52	28.223
713.84	25.597
714.16	29.553
714.48	29.677
714.80	26.603
715.11	26.748
715.43	26.019
715.75	27.000
716.07	25.914
716.39	25.168
716.70	22.878
717.02	24.427
717.34	25.506
717.66	24.336
717.97	26.087
718.29	30.126
718.61	25.591
718.93	25.581
719.24	23.954
719.56	27.309
719.88	26.117
720.20	25.379
720.51	25.287
720.83	28.958
721.15	30.672
721.46	25.806
721.78	26.482
722.10	25.651
722.42	22.822
722.73	28.571
723.05	31.020
723.37	28.814
723.68	31.081
724.00	27.778
724.32	25.333
724.63	23.182
724.95	27.511
725.27	28.571
725.58	29.237
725.90	25.000
726.22	22.394
726.53	25.424
726.85	31.086
727.16	28.302
727.48	28.340
727.80	24.291
728.11	31.356
728.43	24.314
728.74	24.597
729.06	26.800
729.38	31.579
729.69	23.506
730.01	26.538
730.32	30.597
730.64	25.795
730.96	26.415
731.27	26.667
731.59	26.441
731.90	27.707
732.22	30.599
732.53	27.575
732.85	25.887
733.16	28.956
733.48	25.540
733.80	27.536
734.11	28.136
734.43	25.773
734.74	30.909
735.06	25.407
735.37	27.492
735.69	27.273
736.00	22.997
736.32	25.839
736.63	29.225
736.95	29.352
737.26	28.826
737.58	23.826
737.89	28.571
738.21	26.692
738.52	27.984
738.83	25.764
739.15	27.948
739.46	29.921
739.78	24.908
740.09	26.797
740.41	28.623
740.72	25.591
741.04	24.291
741.35	25.532
741.66	27.488
741.98	27.551
742.29	24.752
742.61	28.272
742.92	19.905
743.23	22.685
743.55	27.602
743.86	24.880
744.18	26.316
744.49	27.128
744.80	22.283
745.12	28.342
745.43	19.512
745.74	27.604
746.06	22.927
746.37	24.607
746.68	22.749
747.00	21.277
747.31	40.796
747.62	21.845
747.94	28.230
748.25	26.238
748.56	27.322
748.88	23.560
749.19	30.319
749.50	27.094
749.82	24.057
750.13	24.771
750.44	28.947
750.75	29.104
751.07	31.752
751.38	28.352
751.69	25.882
752.01	27.132
752.32	26.693
752.63	22.134
752.94	24.569
753.26	34.310
753.57	21.267
753.88	28.319
754.19	23.750
754.51	25.620
754.82	23.077
755.13	31.250
755.44	27.016
755.75	27.344
756.07	26.459
756.38	23.019
756.69	25.287
757.00	22.000
757.31	26.471
757.63	22.866
757.94	23.056
758.25	24.658
758.56	27.926
758.87	23.796
759.18	24.611
759.50	21.091
759.81	29.766
760.12	30.645
760.43	29.091
760.74	28.086
761.05	25.538
761.36	26.420
761.67	29.091
761.99	27.891
762.30	22.909
762.61	25.296
762.92	27.602
763.23	24.775
763.54	25.234
763.85	28.390
764.16	24.896
764.47	23.790
764.78	24.908
765.10	29.293
765.41	23.975
765.72	28.889
766.03	26.316
766.34	24.818
766.65	30.677
766.96	20.707
767.27	27.660
767.58	23.563
767.89	17.021
768.20	22.727
768.51	26.374
768.82	28.571
769.13	20.276
769.44	25.751
769.75	21.918
770.06	26.724
770.37	23.558
770.68	28.426
770.99	29.412
771.30	27.451
771.61	29.412
771.92	26.724
772.23	28.079
772.54	28.495
772.85	30.247
773.16	27.528
773.47	29.412
773.78	32.026
774.09	26.347
774.39	23.333
774.70	23.567
775.01	32.414
775.32	27.857
775.63	26.446
775.94	20.611
776.25	26.772
776.56	18.333
776.87	15.385
777.18	25.641
777.48	30.172
777.79	15.652
778.10	10.476
778.41	17.117
778.72	23.016
779.03	26.316
779.34	31.915
779.65	30.822
779.95	21.233
780.26	26.207
780.57	17.886
780.88	29.921
781.19	18.966
781.50	27.907
781.80	23.669
782.11	20.126
782.42	30.769
782.73	23.741
783.04	27.407
783.34	24.306
783.65	21.368
783.96	18.852
784.27	19.310
784.57	22.764
784.88	19.531
785.19	28.000
785.50	28.000
785.81	15.517
786.11	14.655
786.42	20.388
786.73	25.455
787.04	19.388
787.34	22.321
787.65	19.048
787.96	12.389
788.26	32.727
788.57	26.496
788.88	28.906
789.19	24.603
789.49	32.174
789.80	14.286
790.11	21.212
790.41	17.273
790.72	28.261
791.03	31.818
791.33	25.000
791.64	32.500
791.95	23.256
792.25	24.468
792.56	28.090
792.87	17.808
793.17	26.087
793.48	28.000
793.79	10.000
794.09	26.250
794.40	24.528
794.70	22.330
795.01	18.699
795.32	24.786
795.62	27.619
795.93	28.431
796.23	25.472
796.54	33.333
796.85	22.059
797.15	22.535
797.46	26.389
797.76	31.818
798.07	25.581
798.37	6.579
798.68	18.182
798.99	25.926
799.29	12.857
799.60	27.536
799.90	18.667
800.21	31.148
800.51	21.538
800.82	20.339
801.12	30.435
801.43	31.148
801.73	19.048
802.04	8.000
802.34	8.955
802.65	32.692
802.95	21.429
803.26	1.923
803.56	25.490
803.87	23.913
804.17	25.333
804.48	36.508
804.78	11.111
805.09	-4.348
805.39	4.444
805.70	16.667
806.00	3.509
806.30	22.535
806.61	28.571
806.91	5.556
807.22	9.211
807.52	26.667
807.83	10.909
808.13	33.333
808.43	23.529
808.74	17.910
809.04	27.119
809.35	5.769
809.65	7.813
809.95	13.514
810.26	13.636
810.56	6.849
810.86	7.143
811.17	28.000
811.47	42.857
811.77	13.158
812.08	0.000
812.38	15.094
812.69	12.500
812.99	-9.091
813.29	18.421
813.59	2.857
813.90	6.818
814.20	-17.949
814.50	7.692
814.81	15.094
815.11	10.638
815.41	16.949
815.72	21.429
816.02	15.686
816.32	14.583
816.62	12.195
816.93	-8.108
817.23	17.143
817.53	39.583
817.84	17.391
818.14	26.923
818.44	5.263
818.74	30.435
819.04	2.500
819.35	-5.405
819.65	8.824
819.95	-5.556
820.25	28.571
820.56	17.500
820.86	-17.241
821.16	35.000
821.46	29.787
821.76	50.000
822.07	9.302
822.37	-18.919
822.67	-9.375
822.97	2.381
823.27	28.571
823.57	-8.000
823.88	11.111
824.18	35.714
824.48	-14.706
824.78	0.000
825.08	34.783
825.38	30.303
825.69	-20.833
825.99	23.684
826.29	36.111
826.59	40.000
826.89	9.524
827.19	26.087
827.49	20.000
827.79	28.571
828.09	3.571
828.39	30.303
828.70	16.216
829.00	-3.571
829.30	-42.857
829.60	10.000
829.90	6.250
830.20	13.158
830.50	29.630
830.80	-13.043
831.10	22.727
831.40	66.667
831.70	6.452
832.00	19.048
832.30	-9.524
832.60	-8.333
832.90	0.000
833.20	-5.000
833.50	36.364
833.80	-18.519
834.10	0.000
834.40	9.375
834.70	11.111
835.00	0.000
835.30	69.231
835.60	-20.000
835.90	25.806
836.20	0.000
836.50	67.857
836.80	-7.692
837.10	21.429
837.40	-200.000
837.70	18.182
838.00	-63.636
838.30	17.391
838.60	-23.077
838.90	40.909
839.19	14.286
839.49	23.333
839.79	-7.692
840.09	-33.333
840.39	75.000
840.69	25.000
840.99	11.538
841.29	-10.526
841.59	-80.000
841.88	72.727
842.18	0.000
842.48	-6.250
842.78	-46.667
843.08	55.556
843.38	-110.000
843.68	8.696
843.97	-60.000
844.27	-40.000
844.57	-15.000
844.87	11.111
845.17	-42.857
845.47	46.667
845.76	0.000
846.06	17.647
846.36	60.000
846.66	-35.714
846.96	-13.333
847.25	-50.000
847.55	35.714
847.85	-150.000
848.15	-22.727
848.44	-500.000
848.74	20.000
849.04	18.519
849.34	54.545
849.63	-100.000
849.93	20.000
850.23	-50.000
850.53	90.000
850.82	30.769
851.12	-111.111
851.42	33.333
851.71	-11.538
852.01	14.286
852.31	-300.000
852.61	9.091
852.90	-55.000
853.20	-21.053
853.50	-41.667
853.79	17.391
854.09	70.833
854.39	-63.158
854.68	8.333
854.98	32.258
855.28	11.538
855.57	-30.000
855.87	5.556
856.17	40.741
856.46	35.714
856.76	0.000
857.05	-55.556
857.35	24.000
857.65	-33.333
857.94	7.692
858.24	27.586
858.53	55.556
858.83	18.519
859.13	18.182
859.42	26.087
859.72	-150.000
860.01	-33.333
860.31	16.000
860.60	28.571
860.90	-100.000
861.20	-86.667
861.49	-400.000
861.79	6.667
862.08	-15.000
862.38	80.000
862.67	-220.000
862.97	-283.333
863.26	0.000
863.56	5.556
863.85	-266.667
864.15	72.222
864.44	-60.000
864.74	-7.143
865.03	150.000
865.33	-120.000
865.62	-66.667
865.92	16.667
866.21	-150.000
866.51	62.500
866.80	-45.455
867.10	-450.000
867.39	50.000
867.69	0.000
867.98	7.692
868.27	-66.667
868.57	-13.333
868.86	-50.000
869.16	-100.000
869.45	66.667
869.75	-1500.000
870.04	0.000
870.33	-185.714
870.63	76.190
870.92	333.333
871.22	-60.000
871.51	-100.000
871.80	111.111
872.10	400.000
>>>>>End Processed Spectral Data<<<<<
