SpectraSuite Data File
++++++++++++++++++++++++++++++++++++
Date: Fri May 15 21:05:40 PDT 2015
User: schluterlab
Dark Spectrum Present: Yes
Reference Spectrum Present: Yes
Number of Sampled Component Spectra: 1
Spectrometers: USB2E3373
Integration Time (usec): 3000 (USB2E3373)
Spectra Averaged: 3 (USB2E3373)
Boxcar Smoothing: 0 (USB2E3373)
Correct for Electrical Dark: No (USB2E3373)
Strobe/Lamp Enabled: No (USB2E3373)
Correct for Detector Non-linearity: No (USB2E3373)
Correct for Stray Light: No (USB2E3373)
Number of Pixels in Processed Spectrum: 2048
>>>>>Begin Processed Spectral Data<<<<<
178.53	0.000
178.91	0.000
179.29	-25.000
179.67	-500.000
180.04	85.714
180.42	150.000
180.80	-800.000
181.18	-200.000
181.56	-0.000
181.94	-50.000
182.31	600.000
182.69	0.000
183.07	-666.667
183.45	-100.000
183.83	100.000
184.20	-45.455
184.58	133.333
184.96	50.000
185.34	266.667
185.72	-350.000
186.09	92.308
186.47	-100.000
186.85	216.667
187.23	144.444
187.61	200.000
187.98	-233.333
188.36	-55.556
188.74	-266.667
189.12	0.000
189.49	16.667
189.87	0.000
190.25	42.857
190.63	0.000
191.00	33.333
191.38	-36.842
191.76	100.000
192.14	250.000
192.51	-200.000
192.89	-77.778
193.27	-157.143
193.65	150.000
194.02	163.636
194.40	0.000
194.78	-187.500
195.15	-50.000
195.53	-62.500
195.91	325.000
196.29	-100.000
196.66	130.769
197.04	185.714
197.42	-88.889
197.79	-366.667
198.17	-123.077
198.55	900.000
198.92	-333.333
199.30	-400.000
199.68	-60.000
200.05	-266.667
200.43	0.000
200.81	-66.667
201.18	-266.667
201.56	1000.000
201.94	-250.000
202.31	66.667
202.69	-160.000
203.07	225.000
203.44	300.000
203.82	0.000
204.19	-7.143
204.57	-600.000
204.95	162.500
205.32	0.000
205.70	14.286
206.08	-150.000
206.45	244.444
206.83	50.000
207.20	-128.571
207.58	300.000
207.96	-333.333
208.33	-120.000
208.71	25.000
209.08	-266.667
209.46	100.000
209.84	-240.000
210.21	-500.000
210.59	28.571
210.96	16.667
211.34	-175.000
211.71	0.000
212.09	-200.000
212.46	-1600.000
212.84	0.000
213.22	120.000
213.59	900.000
213.97	15.385
214.34	27.273
214.72	-250.000
215.09	200.000
215.47	7.692
215.84	18.182
216.22	-133.333
216.59	0.000
216.97	50.000
217.34	-225.000
217.72	-120.000
218.09	87.500
218.47	187.500
218.84	-500.000
219.22	-88.889
219.59	-80.000
219.97	500.000
220.34	200.000
220.72	57.143
221.09	50.000
221.47	-300.000
221.84	-300.000
222.22	-900.000
222.59	-54.545
222.97	-8.333
223.34	-133.333
223.72	0.000
224.09	33.333
224.46	-7.143
224.84	600.000
225.21	-20.000
225.59	53.333
225.96	-1050.000
226.34	225.000
226.71	-42.857
227.08	-266.667
227.46	62.500
227.83	-400.000
228.21	11.111
228.58	-27.273
228.95	-87.500
229.33	210.000
229.70	0.000
230.08	-75.000
230.45	-228.571
230.82	-28.571
231.20	-20.000
231.57	-35.714
231.95	-42.857
232.32	-80.000
232.69	-35.714
233.07	-233.333
233.44	-80.000
233.81	-130.000
234.19	-22.222
234.56	-35.294
234.93	700.000
235.31	-75.000
235.68	-160.000
236.05	-46.154
236.43	-65.000
236.80	-29.412
237.17	15.625
237.55	5.000
237.92	11.111
238.29	11.111
238.67	3.333
239.04	-8.824
239.41	-34.146
239.79	-30.000
240.16	2.439
240.53	-34.211
240.91	-8.696
241.28	11.111
241.65	0.000
242.02	16.438
242.40	13.333
242.77	5.085
243.14	-12.121
243.51	8.750
243.89	24.138
244.26	8.046
244.63	9.524
245.00	12.371
245.38	15.464
245.75	-1.124
246.12	1.724
246.49	12.397
246.87	14.423
247.24	10.084
247.61	4.386
247.98	10.569
248.36	11.250
248.73	9.868
249.10	6.494
249.47	6.962
249.84	9.150
250.22	12.353
250.59	12.418
250.96	18.779
251.33	8.140
251.70	10.588
252.08	16.244
252.45	15.347
252.82	15.578
253.19	12.442
253.56	13.084
253.94	14.865
254.31	16.522
254.68	12.719
255.05	14.567
255.42	13.100
255.79	16.988
256.16	17.121
256.54	13.060
256.91	15.589
257.28	13.755
257.65	14.981
258.02	9.929
258.39	17.508
258.76	14.652
259.14	16.944
259.51	18.123
259.88	16.495
260.25	13.072
260.62	15.278
260.99	13.220
261.36	13.014
261.73	14.873
262.10	14.894
262.47	16.258
262.85	12.226
263.22	15.385
263.59	17.445
263.96	19.255
264.33	16.970
264.70	16.964
265.07	12.500
265.44	16.431
265.81	14.689
266.18	15.574
266.55	16.710
266.92	17.876
267.29	15.666
267.66	18.159
268.03	15.969
268.40	15.927
268.77	18.984
269.14	16.307
269.51	17.224
269.88	13.965
270.25	13.265
270.62	13.659
270.99	15.090
271.36	14.181
271.73	15.023
272.10	16.788
272.47	15.366
272.84	17.574
273.21	14.849
273.58	15.181
273.95	15.789
274.32	16.628
274.69	14.253
275.06	16.741
275.43	14.739
275.80	16.115
276.17	14.483
276.54	14.775
276.91	14.474
277.28	13.974
277.65	17.769
278.02	15.319
278.39	14.004
278.76	12.159
279.13	12.863
279.50	13.445
279.87	17.495
280.23	15.269
280.60	16.374
280.97	15.960
281.34	15.385
281.71	15.195
282.08	13.088
282.45	13.307
282.82	11.583
283.19	15.474
283.56	14.644
283.92	14.231
284.29	13.846
284.66	13.760
285.03	15.521
285.40	13.989
285.77	14.938
286.14	12.635
286.51	15.498
286.87	14.991
287.24	14.733
287.61	13.051
287.98	16.316
288.35	14.558
288.72	15.762
289.08	15.278
289.45	15.290
289.82	14.860
290.19	12.287
290.56	12.521
290.93	14.310
291.29	13.405
291.66	14.488
292.03	14.035
292.40	13.065
292.77	12.281
293.13	10.065
293.50	11.533
293.87	13.435
294.24	13.447
294.60	12.370
294.97	12.798
295.34	11.810
295.71	12.817
296.08	12.706
296.44	10.526
296.81	11.250
297.18	10.725
297.55	12.195
297.91	12.740
298.28	12.005
298.65	12.076
299.02	12.129
299.38	9.166
299.75	11.586
300.12	10.209
300.48	9.881
300.85	12.674
301.22	11.169
301.59	12.105
301.95	12.152
302.32	11.543
302.69	9.328
303.05	10.025
303.42	10.585
303.79	11.215
304.15	11.111
304.52	11.177
304.89	9.474
305.25	11.138
305.62	8.751
305.99	11.228
306.35	9.249
306.72	9.224
307.09	10.946
307.45	10.218
307.82	9.028
308.19	11.498
308.55	10.142
308.92	10.784
309.29	10.168
309.65	10.334
310.02	11.221
310.38	10.538
310.75	9.508
311.12	10.441
311.48	9.438
311.85	9.634
312.22	9.388
312.58	10.085
312.95	9.712
313.31	9.420
313.68	10.471
314.05	9.796
314.41	9.897
314.78	9.175
315.14	10.689
315.51	10.973
315.87	9.426
316.24	11.223
316.61	11.516
316.97	10.119
317.34	9.766
317.70	10.612
318.07	8.942
318.43	11.176
318.80	10.227
319.16	10.645
319.53	11.586
319.89	10.335
320.26	10.425
320.62	12.437
320.99	9.708
321.35	10.483
321.72	10.488
322.08	11.279
322.45	10.863
322.81	10.511
323.18	9.814
323.54	9.556
323.91	9.542
324.27	10.742
324.64	11.610
325.00	12.135
325.37	11.662
325.73	10.698
326.10	11.172
326.46	12.197
326.83	10.149
327.19	10.811
327.56	11.208
327.92	11.092
328.29	11.250
328.65	10.755
329.01	10.846
329.38	10.968
329.74	9.821
330.11	10.843
330.47	10.853
330.84	8.942
331.20	12.262
331.56	10.463
331.93	10.868
332.29	11.457
332.66	11.765
333.02	10.502
333.38	9.991
333.75	11.722
334.11	8.953
334.48	10.789
334.84	10.531
335.20	10.704
335.57	10.698
335.93	10.840
336.29	10.405
336.66	10.718
337.02	10.409
337.38	9.444
337.75	10.545
338.11	9.197
338.47	9.945
338.84	11.091
339.20	10.329
339.56	10.642
339.93	10.474
340.29	10.642
340.65	9.767
341.02	10.638
341.38	10.442
341.74	9.806
342.11	9.792
342.47	10.053
342.83	10.208
343.20	9.756
343.56	10.261
343.92	9.743
344.28	10.760
344.65	9.585
345.01	9.680
345.37	9.924
345.73	10.460
346.10	11.130
346.46	10.261
346.82	9.656
347.19	8.229
347.55	10.192
347.91	10.599
348.27	9.539
348.63	10.988
349.00	9.926
349.36	9.559
349.72	10.614
350.08	10.492
350.45	10.136
350.81	9.718
351.17	9.365
351.53	10.041
351.89	9.414
352.26	10.480
352.62	9.839
352.98	10.361
353.34	9.420
353.70	10.518
354.07	8.952
354.43	10.649
354.79	8.918
355.15	10.794
355.51	10.522
355.87	10.437
356.24	9.380
356.60	9.701
356.96	10.556
357.32	9.265
357.68	9.382
358.04	8.562
358.40	9.807
358.77	9.809
359.13	10.008
359.49	9.553
359.85	8.580
360.21	8.533
360.57	9.105
360.93	10.061
361.29	8.988
361.66	10.423
362.02	10.000
362.38	9.749
362.74	9.160
363.10	9.556
363.46	10.378
363.82	10.894
364.18	9.446
364.54	8.382
364.90	10.251
365.26	9.898
365.62	10.803
365.98	10.044
366.35	9.905
366.71	9.460
367.07	9.869
367.43	8.914
367.79	9.965
368.15	9.261
368.51	8.886
368.87	8.973
369.23	8.809
369.59	8.892
369.95	8.871
370.31	9.754
370.67	9.552
371.03	8.439
371.39	8.899
371.75	9.670
372.11	9.558
372.47	9.689
372.83	9.368
373.19	9.914
373.55	9.314
373.91	10.295
374.27	9.213
374.63	9.117
374.99	8.652
375.35	8.774
375.71	10.210
376.07	9.199
376.42	9.388
376.78	8.591
377.14	8.463
377.50	9.429
377.86	9.237
378.22	9.062
378.58	8.782
378.94	8.696
379.30	8.546
379.66	9.781
380.02	8.890
380.38	7.669
380.74	8.019
381.09	9.632
381.45	9.419
381.81	8.020
382.17	8.376
382.53	9.432
382.89	9.102
383.25	9.147
383.61	9.756
383.97	7.746
384.32	9.131
384.68	8.916
385.04	8.701
385.40	8.214
385.76	9.874
386.12	8.991
386.48	9.387
386.83	8.624
387.19	9.463
387.55	9.097
387.91	8.680
388.27	8.974
388.62	8.307
388.98	7.858
389.34	8.994
389.70	8.888
390.06	7.300
390.42	8.031
390.77	7.979
391.13	8.323
391.49	8.021
391.85	8.577
392.20	8.600
392.56	8.392
392.92	8.808
393.28	8.314
393.64	8.348
393.99	9.154
394.35	8.412
394.71	9.387
395.07	8.297
395.42	8.440
395.78	7.231
396.14	7.818
396.50	8.434
396.85	8.628
397.21	8.271
397.57	8.777
397.92	8.388
398.28	8.793
398.64	8.012
399.00	9.086
399.35	8.352
399.71	8.673
400.07	8.525
400.42	8.446
400.78	8.818
401.14	9.195
401.49	9.410
401.85	7.922
402.21	8.012
402.57	9.438
402.92	8.093
403.28	9.085
403.63	8.701
403.99	7.844
404.35	9.369
404.70	7.679
405.06	7.873
405.42	8.825
405.77	7.670
406.13	7.567
406.49	8.052
406.84	8.680
407.20	8.730
407.55	7.341
407.91	7.286
408.27	8.604
408.62	8.308
408.98	8.564
409.34	8.612
409.69	8.075
410.05	7.512
410.40	8.210
410.76	8.866
411.11	7.812
411.47	7.955
411.83	7.596
412.18	7.722
412.54	7.491
412.89	7.266
413.25	8.063
413.60	7.888
413.96	8.344
414.31	8.841
414.67	7.120
415.03	8.389
415.38	8.094
415.74	7.883
416.09	8.622
416.45	9.048
416.80	7.799
417.16	8.218
417.51	9.061
417.87	7.757
418.22	7.966
418.58	8.161
418.93	8.652
419.29	8.323
419.64	8.036
420.00	8.312
420.35	8.000
420.71	8.870
421.06	8.349
421.42	8.534
421.77	8.035
422.12	8.343
422.48	8.067
422.83	7.831
423.19	8.465
423.54	7.995
423.90	7.892
424.25	8.668
424.61	9.241
424.96	8.362
425.31	8.492
425.67	8.685
426.02	8.481
426.38	8.641
426.73	8.414
427.09	8.038
427.44	8.294
427.79	7.778
428.15	8.556
428.50	7.692
428.85	7.555
429.21	8.263
429.56	8.086
429.92	8.937
430.27	8.772
430.62	7.684
430.98	8.333
431.33	9.096
431.68	7.797
432.04	8.105
432.39	7.473
432.74	7.937
433.10	8.046
433.45	8.303
433.80	8.241
434.16	7.756
434.51	8.548
434.86	8.711
435.22	8.918
435.57	8.671
435.92	9.102
436.28	8.825
436.63	8.557
436.98	7.474
437.34	8.167
437.69	8.289
438.04	8.319
438.39	8.125
438.75	7.954
439.10	8.602
439.45	8.704
439.81	8.257
440.16	7.838
440.51	8.179
440.86	8.701
441.22	8.541
441.57	8.278
441.92	8.814
442.27	8.038
442.63	8.887
442.98	8.845
443.33	8.570
443.68	8.700
444.03	8.296
444.39	8.706
444.74	9.086
445.09	8.519
445.44	8.433
445.79	9.232
446.15	8.480
446.50	8.486
446.85	8.448
447.20	8.029
447.55	9.487
447.91	8.799
448.26	8.765
448.61	9.326
448.96	8.721
449.31	8.324
449.66	8.943
450.02	8.614
450.37	8.299
450.72	8.477
451.07	9.241
451.42	8.864
451.77	9.042
452.12	7.895
452.47	8.693
452.83	8.657
453.18	8.602
453.53	8.407
453.88	9.775
454.23	8.974
454.58	8.249
454.93	9.214
455.28	9.079
455.63	9.237
455.98	9.200
456.34	8.365
456.69	9.911
457.04	8.570
457.39	8.566
457.74	9.008
458.09	8.652
458.44	9.304
458.79	8.515
459.14	8.867
459.49	9.313
459.84	9.983
460.19	8.920
460.54	9.291
460.89	8.807
461.24	9.006
461.59	9.442
461.94	8.553
462.29	9.650
462.64	8.704
462.99	9.885
463.34	9.666
463.69	8.237
464.04	9.019
464.39	9.339
464.74	9.448
465.09	9.295
465.44	9.233
465.79	9.070
466.14	9.008
466.49	8.568
466.84	9.875
467.19	9.512
467.54	8.429
467.89	9.097
468.24	8.820
468.59	9.206
468.94	9.651
469.29	9.443
469.64	9.364
469.99	9.110
470.34	8.259
470.68	9.993
471.03	9.979
471.38	9.415
471.73	9.174
472.08	8.412
472.43	8.389
472.78	8.362
473.13	8.912
473.48	9.837
473.83	9.527
474.17	9.521
474.52	9.445
474.87	8.970
475.22	9.213
475.57	9.034
475.92	8.996
476.27	9.953
476.61	10.243
476.96	9.314
477.31	8.924
477.66	9.101
478.01	9.264
478.36	9.150
478.70	9.244
479.05	9.725
479.40	9.486
479.75	8.551
480.10	9.268
480.45	9.450
480.79	9.919
481.14	9.170
481.49	9.113
481.84	9.122
482.19	9.308
482.53	8.921
482.88	9.785
483.23	9.693
483.58	9.906
483.92	9.100
484.27	9.161
484.62	9.906
484.97	9.660
485.31	9.068
485.66	9.027
486.01	9.193
486.36	9.281
486.70	9.369
487.05	9.247
487.40	9.850
487.75	9.437
488.09	8.745
488.44	9.319
488.79	9.152
489.13	9.375
489.48	9.320
489.83	9.238
490.17	8.854
490.52	8.961
490.87	9.024
491.22	9.026
491.56	9.298
491.91	9.034
492.26	9.626
492.60	9.453
492.95	10.034
493.30	9.331
493.64	9.528
493.99	9.034
494.34	8.738
494.68	9.000
495.03	9.246
495.37	9.176
495.72	9.440
496.07	8.927
496.41	9.292
496.76	9.074
497.11	8.850
497.45	9.785
497.80	10.141
498.14	9.091
498.49	8.786
498.84	9.780
499.18	9.488
499.53	9.573
499.87	8.804
500.22	8.952
500.56	9.884
500.91	8.986
501.26	9.639
501.60	8.952
501.95	9.510
502.29	9.395
502.64	9.556
502.98	9.373
503.33	9.270
503.67	9.060
504.02	9.922
504.36	9.550
504.71	8.485
505.06	9.562
505.40	9.239
505.75	9.381
506.09	9.174
506.44	9.600
506.78	9.643
507.13	8.997
507.47	9.295
507.82	8.761
508.16	8.294
508.51	10.231
508.85	9.314
509.19	8.888
509.54	9.330
509.88	9.061
510.23	9.306
510.57	9.781
510.92	8.422
511.26	9.547
511.61	9.461
511.95	8.877
512.30	8.814
512.64	9.182
512.98	9.264
513.33	9.401
513.67	9.323
514.02	9.439
514.36	9.886
514.70	9.499
515.05	9.871
515.39	9.150
515.74	9.820
516.08	9.564
516.42	10.542
516.77	10.064
517.11	9.318
517.46	9.814
517.80	9.178
518.14	9.002
518.49	9.075
518.83	8.688
519.17	8.793
519.52	9.769
519.86	9.304
520.20	9.052
520.55	9.006
520.89	9.849
521.23	9.120
521.58	10.473
521.92	10.256
522.26	9.434
522.61	9.351
522.95	9.735
523.29	9.466
523.64	9.975
523.98	9.721
524.32	8.892
524.66	9.667
525.01	9.156
525.35	9.657
525.69	8.418
526.04	9.921
526.38	9.792
526.72	9.156
527.06	9.209
527.41	10.092
527.75	9.450
528.09	9.037
528.43	11.141
528.78	9.175
529.12	9.419
529.46	8.902
529.80	10.260
530.15	9.967
530.49	9.293
530.83	8.892
531.17	9.537
531.51	9.508
531.86	8.702
532.20	8.768
532.54	10.211
532.88	10.746
533.22	9.207
533.57	9.567
533.91	8.943
534.25	9.961
534.59	9.301
534.93	9.125
535.27	8.503
535.62	8.620
535.96	9.067
536.30	10.092
536.64	9.855
536.98	8.990
537.32	10.597
537.66	10.168
538.01	10.140
538.35	8.738
538.69	10.120
539.03	8.954
539.37	9.623
539.71	9.611
540.05	9.640
540.39	9.349
540.73	10.042
541.07	10.014
541.42	10.551
541.76	9.979
542.10	9.429
542.44	10.146
542.78	8.672
543.12	8.310
543.46	10.709
543.80	9.715
544.14	9.012
544.48	9.460
544.82	9.364
545.16	9.085
545.50	10.481
545.84	9.207
546.18	10.567
546.52	9.589
546.86	9.561
547.20	10.086
547.54	8.481
547.88	10.122
548.22	9.796
548.56	10.092
548.90	10.445
549.24	9.229
549.58	10.155
549.92	8.220
550.26	10.183
550.60	9.665
550.94	9.261
551.28	9.351
551.62	10.000
551.96	9.549
552.30	9.430
552.64	8.181
552.98	9.916
553.32	9.843
553.66	9.144
554.00	10.365
554.34	9.380
554.68	9.292
555.02	10.491
555.36	8.676
555.69	8.571
556.03	9.636
556.37	8.897
556.71	9.458
557.05	9.918
557.39	8.773
557.73	10.195
558.07	10.483
558.41	9.954
558.75	9.119
559.08	10.165
559.42	9.683
559.76	9.688
560.10	9.786
560.44	9.159
560.78	9.441
561.12	9.520
561.45	9.768
561.79	9.314
562.13	9.652
562.47	8.777
562.81	10.303
563.15	10.296
563.48	10.042
563.82	9.540
564.16	10.237
564.50	8.581
564.84	10.576
565.17	9.725
565.51	10.519
565.85	9.534
566.19	9.682
566.52	9.987
566.86	9.961
567.20	9.527
567.54	9.732
567.88	9.197
568.21	10.294
568.55	9.348
568.89	10.113
569.23	10.255
569.56	9.632
569.90	9.704
570.24	9.713
570.57	9.855
570.91	10.108
571.25	9.142
571.59	9.249
571.92	9.274
572.26	8.907
572.60	9.984
572.93	10.041
573.27	9.561
573.61	9.517
573.95	9.476
574.28	8.978
574.62	9.204
574.96	9.399
575.29	8.960
575.63	9.355
575.97	9.515
576.30	9.840
576.64	9.351
576.98	9.704
577.31	9.363
577.65	9.450
577.98	9.489
578.32	9.468
578.66	9.263
578.99	9.429
579.33	9.318
579.67	9.311
580.00	9.316
580.34	9.428
580.67	9.199
581.01	9.342
581.35	9.238
581.68	9.408
582.02	9.616
582.35	9.434
582.69	9.720
583.02	9.571
583.36	9.700
583.70	10.073
584.03	9.814
584.37	10.390
584.70	9.890
585.04	9.456
585.37	9.631
585.71	9.405
586.04	9.455
586.38	9.603
586.72	10.100
587.05	9.879
587.39	9.813
587.72	9.896
588.06	9.909
588.39	9.940
588.73	10.043
589.06	10.046
589.40	10.059
589.73	10.369
590.07	9.668
590.40	10.101
590.73	9.967
591.07	10.051
591.40	9.172
591.74	10.362
592.07	10.250
592.41	10.557
592.74	9.717
593.08	9.745
593.41	10.346
593.75	9.683
594.08	10.230
594.41	9.934
594.75	9.771
595.08	9.875
595.42	9.753
595.75	10.101
596.09	10.360
596.42	10.004
596.75	9.902
597.09	10.524
597.42	9.892
597.75	10.399
598.09	10.005
598.42	10.153
598.76	10.210
599.09	9.856
599.42	9.397
599.76	9.895
600.09	10.106
600.42	10.197
600.76	9.695
601.09	9.733
601.42	10.106
601.76	10.480
602.09	10.066
602.42	9.983
602.76	9.975
603.09	10.299
603.42	10.117
603.76	9.798
604.09	9.721
604.42	10.406
604.76	10.681
605.09	10.146
605.42	10.609
605.75	10.201
606.09	9.809
606.42	9.716
606.75	10.606
607.09	10.769
607.42	9.570
607.75	9.902
608.08	8.940
608.42	10.507
608.75	10.651
609.08	9.816
609.41	10.660
609.75	10.736
610.08	10.235
610.41	9.807
610.74	9.556
611.07	10.491
611.41	10.016
611.74	10.714
612.07	10.171
612.40	10.667
612.73	9.548
613.07	9.280
613.40	10.394
613.73	9.681
614.06	10.295
614.39	10.378
614.72	9.636
615.06	9.553
615.39	10.699
615.72	10.280
616.05	10.726
616.38	9.402
616.71	9.969
617.05	10.253
617.38	10.057
617.71	10.629
618.04	10.794
618.37	10.971
618.70	11.089
619.03	10.694
619.36	9.913
619.69	10.235
620.03	11.249
620.36	11.302
620.69	10.278
621.02	10.550
621.35	10.788
621.68	10.289
622.01	10.750
622.34	10.215
622.67	11.356
623.00	10.413
623.33	9.832
623.66	9.873
623.99	10.287
624.32	9.962
624.65	10.075
624.99	11.362
625.32	8.870
625.65	10.762
625.98	10.959
626.31	9.809
626.64	10.312
626.97	10.908
627.30	10.595
627.63	11.005
627.96	10.243
628.29	10.361
628.62	11.603
628.95	9.519
629.28	10.988
629.61	10.768
629.94	10.166
630.26	9.783
630.59	12.279
630.92	10.462
631.25	8.821
631.58	10.903
631.91	8.991
632.24	11.009
632.57	11.477
632.90	11.507
633.23	10.941
633.56	9.446
633.89	9.494
634.22	10.741
634.55	10.928
634.88	9.451
635.20	9.231
635.53	10.133
635.86	10.403
636.19	10.479
636.52	10.969
636.85	10.174
637.18	8.931
637.51	11.950
637.83	9.330
638.16	11.596
638.49	9.264
638.82	12.500
639.15	9.362
639.48	10.041
639.81	11.437
640.13	10.534
640.46	9.621
640.79	8.542
641.12	10.931
641.45	10.360
641.77	12.000
642.10	11.216
642.43	9.164
642.76	11.551
643.09	11.147
643.41	11.165
643.74	10.708
644.07	10.673
644.40	10.980
644.73	11.734
645.05	11.745
645.38	9.524
645.71	9.220
646.04	11.490
646.36	11.525
646.69	10.252
647.02	10.775
647.35	9.515
647.67	14.260
648.00	10.448
648.33	11.775
648.66	10.169
648.98	8.040
649.31	8.595
649.64	11.460
649.96	9.724
650.29	11.244
650.62	11.624
650.94	8.333
651.27	10.801
651.60	11.171
651.92	11.713
652.25	7.282
652.58	11.000
652.90	13.036
653.23	10.924
653.56	9.983
653.88	11.340
654.21	9.107
654.54	10.017
654.86	12.224
655.19	9.795
655.52	10.759
655.84	9.700
656.17	10.866
656.49	14.538
656.82	15.537
657.15	12.209
657.47	9.250
657.80	6.783
658.13	6.506
658.45	10.125
658.78	10.265
659.10	10.101
659.43	9.982
659.75	10.656
660.08	10.138
660.41	11.236
660.73	10.359
661.06	10.745
661.38	13.699
661.71	8.624
662.03	12.446
662.36	10.989
662.68	7.743
663.01	12.009
663.33	9.977
663.66	10.930
663.98	7.907
664.31	12.154
664.63	8.525
664.96	7.174
665.28	9.713
665.61	10.823
665.93	10.217
666.26	11.063
666.58	11.186
666.91	9.412
667.23	12.028
667.56	9.005
667.88	8.153
668.21	12.172
668.53	13.239
668.86	12.264
669.18	10.613
669.50	8.232
669.83	9.070
670.15	9.790
670.48	10.048
670.80	11.521
671.13	9.620
671.45	7.991
671.77	10.515
672.10	11.089
672.42	11.236
672.75	10.302
673.07	13.417
673.39	11.743
673.72	9.270
674.04	9.167
674.37	12.076
674.69	9.422
675.01	10.889
675.34	10.586
675.66	11.806
675.98	11.973
676.31	10.550
676.63	7.363
676.95	13.409
677.28	15.294
677.60	11.325
677.92	10.550
678.25	12.691
678.57	9.307
678.89	10.924
679.22	11.409
679.54	10.843
679.86	10.338
680.18	11.262
680.51	9.470
680.83	10.139
681.15	12.200
681.48	12.295
681.80	12.810
682.12	11.694
682.44	7.531
682.77	9.492
683.09	9.382
683.41	5.682
683.73	11.521
684.06	9.071
684.38	9.462
684.70	12.636
685.02	8.921
685.34	8.300
685.67	8.818
685.99	11.212
686.31	10.973
686.63	8.905
686.96	9.886
687.28	7.677
687.60	9.506
687.92	11.313
688.24	11.895
688.56	10.480
688.89	8.929
689.21	12.222
689.53	10.441
689.85	5.814
690.17	9.598
690.49	9.929
690.82	8.981
691.14	9.048
691.46	12.617
691.78	10.811
692.10	9.462
692.42	8.225
692.74	10.043
693.06	10.586
693.39	8.371
693.71	9.050
694.03	8.545
694.35	13.318
694.67	10.606
694.99	8.877
695.31	12.794
695.63	11.000
695.95	9.343
696.27	7.772
696.59	7.778
696.91	6.162
697.23	6.684
697.56	6.683
697.88	12.473
698.20	10.251
698.52	9.176
698.84	9.091
699.16	9.500
699.48	10.526
699.80	11.166
700.12	8.625
700.44	10.644
700.76	9.302
701.08	11.515
701.40	9.337
701.72	11.728
702.04	9.571
702.36	9.699
702.68	10.811
703.00	7.879
703.32	9.091
703.64	6.780
703.96	8.406
704.28	10.123
704.60	12.063
704.91	7.571
705.23	6.312
705.55	13.428
705.87	9.025
706.19	8.148
706.51	8.591
706.83	10.289
707.15	8.100
707.47	10.644
707.79	9.635
708.11	9.750
708.43	12.250
708.74	14.729
709.06	15.775
709.38	9.480
709.70	11.538
710.02	8.917
710.34	8.978
710.66	7.372
710.98	5.629
711.29	9.180
711.61	6.102
711.93	13.355
712.25	9.966
712.57	12.088
712.89	4.478
713.20	12.111
713.52	13.937
713.84	11.263
714.16	7.904
714.48	7.419
714.80	9.936
715.11	9.422
715.43	7.210
715.75	6.333
716.07	8.970
716.39	9.396
716.70	9.594
717.02	8.015
717.34	12.551
717.66	10.177
717.97	6.522
718.29	11.297
718.61	11.024
718.93	7.752
719.24	11.027
719.56	16.466
719.88	6.529
720.20	7.955
720.51	4.981
720.83	11.197
721.15	6.723
721.46	6.855
721.78	4.348
722.10	10.037
722.42	3.320
722.73	11.020
723.05	11.429
723.37	12.712
723.68	6.306
724.00	11.538
724.32	6.667
724.63	8.636
724.95	11.354
725.27	6.912
725.58	11.017
725.90	5.952
726.22	12.741
726.53	10.847
726.85	7.491
727.16	9.057
727.48	4.858
727.80	8.907
728.11	8.051
728.43	7.451
728.74	7.258
729.06	10.000
729.38	14.286
729.69	9.562
730.01	3.462
730.32	10.075
730.64	9.894
730.96	9.057
731.27	8.000
731.59	7.119
731.90	11.783
732.22	11.356
732.53	12.292
732.85	10.284
733.16	11.785
733.48	7.914
733.80	6.522
734.11	8.475
734.43	9.278
734.74	10.606
735.06	5.537
735.37	9.366
735.69	9.428
736.00	11.498
736.32	6.711
736.63	9.859
736.95	15.017
737.26	4.626
737.58	9.396
737.89	10.256
738.21	10.150
738.52	11.523
738.83	9.607
739.15	5.677
739.46	11.811
739.78	7.692
740.09	10.131
740.41	7.246
740.72	3.937
741.04	7.287
741.35	11.064
741.66	12.322
741.98	8.163
742.29	8.911
742.61	4.712
742.92	8.057
743.23	3.241
743.55	9.502
743.86	11.483
744.18	8.134
744.49	6.383
744.80	7.065
745.12	14.439
745.43	1.463
745.74	10.417
746.06	5.854
746.37	4.188
746.68	9.953
747.00	2.660
747.31	10.945
747.62	4.369
747.94	7.177
748.25	4.950
748.56	6.557
748.88	7.330
749.19	11.702
749.50	6.897
749.82	0.943
750.13	4.128
750.44	10.526
750.75	12.687
751.07	13.504
751.38	9.579
751.69	9.412
752.01	12.016
752.32	7.171
752.63	7.905
752.94	9.914
753.26	11.297
753.57	5.882
753.88	3.982
754.19	5.417
754.51	10.744
754.82	4.453
755.13	10.833
755.44	11.694
755.75	10.937
756.07	8.560
756.38	7.925
756.69	3.448
757.00	8.667
757.31	9.477
757.63	6.098
757.94	8.611
758.25	5.205
758.56	8.777
758.87	4.533
759.18	9.969
759.50	5.818
759.81	11.037
760.12	10.645
760.43	8.182
760.74	10.494
761.05	10.154
761.36	11.648
761.67	10.909
761.99	14.626
762.30	5.818
762.61	11.067
762.92	7.240
763.23	6.757
763.54	7.009
763.85	5.932
764.16	6.224
764.47	6.855
764.78	7.692
765.10	8.418
765.41	9.148
765.72	10.476
766.03	4.511
766.34	8.029
766.65	12.351
766.96	10.606
767.27	7.447
767.58	3.448
767.89	0.000
768.20	7.386
768.51	4.396
768.82	4.926
769.13	3.226
769.44	6.009
769.75	0.457
770.06	12.500
770.37	10.577
770.68	8.122
770.99	6.335
771.30	9.314
771.61	7.692
771.92	8.190
772.23	7.882
772.54	15.054
772.85	7.407
773.16	13.483
773.47	9.804
773.78	5.229
774.09	5.389
774.39	6.667
774.70	6.369
775.01	10.345
775.32	12.143
775.63	5.785
775.94	0.763
776.25	11.811
776.56	3.333
776.87	4.808
777.18	4.274
777.48	2.586
777.79	5.217
778.10	-3.810
778.41	5.405
778.72	16.667
779.03	-1.504
779.34	7.801
779.65	8.904
779.95	4.110
780.26	12.414
780.57	-0.813
780.88	11.024
781.19	1.724
781.50	13.178
781.80	3.550
782.11	1.887
782.42	-1.538
782.73	5.755
783.04	8.148
783.34	9.722
783.65	-6.838
783.96	7.377
784.27	11.724
784.57	9.756
784.88	10.156
785.19	12.000
785.50	14.000
785.81	5.172
786.11	16.379
786.42	1.942
786.73	9.091
787.04	-4.082
787.34	1.786
787.65	7.619
787.96	2.655
788.26	10.000
788.57	1.709
788.88	11.719
789.19	5.556
789.49	1.739
789.80	4.082
790.11	5.051
790.41	8.182
790.72	21.739
791.03	4.545
791.33	16.250
791.64	0.000
791.95	-4.651
792.25	2.128
792.56	14.607
792.87	-9.589
793.17	1.449
793.48	-2.667
793.79	-8.750
794.09	18.750
794.40	1.887
794.70	0.000
795.01	0.000
795.32	7.692
795.62	6.667
795.93	10.784
796.23	0.000
796.54	9.375
796.85	13.235
797.15	5.634
797.46	20.833
797.76	15.152
798.07	0.000
798.37	-6.579
798.68	-3.030
798.99	-4.938
799.29	-1.429
799.60	5.797
799.90	14.667
800.21	4.918
800.51	6.154
800.82	-5.085
801.12	7.246
801.43	1.639
801.73	9.524
802.04	-14.000
802.34	2.985
802.65	11.538
802.95	-23.214
803.26	-17.308
803.56	-1.961
803.87	-28.261
804.17	2.667
804.48	9.524
804.78	5.556
805.09	-15.217
805.39	6.667
805.70	-3.704
806.00	-19.298
806.30	8.451
806.61	8.571
806.91	-12.500
807.22	5.263
807.52	6.667
807.83	-3.636
808.13	5.556
808.43	7.353
808.74	8.955
809.04	8.475
809.35	-11.538
809.65	10.938
809.95	-37.838
810.26	-18.182
810.56	15.068
810.86	-11.905
811.17	-4.000
811.47	22.449
811.77	-31.579
812.08	-22.727
812.38	-11.321
812.69	-5.000
812.99	6.061
813.29	5.263
813.59	-17.143
813.90	-11.364
814.20	-28.205
814.50	11.538
814.81	11.321
815.11	-21.277
815.41	27.119
815.72	16.667
816.02	3.922
816.32	14.583
816.62	-24.390
816.93	-27.027
817.23	-22.857
817.53	8.333
817.84	-19.565
818.14	17.308
818.44	-13.158
818.74	0.000
819.04	-20.000
819.35	-10.811
819.65	2.941
819.95	0.000
820.25	-21.429
820.56	17.500
820.86	-55.172
821.16	2.500
821.46	4.255
821.76	5.000
822.07	-4.651
822.37	-8.108
822.67	-50.000
822.97	26.190
823.27	-21.429
823.57	-52.000
823.88	-62.963
824.18	0.000
824.48	-20.588
824.78	-48.387
825.08	-73.913
825.38	3.030
825.69	-45.833
825.99	-13.158
826.29	-25.000
826.59	-53.333
826.89	-66.667
827.19	2.174
827.49	-2.500
827.79	8.571
828.09	-10.714
828.39	-6.061
828.70	40.541
829.00	-3.571
829.30	-71.429
829.60	-20.000
829.90	28.125
830.20	-26.316
830.50	-22.222
830.80	-13.043
831.10	-31.818
831.40	21.212
831.70	-19.355
832.00	0.000
832.30	-66.667
832.60	-33.333
832.90	-13.793
833.20	-65.000
833.50	-9.091
833.80	-44.444
834.10	-19.231
834.40	40.625
834.70	-122.222
835.00	-42.105
835.30	23.077
835.60	-6.667
835.90	3.226
836.20	-77.273
836.50	17.857
836.80	-65.385
837.10	-3.571
837.40	-166.667
837.70	9.091
838.00	-145.455
838.30	-4.348
838.60	-15.385
838.90	13.636
839.19	-28.571
839.49	-16.667
839.79	-15.385
840.09	-66.667
840.39	25.000
840.69	3.571
840.99	0.000
841.29	-26.316
841.59	-200.000
841.88	-118.182
842.18	-120.000
842.48	0.000
842.78	-6.667
843.08	33.333
843.38	-90.000
843.68	-34.783
843.97	-33.333
844.27	-80.000
844.57	-15.000
844.87	-77.778
845.17	-19.048
845.47	6.667
845.76	-33.333
846.06	-82.353
846.36	-10.000
846.66	-135.714
846.96	6.667
847.25	-287.500
847.55	0.000
847.85	-75.000
848.15	-36.364
848.44	-500.000
848.74	40.000
849.04	37.037
849.34	-90.909
849.63	-200.000
849.93	-360.000
850.23	-66.667
850.53	-20.000
850.82	7.692
851.12	22.222
851.42	-20.000
851.71	-15.385
852.01	-35.714
852.31	-250.000
852.61	-18.182
852.90	-25.000
853.20	26.316
853.50	-141.667
853.79	4.348
854.09	20.833
854.39	-36.842
854.68	12.500
854.98	12.903
855.28	-23.077
855.57	-10.000
855.87	5.556
856.17	-3.704
856.46	7.143
856.76	-80.000
857.05	77.778
857.35	-20.000
857.65	5.556
857.94	-61.538
858.24	24.138
858.53	50.000
858.83	18.519
859.13	-4.545
859.42	-26.087
859.72	-125.000
860.01	-833.333
860.31	16.000
860.60	0.000
860.90	-200.000
861.20	-80.000
861.49	-550.000
861.79	-73.333
862.08	-15.000
862.38	80.000
862.67	-180.000
862.97	0.000
863.26	-50.000
863.56	22.222
863.85	-733.333
864.15	27.778
864.44	-80.000
864.74	21.429
865.03	225.000
865.33	-300.000
865.62	-33.333
865.92	-58.333
866.21	-233.333
866.51	31.250
866.80	-18.182
867.10	-650.000
867.39	-8.333
867.69	0.000
867.98	15.385
868.27	-100.000
868.57	-53.333
868.86	-16.667
869.16	-38.462
869.45	-26.667
869.75	-1400.000
870.04	0.000
870.33	-285.714
870.63	0.000
870.92	100.000
871.22	-300.000
871.51	-1300.000
871.80	122.222
872.10	566.667
>>>>>End Processed Spectral Data<<<<<
