SpectraSuite Data File
++++++++++++++++++++++++++++++++++++
Date: Fri May 15 20:54:59 PDT 2015
User: schluterlab
Dark Spectrum Present: Yes
Reference Spectrum Present: Yes
Number of Sampled Component Spectra: 1
Spectrometers: USB2E3373
Integration Time (usec): 3000 (USB2E3373)
Spectra Averaged: 3 (USB2E3373)
Boxcar Smoothing: 0 (USB2E3373)
Correct for Electrical Dark: No (USB2E3373)
Strobe/Lamp Enabled: No (USB2E3373)
Correct for Detector Non-linearity: No (USB2E3373)
Correct for Stray Light: No (USB2E3373)
Number of Pixels in Processed Spectrum: 2048
>>>>>Begin Processed Spectral Data<<<<<
178.53	0.000
178.91	0.000
179.29	0.000
179.67	-950.000
180.04	114.286
180.42	100.000
180.80	500.000
181.18	333.333
181.56	350.000
181.94	200.000
182.31	800.000
182.69	-20.000
183.07	-266.667
183.45	160.000
183.83	-0.000
184.20	-45.455
184.58	144.444
184.96	125.000
185.34	533.333
185.72	-150.000
186.09	107.692
186.47	-1000.000
186.85	100.000
187.23	44.444
187.61	-100.000
187.98	-433.333
188.36	33.333
188.74	-333.333
189.12	52.941
189.49	33.333
189.87	0.000
190.25	71.429
190.63	0.000
191.00	-200.000
191.38	15.789
191.76	100.000
192.14	325.000
192.51	0.000
192.89	11.111
193.27	-157.143
193.65	200.000
194.02	127.273
194.40	0.000
194.78	-100.000
195.15	-16.667
195.53	-100.000
195.91	450.000
196.29	100.000
196.66	123.077
197.04	42.857
197.42	-77.778
197.79	-433.333
198.17	-76.923
198.55	1100.000
198.92	-366.667
199.30	-300.000
199.68	-140.000
200.05	-300.000
200.43	0.000
200.81	166.667
201.18	-266.667
201.56	2000.000
201.94	-700.000
202.31	-33.333
202.69	-320.000
203.07	225.000
203.44	600.000
203.82	0.000
204.19	21.429
204.57	-466.667
204.95	175.000
205.32	-80.000
205.70	114.286
206.08	-75.000
206.45	111.111
206.83	28.571
207.20	-128.571
207.58	-0.000
207.96	-66.667
208.33	-70.000
208.71	-125.000
209.08	-200.000
209.46	-1300.000
209.84	40.000
210.21	-900.000
210.59	71.429
210.96	-83.333
211.34	75.000
211.71	66.667
212.09	-100.000
212.46	-1300.000
212.84	0.000
213.22	-50.000
213.59	500.000
213.97	46.154
214.34	63.636
214.72	-83.333
215.09	400.000
215.47	-30.769
215.84	-9.091
216.22	-100.000
216.59	-12.500
216.97	50.000
217.34	50.000
217.72	-180.000
218.09	137.500
218.47	-0.000
218.84	200.000
219.22	-77.778
219.59	-140.000
219.97	166.667
220.34	300.000
220.72	57.143
221.09	0.000
221.47	500.000
221.84	-750.000
222.22	-300.000
222.59	-100.000
222.97	58.333
223.34	-333.333
223.72	-42.857
224.09	9.524
224.46	14.286
224.84	300.000
225.21	-50.000
225.59	20.000
225.96	150.000
226.34	250.000
226.71	-42.857
227.08	-50.000
227.46	-12.500
227.83	-500.000
228.21	66.667
228.58	-18.182
228.95	-87.500
229.33	190.000
229.70	37.500
230.08	-175.000
230.45	-57.143
230.82	28.571
231.20	33.333
231.57	71.429
231.95	-14.286
232.32	50.000
232.69	0.000
233.07	100.000
233.44	-100.000
233.81	-80.000
234.19	-22.222
234.56	17.647
234.93	-150.000
235.31	-75.000
235.68	-280.000
236.05	-15.385
236.43	-10.000
236.80	5.882
237.17	59.375
237.55	30.000
237.92	-7.407
238.29	8.333
238.67	0.000
239.04	20.588
239.41	12.195
239.79	-10.000
240.16	21.951
240.53	5.263
240.91	-6.522
241.28	20.635
241.65	21.429
242.02	28.767
242.40	28.333
242.77	20.339
243.14	15.152
243.51	40.000
243.89	32.184
244.26	20.690
244.63	34.524
245.00	26.804
245.38	21.649
245.75	2.247
246.12	20.690
246.49	30.579
246.87	25.962
247.24	16.807
247.61	16.667
247.98	18.699
248.36	22.500
248.73	25.658
249.10	20.130
249.47	25.949
249.84	27.451
250.22	22.353
250.59	19.608
250.96	23.474
251.33	23.837
251.70	22.941
252.08	21.827
252.45	20.297
252.82	19.095
253.19	27.650
253.56	19.159
253.94	30.180
254.31	21.304
254.68	27.193
255.05	23.622
255.42	26.201
255.79	20.463
256.16	24.514
256.54	24.254
256.91	24.715
257.28	19.703
257.65	22.846
258.02	21.277
258.39	24.579
258.76	24.176
259.14	26.910
259.51	23.948
259.88	23.024
260.25	26.797
260.62	28.125
260.99	22.034
261.36	22.260
261.73	24.684
262.10	25.228
262.47	23.620
262.85	22.571
263.22	22.154
263.59	27.726
263.96	28.882
264.33	25.455
264.70	25.298
265.07	21.726
265.44	28.045
265.81	23.446
266.18	25.956
266.55	23.650
266.92	25.907
267.29	26.371
267.66	21.995
268.03	23.822
268.40	26.893
268.77	26.203
269.14	24.940
269.51	25.707
269.88	24.688
270.25	22.194
270.62	21.951
270.99	22.762
271.36	22.738
271.73	23.474
272.10	24.574
272.47	25.296
272.84	24.505
273.21	27.378
273.58	23.614
273.95	24.485
274.32	23.788
274.69	21.946
275.06	24.107
275.43	24.717
275.80	22.737
276.17	25.517
276.54	22.484
276.91	24.123
277.28	22.052
277.65	25.000
278.02	22.766
278.39	24.289
278.76	24.528
279.13	20.954
279.50	23.319
279.87	25.054
280.23	20.000
280.60	23.392
280.97	25.455
281.34	22.885
281.71	23.614
282.08	21.881
282.45	20.548
282.82	21.429
283.19	24.952
283.56	25.048
283.92	21.252
284.29	22.885
284.66	24.225
285.03	22.397
285.40	24.197
285.77	20.738
286.14	21.661
286.51	25.277
286.87	24.132
287.24	22.652
287.61	22.399
287.98	22.807
288.35	22.704
288.72	22.592
289.08	23.264
289.45	22.847
289.82	22.378
290.19	21.672
290.56	21.441
290.93	18.519
291.29	18.952
291.66	20.315
292.03	20.096
292.40	20.806
292.77	19.139
293.13	18.019
293.50	19.423
293.87	18.626
294.24	18.702
294.60	19.225
294.97	18.452
295.34	19.325
295.71	19.225
296.08	19.283
296.44	17.496
296.81	16.944
297.18	17.681
297.55	19.648
297.91	20.137
298.28	17.546
298.65	18.996
299.02	16.846
299.38	17.373
299.75	18.483
300.12	15.445
300.48	17.128
300.85	17.364
301.22	16.494
301.59	16.579
301.95	18.481
302.32	18.677
302.69	15.423
303.05	16.708
303.42	16.189
303.79	16.822
304.15	17.085
304.52	14.625
304.89	16.725
305.25	16.465
305.62	16.219
305.99	15.673
306.35	17.110
306.72	15.748
307.09	16.420
307.45	17.336
307.82	15.972
308.19	17.073
308.55	15.812
308.92	16.340
309.29	16.760
309.65	15.608
310.02	16.612
310.38	15.807
310.75	16.940
311.12	16.900
311.48	15.907
311.85	16.859
312.22	17.827
312.58	16.561
312.95	13.661
313.31	15.217
313.68	15.079
314.05	15.816
314.41	15.670
314.78	16.289
315.14	17.575
315.51	16.667
315.87	17.213
316.24	18.504
316.61	16.929
316.97	17.262
317.34	17.871
317.70	16.922
318.07	16.058
318.43	17.353
318.80	16.572
319.16	19.434
319.53	18.234
319.89	18.602
320.26	18.421
320.62	18.556
320.99	16.701
321.35	19.219
321.72	19.834
322.08	19.637
322.45	20.508
322.81	20.727
323.18	19.529
323.54	21.236
323.91	19.766
324.27	21.094
324.64	20.318
325.00	21.168
325.37	22.957
325.73	21.396
326.10	21.253
326.46	22.960
326.83	22.310
327.19	23.104
327.56	22.937
327.92	24.472
328.29	23.929
328.65	23.585
329.01	23.438
329.38	24.700
329.74	23.513
330.11	24.560
330.47	24.119
330.84	22.788
331.20	26.331
331.56	25.000
331.93	25.479
332.29	24.656
332.66	23.891
333.02	25.093
333.38	23.740
333.75	26.282
334.11	24.351
334.48	25.567
334.84	25.000
335.20	24.886
335.57	26.020
335.93	25.745
336.29	25.691
336.66	25.431
337.02	25.465
337.38	25.278
337.75	26.273
338.11	27.502
338.47	26.369
338.84	26.340
339.20	25.686
339.56	27.248
339.93	25.962
340.29	25.872
340.65	25.627
341.02	25.975
341.38	25.133
341.74	25.795
342.11	25.823
342.47	25.979
342.83	26.644
343.20	24.826
343.56	26.522
343.92	27.192
344.28	27.498
344.65	26.684
345.01	25.756
345.37	26.661
345.73	27.699
346.10	27.351
346.46	27.670
346.82	25.777
347.19	25.935
347.55	27.068
347.91	26.942
348.27	26.435
348.63	26.661
349.00	26.497
349.36	26.101
349.72	27.280
350.08	26.475
350.45	26.656
350.81	26.495
351.17	25.407
351.53	25.633
351.89	25.764
352.26	26.160
352.62	27.661
352.98	25.944
353.34	26.570
353.70	27.265
354.07	26.290
354.43	26.181
354.79	26.342
355.15	26.825
355.51	28.165
355.87	27.670
356.24	26.591
356.60	27.243
356.96	26.984
357.32	27.157
357.68	26.505
358.04	25.929
358.40	26.206
358.77	27.831
359.13	26.501
359.49	26.348
359.85	28.003
360.21	28.309
360.57	26.702
360.93	27.383
361.29	26.057
361.66	28.135
362.02	27.424
362.38	27.494
362.74	28.236
363.10	29.345
363.46	28.762
363.82	28.775
364.18	28.044
364.54	27.206
364.90	27.599
365.26	28.530
365.62	29.124
365.98	28.079
366.35	29.352
366.71	28.825
367.07	28.012
367.43	28.541
367.79	28.057
368.15	29.218
368.51	29.206
368.87	28.643
369.23	27.509
369.59	29.665
369.95	29.179
370.31	29.913
370.67	29.776
371.03	28.305
371.39	28.446
371.75	28.645
372.11	29.815
372.47	28.994
372.83	29.666
373.19	30.171
373.55	28.231
373.91	29.662
374.27	30.546
374.63	30.510
374.99	30.851
375.35	30.780
375.71	30.979
376.07	30.829
376.42	30.340
376.78	31.007
377.14	30.738
377.50	32.005
377.86	31.124
378.22	30.951
378.58	31.026
378.94	31.128
379.30	30.318
379.66	32.038
380.02	30.595
380.38	31.163
380.74	31.059
381.09	32.761
381.45	32.232
381.81	32.449
382.17	31.853
382.53	32.230
382.89	32.768
383.25	32.856
383.61	31.524
383.97	31.365
384.32	32.896
384.68	32.012
385.04	32.475
385.40	33.416
385.76	34.214
386.12	33.506
386.48	34.163
386.83	33.037
387.19	33.455
387.55	34.065
387.91	33.741
388.27	33.333
388.62	33.795
388.98	33.702
389.34	33.729
389.70	35.301
390.06	34.361
390.42	35.104
390.77	34.598
391.13	34.994
391.49	34.735
391.85	34.763
392.20	34.903
392.56	35.410
392.92	35.526
393.28	35.554
393.64	34.955
393.99	35.298
394.35	35.484
394.71	37.037
395.07	36.204
395.42	35.701
395.78	36.743
396.14	36.948
396.50	37.476
396.85	37.862
397.21	35.965
397.57	36.614
397.92	36.489
398.28	36.667
398.64	36.145
399.00	37.246
399.35	35.779
399.71	36.531
400.07	37.727
400.42	36.291
400.78	36.314
401.14	36.661
401.49	37.880
401.85	36.380
402.21	38.193
402.57	37.625
402.92	37.265
403.28	38.722
403.63	39.029
403.99	37.372
404.35	38.039
404.70	38.750
405.06	37.603
405.42	38.098
405.77	38.001
406.13	38.708
406.49	37.774
406.84	40.037
407.20	40.458
407.55	38.184
407.91	39.572
408.27	38.878
408.62	39.323
408.98	38.324
409.34	39.591
409.69	38.372
410.05	39.039
410.40	40.556
410.76	39.083
411.11	39.250
411.47	40.894
411.83	40.176
412.18	39.318
412.54	39.076
412.89	39.470
413.25	39.711
413.60	39.503
413.96	39.141
414.31	39.817
414.67	40.539
415.03	39.414
415.38	39.883
415.74	40.326
416.09	40.627
416.45	41.121
416.80	40.714
417.16	41.367
417.51	41.639
417.87	40.613
418.22	41.580
418.58	40.535
418.93	42.821
419.29	40.973
419.64	41.542
420.00	41.184
420.35	41.075
420.71	42.345
421.06	41.866
421.42	41.707
421.77	40.925
422.12	41.657
422.48	41.148
422.83	41.589
423.19	43.002
423.54	41.505
423.90	42.049
424.25	43.513
424.61	43.574
424.96	42.160
425.31	43.559
425.67	42.958
426.02	43.286
426.38	44.145
426.73	44.673
427.09	44.810
427.44	43.059
427.79	43.371
428.15	42.961
428.50	43.186
428.85	42.813
429.21	43.803
429.56	44.205
429.92	43.503
430.27	43.810
430.62	42.551
430.98	43.577
431.33	44.217
431.68	43.433
432.04	44.606
432.39	43.240
432.74	43.957
433.10	44.828
433.45	44.086
433.80	44.864
434.16	43.435
434.51	43.817
434.86	45.819
435.22	44.139
435.57	45.352
435.92	45.449
436.28	44.842
436.63	44.723
436.98	44.148
437.34	45.493
437.69	45.319
438.04	44.330
438.39	45.021
438.75	46.934
439.10	45.274
439.45	46.500
439.81	45.627
440.16	45.962
440.51	46.448
440.86	47.674
441.22	44.796
441.57	45.806
441.92	46.327
442.27	46.729
442.63	46.734
442.98	46.812
443.33	45.298
443.68	45.570
444.03	47.690
444.39	46.926
444.74	47.603
445.09	46.659
445.44	46.895
445.79	47.653
446.15	45.540
446.50	45.424
446.85	46.918
447.20	46.403
447.55	46.484
447.91	47.490
448.26	47.638
448.61	47.208
448.96	46.931
449.31	46.358
449.66	47.445
450.02	46.891
450.37	46.592
450.72	46.506
451.07	47.595
451.42	47.441
451.77	47.559
452.12	46.830
452.47	47.714
452.83	48.115
453.18	48.324
453.53	48.104
453.88	47.784
454.23	48.248
454.58	48.489
454.93	48.260
455.28	47.429
455.63	47.489
455.98	47.565
456.34	48.851
456.69	48.856
457.04	47.763
457.39	47.631
457.74	48.247
458.09	47.793
458.44	47.747
458.79	47.227
459.14	47.941
459.49	48.478
459.84	48.280
460.19	48.544
460.54	48.166
460.89	48.409
461.24	49.006
461.59	48.219
461.94	48.239
462.29	50.483
462.64	49.834
462.99	49.289
463.34	48.887
463.69	48.134
464.04	49.576
464.39	49.485
464.74	48.773
465.09	48.721
465.44	48.644
465.79	47.676
466.14	48.803
466.49	48.764
466.84	48.662
467.19	49.374
467.54	49.617
467.89	49.905
468.24	48.358
468.59	50.159
468.94	48.508
469.29	50.230
469.64	50.034
469.99	51.437
470.34	49.215
470.68	51.230
471.03	51.946
471.38	50.499
471.73	51.751
472.08	49.796
472.43	50.268
472.78	49.349
473.13	51.497
473.48	51.270
473.83	50.125
474.17	50.712
474.52	50.798
474.87	49.576
475.22	51.190
475.57	50.254
475.92	50.741
476.27	50.640
476.61	50.694
476.96	49.303
477.31	51.271
477.66	49.831
478.01	51.319
478.36	49.782
478.70	50.788
479.05	50.330
479.40	51.351
479.75	49.531
480.10	50.230
480.45	50.650
480.79	51.158
481.14	51.588
481.49	51.034
481.84	50.820
482.19	50.468
482.53	50.935
482.88	50.597
483.23	50.528
483.58	49.387
483.92	50.048
484.27	49.909
484.62	51.098
484.97	48.590
485.31	47.543
485.66	45.862
486.01	45.374
486.36	45.468
486.70	46.378
487.05	47.442
487.40	47.880
487.75	49.155
488.09	48.918
488.44	50.413
488.79	50.654
489.13	50.801
489.48	51.304
489.83	50.000
490.17	50.382
490.52	51.963
490.87	50.764
491.22	51.576
491.56	51.186
491.91	50.956
492.26	51.872
492.60	50.816
492.95	52.484
493.30	51.539
493.64	51.866
493.99	51.498
494.34	51.311
494.68	51.905
495.03	51.533
495.37	52.012
495.72	51.792
496.07	52.927
496.41	51.509
496.76	51.359
497.11	50.862
497.45	52.458
497.80	53.532
498.14	51.664
498.49	52.768
498.84	52.096
499.18	53.514
499.53	51.835
499.87	51.654
500.22	51.484
500.56	52.900
500.91	51.857
501.26	51.607
501.60	51.500
501.95	53.033
502.29	52.010
502.64	52.220
502.98	53.922
503.33	52.161
503.67	52.337
504.02	52.346
504.36	53.340
504.71	52.828
505.06	52.391
505.40	52.843
505.75	54.278
506.09	53.675
506.44	54.979
506.78	53.776
507.13	53.154
507.47	52.742
507.82	53.152
508.16	53.777
508.51	53.882
508.85	54.265
509.19	54.178
509.54	54.799
509.88	54.315
510.23	55.783
510.57	53.982
510.92	53.465
511.26	54.283
511.61	54.675
511.95	54.795
512.30	54.823
512.64	54.869
512.98	55.362
513.33	55.512
513.67	56.566
514.02	56.407
514.36	57.543
514.70	57.984
515.05	57.873
515.39	56.494
515.74	57.904
516.08	56.426
516.42	57.420
516.77	57.519
517.11	57.329
517.46	58.468
517.80	57.271
518.14	57.502
518.49	56.791
518.83	57.169
519.17	55.428
519.52	56.602
519.86	56.002
520.20	57.837
520.55	57.473
520.89	58.469
521.23	59.595
521.58	58.612
521.92	59.808
522.26	59.336
522.61	59.870
522.95	61.788
523.29	59.720
523.64	59.530
523.98	60.078
524.32	58.763
524.66	59.283
525.01	59.740
525.35	60.143
525.69	59.663
526.04	59.656
526.38	60.830
526.72	59.451
527.06	59.144
527.41	59.301
527.75	59.517
528.09	59.867
528.43	61.918
528.78	59.802
529.12	59.226
529.46	60.689
529.80	58.708
530.15	60.924
530.49	60.404
530.83	61.423
531.17	59.302
531.51	61.833
531.86	59.823
532.20	60.125
532.54	60.517
532.88	60.507
533.22	61.290
533.57	59.567
533.91	60.379
534.25	61.133
534.59	58.307
534.93	58.464
535.27	59.708
535.62	59.754
535.96	59.295
536.30	60.026
536.64	60.372
536.98	59.652
537.32	63.087
537.66	61.010
538.01	61.678
538.35	59.293
538.69	60.386
539.03	59.809
539.37	58.614
539.71	61.486
540.05	58.452
540.39	59.418
540.73	60.879
541.07	60.359
541.42	60.215
541.76	61.390
542.10	60.702
542.44	59.833
542.78	58.981
543.12	58.791
543.46	59.040
543.80	61.416
544.14	59.146
544.48	58.827
544.82	59.467
545.16	60.314
545.50	58.611
545.84	61.473
546.18	60.071
546.52	59.769
546.86	59.310
547.20	61.373
547.54	59.293
547.88	59.375
548.22	58.383
548.56	57.916
548.90	59.771
549.24	59.022
549.58	58.533
549.92	58.542
550.26	61.465
550.60	62.007
550.94	61.240
551.28	60.974
551.62	61.846
551.96	60.075
552.30	59.868
552.64	58.815
552.98	60.338
553.32	61.698
553.66	58.708
554.00	60.511
554.34	60.783
554.68	59.145
555.02	61.607
555.36	60.509
555.69	59.341
556.03	58.958
556.37	59.929
556.71	60.144
557.05	61.223
557.39	59.331
557.73	58.696
558.07	62.066
558.41	63.783
558.75	62.198
559.08	62.569
559.42	61.270
559.76	61.890
560.10	62.385
560.44	58.972
560.78	58.951
561.12	60.367
561.45	60.928
561.79	59.314
562.13	59.404
562.47	59.640
562.81	59.654
563.15	59.591
563.48	59.689
563.82	59.849
564.16	59.471
564.50	57.973
564.84	57.898
565.17	58.216
565.51	59.904
565.85	58.916
566.19	59.682
566.52	59.517
566.86	58.290
567.20	57.472
567.54	58.029
567.88	56.766
568.21	57.240
568.55	55.815
568.89	55.698
569.23	54.598
569.56	52.145
569.90	53.593
570.24	50.875
570.57	52.655
570.91	52.736
571.25	50.510
571.59	50.420
571.92	49.452
572.26	49.940
572.60	49.891
572.93	49.922
573.27	49.906
573.61	49.553
573.95	49.618
574.28	48.358
574.62	48.131
574.96	48.043
575.29	48.233
575.63	47.214
575.97	48.468
576.30	49.452
576.64	47.682
576.98	48.340
577.31	48.833
577.65	48.096
577.98	47.654
578.32	46.966
578.66	47.109
578.99	47.426
579.33	47.764
579.67	47.590
580.00	47.747
580.34	48.259
580.67	48.121
581.01	48.031
581.35	46.641
581.68	46.507
582.02	46.431
582.35	46.277
582.69	46.650
583.02	46.913
583.36	47.646
583.70	48.520
584.03	49.847
584.37	50.141
584.70	48.984
585.04	47.642
585.37	47.371
585.71	47.396
586.04	47.479
586.38	47.426
586.72	48.694
587.05	48.296
587.39	47.666
587.72	48.742
588.06	48.021
588.39	48.305
588.73	48.901
589.06	49.054
589.40	49.153
589.73	50.128
590.07	49.811
590.40	49.807
590.73	51.606
591.07	51.357
591.40	51.291
591.74	51.719
592.07	51.855
592.41	50.353
592.74	49.781
593.08	47.852
593.41	47.908
593.75	48.021
594.08	47.854
594.41	48.763
594.75	49.466
595.08	49.414
595.42	49.614
595.75	49.343
596.09	49.257
596.42	50.310
596.75	50.755
597.09	49.658
597.42	49.910
597.75	50.756
598.09	49.751
598.42	50.000
598.76	48.992
599.09	48.277
599.42	46.798
599.76	47.404
600.09	49.057
600.42	47.726
600.76	47.474
601.09	47.519
601.42	47.317
601.76	48.472
602.09	48.515
602.42	50.000
602.76	49.448
603.09	48.920
603.42	49.331
603.76	49.113
604.09	48.198
604.42	48.858
604.76	50.512
605.09	49.223
605.42	49.526
605.75	48.599
606.09	47.856
606.42	47.039
606.75	48.052
607.09	49.231
607.42	48.206
607.75	48.135
608.08	47.394
608.42	48.515
608.75	49.687
609.08	49.975
609.41	50.305
609.75	49.546
610.08	49.925
610.41	49.082
610.74	50.171
611.07	49.457
611.41	50.026
611.74	50.107
612.07	49.251
612.40	50.602
612.73	51.864
613.07	50.562
613.40	48.414
613.73	49.692
614.06	49.694
614.39	51.043
614.72	49.636
615.06	50.503
615.39	48.690
615.72	49.139
616.05	49.665
616.38	49.288
616.71	50.948
617.05	50.772
617.38	49.717
617.71	50.818
618.04	52.190
618.37	51.135
618.70	52.541
619.03	52.500
619.36	52.677
619.69	53.677
620.03	53.031
620.36	52.361
620.69	51.749
621.02	52.294
621.35	55.187
621.68	56.888
622.01	53.917
622.34	54.110
622.67	53.628
623.00	52.067
623.33	53.430
623.66	52.580
623.99	51.362
624.32	53.232
624.65	51.203
624.99	52.521
625.32	53.146
625.65	53.417
625.98	54.230
626.31	54.115
626.64	54.419
626.97	55.585
627.30	54.116
627.63	53.813
627.96	55.076
628.29	56.152
628.62	55.752
628.95	55.210
629.28	57.460
629.61	56.630
629.94	55.914
630.26	55.435
630.59	57.960
630.92	56.923
631.25	53.333
631.58	57.599
631.91	56.031
632.24	57.913
632.57	58.636
632.90	59.905
633.23	58.588
633.56	60.076
633.89	57.707
634.22	59.753
634.55	60.356
634.88	61.175
635.20	58.077
635.53	63.067
635.86	58.908
636.19	60.155
636.52	58.546
636.85	58.065
637.18	57.736
637.51	57.736
637.83	57.424
638.16	60.709
638.49	56.812
638.82	60.263
639.15	58.480
639.48	60.660
639.81	59.693
640.13	61.039
640.46	60.787
640.79	59.499
641.12	57.903
641.45	60.661
641.77	60.444
642.10	61.769
642.43	62.058
642.76	62.871
643.09	62.036
643.41	59.223
643.74	60.956
644.07	61.905
644.40	63.514
644.73	63.748
645.05	61.577
645.38	61.728
645.71	61.879
646.04	62.837
646.36	63.298
646.69	64.029
647.02	63.327
647.35	62.873
647.67	60.512
648.00	66.045
648.33	61.433
648.66	60.339
648.98	57.621
649.31	57.025
649.64	56.986
649.96	57.699
650.29	59.114
650.62	58.974
650.94	59.630
651.27	60.149
651.60	60.721
651.92	58.741
652.25	61.634
652.58	58.000
652.90	59.691
653.23	58.487
653.56	57.530
653.88	57.045
654.21	56.567
654.54	55.008
654.86	57.216
655.19	54.240
655.52	47.755
655.84	36.875
656.17	39.879
656.49	53.811
656.82	57.385
657.15	45.489
657.47	34.784
657.80	26.406
658.13	26.574
658.45	42.033
658.78	43.265
659.10	43.547
659.43	44.629
659.75	47.361
660.08	48.207
660.41	53.115
660.73	52.486
661.06	57.539
661.38	58.708
661.71	59.959
662.03	62.017
662.36	60.879
662.68	61.504
663.01	60.044
663.33	62.645
663.66	58.372
663.98	57.209
664.31	58.849
664.63	61.290
664.96	58.043
665.28	56.071
665.61	58.874
665.93	60.652
666.26	59.436
666.58	57.047
666.91	61.176
667.23	60.849
667.56	61.848
667.88	59.472
668.21	63.723
668.53	59.338
668.86	58.255
669.18	58.962
669.50	58.354
669.83	56.279
670.15	57.809
670.48	58.612
670.80	59.677
671.13	55.034
671.45	56.849
671.77	57.725
672.10	53.267
672.42	53.371
672.75	54.352
673.07	54.741
673.39	51.927
673.72	51.874
674.04	55.833
674.37	56.356
674.69	55.460
675.01	60.222
675.34	54.730
675.66	60.417
675.98	55.654
676.31	59.174
676.63	56.770
676.95	54.091
677.28	59.294
677.60	57.831
677.92	55.275
678.25	55.580
678.57	53.463
678.89	52.731
679.22	55.257
679.54	50.201
679.86	50.895
680.18	51.068
680.51	50.947
680.83	50.895
681.15	49.800
681.48	55.943
681.80	54.339
682.12	51.210
682.44	52.510
682.77	54.305
683.09	53.318
683.41	54.773
683.73	50.922
684.06	52.655
684.38	50.968
684.70	53.813
685.02	49.793
685.34	50.988
685.67	51.970
685.99	49.367
686.31	48.850
686.63	51.206
686.96	47.148
687.28	47.677
687.60	50.570
687.92	51.919
688.24	49.798
688.56	51.310
688.89	52.679
689.21	50.000
689.53	51.972
689.85	52.093
690.17	52.232
690.49	50.827
690.82	52.184
691.14	52.381
691.46	49.533
691.78	47.523
692.10	50.753
692.42	51.948
692.74	52.350
693.06	52.252
693.39	50.679
693.71	49.548
694.03	48.037
694.35	51.869
694.67	52.273
694.99	52.742
695.31	56.397
695.63	54.500
695.95	49.495
696.27	50.259
696.59	55.556
696.91	50.700
697.23	47.044
697.56	49.257
697.88	46.452
698.20	46.925
698.52	49.882
698.84	46.651
699.16	49.750
699.48	51.128
699.80	46.898
700.12	51.752
700.44	50.420
700.76	46.802
701.08	48.182
701.40	51.205
701.72	55.247
702.04	54.785
702.36	55.518
702.68	51.652
703.00	55.758
703.32	51.320
703.64	45.480
703.96	50.435
704.28	47.239
704.60	54.921
704.91	46.057
705.23	49.834
705.55	53.710
705.87	53.791
706.19	55.556
706.51	47.766
706.83	52.412
707.15	50.467
707.47	47.899
707.79	45.833
708.11	42.750
708.43	47.500
708.74	45.995
709.06	49.296
709.38	48.624
709.70	47.633
710.02	47.771
710.34	48.607
710.66	43.590
710.98	51.987
711.29	47.869
711.61	47.797
711.93	49.186
712.25	51.890
712.57	51.648
712.89	49.627
713.20	50.173
713.52	48.780
713.84	47.099
714.16	47.079
714.48	49.032
714.80	47.115
715.11	50.152
715.43	44.201
715.75	50.000
716.07	47.176
716.39	44.966
716.70	47.601
717.02	50.000
717.34	47.773
717.66	50.885
717.97	47.826
718.29	47.699
718.61	45.276
718.93	47.287
719.24	50.570
719.56	50.201
719.88	47.079
720.20	43.182
720.51	44.444
720.83	47.490
721.15	50.420
721.46	47.984
721.78	46.640
722.10	41.636
722.42	44.398
722.73	45.714
723.05	52.653
723.37	54.661
723.68	50.901
724.00	48.718
724.32	44.889
724.63	47.273
724.95	44.105
725.27	45.161
725.58	51.271
725.90	42.857
726.22	45.174
726.53	41.356
726.85	46.442
727.16	46.038
727.48	44.939
727.80	47.368
728.11	38.559
728.43	43.529
728.74	42.742
729.06	42.400
729.38	49.624
729.69	41.833
730.01	40.769
730.32	45.896
730.64	43.816
730.96	41.509
731.27	41.667
731.59	37.627
731.90	37.261
732.22	45.110
732.53	42.525
732.85	42.553
733.16	44.781
733.48	39.568
733.80	43.116
734.11	39.322
734.43	39.519
734.74	39.697
735.06	40.065
735.37	44.109
735.69	43.434
736.00	41.115
736.32	41.946
736.63	41.197
736.95	44.369
737.26	34.875
737.58	43.624
737.89	38.462
738.21	36.466
738.52	42.387
738.83	42.795
739.15	43.668
739.46	40.551
739.78	36.996
740.09	33.987
740.41	42.029
740.72	42.126
741.04	41.296
741.35	36.170
741.66	39.810
741.98	39.796
742.29	41.584
742.61	42.932
742.92	40.758
743.23	30.556
743.55	49.321
743.86	45.933
744.18	36.364
744.49	43.085
744.80	41.304
745.12	46.524
745.43	35.610
745.74	42.708
746.06	43.902
746.37	46.597
746.68	39.336
747.00	43.085
747.31	41.294
747.62	41.748
747.94	43.541
748.25	38.119
748.56	46.448
748.88	48.168
749.19	43.617
749.50	43.350
749.82	39.623
750.13	37.615
750.44	46.617
750.75	43.284
751.07	40.146
751.38	37.548
751.69	36.471
752.01	34.496
752.32	39.841
752.63	39.921
752.94	42.241
753.26	46.025
753.57	38.914
753.88	38.496
754.19	37.917
754.51	42.562
754.82	36.842
755.13	47.500
755.44	39.113
755.75	37.891
756.07	38.132
756.38	34.717
756.69	33.716
757.00	35.333
757.31	33.007
757.63	33.841
757.94	33.333
758.25	31.507
758.56	33.777
758.87	30.595
759.18	33.645
759.50	34.909
759.81	41.137
760.12	34.194
760.43	31.818
760.74	32.716
761.05	36.308
761.36	31.818
761.67	36.061
761.99	38.776
762.30	37.091
762.61	40.711
762.92	34.842
763.23	37.838
763.54	37.383
763.85	31.356
764.16	35.270
764.47	32.661
764.78	32.967
765.10	36.364
765.41	30.915
765.72	33.968
766.03	34.211
766.34	36.131
766.65	41.036
766.96	33.333
767.27	35.106
767.58	36.207
767.89	43.262
768.20	39.205
768.51	40.110
768.82	34.975
769.13	32.719
769.44	36.481
769.75	32.877
770.06	32.759
770.37	35.096
770.68	39.594
770.99	34.389
771.30	41.667
771.61	38.009
771.92	37.931
772.23	37.438
772.54	36.022
772.85	41.975
773.16	41.011
773.47	41.176
773.78	37.255
774.09	38.323
774.39	33.333
774.70	41.401
775.01	40.000
775.32	34.286
775.63	31.405
775.94	28.244
776.25	40.945
776.56	35.000
776.87	27.885
777.18	38.462
777.48	42.241
777.79	46.957
778.10	29.524
778.41	37.838
778.72	39.683
779.03	38.346
779.34	33.333
779.65	41.781
779.95	28.082
780.26	32.414
780.57	37.398
780.88	32.283
781.19	35.345
781.50	36.434
781.80	36.095
782.11	26.415
782.42	33.846
782.73	30.935
783.04	31.111
783.34	32.639
783.65	25.641
783.96	35.246
784.27	37.931
784.57	35.772
784.88	43.750
785.19	37.000
785.50	44.000
785.81	33.621
786.11	22.414
786.42	37.864
786.73	41.818
787.04	34.694
787.34	21.429
787.65	27.619
787.96	37.168
788.26	34.545
788.57	33.333
788.88	35.156
789.19	31.746
789.49	26.087
789.80	41.837
790.11	29.293
790.41	35.455
790.72	51.087
791.03	11.364
791.33	45.000
791.64	35.000
791.95	37.209
792.25	29.787
792.56	37.079
792.87	32.877
793.17	43.478
793.48	25.333
793.79	46.250
794.09	45.000
794.40	35.849
794.70	25.243
795.01	18.699
795.32	26.496
795.62	34.286
795.93	35.294
796.23	23.585
796.54	23.958
796.85	22.059
797.15	42.254
797.46	29.167
797.76	40.909
798.07	23.256
798.37	25.000
798.68	15.152
798.99	28.395
799.29	48.571
799.60	37.681
799.90	36.000
800.21	42.623
800.51	26.154
800.82	20.339
801.12	24.638
801.43	29.508
801.73	33.333
802.04	32.000
802.34	19.403
802.65	59.615
802.95	39.286
803.26	25.000
803.56	23.529
803.87	19.565
804.17	24.000
804.48	39.683
804.78	37.037
805.09	32.609
805.39	24.444
805.70	37.037
806.00	36.842
806.30	29.577
806.61	40.000
806.91	18.056
807.22	44.737
807.52	22.667
807.83	21.818
808.13	33.333
808.43	33.824
808.74	26.866
809.04	23.729
809.35	40.385
809.65	21.875
809.95	8.108
810.26	15.909
810.56	23.288
810.86	33.333
811.17	38.000
811.47	40.816
811.77	-2.632
812.08	15.909
812.38	13.208
812.69	22.500
812.99	21.212
813.29	26.316
813.59	5.714
813.90	11.364
814.20	43.590
814.50	15.385
814.81	35.849
815.11	-17.021
815.41	25.424
815.72	38.095
816.02	29.412
816.32	27.083
816.62	24.390
816.93	37.838
817.23	28.571
817.53	41.667
817.84	19.565
818.14	21.154
818.44	-2.632
818.74	28.261
819.04	-12.500
819.35	13.514
819.65	32.353
819.95	36.111
820.25	57.143
820.56	42.500
820.86	-37.931
821.16	47.500
821.46	23.404
821.76	10.000
822.07	30.233
822.37	-21.622
822.67	15.625
822.97	40.476
823.27	75.000
823.57	-36.000
823.88	7.407
824.18	42.857
824.48	35.294
824.78	22.581
825.08	8.696
825.38	0.000
825.69	0.000
825.99	13.158
826.29	30.556
826.59	66.667
826.89	-19.048
827.19	39.130
827.49	7.500
827.79	57.143
828.09	21.429
828.39	42.424
828.70	59.459
829.00	25.000
829.30	33.333
829.60	13.333
829.90	43.750
830.20	28.947
830.50	25.926
830.80	13.043
831.10	31.818
831.40	81.818
831.70	16.129
832.00	19.048
832.30	33.333
832.60	-8.333
832.90	-13.793
833.20	-25.000
833.50	27.273
833.80	44.444
834.10	3.846
834.40	46.875
834.70	-33.333
835.00	-36.842
835.30	80.769
835.60	26.667
835.90	38.710
836.20	40.909
836.50	28.571
836.80	19.231
837.10	17.857
837.40	66.667
837.70	13.636
838.00	18.182
838.30	47.826
838.60	7.692
838.90	9.091
839.19	17.857
839.49	33.333
839.79	-46.154
840.09	-66.667
840.39	60.714
840.69	60.714
840.99	19.231
841.29	-42.105
841.59	-40.000
841.88	-54.545
842.18	90.000
842.48	6.250
842.78	46.667
843.08	3.704
843.38	-40.000
843.68	69.565
843.97	20.000
844.27	-53.333
844.57	10.000
844.87	27.778
845.17	-14.286
845.47	53.333
845.76	-19.048
846.06	17.647
846.36	-50.000
846.66	-35.714
846.96	20.000
847.25	-187.500
847.55	28.571
847.85	-37.500
848.15	-4.545
848.44	-300.000
848.74	20.000
849.04	66.667
849.34	27.273
849.63	-200.000
849.93	-100.000
850.23	0.000
850.53	30.000
850.82	38.462
851.12	-22.222
851.42	53.333
851.71	0.000
852.01	7.143
852.31	-250.000
852.61	-18.182
852.90	-5.000
853.20	5.263
853.50	-41.667
853.79	30.435
854.09	45.833
854.39	21.053
854.68	-16.667
854.98	19.355
855.28	34.615
855.57	10.000
855.87	33.333
856.17	44.444
856.46	-42.857
856.76	-6.667
857.05	55.556
857.35	12.000
857.65	50.000
857.94	46.154
858.24	51.724
858.53	22.222
858.83	37.037
859.13	45.455
859.42	8.696
859.72	-25.000
860.01	-200.000
860.31	-8.000
860.60	33.333
860.90	-166.667
861.20	-40.000
861.49	-350.000
861.79	13.333
862.08	10.000
862.38	73.333
862.67	-360.000
862.97	-50.000
863.26	-33.333
863.56	22.222
863.85	-266.667
864.15	100.000
864.44	10.000
864.74	64.286
865.03	200.000
865.33	-260.000
865.62	-166.667
865.92	-16.667
866.21	-200.000
866.51	-18.750
866.80	-145.455
867.10	-50.000
867.39	150.000
867.69	0.000
867.98	-23.077
868.27	-66.667
868.57	-66.667
868.86	27.778
869.16	-123.077
869.45	33.333
869.75	-700.000
870.04	0.000
870.33	-42.857
870.63	90.476
870.92	200.000
871.22	-100.000
871.51	-1400.000
871.80	133.333
872.10	333.333
>>>>>End Processed Spectral Data<<<<<
