SpectraSuite Data File
++++++++++++++++++++++++++++++++++++
Date: Fri May 15 21:12:30 PDT 2015
User: schluterlab
Dark Spectrum Present: Yes
Reference Spectrum Present: Yes
Number of Sampled Component Spectra: 1
Spectrometers: USB2E3373
Integration Time (usec): 3000 (USB2E3373)
Spectra Averaged: 3 (USB2E3373)
Boxcar Smoothing: 0 (USB2E3373)
Correct for Electrical Dark: No (USB2E3373)
Strobe/Lamp Enabled: No (USB2E3373)
Correct for Detector Non-linearity: No (USB2E3373)
Correct for Stray Light: No (USB2E3373)
Number of Pixels in Processed Spectrum: 2048
>>>>>Begin Processed Spectral Data<<<<<
178.53	0.000
178.91	0.000
179.29	75.000
179.67	-650.000
180.04	28.571
180.42	-25.000
180.80	-300.000
181.18	-300.000
181.56	300.000
181.94	-50.000
182.31	400.000
182.69	60.000
183.07	-66.667
183.45	-180.000
183.83	100.000
184.20	63.636
184.58	44.444
184.96	225.000
185.34	466.667
185.72	-500.000
186.09	46.154
186.47	-1400.000
186.85	216.667
187.23	166.667
187.61	300.000
187.98	-366.667
188.36	33.333
188.74	0.000
189.12	-29.412
189.49	-22.222
189.87	0.000
190.25	-7.143
190.63	0.000
191.00	-400.000
191.38	-5.263
191.76	-100.000
192.14	200.000
192.51	400.000
192.89	-155.556
193.27	28.571
193.65	150.000
194.02	163.636
194.40	-10.000
194.78	-162.500
195.15	-66.667
195.53	-50.000
195.91	475.000
196.29	-275.000
196.66	69.231
197.04	242.857
197.42	-133.333
197.79	-566.667
198.17	-107.692
198.55	800.000
198.92	-33.333
199.30	-600.000
199.68	-140.000
200.05	-100.000
200.43	0.000
200.81	100.000
201.18	66.667
201.56	900.000
201.94	-150.000
202.31	233.333
202.69	-200.000
203.07	200.000
203.44	-500.000
203.82	0.000
204.19	78.571
204.57	-266.667
204.95	162.500
205.32	40.000
205.70	-85.714
206.08	-100.000
206.45	122.222
206.83	21.429
207.20	-228.571
207.58	200.000
207.96	-33.333
208.33	-120.000
208.71	-225.000
209.08	-250.000
209.46	300.000
209.84	-180.000
210.21	-1300.000
210.59	42.857
210.96	-33.333
211.34	-125.000
211.71	46.667
212.09	-271.429
212.46	-1800.000
212.84	0.000
213.22	-10.000
213.59	250.000
213.97	30.769
214.34	-36.364
214.72	-33.333
215.09	150.000
215.47	30.769
215.84	-63.636
216.22	-200.000
216.59	0.000
216.97	-200.000
217.34	-125.000
217.72	-100.000
218.09	0.000
218.47	250.000
218.84	-800.000
219.22	-77.778
219.59	40.000
219.97	400.000
220.34	400.000
220.72	85.714
221.09	-300.000
221.47	-200.000
221.84	-500.000
222.22	-650.000
222.59	-18.182
222.97	-16.667
223.34	-33.333
223.72	-14.286
224.09	0.000
224.46	7.143
224.84	533.333
225.21	-70.000
225.59	-40.000
225.96	-200.000
226.34	400.000
226.71	-71.429
227.08	-200.000
227.46	-112.500
227.83	-250.000
228.21	-11.111
228.58	9.091
228.95	-50.000
229.33	130.000
229.70	-31.250
230.08	-25.000
230.45	-128.571
230.82	-71.429
231.20	-66.667
231.57	35.714
231.95	-85.714
232.32	-60.000
232.69	21.429
233.07	-33.333
233.44	0.000
233.81	-100.000
234.19	-55.556
234.56	-29.412
234.93	-100.000
235.31	-75.000
235.68	-280.000
236.05	-84.615
236.43	-35.000
236.80	17.647
237.17	31.250
237.55	-5.000
237.92	3.704
238.29	33.333
238.67	23.333
239.04	38.235
239.41	-2.439
239.79	-16.667
240.16	34.146
240.53	-10.526
240.91	-8.696
241.28	28.571
241.65	35.714
242.02	32.877
242.40	25.000
242.77	10.169
243.14	28.788
243.51	25.000
243.89	39.080
244.26	10.345
244.63	21.429
245.00	31.959
245.38	25.773
245.75	11.236
246.12	15.517
246.49	25.620
246.87	43.269
247.24	26.050
247.61	28.070
247.98	17.073
248.36	28.125
248.73	33.553
249.10	25.325
249.47	27.215
249.84	28.758
250.22	31.765
250.59	25.490
250.96	30.986
251.33	29.651
251.70	25.294
252.08	22.843
252.45	23.762
252.82	29.648
253.19	24.424
253.56	21.028
253.94	30.631
254.31	28.261
254.68	31.140
255.05	29.134
255.42	27.074
255.79	30.116
256.16	28.405
256.54	31.343
256.91	25.475
257.28	28.253
257.65	26.592
258.02	29.787
258.39	30.303
258.76	30.037
259.14	26.910
259.51	28.803
259.88	28.179
260.25	27.451
260.62	32.292
260.99	30.847
261.36	26.370
261.73	29.430
262.10	29.787
262.47	27.914
262.85	28.527
263.22	28.000
263.59	32.710
263.96	30.745
264.33	29.091
264.70	30.952
265.07	29.464
265.44	30.028
265.81	29.944
266.18	29.781
266.55	29.820
266.92	30.052
267.29	25.587
267.66	30.691
268.03	31.414
268.40	28.982
268.77	32.888
269.14	27.338
269.51	31.620
269.88	29.426
270.25	28.061
270.62	27.073
270.99	29.668
271.36	28.117
271.73	28.638
272.10	27.494
272.47	26.950
272.84	28.960
273.21	32.715
273.58	29.157
273.95	27.918
274.32	27.483
274.69	28.959
275.06	30.357
275.43	28.118
275.80	28.918
276.17	28.966
276.54	29.979
276.91	32.675
277.28	26.856
277.65	30.372
278.02	26.383
278.39	29.540
278.76	27.254
279.13	24.481
279.50	30.672
279.87	29.806
280.23	27.957
280.60	28.265
280.97	28.485
281.34	29.231
281.71	29.158
282.08	27.812
282.45	27.593
282.82	26.062
283.19	31.141
283.56	27.360
283.92	25.806
284.29	26.154
284.66	28.876
285.03	26.719
285.40	29.112
285.77	26.889
286.14	27.798
286.51	28.229
286.87	25.229
287.24	25.414
287.61	26.808
287.98	27.719
288.35	24.437
288.72	28.021
289.08	26.389
289.45	26.186
289.82	24.126
290.19	26.280
290.56	21.784
290.93	24.242
291.29	25.116
291.66	23.937
292.03	24.880
292.40	25.484
292.77	24.242
293.13	22.565
293.50	23.217
293.87	23.053
294.24	22.566
294.60	23.398
294.97	22.024
295.34	21.933
295.71	23.696
296.08	22.422
296.44	20.057
296.81	20.972
297.18	23.478
297.55	23.577
297.91	22.740
298.28	22.691
298.65	20.081
299.02	22.237
299.38	20.246
299.75	20.000
300.12	19.634
300.48	21.344
300.85	19.772
301.22	21.039
301.59	19.342
301.95	20.253
302.32	20.233
302.69	20.647
303.05	18.688
303.42	19.801
303.79	19.743
304.15	21.744
304.52	18.787
304.89	18.947
305.25	18.644
305.62	18.786
305.99	19.649
306.35	18.613
306.72	18.448
307.09	19.726
307.45	18.829
307.82	18.866
308.19	20.674
308.55	18.866
308.92	19.935
309.29	19.888
309.65	17.438
310.02	19.032
310.38	18.880
310.75	19.891
311.12	20.560
311.48	17.603
311.85	19.162
312.22	18.249
312.58	18.365
312.95	18.570
313.31	18.530
313.68	18.429
314.05	18.571
314.41	18.557
314.78	17.938
315.14	18.397
315.51	18.944
315.87	18.852
316.24	20.930
316.61	19.882
316.97	20.933
317.34	18.555
317.70	19.981
318.07	18.750
318.43	19.412
318.80	20.455
319.16	18.848
319.53	20.418
319.89	21.850
320.26	21.053
320.62	20.762
320.99	19.833
321.35	21.172
321.72	21.911
322.08	21.551
322.45	23.046
322.81	23.281
323.18	22.277
323.54	22.683
323.91	22.687
324.27	23.047
324.64	24.157
325.00	24.453
325.37	25.344
325.73	24.207
326.10	26.067
326.46	27.623
326.83	27.122
327.19	25.545
327.56	27.368
327.92	27.641
328.29	27.321
328.65	29.434
329.01	28.676
329.38	29.124
329.74	28.895
330.11	28.916
330.47	28.293
330.84	29.038
331.20	31.464
331.56	29.722
331.93	31.781
332.29	31.347
332.66	29.502
333.02	30.948
333.38	30.247
333.75	31.044
334.11	30.349
334.48	31.550
334.84	31.593
335.20	33.577
335.57	31.278
335.93	33.333
336.29	32.781
336.66	31.789
337.02	31.041
337.38	31.019
337.75	31.091
338.11	32.011
338.47	34.215
338.84	32.902
339.20	32.907
339.56	34.312
339.93	32.677
340.29	34.220
340.65	33.871
341.02	32.979
341.38	32.832
341.74	31.625
342.11	32.669
342.47	33.185
342.83	33.131
343.20	32.840
343.56	33.217
343.92	32.950
344.28	33.903
344.65	32.383
345.01	32.325
345.37	32.128
345.73	33.556
346.10	33.909
346.46	34.062
346.82	33.306
347.19	32.502
347.55	33.500
347.91	33.414
348.27	32.498
348.63	35.775
349.00	32.978
349.36	34.663
349.72	33.416
350.08	33.279
350.45	34.717
350.81	33.389
351.17	32.736
351.53	33.306
351.89	33.361
352.26	32.400
352.62	34.839
352.98	32.289
353.34	33.494
353.70	33.252
354.07	32.742
354.43	34.748
354.79	34.269
355.15	34.365
355.51	34.256
355.87	34.547
356.24	33.931
356.60	32.417
356.96	34.286
357.32	34.984
357.68	33.698
358.04	34.976
358.40	34.646
358.77	34.609
359.13	35.629
359.49	33.282
359.85	34.633
360.21	35.167
360.57	33.129
360.93	36.006
361.29	33.535
361.66	36.129
362.02	35.379
362.38	35.796
362.74	36.260
363.10	36.268
363.46	34.470
363.82	36.289
364.18	33.727
364.54	35.000
364.90	34.194
365.26	33.988
365.62	37.153
365.98	36.144
366.35	36.854
366.71	36.511
367.07	36.938
367.43	35.442
367.79	36.608
368.15	35.391
368.51	36.417
368.87	35.319
369.23	36.173
369.59	35.933
369.95	36.510
370.31	37.861
370.67	37.313
371.03	36.893
371.39	36.470
371.75	38.022
372.11	36.876
372.47	37.204
372.83	38.609
373.19	37.161
373.55	37.329
373.91	37.437
374.27	38.625
374.63	38.047
374.99	37.376
375.35	38.162
375.71	38.392
376.07	37.921
376.42	38.707
376.78	39.262
377.14	38.456
377.50	38.977
377.86	40.161
378.22	38.354
378.58	39.744
378.94	38.374
379.30	39.364
379.66	40.000
380.02	38.749
380.38	39.501
380.74	39.258
381.09	40.613
381.45	40.306
381.81	40.037
382.17	40.038
382.53	40.475
382.89	40.113
383.25	40.448
383.61	39.329
383.97	41.651
384.32	41.338
384.68	40.495
385.04	40.441
385.40	40.635
385.76	41.509
386.12	41.656
386.48	41.890
386.83	41.091
387.19	41.758
387.55	42.974
387.91	41.748
388.27	42.369
388.62	42.291
388.98	42.726
389.34	43.848
389.70	43.630
390.06	42.291
390.42	43.199
390.77	43.035
391.13	43.380
391.49	43.532
391.85	44.055
392.20	44.005
392.56	42.594
392.92	43.688
393.28	43.927
393.64	44.084
393.99	46.082
394.35	44.213
394.71	43.997
395.07	43.558
395.42	45.780
395.78	43.909
396.14	45.712
396.50	45.593
396.85	46.555
397.21	45.927
397.57	46.019
397.92	45.896
398.28	46.322
398.64	45.181
399.00	46.727
399.35	45.993
399.71	46.870
400.07	47.279
400.42	47.368
400.78	47.397
401.14	46.340
401.49	48.362
401.85	47.715
402.21	46.205
402.57	48.812
402.92	46.738
403.28	49.185
403.63	49.496
403.99	48.342
404.35	49.844
404.70	48.333
405.06	47.709
405.42	48.912
405.77	49.448
406.13	50.058
406.49	49.852
406.84	51.039
407.20	51.355
407.55	49.968
407.91	50.735
408.27	50.605
408.62	50.277
408.98	49.661
409.34	51.363
409.69	49.871
410.05	51.355
410.40	51.975
410.76	51.568
411.11	52.812
411.47	52.991
411.83	51.915
412.18	53.797
412.54	51.561
412.89	51.293
413.25	53.911
413.60	52.484
413.96	53.067
414.31	51.524
414.67	53.303
415.03	54.261
415.38	54.178
415.74	53.746
416.09	56.172
416.45	53.950
416.80	54.263
417.16	55.525
417.51	56.096
417.87	55.150
418.22	56.865
418.58	56.589
418.93	55.423
419.29	53.777
419.64	57.032
420.00	56.801
420.35	55.701
420.71	56.501
421.06	56.108
421.42	56.731
421.77	56.185
422.12	55.902
422.48	56.470
422.83	57.077
423.19	57.111
423.54	57.554
423.90	57.067
424.25	58.152
424.61	58.140
424.96	58.304
425.31	59.272
425.67	60.094
426.02	59.246
426.38	60.113
426.73	60.230
427.09	61.266
427.44	59.647
427.79	59.222
428.15	59.587
428.50	60.690
428.85	59.337
429.21	58.857
429.56	61.078
429.92	59.322
430.27	58.346
430.62	60.010
430.98	60.191
431.33	60.463
431.68	59.498
432.04	61.655
432.39	60.068
432.74	60.794
433.10	61.609
433.45	61.947
433.80	61.869
434.16	61.163
434.51	61.935
434.86	63.008
435.22	62.199
435.57	62.820
435.92	62.036
436.28	62.135
436.63	62.179
436.98	62.862
437.34	62.613
437.69	62.731
438.04	62.678
438.39	61.943
438.75	62.842
439.10	61.856
439.45	64.212
439.81	63.364
440.16	65.321
440.51	63.940
440.86	66.344
441.22	62.048
441.57	63.742
441.92	64.113
442.27	64.135
442.63	64.186
442.98	62.895
443.33	62.660
443.68	62.971
444.03	65.276
444.39	63.847
444.74	66.611
445.09	65.813
445.44	65.413
445.79	65.188
446.15	64.372
446.50	65.280
446.85	64.559
447.20	64.651
447.55	65.011
447.91	65.257
448.26	64.314
448.61	65.400
448.96	65.634
449.31	64.798
449.66	65.157
450.02	65.545
450.37	66.212
450.72	64.433
451.07	65.759
451.42	65.730
451.77	65.702
452.12	64.713
452.47	66.323
452.83	66.549
453.18	66.667
453.53	66.941
453.88	65.634
454.23	65.765
454.58	67.632
454.93	66.173
455.28	64.635
455.63	66.150
455.98	65.244
456.34	66.028
456.69	67.027
457.04	66.226
457.39	65.735
457.74	66.929
458.09	65.980
458.44	65.243
458.79	65.714
459.14	65.789
459.49	65.134
459.84	65.821
460.19	66.566
460.54	67.665
460.89	66.932
461.24	67.019
461.59	65.855
461.94	64.654
462.29	67.310
462.64	67.641
462.99	67.434
463.34	66.898
463.69	66.538
464.04	65.860
464.39	64.948
464.74	66.012
465.09	66.376
465.44	65.840
465.79	65.079
466.14	65.964
466.49	65.612
466.84	66.686
467.19	67.084
467.54	67.050
467.89	66.456
468.24	66.058
468.59	66.095
468.94	66.413
469.29	68.525
469.64	67.396
469.99	69.166
470.34	66.553
470.68	68.904
471.03	68.577
471.38	69.187
471.73	68.347
472.08	66.147
472.43	67.718
472.78	67.238
473.13	67.891
473.48	67.101
473.83	67.248
474.17	67.098
474.52	66.433
474.87	67.091
475.22	67.114
475.57	66.460
475.92	68.897
476.27	67.579
476.61	67.188
476.96	65.310
477.31	67.604
477.66	67.135
478.01	67.490
478.36	66.993
478.70	67.809
479.05	67.912
479.40	67.727
479.75	66.371
480.10	65.745
480.45	68.300
480.79	68.077
481.14	68.955
481.49	66.453
481.84	67.712
482.19	66.417
482.53	67.962
482.88	67.924
483.23	67.562
483.58	67.028
483.92	65.973
484.27	67.046
484.62	66.517
484.97	65.547
485.31	64.595
485.66	62.037
486.01	61.874
486.36	62.761
486.70	62.991
487.05	64.865
487.40	64.840
487.75	64.676
488.09	65.019
488.44	65.199
488.79	66.567
489.13	65.946
489.48	66.396
489.83	66.413
490.17	66.697
490.52	67.436
490.87	66.543
491.22	67.622
491.56	67.694
491.91	66.683
492.26	68.060
492.60	66.891
492.95	67.880
493.30	65.755
493.64	67.731
493.99	68.213
494.34	67.282
494.68	66.524
495.03	67.786
495.37	69.382
495.72	66.986
496.07	67.854
496.41	67.500
496.76	67.388
497.11	66.744
497.45	67.064
497.80	68.416
498.14	66.915
498.49	67.445
498.84	68.064
499.18	68.173
499.53	68.403
499.87	67.461
500.22	67.557
500.56	67.877
500.91	68.223
501.26	67.474
501.60	68.175
501.95	67.880
502.29	67.651
502.64	67.181
502.98	66.798
503.33	67.675
503.67	66.940
504.02	67.840
504.36	67.739
504.71	67.677
505.06	68.093
505.40	67.919
505.75	69.433
506.09	67.005
506.44	69.559
506.78	68.469
507.13	68.614
507.47	67.728
507.82	68.216
508.16	68.304
508.51	69.570
508.85	68.341
509.19	68.813
509.54	68.847
509.88	68.608
510.23	69.177
510.57	71.032
510.92	68.230
511.26	70.431
511.61	70.957
511.95	69.973
512.30	69.290
512.64	71.341
512.98	69.792
513.33	70.509
513.67	70.665
514.02	72.025
514.36	71.314
514.70	71.329
515.05	72.033
515.39	71.724
515.74	73.473
516.08	71.847
516.42	72.379
516.77	71.679
517.11	72.107
517.46	72.651
517.80	71.335
518.14	72.872
518.49	72.416
518.83	71.871
519.17	72.165
519.52	71.818
519.86	72.089
520.20	74.180
520.55	73.859
520.89	73.463
521.23	73.528
521.58	73.880
521.92	74.487
522.26	72.804
522.61	74.805
522.95	75.894
523.29	75.413
523.64	75.604
523.98	74.984
524.32	74.613
524.66	75.544
525.01	73.766
525.35	76.086
525.69	76.162
526.04	75.595
526.38	76.070
526.72	75.213
527.06	75.940
527.41	76.385
527.75	75.201
528.09	76.412
528.43	76.907
528.78	74.917
529.12	73.935
529.46	76.543
529.80	75.047
530.15	77.360
530.49	76.970
530.83	78.112
531.17	76.158
531.51	79.207
531.86	76.886
532.20	77.105
532.54	75.494
532.88	77.755
533.22	75.269
533.57	75.754
533.91	75.522
534.25	77.344
534.59	75.818
534.93	74.512
535.27	75.761
535.62	76.215
535.96	75.734
536.30	76.319
536.64	76.912
536.98	76.794
537.32	78.947
537.66	77.630
538.01	76.643
538.35	75.867
538.69	75.166
539.03	75.871
539.37	76.851
539.71	76.278
540.05	76.578
540.39	78.116
540.73	77.824
541.07	76.174
541.42	76.747
541.76	77.564
542.10	76.738
542.44	77.345
542.78	75.361
543.12	75.206
543.46	77.538
543.80	76.683
544.14	75.434
544.48	76.749
544.82	77.785
545.16	77.186
545.50	75.234
545.84	76.912
546.18	78.369
546.52	77.505
546.86	77.067
547.20	75.680
547.54	77.032
547.88	75.000
548.22	75.148
548.56	74.142
548.90	77.291
549.24	74.862
549.58	76.023
549.92	74.553
550.26	76.923
550.60	77.621
550.94	79.014
551.28	79.521
551.62	81.385
551.96	77.444
552.30	77.412
552.64	76.587
552.98	76.934
553.32	75.749
553.66	76.923
554.00	77.372
554.34	77.696
554.68	74.853
555.02	78.274
555.36	76.889
555.69	76.630
556.03	74.375
556.37	76.085
556.71	77.112
557.05	78.225
557.39	77.398
557.73	78.486
558.07	77.753
558.41	79.020
558.75	79.267
559.08	77.857
559.42	79.127
559.76	80.624
560.10	79.358
560.44	76.247
560.78	75.385
561.12	75.317
561.45	76.880
561.79	77.941
562.13	76.863
562.47	76.547
562.81	76.441
563.15	76.657
563.48	76.662
563.82	76.596
564.16	75.975
564.50	75.068
564.84	75.569
565.17	75.050
565.51	78.279
565.85	77.160
566.19	75.265
566.52	75.938
566.86	73.779
567.20	75.903
567.54	73.905
567.88	75.161
568.21	74.491
568.55	73.315
568.89	72.844
569.23	70.871
569.56	70.534
569.90	70.402
570.24	68.813
570.57	69.527
570.91	69.292
571.25	66.623
571.59	65.774
571.92	64.444
572.26	66.848
572.60	65.984
572.93	65.799
573.27	65.517
573.61	65.990
573.95	65.511
574.28	64.354
574.62	63.921
574.96	64.198
575.29	63.074
575.63	62.970
575.97	63.594
576.30	63.087
576.64	63.868
576.98	63.887
577.31	64.463
577.65	63.142
577.98	63.018
578.32	62.440
578.66	62.884
578.99	63.453
579.33	63.427
579.67	63.512
580.00	63.696
580.34	63.134
580.67	62.636
581.01	63.353
581.35	62.468
581.68	61.602
582.02	61.351
582.35	62.191
582.69	62.115
583.02	62.380
583.36	63.260
583.70	64.356
584.03	64.776
584.37	64.737
584.70	64.258
585.04	62.202
585.37	61.572
585.71	62.034
586.04	62.431
586.38	63.110
586.72	64.591
587.05	64.645
587.39	63.321
587.72	64.762
588.06	63.825
588.39	63.743
588.73	64.042
589.06	65.199
589.40	65.054
589.73	66.484
590.07	65.899
590.40	65.944
590.73	67.133
591.07	65.818
591.40	67.008
591.74	66.833
592.07	67.950
592.41	67.182
592.74	64.755
593.08	61.579
593.41	63.723
593.75	62.676
594.08	63.028
594.41	64.338
594.75	64.237
595.08	64.321
595.42	64.483
595.75	65.002
596.09	64.073
596.42	64.944
596.75	66.075
597.09	64.784
597.42	65.402
597.75	66.422
598.09	65.324
598.42	65.117
598.76	63.578
599.09	64.143
599.42	61.917
599.76	62.453
600.09	62.934
600.42	61.600
600.76	62.184
601.09	62.061
601.42	63.102
601.76	62.842
602.09	64.563
602.42	65.206
602.76	64.177
603.09	64.659
603.42	64.548
603.76	63.105
604.09	63.791
604.42	64.467
604.76	64.976
605.09	64.854
605.42	63.251
605.75	63.704
606.09	64.841
606.42	61.927
606.75	62.987
607.09	63.604
607.42	62.738
607.75	63.321
608.08	63.836
608.42	62.449
608.75	64.627
609.08	66.368
609.41	64.569
609.75	64.315
610.08	65.152
610.41	63.333
610.74	64.505
611.07	65.788
611.41	64.816
611.74	65.458
612.07	64.400
612.40	65.536
612.73	66.949
613.07	65.748
613.40	66.193
613.73	64.745
614.06	64.886
614.39	65.031
614.72	64.874
615.06	63.408
615.39	63.264
615.72	63.455
616.05	64.804
616.38	63.989
616.71	64.893
617.05	65.596
617.38	66.373
617.71	67.044
618.04	67.683
618.37	66.456
618.70	66.337
619.03	69.167
619.36	68.307
619.69	70.432
620.03	70.855
620.36	69.456
620.69	68.451
621.02	69.266
621.35	71.452
621.68	71.684
622.01	70.333
622.34	67.997
622.67	69.479
623.00	69.219
623.33	69.970
623.66	68.212
623.99	68.684
624.32	68.137
624.65	68.120
624.99	68.172
625.32	66.945
625.65	69.521
625.98	69.621
626.31	68.662
626.64	71.317
626.97	69.895
627.30	71.891
627.63	69.757
627.96	72.597
628.29	70.953
628.62	73.156
628.95	72.846
629.28	74.194
629.61	72.183
629.94	72.727
630.26	73.715
630.59	75.234
630.92	72.205
631.25	70.974
631.58	74.670
631.91	73.246
632.24	74.427
632.57	75.227
632.90	74.614
633.23	74.824
633.56	75.945
633.89	76.449
634.22	78.272
634.55	77.891
634.88	76.628
635.20	76.923
635.53	78.267
635.86	76.593
636.19	77.232
636.52	74.617
636.85	76.179
637.18	73.333
637.51	72.075
637.83	74.376
638.16	78.854
638.49	75.886
638.82	76.053
639.15	75.170
639.48	75.378
639.81	75.593
640.13	75.613
640.46	75.073
640.79	75.847
641.12	73.708
641.45	78.679
641.77	74.667
642.10	79.621
642.43	80.386
642.76	79.208
643.09	79.160
643.41	75.890
643.74	80.066
644.07	80.131
644.40	79.730
644.73	80.560
645.05	77.852
645.38	79.365
645.71	82.447
646.04	81.149
646.36	78.546
646.69	82.194
647.02	83.743
647.35	78.545
647.67	76.600
648.00	79.291
648.33	77.645
648.66	76.271
648.98	74.874
649.31	76.860
649.64	73.940
649.96	72.934
650.29	78.535
650.62	76.068
650.94	81.111
651.27	77.654
651.60	80.721
651.92	76.573
652.25	76.732
652.58	76.167
652.90	75.815
653.23	75.294
653.56	73.942
653.88	74.399
654.21	73.205
654.54	74.363
654.86	78.438
655.19	71.345
655.52	68.189
655.84	54.288
656.17	57.089
656.49	75.827
656.82	79.029
657.15	60.688
657.47	46.521
657.80	34.910
658.13	34.411
658.45	54.187
658.78	54.784
659.10	55.163
659.43	55.262
659.75	57.770
660.08	59.034
660.41	63.636
660.73	69.337
661.06	72.444
661.38	75.538
661.71	74.949
662.03	80.258
662.36	80.220
662.68	76.549
663.01	77.729
663.33	78.886
663.66	78.372
663.98	77.442
664.31	75.693
664.63	73.272
664.96	75.217
665.28	78.366
665.61	76.623
665.93	76.087
666.26	75.922
666.58	75.839
666.91	77.882
667.23	80.425
667.56	78.436
667.88	77.218
668.21	79.236
668.53	82.033
668.86	76.179
669.18	74.057
669.50	76.029
669.83	72.558
670.15	75.291
670.48	79.904
670.80	78.111
671.13	74.049
671.45	77.854
671.77	75.322
672.10	72.277
672.42	68.539
672.75	68.739
673.07	69.946
673.39	71.009
673.72	68.442
674.04	71.250
674.37	71.822
674.69	70.878
675.01	72.000
675.34	74.550
675.66	74.537
675.98	71.619
676.31	73.394
676.63	75.772
676.95	70.682
677.28	73.176
677.60	76.386
677.92	73.624
678.25	70.678
678.57	72.944
678.89	71.639
679.22	73.826
679.54	65.863
679.86	67.594
680.18	70.291
680.51	67.235
680.83	69.384
681.15	68.200
681.48	71.721
681.80	69.421
682.12	69.355
682.44	67.992
682.77	72.406
683.09	69.794
683.41	69.773
683.73	73.041
684.06	70.796
684.38	68.387
684.70	71.460
685.02	66.805
685.34	65.020
685.67	65.291
685.99	64.195
686.31	64.779
686.63	64.378
686.96	63.688
687.28	64.444
687.60	63.688
687.92	71.515
688.24	68.750
688.56	67.031
688.89	68.080
689.21	73.333
689.53	67.981
689.85	65.581
690.17	65.179
690.49	66.903
690.82	70.388
691.14	68.571
691.46	72.430
691.78	68.018
692.10	64.516
692.42	67.965
692.74	63.248
693.06	65.090
693.39	63.801
693.71	64.480
694.03	65.127
694.35	64.252
694.67	68.939
694.99	67.624
695.31	70.235
695.63	67.000
695.95	67.677
696.27	67.617
696.59	68.056
696.91	70.588
697.23	63.496
697.56	68.317
697.88	62.581
698.20	64.009
698.52	66.118
698.84	61.722
699.16	62.750
699.48	64.662
699.80	62.283
700.12	69.542
700.44	64.986
700.76	68.895
701.08	64.848
701.40	67.470
701.72	73.148
702.04	72.277
702.36	76.589
702.68	67.568
703.00	66.970
703.32	64.809
703.64	64.689
703.96	64.348
704.28	70.245
704.60	70.159
704.91	66.877
705.23	66.777
705.55	72.792
705.87	72.924
706.19	70.000
706.51	66.667
706.83	67.524
707.15	64.486
707.47	65.266
707.79	63.021
708.11	59.250
708.43	58.750
708.74	62.274
709.06	63.944
709.38	60.245
709.70	66.272
710.02	65.924
710.34	64.706
710.66	60.897
710.98	65.894
711.29	68.852
711.61	66.102
711.93	64.169
712.25	70.103
712.57	65.568
712.89	63.806
713.20	61.592
713.52	68.293
713.84	63.140
714.16	64.605
714.48	61.290
714.80	69.872
715.11	60.486
715.43	59.875
715.75	63.333
716.07	60.133
716.39	57.383
716.70	59.779
717.02	67.176
717.34	65.587
717.66	71.681
717.97	71.304
718.29	70.711
718.61	61.417
718.93	61.240
719.24	61.597
719.56	65.462
719.88	59.450
720.20	60.606
720.51	56.322
720.83	64.479
721.15	66.807
721.46	64.919
721.78	62.846
722.10	57.249
722.42	62.656
722.73	62.041
723.05	65.306
723.37	65.678
723.68	69.369
724.00	59.829
724.32	59.111
724.63	65.000
724.95	64.629
725.27	66.359
725.58	63.559
725.90	54.365
726.22	59.459
726.53	58.983
726.85	59.176
727.16	63.396
727.48	54.656
727.80	60.324
728.11	65.678
728.43	57.647
728.74	53.226
729.06	55.200
729.38	65.038
729.69	59.761
730.01	55.000
730.32	57.836
730.64	57.597
730.96	63.019
731.27	51.667
731.59	57.288
731.90	54.777
732.22	53.943
732.53	54.817
732.85	57.801
733.16	56.566
733.48	56.115
733.80	53.623
734.11	55.254
734.43	60.137
734.74	53.939
735.06	50.814
735.37	55.287
735.69	55.892
736.00	52.613
736.32	51.678
736.63	55.282
736.95	53.925
737.26	52.669
737.58	53.356
737.89	52.747
738.21	54.511
738.52	58.848
738.83	57.205
739.15	53.275
739.46	56.299
739.78	48.352
740.09	53.268
740.41	56.522
740.72	50.394
741.04	55.870
741.35	54.468
741.66	55.924
741.98	62.755
742.29	59.406
742.61	55.497
742.92	51.185
743.23	49.074
743.55	56.561
743.86	57.416
744.18	58.852
744.49	56.915
744.80	59.783
745.12	63.102
745.43	52.195
745.74	65.625
746.06	53.659
746.37	63.874
746.68	60.190
747.00	60.106
747.31	56.716
747.62	54.369
747.94	56.459
748.25	61.386
748.56	61.202
748.88	59.686
749.19	61.170
749.50	59.113
749.82	50.943
750.13	51.835
750.44	54.135
750.75	52.239
751.07	52.920
751.38	52.490
751.69	46.275
752.01	48.450
752.32	49.402
752.63	50.198
752.94	54.741
753.26	57.741
753.57	50.226
753.88	56.195
754.19	52.917
754.51	45.455
754.82	48.178
755.13	56.667
755.44	52.016
755.75	56.250
756.07	52.529
756.38	51.321
756.69	49.042
757.00	46.667
757.31	46.078
757.63	49.085
757.94	44.722
758.25	44.384
758.56	44.681
758.87	44.476
759.18	44.860
759.50	48.000
759.81	47.492
760.12	50.968
760.43	45.152
760.74	49.691
761.05	45.231
761.36	48.011
761.67	47.273
761.99	49.660
762.30	41.091
762.61	50.593
762.92	47.511
763.23	54.054
763.54	54.206
763.85	49.153
764.16	43.983
764.47	50.806
764.78	43.956
765.10	50.842
765.41	44.164
765.72	43.810
766.03	46.992
766.34	44.161
766.65	50.199
766.96	51.515
767.27	52.128
767.58	48.276
767.89	54.610
768.20	58.523
768.51	46.703
768.82	49.754
769.13	48.387
769.44	47.639
769.75	47.945
770.06	43.966
770.37	49.519
770.68	46.701
770.99	45.249
771.30	53.431
771.61	43.891
771.92	49.569
772.23	51.232
772.54	43.011
772.85	48.765
773.16	54.494
773.47	62.092
773.78	50.980
774.09	42.515
774.39	50.000
774.70	47.134
775.01	57.931
775.32	44.286
775.63	45.455
775.94	52.672
776.25	47.244
776.56	50.833
776.87	57.692
777.18	52.137
777.48	57.759
777.79	51.304
778.10	45.714
778.41	47.748
778.72	47.619
779.03	52.632
779.34	43.262
779.65	52.055
779.95	42.466
780.26	50.345
780.57	39.837
780.88	44.094
781.19	46.552
781.50	48.837
781.80	39.053
782.11	35.220
782.42	42.308
782.73	43.165
783.04	49.630
783.34	36.111
783.65	38.462
783.96	46.721
784.27	47.586
784.57	48.780
784.88	41.406
785.19	52.000
785.50	66.000
785.81	51.724
786.11	46.552
786.42	39.806
786.73	55.455
787.04	46.939
787.34	33.036
787.65	44.762
787.96	39.823
788.26	46.364
788.57	41.880
788.88	53.906
789.19	44.444
789.49	51.304
789.80	48.980
790.11	47.475
790.41	35.455
790.72	51.087
791.03	48.864
791.33	43.750
791.64	55.000
791.95	41.860
792.25	41.489
792.56	49.438
792.87	56.164
793.17	43.478
793.48	53.333
793.79	50.000
794.09	56.250
794.40	40.566
794.70	45.631
795.01	39.837
795.32	42.735
795.62	32.381
795.93	45.098
796.23	43.396
796.54	43.750
796.85	55.882
797.15	42.254
797.46	51.389
797.76	54.545
798.07	38.372
798.37	40.789
798.68	40.909
798.99	24.691
799.29	58.571
799.60	46.377
799.90	40.000
800.21	65.574
800.51	38.462
800.82	44.068
801.12	42.029
801.43	47.541
801.73	50.794
802.04	40.000
802.34	28.358
802.65	50.000
802.95	17.857
803.26	28.846
803.56	49.020
803.87	15.217
804.17	54.667
804.48	58.730
804.78	46.296
805.09	43.478
805.39	40.000
805.70	38.889
806.00	21.053
806.30	42.254
806.61	38.571
806.91	19.444
807.22	35.526
807.52	29.333
807.83	23.636
808.13	36.111
808.43	47.059
808.74	23.881
809.04	28.814
809.35	40.385
809.65	39.063
809.95	29.730
810.26	27.273
810.56	36.986
810.86	50.000
811.17	32.000
811.47	44.898
811.77	28.947
812.08	29.545
812.38	41.509
812.69	20.000
812.99	33.333
813.29	15.789
813.59	31.429
813.90	36.364
814.20	28.205
814.50	34.615
814.81	49.057
815.11	6.383
815.41	40.678
815.72	69.048
816.02	50.980
816.32	25.000
816.62	12.195
816.93	32.432
817.23	34.286
817.53	31.250
817.84	17.391
818.14	44.231
818.44	26.316
818.74	41.304
819.04	2.500
819.35	45.946
819.65	38.235
819.95	38.889
820.25	26.190
820.56	65.000
820.86	27.586
821.16	55.000
821.46	48.936
821.76	80.000
822.07	18.605
822.37	0.000
822.67	37.500
822.97	40.476
823.27	3.571
823.57	60.000
823.88	37.037
824.18	17.857
824.48	0.000
824.78	9.677
825.08	43.478
825.38	69.697
825.69	20.833
825.99	44.737
826.29	13.889
826.59	-6.667
826.89	14.286
827.19	34.783
827.49	17.500
827.79	20.000
828.09	50.000
828.39	39.394
828.70	83.784
829.00	28.571
829.30	19.048
829.60	23.333
829.90	6.250
830.20	0.000
830.50	33.333
830.80	26.087
831.10	27.273
831.40	60.606
831.70	32.258
832.00	47.619
832.30	-19.048
832.60	-41.667
832.90	55.172
833.20	-75.000
833.50	36.364
833.80	62.963
834.10	30.769
834.40	46.875
834.70	-88.889
835.00	36.842
835.30	30.769
835.60	20.000
835.90	-9.677
836.20	31.818
836.50	46.429
836.80	-11.538
837.10	0.000
837.40	66.667
837.70	27.273
838.00	27.273
838.30	0.000
838.60	-38.462
838.90	59.091
839.19	-25.000
839.49	20.000
839.79	15.385
840.09	-16.667
840.39	32.143
840.69	3.571
840.99	23.077
841.29	0.000
841.59	-40.000
841.88	-27.273
842.18	0.000
842.48	25.000
842.78	-60.000
843.08	22.222
843.38	-150.000
843.68	78.261
843.97	0.000
844.27	26.667
844.57	-5.000
844.87	88.889
845.17	-33.333
845.47	20.000
845.76	4.762
846.06	29.412
846.36	-80.000
846.66	7.143
846.96	13.333
847.25	-150.000
847.55	-21.429
847.85	0.000
848.15	-31.818
848.44	-833.333
848.74	30.000
849.04	33.333
849.34	18.182
849.63	-133.333
849.93	-160.000
850.23	16.667
850.53	0.000
850.82	23.077
851.12	-100.000
851.42	26.667
851.71	-3.846
852.01	35.714
852.31	75.000
852.61	-18.182
852.90	-30.000
853.20	26.316
853.50	-33.333
853.79	26.087
854.09	25.000
854.39	21.053
854.68	12.500
854.98	25.806
855.28	50.000
855.57	5.000
855.87	11.111
856.17	29.630
856.46	35.714
856.76	20.000
857.05	-22.222
857.35	16.000
857.65	33.333
857.94	-53.846
858.24	24.138
858.53	50.000
858.83	25.926
859.13	9.091
859.42	30.435
859.72	0.000
860.01	-400.000
860.31	8.000
860.60	14.286
860.90	-233.333
861.20	-100.000
861.49	-700.000
861.79	-73.333
862.08	-10.000
862.38	66.667
862.67	-60.000
862.97	-150.000
863.26	-66.667
863.56	77.778
863.85	-133.333
864.15	38.889
864.44	-40.000
864.74	92.857
865.03	150.000
865.33	-180.000
865.62	-83.333
865.92	-41.667
866.21	-133.333
866.51	25.000
866.80	36.364
867.10	-700.000
867.39	83.333
867.69	0.000
867.98	-7.692
868.27	-266.667
868.57	33.333
868.86	-16.667
869.16	-100.000
869.45	13.333
869.75	-1200.000
870.04	0.000
870.33	-185.714
870.63	52.381
870.92	466.667
871.22	-160.000
871.51	-900.000
871.80	33.333
872.10	566.667
>>>>>End Processed Spectral Data<<<<<
