SpectraSuite Data File
++++++++++++++++++++++++++++++++++++
Date: Fri May 15 20:49:51 PDT 2015
User: schluterlab
Dark Spectrum Present: Yes
Reference Spectrum Present: Yes
Number of Sampled Component Spectra: 1
Spectrometers: USB2E3373
Integration Time (usec): 3000 (USB2E3373)
Spectra Averaged: 3 (USB2E3373)
Boxcar Smoothing: 0 (USB2E3373)
Correct for Electrical Dark: No (USB2E3373)
Strobe/Lamp Enabled: No (USB2E3373)
Correct for Detector Non-linearity: No (USB2E3373)
Correct for Stray Light: No (USB2E3373)
Number of Pixels in Processed Spectrum: 2048
>>>>>Begin Processed Spectral Data<<<<<
178.53	0.000
178.91	0.000
179.29	-37.500
179.67	-550.000
180.04	100.000
180.42	-75.000
180.80	-300.000
181.18	266.667
181.56	250.000
181.94	-350.000
182.31	600.000
182.69	-220.000
183.07	-133.333
183.45	40.000
183.83	216.667
184.20	-45.455
184.58	144.444
184.96	75.000
185.34	-100.000
185.72	-150.000
186.09	100.000
186.47	100.000
186.85	300.000
187.23	277.778
187.61	-0.000
187.98	-333.333
188.36	55.556
188.74	-100.000
189.12	-29.412
189.49	27.778
189.87	0.000
190.25	7.143
190.63	-50.000
191.00	-533.333
191.38	-36.842
191.76	-100.000
192.14	75.000
192.51	-200.000
192.89	-111.111
193.27	-200.000
193.65	183.333
194.02	163.636
194.40	0.000
194.78	-112.500
195.15	16.667
195.53	-50.000
195.91	150.000
196.29	-200.000
196.66	69.231
197.04	214.286
197.42	-22.222
197.79	-666.667
198.17	-130.769
198.55	500.000
198.92	-233.333
199.30	-300.000
199.68	-120.000
200.05	-366.667
200.43	0.000
200.81	-233.333
201.18	-100.000
201.56	800.000
201.94	-750.000
202.31	133.333
202.69	-220.000
203.07	400.000
203.44	-1000.000
203.82	0.000
204.19	-14.286
204.57	-666.667
204.95	112.500
205.32	-70.000
205.70	14.286
206.08	175.000
206.45	144.444
206.83	-7.143
207.20	-100.000
207.58	800.000
207.96	-100.000
208.33	50.000
208.71	-25.000
209.08	-233.333
209.46	-1300.000
209.84	-200.000
210.21	-600.000
210.59	28.571
210.96	-66.667
211.34	-175.000
211.71	33.333
212.09	-28.571
212.46	-400.000
212.84	0.000
213.22	100.000
213.59	350.000
213.97	7.692
214.34	0.000
214.72	-83.333
215.09	350.000
215.47	7.692
215.84	-72.727
216.22	-366.667
216.59	87.500
216.97	50.000
217.34	0.000
217.72	-60.000
218.09	-100.000
218.47	187.500
218.84	-200.000
219.22	-66.667
219.59	-300.000
219.97	533.333
220.34	225.000
220.72	-114.286
221.09	-100.000
221.47	-250.000
221.84	-850.000
222.22	-650.000
222.59	-54.545
222.97	33.333
223.34	-366.667
223.72	-21.429
224.09	-23.810
224.46	28.571
224.84	800.000
225.21	0.000
225.59	-13.333
225.96	-350.000
226.34	450.000
226.71	-128.571
227.08	-50.000
227.46	-62.500
227.83	-300.000
228.21	-55.556
228.58	-63.636
228.95	-62.500
229.33	130.000
229.70	62.500
230.08	-162.500
230.45	-85.714
230.82	42.857
231.20	-13.333
231.57	21.429
231.95	0.000
232.32	-70.000
232.69	14.286
233.07	66.667
233.44	-240.000
233.81	-20.000
234.19	11.111
234.56	-17.647
234.93	800.000
235.31	50.000
235.68	-500.000
236.05	-53.846
236.43	20.000
236.80	-47.059
237.17	3.125
237.55	10.000
237.92	-29.630
238.29	-13.889
238.67	10.000
239.04	-11.765
239.41	-17.073
239.79	-6.667
240.16	19.512
240.53	-5.263
240.91	-6.522
241.28	-1.587
241.65	32.143
242.02	20.548
242.40	5.000
242.77	-5.085
243.14	13.636
243.51	11.250
243.89	18.391
244.26	4.598
244.63	10.714
245.00	24.742
245.38	23.711
245.75	2.247
246.12	7.759
246.49	13.223
246.87	17.308
247.24	17.647
247.61	10.526
247.98	13.821
248.36	12.500
248.73	17.105
249.10	13.636
249.47	13.924
249.84	18.954
250.22	14.706
250.59	25.490
250.96	18.779
251.33	13.372
251.70	21.176
252.08	20.305
252.45	18.812
252.82	18.090
253.19	21.659
253.56	16.822
253.94	18.018
254.31	18.261
254.68	17.982
255.05	16.535
255.42	19.214
255.79	21.622
256.16	22.957
256.54	24.254
256.91	16.730
257.28	19.331
257.65	19.476
258.02	17.730
258.39	20.539
258.76	18.681
259.14	20.266
259.51	17.476
259.88	18.557
260.25	16.340
260.62	21.528
260.99	15.593
261.36	16.096
261.73	19.937
262.10	19.757
262.47	19.632
262.85	17.241
263.22	21.538
263.59	19.315
263.96	21.118
264.33	21.212
264.70	19.048
265.07	14.286
265.44	21.246
265.81	19.209
266.18	20.492
266.55	20.823
266.92	17.617
267.29	18.277
267.66	15.345
268.03	18.848
268.40	20.888
268.77	21.925
269.14	18.705
269.51	17.995
269.88	19.451
270.25	16.327
270.62	16.585
270.99	17.136
271.36	18.093
271.73	18.310
272.10	18.491
272.47	18.440
272.84	19.554
273.21	20.186
273.58	21.446
273.95	19.908
274.32	16.397
274.69	18.326
275.06	18.527
275.43	19.955
275.80	17.881
276.17	17.241
276.54	17.345
276.91	17.544
277.28	21.616
277.65	17.975
278.02	18.511
278.39	17.505
278.76	18.868
279.13	13.693
279.50	18.487
279.87	19.654
280.23	17.204
280.60	19.298
280.97	19.394
281.34	16.923
281.71	22.177
282.08	18.405
282.45	16.830
282.82	17.181
283.19	18.375
283.56	15.992
283.92	19.165
284.29	19.231
284.66	17.248
285.03	17.092
285.40	17.958
285.77	17.750
286.14	17.148
286.51	19.742
286.87	17.367
287.24	18.232
287.61	14.991
287.98	18.596
288.35	16.638
288.72	19.440
289.08	17.535
289.45	20.562
289.82	15.909
290.19	17.235
290.56	17.153
290.93	15.657
291.29	14.330
291.66	16.063
292.03	16.906
292.40	15.645
292.77	14.833
293.13	14.286
293.50	14.416
293.87	16.641
294.24	16.074
294.60	15.350
294.97	16.071
295.34	15.031
295.71	15.052
296.08	13.453
296.44	13.514
296.81	15.972
297.18	14.058
297.55	15.854
297.91	14.384
298.28	15.303
298.65	15.197
299.02	14.151
299.38	13.543
299.75	14.345
300.12	13.743
300.48	11.989
300.85	13.435
301.22	11.688
301.59	13.158
301.95	14.684
302.32	14.267
302.69	13.557
303.05	13.985
303.42	12.827
303.79	14.720
304.15	14.934
304.52	11.891
304.89	12.281
305.25	15.133
305.62	11.669
305.99	12.632
306.35	11.792
306.72	12.373
307.09	12.885
307.45	11.596
307.82	11.806
308.19	14.053
308.55	14.068
308.92	13.834
309.29	12.402
309.65	13.025
310.02	12.761
310.38	14.160
310.75	13.333
311.12	13.994
311.48	13.998
311.85	11.728
312.22	13.080
312.58	13.376
312.95	12.166
313.31	12.733
313.68	13.403
314.05	12.551
314.41	12.784
314.78	13.505
315.14	13.669
315.51	14.907
315.87	13.730
316.24	14.156
316.61	12.500
316.97	14.881
317.34	14.160
317.70	14.054
318.07	14.808
318.43	15.196
318.80	13.636
319.16	15.039
319.53	15.954
319.89	15.059
320.26	14.069
320.62	15.547
320.99	13.987
321.35	15.416
321.72	16.926
322.08	15.206
322.45	16.142
322.81	16.306
323.18	16.290
323.54	15.251
323.91	16.261
324.27	17.480
324.64	17.416
325.00	16.332
325.37	18.090
325.73	16.682
326.10	17.257
326.46	16.951
326.83	18.285
327.19	16.914
327.56	18.245
327.92	19.894
328.29	18.750
328.65	19.057
329.01	19.669
329.38	19.078
329.74	18.319
330.11	18.350
330.47	18.646
330.84	18.846
331.20	21.958
331.56	18.981
331.93	20.365
332.29	20.898
332.66	19.819
333.02	21.190
333.38	19.890
333.75	20.421
334.11	19.069
334.48	20.762
334.84	20.055
335.20	20.677
335.57	19.402
335.93	19.783
336.29	20.902
336.66	20.981
337.02	19.331
337.38	19.537
337.75	21.455
338.11	21.821
338.47	21.442
338.84	20.148
339.20	19.287
339.56	21.009
339.93	20.680
340.29	21.927
340.65	21.864
341.02	21.543
341.38	21.327
341.74	21.201
342.11	19.757
342.47	21.619
342.83	20.848
343.20	21.864
343.56	21.913
343.92	22.232
344.28	21.776
344.65	21.071
345.01	21.262
345.37	20.606
345.73	21.506
346.10	21.657
346.46	22.960
346.82	22.013
347.19	20.865
347.55	21.721
347.91	21.926
348.27	20.776
348.63	22.232
349.00	20.591
349.36	21.613
349.72	21.891
350.08	21.557
350.45	21.868
350.81	22.010
351.17	20.847
351.53	22.531
351.89	21.305
352.26	22.960
352.62	22.097
352.98	20.723
353.34	21.981
353.70	22.816
354.07	22.661
354.43	22.658
354.79	21.470
355.15	22.778
355.51	22.310
355.87	23.220
356.24	21.778
356.60	22.312
356.96	22.540
357.32	21.326
357.68	23.612
358.04	21.002
358.40	22.588
358.77	22.169
359.13	22.578
359.49	22.111
359.85	22.075
360.21	22.807
360.57	23.106
360.93	23.298
361.29	22.432
361.66	23.276
362.02	23.333
362.38	22.544
362.74	23.391
363.10	23.627
363.46	23.202
363.82	23.892
364.18	23.247
364.54	23.015
364.90	22.581
365.26	23.362
365.62	23.942
365.98	23.240
366.35	24.472
366.71	24.834
367.07	24.673
367.43	23.868
367.79	24.311
368.15	23.546
368.51	24.836
368.87	23.403
369.23	23.755
369.59	24.854
369.95	24.927
370.31	25.578
370.67	24.925
371.03	23.450
371.39	24.216
371.75	25.421
372.11	26.106
372.47	24.852
372.83	25.763
373.19	24.536
373.55	25.343
373.91	25.558
374.27	26.152
374.63	25.413
374.99	25.461
375.35	25.905
375.71	26.294
376.07	26.966
376.42	25.510
376.78	26.174
377.14	26.473
377.50	26.295
377.86	27.644
378.22	27.122
378.58	27.115
378.94	26.339
379.30	27.199
379.66	27.712
380.02	26.916
380.38	27.328
380.74	27.887
381.09	28.773
381.45	27.523
381.81	28.624
382.17	28.997
382.53	27.733
382.89	27.872
383.25	28.563
383.61	29.756
383.97	28.571
384.32	29.018
384.68	28.978
385.04	28.615
385.40	28.687
385.76	29.560
386.12	30.530
386.48	30.715
386.83	30.438
387.19	30.281
387.55	31.179
387.91	30.685
388.27	30.281
388.62	31.089
388.98	30.203
389.34	31.230
389.70	32.007
390.06	30.837
390.42	30.570
390.77	32.047
391.13	31.652
391.49	31.695
391.85	31.969
392.20	30.948
392.56	31.723
392.92	32.531
393.28	32.547
393.64	31.772
393.99	33.166
394.35	32.258
394.71	32.695
395.07	32.621
395.42	32.240
395.78	33.876
396.14	32.661
396.50	33.354
396.85	32.646
397.21	33.271
397.57	34.483
397.92	33.673
398.28	32.989
398.64	33.795
399.00	35.214
399.35	32.901
399.71	34.233
400.07	34.341
400.42	34.945
400.78	34.476
401.14	33.333
401.49	35.259
401.85	35.222
402.21	34.458
402.57	34.875
402.92	34.693
403.28	35.526
403.63	35.246
403.99	34.821
404.35	36.540
404.70	34.464
405.06	35.488
405.42	35.861
405.77	35.909
406.13	36.612
406.49	35.761
406.84	36.186
407.20	36.725
407.55	36.317
407.91	36.297
408.27	36.839
408.62	36.308
408.98	36.845
409.34	37.175
409.69	37.339
410.05	36.453
410.40	36.543
410.76	38.359
411.11	38.250
411.47	37.936
411.83	37.728
412.18	37.709
412.54	36.829
412.89	37.438
413.25	37.665
413.60	36.708
413.96	37.055
414.31	38.659
414.67	37.203
415.03	37.816
415.38	38.969
415.74	38.762
416.09	39.713
416.45	39.905
416.80	38.863
417.16	39.434
417.51	38.774
417.87	38.136
418.22	39.896
418.58	38.796
418.93	41.129
419.29	38.476
419.64	39.145
420.00	40.554
420.35	39.164
420.71	40.036
421.06	39.349
421.42	40.565
421.77	39.538
422.12	40.125
422.48	38.928
422.83	39.617
423.19	40.632
423.54	39.741
423.90	39.929
424.25	40.528
424.61	40.820
424.96	39.489
425.31	41.883
425.67	41.491
426.02	41.048
426.38	40.639
426.73	40.920
427.09	42.025
427.44	40.235
427.79	40.660
428.15	40.837
428.50	41.066
428.85	39.926
429.21	41.766
429.56	40.701
429.92	40.627
430.27	39.950
430.62	40.565
430.98	41.136
431.33	42.061
431.68	41.287
432.04	41.643
432.39	41.871
432.74	41.371
433.10	41.839
433.45	41.159
433.80	42.078
434.16	40.886
434.51	41.452
434.86	42.218
435.22	41.671
435.57	41.921
435.92	41.677
436.28	41.622
436.63	41.529
436.98	41.715
437.34	42.226
437.69	42.815
438.04	42.507
438.39	41.845
438.75	41.530
439.10	41.992
439.45	44.187
439.81	42.324
440.16	43.468
440.51	42.925
440.86	43.867
441.22	42.647
441.57	42.991
441.92	43.547
442.27	43.016
442.63	42.666
442.98	43.079
443.33	42.905
443.68	43.714
444.03	43.219
444.39	43.335
444.74	44.482
445.09	42.929
445.44	44.046
445.79	44.611
446.15	43.282
446.50	42.707
446.85	43.783
447.20	43.274
447.55	44.699
447.91	43.768
448.26	44.508
448.61	44.675
448.96	44.234
449.31	44.104
449.66	43.844
450.02	43.582
450.37	44.339
450.72	43.127
451.07	44.873
451.42	44.132
451.77	44.002
452.12	44.019
452.47	43.529
452.83	44.464
453.18	43.643
453.53	44.690
453.88	43.777
454.23	43.884
454.58	44.836
454.93	44.974
455.28	43.048
455.63	44.203
455.98	44.979
456.34	43.806
456.69	44.536
457.04	44.991
457.39	44.957
457.74	44.740
458.09	42.966
458.44	44.470
458.79	44.090
459.14	44.222
459.49	44.119
459.84	44.162
460.19	43.932
460.54	44.804
460.89	45.057
461.24	43.913
461.59	43.824
461.94	43.962
462.29	45.959
462.64	45.515
462.99	45.227
463.34	43.950
463.69	43.951
464.04	43.947
464.39	42.996
464.74	44.049
465.09	43.793
465.44	44.432
465.79	43.084
466.14	44.527
466.49	43.646
466.84	44.319
467.19	44.368
467.54	44.061
467.89	44.599
468.24	44.221
468.59	44.635
468.94	43.873
469.29	44.984
469.64	43.472
469.99	45.690
470.34	44.232
470.68	46.234
471.03	46.497
471.38	45.720
471.73	44.468
472.08	43.962
472.43	45.772
472.78	45.853
473.13	45.306
473.48	44.625
473.83	43.773
474.17	44.819
474.52	45.246
474.87	44.545
475.22	44.661
475.57	44.777
475.92	44.103
476.27	44.703
476.61	45.718
476.96	44.283
477.31	44.619
477.66	43.989
478.01	44.526
478.36	43.573
478.70	44.263
479.05	44.890
479.40	44.091
479.75	43.848
480.10	44.700
480.45	43.450
480.79	44.512
481.14	44.057
481.49	43.103
481.84	43.533
482.19	43.686
482.53	44.700
482.88	43.103
483.23	44.146
483.58	42.406
483.92	44.143
484.27	42.525
484.62	42.806
484.97	41.833
485.31	41.402
485.66	39.253
486.01	38.656
486.36	38.758
486.70	40.000
487.05	40.786
487.40	41.081
487.75	41.634
488.09	41.502
488.44	43.226
488.79	43.706
489.13	43.830
489.48	43.010
489.83	42.780
490.17	43.955
490.52	43.741
490.87	42.851
491.22	44.174
491.56	43.596
491.91	43.260
492.26	44.191
492.60	43.138
492.95	43.925
493.30	43.625
493.64	44.253
493.99	43.720
494.34	43.592
494.68	43.810
495.03	43.455
495.37	43.768
495.72	43.463
496.07	43.561
496.41	44.245
496.76	42.561
497.11	42.524
497.45	44.105
497.80	44.501
498.14	43.766
498.49	44.083
498.84	44.511
499.18	43.524
499.53	43.700
499.87	42.802
500.22	42.829
500.56	43.318
500.91	43.775
501.26	43.994
501.60	42.400
501.95	43.814
502.29	43.051
502.64	43.292
502.98	43.463
503.33	42.459
503.67	43.663
504.02	43.891
504.36	43.394
504.71	43.687
505.06	43.332
505.40	43.553
505.75	45.000
506.09	43.082
506.44	43.891
506.78	44.490
507.13	44.261
507.47	43.551
507.82	44.071
508.16	43.740
508.51	44.071
508.85	45.369
509.19	44.119
509.54	43.485
509.88	43.258
510.23	44.432
510.57	44.789
510.92	43.230
511.26	44.081
511.61	44.664
511.95	43.945
512.30	44.623
512.64	45.242
512.98	45.592
513.33	45.495
513.67	45.424
514.02	45.195
514.36	45.371
514.70	46.096
515.05	47.415
515.39	46.340
515.74	46.347
516.08	45.965
516.42	45.878
516.77	46.460
517.11	46.766
517.46	45.841
517.80	46.663
518.14	46.846
518.49	46.454
518.83	46.112
519.17	46.574
519.52	46.655
519.86	45.918
520.20	46.598
520.55	46.592
520.89	46.863
521.23	46.548
521.58	47.003
521.92	47.564
522.26	46.779
522.61	46.818
522.95	49.007
523.29	46.442
523.64	47.586
523.98	47.764
524.32	47.680
524.66	46.543
525.01	46.883
525.35	46.727
525.69	47.744
526.04	46.561
526.38	48.703
526.72	47.090
527.06	47.082
527.41	47.823
527.75	47.319
528.09	47.774
528.43	47.873
528.78	46.799
529.12	47.355
529.46	47.368
529.80	46.168
530.15	48.119
530.49	48.418
530.83	48.222
531.17	46.877
531.51	46.922
531.86	47.247
532.20	47.808
532.54	48.128
532.88	48.528
533.22	47.446
533.57	46.986
533.91	46.084
534.25	47.982
534.59	47.274
534.93	46.822
535.27	46.129
535.62	46.468
535.96	46.314
536.30	47.230
536.64	47.002
536.98	47.108
537.32	49.075
537.66	48.527
538.01	48.322
538.35	47.989
538.69	45.406
539.03	46.275
539.37	47.443
539.71	46.149
540.05	45.689
540.39	46.953
540.73	45.746
541.07	47.307
541.42	46.505
541.76	48.314
542.10	46.180
542.44	46.630
542.78	45.148
543.12	45.604
543.46	46.801
543.80	47.189
544.14	44.726
544.48	45.836
544.82	47.095
545.16	47.336
545.50	46.595
545.84	46.955
546.18	46.383
546.52	45.999
546.86	47.520
547.20	48.283
547.54	46.078
547.88	46.671
548.22	45.694
548.56	45.646
548.90	46.765
549.24	45.386
549.58	46.827
549.92	44.818
550.26	46.886
550.60	47.658
550.94	47.274
551.28	48.918
551.62	48.154
551.96	45.865
552.30	46.345
552.64	46.121
552.98	46.976
553.32	44.722
553.66	46.517
554.00	46.788
554.34	47.120
554.68	46.903
555.02	46.429
555.36	46.223
555.69	45.934
556.03	45.539
556.37	45.409
556.71	45.921
557.05	46.010
557.39	45.353
557.73	47.601
558.07	46.833
558.41	47.320
558.75	47.311
559.08	47.203
559.42	46.746
559.76	47.718
560.10	46.483
560.44	46.835
560.78	46.224
561.12	45.910
561.45	46.803
561.79	45.798
562.13	46.274
562.47	46.691
562.81	46.254
563.15	44.288
563.48	45.757
563.82	46.534
564.16	45.543
564.50	45.676
564.84	44.980
565.17	45.540
565.51	46.516
565.85	46.296
566.19	45.225
566.52	45.174
566.86	46.594
567.20	43.960
567.54	45.316
567.88	44.464
568.21	43.948
568.55	43.913
568.89	43.634
569.23	41.695
569.56	41.856
569.90	42.022
570.24	40.231
570.57	40.655
570.91	40.328
571.25	39.198
571.59	38.680
571.92	38.252
572.26	39.100
572.60	38.574
572.93	38.594
573.27	38.871
573.61	38.395
573.95	38.230
574.28	38.533
574.62	37.376
574.96	37.223
575.29	37.532
575.63	36.797
575.97	38.086
576.30	38.150
576.64	37.272
576.98	37.761
577.31	37.429
577.65	37.179
577.98	36.581
578.32	36.872
578.66	35.848
578.99	36.593
579.33	37.122
579.67	36.563
580.00	37.722
580.34	37.935
580.67	37.562
581.01	37.608
581.35	36.434
581.68	36.450
582.02	35.970
582.35	36.286
582.69	36.599
583.02	36.723
583.36	37.166
583.70	38.629
584.03	38.365
584.37	38.594
584.70	37.857
585.04	36.762
585.37	36.953
585.71	36.559
586.04	37.191
586.38	36.810
586.72	37.877
587.05	37.551
587.39	37.741
587.72	37.917
588.06	37.836
588.39	37.824
588.73	38.156
589.06	39.237
589.40	38.368
589.73	39.248
590.07	38.595
590.40	39.319
590.73	40.692
591.07	39.483
591.40	39.671
591.74	39.457
592.07	39.981
592.41	39.708
592.74	38.072
593.08	36.954
593.41	37.035
593.75	37.717
594.08	37.144
594.41	37.773
594.75	38.092
595.08	38.290
595.42	38.351
595.75	38.603
596.09	39.249
596.42	39.438
596.75	39.387
597.09	39.408
597.42	39.657
597.75	40.266
598.09	39.611
598.42	38.177
598.76	38.653
599.09	37.901
599.42	37.628
599.76	37.735
600.09	36.802
600.42	37.339
600.76	37.221
601.09	37.748
601.42	37.485
601.76	37.991
602.09	38.861
602.42	39.090
602.76	38.115
603.09	38.040
603.42	39.381
603.76	38.065
604.09	37.789
604.42	37.860
604.76	38.852
605.09	39.260
605.42	39.187
605.75	38.135
606.09	36.433
606.42	37.114
606.75	38.225
607.09	38.154
607.42	38.857
607.75	37.922
608.08	37.332
608.42	37.186
608.75	39.470
609.08	40.159
609.41	39.645
609.75	39.214
610.08	39.041
610.41	37.681
610.74	39.054
611.07	39.483
611.41	39.388
611.74	39.872
612.07	38.865
612.40	39.059
612.73	39.831
613.07	39.483
613.40	39.606
613.73	40.459
614.06	39.065
614.39	39.594
614.72	39.384
615.06	39.385
615.39	37.500
615.72	38.375
616.05	38.994
616.38	39.088
616.71	39.205
617.05	39.839
617.38	40.666
617.71	39.497
618.04	40.825
618.37	40.605
618.70	40.132
619.03	42.847
619.36	41.606
619.69	40.713
620.03	43.243
620.36	39.628
620.69	40.400
621.02	41.437
621.35	43.402
621.68	43.707
622.01	42.500
622.34	42.458
622.67	42.429
623.00	41.041
623.33	40.396
623.66	39.865
623.99	40.847
624.32	41.977
624.65	40.752
624.99	41.836
625.32	39.803
625.65	42.262
625.98	43.755
626.31	41.812
626.64	42.894
626.97	42.757
627.30	42.732
627.63	43.068
627.96	42.498
628.29	43.201
628.62	44.444
628.95	44.289
629.28	43.952
629.61	43.669
629.94	44.966
630.26	44.170
630.59	46.306
630.92	44.103
631.25	43.487
631.58	44.604
631.91	43.092
632.24	45.528
632.57	45.227
632.90	45.077
633.23	45.529
633.56	46.977
633.89	48.335
634.22	47.160
634.55	47.141
634.88	46.105
635.20	47.308
635.53	47.200
635.86	45.774
636.19	46.572
636.52	46.684
636.85	45.409
637.18	44.277
637.51	44.277
637.83	45.204
638.16	49.113
638.49	44.959
638.82	47.237
639.15	45.862
639.48	47.180
639.81	45.607
640.13	47.186
640.46	47.230
640.79	45.950
641.12	45.199
641.45	45.646
641.77	47.407
642.10	51.975
642.43	47.428
642.76	47.525
643.09	48.788
643.41	47.087
643.74	48.270
644.07	48.768
644.40	50.169
644.73	47.811
645.05	46.644
645.38	50.441
645.71	46.099
646.04	49.013
646.36	48.759
646.69	50.180
647.02	50.473
647.35	46.828
647.67	46.252
648.00	52.052
648.33	46.758
648.66	46.610
648.98	43.216
649.31	46.777
649.64	45.526
649.96	45.057
650.29	48.382
650.62	48.034
650.94	47.963
651.27	45.438
651.60	45.766
651.92	47.028
652.25	48.490
652.58	44.667
652.90	47.341
653.23	44.202
653.56	44.839
653.88	45.017
654.21	44.483
654.54	43.803
654.86	43.633
655.19	42.251
655.52	37.848
655.84	29.977
656.17	32.232
656.49	44.168
656.82	46.695
657.15	36.508
657.47	28.132
657.80	21.234
658.13	21.293
658.45	33.599
658.78	34.789
659.10	35.466
659.43	36.058
659.75	37.889
660.08	39.379
660.41	41.982
660.73	41.989
661.06	47.660
661.38	46.380
661.71	43.326
662.03	48.283
662.36	47.253
662.68	47.788
663.01	52.620
663.33	47.100
663.66	45.581
663.98	45.349
664.31	46.695
664.63	46.774
664.96	43.261
665.28	44.371
665.61	45.022
665.93	47.609
666.26	44.252
666.58	46.532
666.91	49.882
667.23	49.528
667.56	47.156
667.88	49.880
668.21	45.107
668.53	48.463
668.86	46.462
669.18	45.991
669.50	46.247
669.83	46.977
670.15	47.552
670.48	47.608
670.80	43.318
671.13	44.519
671.45	43.836
671.77	45.064
672.10	44.752
672.42	41.199
672.75	41.563
673.07	45.438
673.39	41.651
673.72	39.250
674.04	40.417
674.37	42.161
674.69	44.111
675.01	44.000
675.34	43.243
675.66	47.917
675.98	43.237
676.31	43.807
676.63	44.893
676.95	43.864
677.28	46.353
677.60	49.157
677.92	43.807
678.25	44.639
678.57	41.342
678.89	44.118
679.22	45.414
679.54	42.369
679.86	40.954
680.18	43.883
680.51	41.288
680.83	38.966
681.15	40.800
681.48	43.443
681.80	41.322
682.12	43.145
682.44	36.402
682.77	41.280
683.09	44.851
683.41	43.864
683.73	42.627
684.06	42.035
684.38	39.355
684.70	42.266
685.02	40.041
685.34	39.723
685.67	38.462
685.99	39.060
686.31	36.637
686.63	39.332
686.96	36.122
687.28	36.364
687.60	35.932
687.92	43.232
688.24	38.911
688.56	44.105
688.89	40.402
689.21	43.333
689.53	44.084
689.85	37.674
690.17	43.750
690.49	41.844
690.82	41.019
691.14	38.333
691.46	39.953
691.78	40.991
692.10	40.860
692.42	37.013
692.74	38.889
693.06	37.613
693.39	40.950
693.71	38.914
694.03	37.644
694.35	38.084
694.67	42.172
694.99	38.642
695.31	40.470
695.63	40.750
695.95	40.404
696.27	39.119
696.59	42.222
696.91	42.857
697.23	38.046
697.56	38.119
697.88	37.849
698.20	37.585
698.52	40.941
698.84	38.756
699.16	39.500
699.48	38.596
699.80	38.710
700.12	37.197
700.44	41.737
700.76	38.663
701.08	39.091
701.40	44.277
701.72	45.679
702.04	41.914
702.36	44.482
702.68	40.541
703.00	37.576
703.32	38.416
703.64	36.441
703.96	38.261
704.28	38.650
704.60	40.317
704.91	36.909
705.23	38.870
705.55	39.929
705.87	43.682
706.19	40.370
706.51	39.519
706.83	38.264
707.15	36.449
707.47	38.095
707.79	34.896
708.11	36.500
708.43	35.750
708.74	37.984
709.06	40.563
709.38	40.979
709.70	39.349
710.02	39.172
710.34	42.415
710.66	35.256
710.98	34.437
711.29	43.279
711.61	35.932
711.93	36.482
712.25	44.330
712.57	42.857
712.89	41.791
713.20	39.792
713.52	37.631
713.84	36.177
714.16	36.426
714.48	40.000
714.80	35.577
715.11	34.650
715.43	38.245
715.75	35.667
716.07	36.213
716.39	33.893
716.70	34.317
717.02	39.313
717.34	42.105
717.66	40.708
717.97	34.783
718.29	41.004
718.61	42.126
718.93	34.109
719.24	34.981
719.56	41.365
719.88	36.082
720.20	35.227
720.51	34.866
720.83	36.293
721.15	40.336
721.46	36.290
721.78	40.711
722.10	39.777
722.42	33.195
722.73	37.959
723.05	44.082
723.37	44.068
723.68	42.342
724.00	38.462
724.32	37.333
724.63	38.636
724.95	34.934
725.27	33.180
725.58	35.169
725.90	32.937
726.22	34.749
726.53	34.915
726.85	36.330
727.16	40.755
727.48	35.223
727.80	37.247
728.11	36.441
728.43	32.549
728.74	33.065
729.06	34.000
729.38	34.586
729.69	34.263
730.01	34.615
730.32	40.299
730.64	31.449
730.96	35.849
731.27	31.000
731.59	31.525
731.90	32.166
732.22	36.909
732.53	36.213
732.85	32.624
733.16	34.680
733.48	27.698
733.80	31.884
734.11	30.169
734.43	31.615
734.74	36.667
735.06	31.270
735.37	34.139
735.69	35.354
736.00	30.662
736.32	33.557
736.63	31.338
736.95	35.495
737.26	32.740
737.58	31.208
737.89	31.136
738.21	27.820
738.52	32.922
738.83	28.384
739.15	33.624
739.46	35.039
739.78	30.037
740.09	32.026
740.41	32.246
740.72	27.559
741.04	34.818
741.35	34.043
741.66	35.545
741.98	32.653
742.29	34.158
742.61	35.079
742.92	34.123
743.23	30.093
743.55	37.557
743.86	30.144
744.18	32.536
744.49	34.043
744.80	38.043
745.12	40.107
745.43	31.220
745.74	37.500
746.06	29.756
746.37	35.079
746.68	33.649
747.00	31.915
747.31	39.801
747.62	33.495
747.94	35.407
748.25	29.208
748.56	38.798
748.88	34.555
749.19	40.426
749.50	29.064
749.82	28.302
750.13	35.780
750.44	30.827
750.75	34.328
751.07	35.401
751.38	28.736
751.69	32.549
752.01	39.535
752.32	34.661
752.63	31.225
752.94	29.741
753.26	34.728
753.57	29.412
753.88	29.646
754.19	30.000
754.51	29.752
754.82	28.745
755.13	33.750
755.44	34.274
755.75	33.594
756.07	29.572
756.38	27.547
756.69	24.138
757.00	30.333
757.31	30.392
757.63	29.268
757.94	25.833
758.25	28.493
758.56	26.596
758.87	25.212
759.18	27.414
759.50	25.818
759.81	31.104
760.12	29.032
760.43	29.091
760.74	29.630
761.05	29.538
761.36	27.557
761.67	28.485
761.99	33.673
762.30	27.273
762.61	29.249
762.92	30.769
763.23	28.829
763.54	33.645
763.85	28.814
764.16	31.535
764.47	25.403
764.78	27.473
765.10	28.620
765.41	26.498
765.72	25.714
766.03	23.684
766.34	27.737
766.65	30.677
766.96	24.747
767.27	29.255
767.58	25.862
767.89	26.241
768.20	31.818
768.51	28.022
768.82	34.483
769.13	25.806
769.44	25.322
769.75	31.507
770.06	31.466
770.37	26.923
770.68	26.396
770.99	28.959
771.30	35.294
771.61	28.507
771.92	33.621
772.23	29.557
772.54	32.258
772.85	26.543
773.16	29.213
773.47	39.869
773.78	35.294
774.09	32.934
774.39	29.333
774.70	29.936
775.01	28.276
775.32	30.000
775.63	32.231
775.94	20.611
776.25	27.559
776.56	28.333
776.87	34.615
777.18	29.060
777.48	33.621
777.79	32.174
778.10	24.762
778.41	29.730
778.72	36.508
779.03	37.594
779.34	26.950
779.65	29.452
779.95	26.712
780.26	25.517
780.57	18.699
780.88	29.134
781.19	26.724
781.50	36.434
781.80	23.669
782.11	19.497
782.42	30.000
782.73	28.058
783.04	21.481
783.34	20.139
783.65	24.786
783.96	22.951
784.27	31.034
784.57	26.016
784.88	30.469
785.19	34.000
785.50	27.000
785.81	31.897
786.11	31.897
786.42	26.214
786.73	24.545
787.04	29.592
787.34	23.214
787.65	28.571
787.96	23.009
788.26	26.364
788.57	15.385
788.88	31.250
789.19	22.222
789.49	20.870
789.80	15.306
790.11	18.182
790.41	22.727
790.72	27.174
791.03	23.864
791.33	40.000
791.64	27.500
791.95	25.581
792.25	24.468
792.56	25.843
792.87	21.918
793.17	15.942
793.48	18.667
793.79	22.500
794.09	35.000
794.40	21.698
794.70	8.738
795.01	25.203
795.32	19.658
795.62	25.714
795.93	22.549
796.23	29.245
796.54	28.125
796.85	27.941
797.15	12.676
797.46	27.778
797.76	36.364
798.07	18.605
798.37	35.526
798.68	19.697
798.99	19.753
799.29	28.571
799.60	24.638
799.90	22.667
800.21	26.230
800.51	13.846
800.82	10.169
801.12	30.435
801.43	27.869
801.73	42.857
802.04	18.000
802.34	26.866
802.65	25.000
802.95	21.429
803.26	23.077
803.56	23.529
803.87	-2.174
804.17	28.000
804.48	28.571
804.78	14.815
805.09	23.913
805.39	4.444
805.70	38.889
806.00	8.772
806.30	19.718
806.61	30.000
806.91	2.778
807.22	34.211
807.52	36.000
807.83	29.091
808.13	12.500
808.43	29.412
808.74	28.358
809.04	6.780
809.35	0.000
809.65	21.875
809.95	-18.919
810.26	6.818
810.56	20.548
810.86	16.667
811.17	18.000
811.47	36.735
811.77	-5.263
812.08	6.818
812.38	11.321
812.69	-10.000
812.99	-12.121
813.29	7.895
813.59	11.429
813.90	-4.545
814.20	12.821
814.50	9.615
814.81	20.755
815.11	0.000
815.41	32.203
815.72	35.714
816.02	11.765
816.32	47.917
816.62	-9.756
816.93	18.919
817.23	-5.714
817.53	25.000
817.84	0.000
818.14	11.538
818.44	-2.632
818.74	32.609
819.04	0.000
819.35	35.135
819.65	20.588
819.95	2.778
820.25	16.667
820.56	25.000
820.86	-55.172
821.16	2.500
821.46	21.277
821.76	25.000
822.07	13.953
822.37	-27.027
822.67	28.125
822.97	16.667
823.27	-3.571
823.57	20.000
823.88	-3.704
824.18	42.857
824.48	26.471
824.78	38.710
825.08	21.739
825.38	6.061
825.69	-25.000
825.99	5.263
826.29	2.778
826.59	6.667
826.89	-42.857
827.19	28.261
827.49	0.000
827.79	22.857
828.09	7.143
828.39	42.424
828.70	48.649
829.00	3.571
829.30	-9.524
829.60	10.000
829.90	31.250
830.20	39.474
830.50	29.630
830.80	-8.696
831.10	31.818
831.40	27.273
831.70	22.581
832.00	28.571
832.30	9.524
832.60	-16.667
832.90	17.241
833.20	5.000
833.50	6.061
833.80	18.519
834.10	26.923
834.40	12.500
834.70	-55.556
835.00	31.579
835.30	50.000
835.60	46.667
835.90	0.000
836.20	-4.545
836.50	14.286
836.80	-11.538
837.10	0.000
837.40	-66.667
837.70	22.727
838.00	-109.091
838.30	-21.739
838.60	-38.462
838.90	27.273
839.19	7.143
839.49	46.667
839.79	23.077
840.09	-41.667
840.39	17.857
840.69	-39.286
840.99	-30.769
841.29	-57.895
841.59	-100.000
841.88	18.182
842.18	-90.000
842.48	-31.250
842.78	-20.000
843.08	-3.704
843.38	-180.000
843.68	-8.696
843.97	46.667
844.27	6.667
844.57	-30.000
844.87	27.778
845.17	19.048
845.47	20.000
845.76	0.000
846.06	35.294
846.36	-40.000
846.66	14.286
846.96	0.000
847.25	-125.000
847.55	28.571
847.85	-37.500
848.15	-22.727
848.44	-433.333
848.74	10.000
849.04	22.222
849.34	-9.091
849.63	-333.333
849.93	-300.000
850.23	-44.444
850.53	30.000
850.82	15.385
851.12	-55.556
851.42	26.667
851.71	-26.923
852.01	-28.571
852.31	-100.000
852.61	-81.818
852.90	45.000
853.20	-10.526
853.50	0.000
853.79	21.739
854.09	45.833
854.39	15.789
854.68	8.333
854.98	19.355
855.28	38.462
855.57	-10.000
855.87	-16.667
856.17	7.407
856.46	-7.143
856.76	-33.333
857.05	-11.111
857.35	4.000
857.65	-16.667
857.94	-76.923
858.24	6.897
858.53	66.667
858.83	40.741
859.13	-4.545
859.42	8.696
859.72	-125.000
860.01	-266.667
860.31	-12.000
860.60	-28.571
860.90	-66.667
861.20	-66.667
861.49	-700.000
861.79	-26.667
862.08	-40.000
862.38	26.667
862.67	-280.000
862.97	-66.667
863.26	-25.000
863.56	33.333
863.85	-566.667
864.15	33.333
864.44	-90.000
864.74	14.286
865.03	275.000
865.33	-380.000
865.62	-83.333
865.92	0.000
866.21	-216.667
866.51	81.250
866.80	-90.909
867.10	-700.000
867.39	41.667
867.69	0.000
867.98	-38.462
868.27	-166.667
868.57	-46.667
868.86	0.000
869.16	-53.846
869.45	6.667
869.75	-2200.000
870.04	0.000
870.33	14.286
870.63	23.810
870.92	600.000
871.22	-240.000
871.51	-700.000
871.80	-33.333
872.10	633.333
>>>>>End Processed Spectral Data<<<<<
