SpectraSuite Data File
++++++++++++++++++++++++++++++++++++
Date: Fri May 15 21:10:55 PDT 2015
User: schluterlab
Dark Spectrum Present: Yes
Reference Spectrum Present: Yes
Number of Sampled Component Spectra: 1
Spectrometers: USB2E3373
Integration Time (usec): 3000 (USB2E3373)
Spectra Averaged: 3 (USB2E3373)
Boxcar Smoothing: 0 (USB2E3373)
Correct for Electrical Dark: No (USB2E3373)
Strobe/Lamp Enabled: No (USB2E3373)
Correct for Detector Non-linearity: No (USB2E3373)
Correct for Stray Light: No (USB2E3373)
Number of Pixels in Processed Spectrum: 2048
>>>>>Begin Processed Spectral Data<<<<<
178.53	0.000
178.91	0.000
179.29	-12.500
179.67	-350.000
180.04	100.000
180.42	-150.000
180.80	-700.000
181.18	300.000
181.56	300.000
181.94	-450.000
182.31	300.000
182.69	-180.000
183.07	-33.333
183.45	-180.000
183.83	266.667
184.20	18.182
184.58	188.889
184.96	175.000
185.34	-266.667
185.72	-200.000
186.09	76.923
186.47	-1900.000
186.85	83.333
187.23	133.333
187.61	500.000
187.98	-566.667
188.36	-55.556
188.74	-566.667
189.12	5.882
189.49	-22.222
189.87	0.000
190.25	-14.286
190.63	400.000
191.00	-466.667
191.38	-10.526
191.76	550.000
192.14	-100.000
192.51	100.000
192.89	-100.000
193.27	-185.714
193.65	283.333
194.02	127.273
194.40	-40.000
194.78	-175.000
195.15	-75.000
195.53	37.500
195.91	400.000
196.29	-75.000
196.66	123.077
197.04	42.857
197.42	-66.667
197.79	-466.667
198.17	-30.769
198.55	500.000
198.92	0.000
199.30	-200.000
199.68	-260.000
200.05	-533.333
200.43	0.000
200.81	-266.667
201.18	-233.333
201.56	1600.000
201.94	100.000
202.31	166.667
202.69	-180.000
203.07	175.000
203.44	-100.000
203.82	0.000
204.19	21.429
204.57	-266.667
204.95	162.500
205.32	20.000
205.70	14.286
206.08	-225.000
206.45	88.889
206.83	42.857
207.20	-100.000
207.58	1000.000
207.96	-66.667
208.33	-100.000
208.71	-100.000
209.08	-100.000
209.46	-500.000
209.84	20.000
210.21	-1000.000
210.59	-14.286
210.96	-33.333
211.34	225.000
211.71	0.000
212.09	-100.000
212.46	-1400.000
212.84	0.000
213.22	60.000
213.59	750.000
213.97	-7.692
214.34	63.636
214.72	-50.000
215.09	325.000
215.47	-38.462
215.84	-100.000
216.22	-66.667
216.59	-125.000
216.97	0.000
217.34	-275.000
217.72	-60.000
218.09	87.500
218.47	187.500
218.84	-800.000
219.22	-77.778
219.59	-60.000
219.97	433.333
220.34	300.000
220.72	-114.286
221.09	-50.000
221.47	-300.000
221.84	-550.000
222.22	-700.000
222.59	-90.909
222.97	-33.333
223.34	-233.333
223.72	-107.143
224.09	0.000
224.46	50.000
224.84	366.667
225.21	-70.000
225.59	-20.000
225.96	-400.000
226.34	300.000
226.71	57.143
227.08	-100.000
227.46	0.000
227.83	-600.000
228.21	-22.222
228.58	-27.273
228.95	-100.000
229.33	90.000
229.70	25.000
230.08	-125.000
230.45	-85.714
230.82	42.857
231.20	-13.333
231.57	42.857
231.95	14.286
232.32	-70.000
232.69	-50.000
233.07	66.667
233.44	-20.000
233.81	-70.000
234.19	-22.222
234.56	-47.059
234.93	600.000
235.31	75.000
235.68	-340.000
236.05	46.154
236.43	-5.000
236.80	41.176
237.17	37.500
237.55	40.000
237.92	40.741
238.29	33.333
238.67	36.667
239.04	47.059
239.41	17.073
239.79	43.333
240.16	43.902
240.53	21.053
240.91	28.261
241.28	33.333
241.65	33.929
242.02	42.466
242.40	43.333
242.77	45.763
243.14	42.424
243.51	37.500
243.89	60.920
244.26	45.977
244.63	50.000
245.00	45.361
245.38	58.763
245.75	35.955
246.12	33.621
246.49	47.107
246.87	55.769
247.24	42.857
247.61	47.368
247.98	58.537
248.36	45.625
248.73	49.342
249.10	47.403
249.47	52.532
249.84	46.405
250.22	49.412
250.59	54.902
250.96	46.479
251.33	51.163
251.70	55.882
252.08	52.792
252.45	50.000
252.82	53.266
253.19	48.387
253.56	53.271
253.94	48.198
254.31	53.913
254.68	56.140
255.05	51.575
255.42	54.148
255.79	53.668
256.16	54.864
256.54	55.224
256.91	50.951
257.28	49.442
257.65	47.566
258.02	50.355
258.39	48.822
258.76	56.410
259.14	51.827
259.51	49.191
259.88	52.577
260.25	53.595
260.62	57.292
260.99	45.763
261.36	55.822
261.73	52.215
262.10	55.927
262.47	51.227
262.85	52.978
263.22	49.846
263.59	49.533
263.96	55.280
264.33	52.727
264.70	56.845
265.07	52.976
265.44	54.391
265.81	55.650
266.18	51.366
266.55	54.499
266.92	54.663
267.29	53.786
267.66	48.849
268.03	53.403
268.40	51.958
268.77	51.872
269.14	53.717
269.51	53.470
269.88	53.616
270.25	50.255
270.62	51.951
270.99	50.384
271.36	51.589
271.73	51.174
272.10	55.718
272.47	53.191
272.84	51.980
273.21	52.668
273.58	52.530
273.95	48.970
274.32	51.270
274.69	47.738
275.06	52.455
275.43	48.753
275.80	52.318
276.17	51.724
276.54	50.321
276.91	50.219
277.28	51.092
277.65	47.934
278.02	50.213
278.39	47.702
278.76	49.686
279.13	46.680
279.50	50.840
279.87	50.540
280.23	48.817
280.60	53.606
280.97	50.303
281.34	46.923
281.71	49.692
282.08	50.716
282.45	46.967
282.82	48.649
283.19	47.776
283.56	50.674
283.92	49.146
284.29	48.269
284.66	47.674
285.03	50.884
285.40	49.527
285.77	43.761
286.14	47.653
286.51	47.601
286.87	46.618
287.24	48.435
287.61	44.797
287.98	46.491
288.35	47.660
288.72	45.884
289.08	45.833
289.45	44.815
289.82	45.804
290.19	43.345
290.56	44.597
290.93	43.939
291.29	40.216
291.66	44.252
292.03	42.743
292.40	41.452
292.77	40.351
293.13	36.851
293.50	38.240
293.87	41.069
294.24	41.577
294.60	39.344
294.97	38.393
295.34	38.037
295.71	39.940
296.08	38.266
296.44	36.842
296.81	38.056
297.18	38.841
297.55	39.160
297.91	36.849
298.28	38.127
298.65	35.007
299.02	36.253
299.38	35.021
299.75	36.000
300.12	35.995
300.48	33.729
300.85	34.981
301.22	33.636
301.59	33.289
301.95	36.329
302.32	36.965
302.69	35.323
303.05	33.416
303.42	33.998
303.79	33.645
304.15	33.931
304.52	31.986
304.89	31.930
305.25	32.930
305.62	31.855
305.99	33.801
306.35	32.832
306.72	30.259
307.09	31.357
307.45	33.639
307.82	33.449
308.19	33.101
308.55	32.715
308.92	33.224
309.29	31.397
309.65	30.678
310.02	31.903
310.38	31.614
310.75	33.005
311.12	32.293
311.48	31.071
311.85	30.995
312.22	30.696
312.58	31.953
312.95	29.562
313.31	30.435
313.68	31.937
314.05	30.102
314.41	30.412
314.78	32.268
315.14	31.244
315.51	31.056
315.87	30.533
316.24	32.558
316.61	30.217
316.97	31.349
317.34	30.078
317.70	30.497
318.07	30.288
318.43	31.569
318.80	30.019
319.16	30.859
319.53	31.909
319.89	30.217
320.26	30.769
320.62	31.595
320.99	29.332
321.35	30.524
321.72	31.049
322.08	29.708
322.45	30.051
322.81	28.585
323.18	29.637
323.54	29.247
323.91	28.724
324.27	29.785
324.64	31.180
325.00	29.471
325.37	29.844
325.73	29.012
326.10	28.610
326.46	29.148
326.83	28.784
327.19	30.602
327.56	29.366
327.92	29.842
328.29	29.286
328.65	30.755
329.01	28.768
329.38	28.848
329.74	30.028
330.11	29.379
330.47	28.386
330.84	29.231
331.20	30.608
331.56	28.611
331.93	29.954
332.29	29.698
332.66	28.959
333.02	27.974
333.38	27.681
333.75	28.571
334.11	28.469
334.48	30.553
334.84	28.388
335.20	27.173
335.57	27.924
335.93	28.817
336.29	28.453
336.66	27.793
337.02	27.788
337.38	27.593
337.75	28.636
338.11	29.486
338.47	29.015
338.84	29.205
339.20	28.336
339.56	28.624
339.93	28.111
340.29	28.532
340.65	28.584
341.02	27.660
341.38	28.142
341.74	26.413
342.11	26.256
342.47	28.025
342.83	28.547
343.20	28.310
343.56	27.652
343.92	27.724
344.28	28.096
344.65	25.734
345.01	26.793
345.37	25.568
345.73	26.778
346.10	28.732
346.46	26.409
346.82	26.187
347.19	25.935
347.55	25.982
347.91	27.346
348.27	26.031
348.63	27.683
349.00	25.759
349.36	26.517
349.72	28.109
350.08	27.623
350.45	27.055
350.81	26.661
351.17	25.081
351.53	26.612
351.89	25.351
352.26	26.640
352.62	25.887
352.98	27.149
353.34	26.248
353.70	26.052
354.07	25.403
354.43	26.021
354.79	26.424
355.15	26.746
355.51	25.633
355.87	26.456
356.24	25.204
356.60	25.869
356.96	25.556
357.32	26.198
357.68	25.645
358.04	25.444
358.40	25.482
358.77	25.917
359.13	25.861
359.49	23.267
359.85	25.117
360.21	25.917
360.57	25.708
360.93	26.021
361.29	24.169
361.66	25.627
362.02	24.924
362.38	25.209
362.74	24.830
363.10	24.981
363.46	24.463
363.82	25.620
364.18	25.683
364.54	24.191
364.90	26.165
365.26	24.891
365.62	26.131
365.98	25.806
366.35	25.637
366.71	25.129
367.07	25.762
367.43	25.737
367.79	25.159
368.15	24.767
368.51	23.525
368.87	24.767
369.23	24.477
369.59	24.636
369.95	26.173
370.31	24.422
370.67	24.776
371.03	24.571
371.39	23.705
371.75	24.615
372.11	24.108
372.47	24.038
372.83	24.911
373.19	25.107
373.55	24.116
373.91	24.550
374.27	24.380
374.63	24.408
374.99	24.113
375.35	24.304
375.71	24.126
376.07	24.228
376.42	24.422
376.78	24.564
377.14	23.290
377.50	23.705
377.86	24.096
378.22	23.803
378.58	24.295
378.94	23.251
379.30	24.392
379.66	25.204
380.02	23.115
380.38	22.581
380.74	23.100
381.09	24.540
381.45	23.853
381.81	24.244
382.17	23.477
382.53	22.611
382.89	23.164
383.25	23.958
383.61	24.085
383.97	22.984
384.32	24.078
384.68	23.406
385.04	23.162
385.40	23.149
385.76	24.277
386.12	24.256
386.48	23.691
386.83	23.335
387.19	23.321
387.55	23.338
387.91	23.655
388.27	22.650
388.62	24.292
388.98	23.143
389.34	24.047
389.70	23.306
390.06	22.215
390.42	22.992
390.77	23.152
391.13	22.446
391.49	23.027
391.85	23.067
392.20	22.724
392.56	22.759
392.92	23.194
393.28	23.231
393.64	23.183
393.99	24.013
394.35	22.328
394.71	22.861
395.07	22.062
395.42	22.101
395.78	23.127
396.14	22.509
396.50	23.653
396.85	23.439
397.21	23.371
397.57	22.633
397.92	22.469
398.28	22.874
398.64	22.410
399.00	23.420
399.35	22.235
399.71	22.975
400.07	23.096
400.42	22.705
400.78	23.576
401.14	22.686
401.49	22.930
401.85	22.669
402.21	23.313
402.57	22.437
402.92	21.957
403.28	23.496
403.63	23.455
403.99	22.385
404.35	22.611
404.70	23.036
405.06	21.093
405.42	22.126
405.77	22.429
406.13	23.108
406.49	22.262
406.84	22.616
407.20	22.155
407.55	22.473
407.91	22.326
408.27	22.626
408.62	22.646
408.98	22.612
409.34	22.739
409.69	21.770
410.05	22.352
410.40	23.025
410.76	22.497
411.11	23.188
411.47	22.354
411.83	22.222
412.18	22.008
412.54	22.534
412.89	21.613
413.25	22.202
413.60	21.988
413.96	21.166
414.31	21.768
414.67	21.873
415.03	21.771
415.38	20.953
415.74	21.368
416.09	22.142
416.45	21.945
416.80	21.150
417.16	22.859
417.51	22.652
417.87	21.708
418.22	22.539
418.58	22.475
418.93	23.072
419.29	21.831
419.64	20.998
420.00	22.544
420.35	21.910
420.71	22.357
421.06	21.240
421.42	22.416
421.77	22.659
422.12	21.737
422.48	22.902
422.83	22.332
423.19	22.235
423.54	22.163
423.90	21.319
424.25	21.757
424.61	22.338
424.96	22.242
425.31	22.357
425.67	22.183
426.02	21.908
426.38	22.167
426.73	21.489
427.09	22.405
427.44	22.235
427.79	21.450
428.15	22.816
428.50	21.139
428.85	21.314
429.21	22.015
429.56	22.156
429.92	22.599
430.27	21.704
430.62	22.216
430.98	22.346
431.33	22.345
431.68	22.030
432.04	22.247
432.39	21.848
432.74	21.046
433.10	22.356
433.45	21.147
433.80	21.648
434.16	21.053
434.51	22.688
434.86	21.893
435.22	22.266
435.57	21.085
435.92	21.916
436.28	20.930
436.63	21.905
436.98	21.727
437.34	21.355
437.69	22.302
438.04	21.709
438.39	21.381
438.75	21.858
439.10	22.015
439.45	21.729
439.81	20.979
440.16	22.090
440.51	22.806
440.86	22.900
441.22	21.833
441.57	21.634
441.92	22.875
442.27	22.118
442.63	22.645
442.98	23.033
443.33	21.202
443.68	21.963
444.03	21.957
444.39	21.938
444.74	23.077
445.09	22.773
445.44	22.279
445.79	23.156
446.15	22.907
446.50	22.130
446.85	22.264
447.20	22.628
447.55	22.991
447.91	22.504
448.26	23.108
448.61	22.337
448.96	22.892
449.31	22.254
449.66	22.358
450.02	22.133
450.37	22.999
450.72	23.253
451.07	22.785
451.42	22.784
451.77	23.026
452.12	21.531
452.47	21.636
452.83	22.615
453.18	21.379
453.53	23.451
453.88	23.983
454.23	22.926
454.58	22.796
454.93	22.552
455.28	21.397
455.63	23.001
455.98	23.632
456.34	22.925
456.69	23.380
457.04	23.440
457.39	21.871
457.74	22.733
458.09	22.307
458.44	22.060
458.79	22.689
459.14	22.998
459.49	23.045
459.84	23.407
460.19	22.937
460.54	23.900
460.89	22.841
461.24	22.360
461.59	23.515
461.94	21.635
462.29	22.799
462.64	23.721
462.99	22.952
463.34	22.114
463.69	22.844
464.04	23.789
464.39	22.923
464.74	23.497
465.09	23.518
465.44	23.254
465.79	22.959
466.14	23.204
466.49	21.737
466.84	23.498
467.19	23.467
467.54	23.946
467.89	22.994
468.24	23.175
468.59	23.111
468.94	23.175
469.29	22.951
469.64	23.582
469.99	22.705
470.34	22.867
470.68	23.266
471.03	23.921
471.38	23.538
471.73	23.599
472.08	22.931
472.43	22.483
472.78	23.235
473.13	24.014
473.48	23.192
473.83	23.225
474.17	23.834
474.52	23.038
474.87	23.455
475.22	22.758
475.57	22.643
475.92	23.533
476.27	23.341
476.61	24.016
476.96	23.369
477.31	23.797
477.66	22.753
478.01	23.358
478.36	23.257
478.70	23.328
479.05	23.407
479.40	23.105
479.75	22.784
480.10	23.502
480.45	23.600
480.79	24.018
481.14	24.744
481.49	22.611
481.84	23.552
482.19	23.386
482.53	23.357
482.88	23.246
483.23	23.560
483.58	23.113
483.92	23.040
484.27	22.881
484.62	23.129
484.97	23.134
485.31	22.724
485.66	23.133
486.01	24.082
486.36	24.153
486.70	24.090
487.05	24.101
487.40	23.785
487.75	22.845
488.09	21.910
488.44	22.111
488.79	21.778
489.13	21.875
489.48	22.445
489.83	23.229
490.17	23.011
490.52	23.557
490.87	22.906
491.22	23.734
491.56	23.577
491.91	22.371
492.26	23.724
492.60	23.608
492.95	23.709
493.30	22.863
493.64	24.067
493.99	22.899
494.34	23.010
494.68	22.619
495.03	22.433
495.37	22.964
495.72	22.665
496.07	23.561
496.41	22.783
496.76	23.261
497.11	22.543
497.45	23.294
497.80	23.512
498.14	23.448
498.49	23.108
498.84	23.453
499.18	22.841
499.53	23.363
499.87	23.492
500.22	23.195
500.56	22.794
500.91	23.042
501.26	23.431
501.60	23.266
501.95	23.435
502.29	23.777
502.64	23.166
502.98	23.286
503.33	22.815
503.67	22.313
504.02	23.069
504.36	23.107
504.71	23.283
505.06	22.345
505.40	23.198
505.75	23.454
506.09	23.365
506.44	23.665
506.78	24.031
507.13	23.216
507.47	21.984
507.82	22.062
508.16	23.085
508.51	23.400
508.85	23.548
509.19	22.246
509.54	22.627
509.88	22.168
510.23	22.378
510.57	23.089
510.92	22.175
511.26	22.259
511.61	23.872
511.95	21.973
512.30	22.838
512.64	23.205
512.98	22.684
513.33	23.055
513.67	22.968
514.02	24.142
514.36	24.229
514.70	24.359
515.05	24.148
515.39	22.963
515.74	24.192
516.08	23.132
516.42	23.734
516.77	22.937
517.11	23.205
517.46	23.339
517.80	24.195
518.14	22.352
518.49	22.957
518.83	23.390
519.17	21.953
519.52	22.321
519.86	22.209
520.20	23.147
520.55	22.139
520.89	23.588
521.23	22.673
521.58	23.028
521.92	23.205
522.26	23.487
522.61	23.182
522.95	22.517
523.29	23.189
523.64	22.490
523.98	23.137
524.32	22.423
524.66	23.688
525.01	24.091
525.35	24.109
525.69	22.694
526.04	22.884
526.38	23.606
526.72	21.583
527.06	22.179
527.41	23.219
527.75	22.453
528.09	22.525
528.43	23.093
528.78	22.574
529.12	23.871
529.46	22.612
529.80	22.863
530.15	23.366
530.49	22.694
530.83	22.230
531.17	22.498
531.51	22.982
531.86	22.842
532.20	23.521
532.54	22.737
532.88	22.930
533.22	22.715
533.57	22.936
533.91	22.846
534.25	23.438
534.59	22.386
534.93	22.467
535.27	23.033
535.62	22.229
535.96	22.505
536.30	23.021
536.64	23.019
536.98	22.230
537.32	23.186
537.66	23.913
538.01	22.238
538.35	22.191
538.69	23.103
539.03	21.805
539.37	23.620
539.71	22.836
540.05	22.675
540.39	22.645
540.73	23.013
541.07	22.997
541.42	24.126
541.76	22.918
542.10	23.125
542.44	21.960
542.78	21.404
543.12	21.223
543.46	22.670
543.80	23.317
544.14	20.494
544.48	21.919
544.82	22.556
545.16	23.019
545.50	22.964
545.84	22.096
546.18	22.624
546.52	22.422
546.86	23.724
547.20	22.246
547.54	21.837
547.88	22.215
548.22	22.156
548.56	22.296
548.90	23.518
549.24	21.901
549.58	22.214
549.92	22.302
550.26	21.832
550.60	23.197
550.94	22.853
551.28	22.798
551.62	22.231
551.96	22.105
552.30	23.246
552.64	22.214
552.98	21.941
553.32	22.753
553.66	21.190
554.00	22.263
554.34	22.083
554.68	21.976
555.02	22.098
555.36	22.962
555.69	22.418
556.03	21.056
556.37	23.345
556.71	22.816
557.05	22.744
557.39	22.082
557.73	22.489
558.07	23.303
558.41	22.282
558.75	22.369
559.08	22.931
559.42	22.619
559.76	23.299
560.10	22.171
560.44	22.264
560.78	22.657
561.12	23.061
561.45	22.699
561.79	23.249
562.13	23.492
562.47	22.302
562.81	21.614
563.15	22.708
563.48	23.975
563.82	22.581
564.16	22.632
564.50	21.757
564.84	22.825
565.17	22.736
565.51	23.566
565.85	24.348
566.19	23.210
566.52	22.721
566.86	23.265
567.20	21.918
567.54	23.540
567.88	22.964
568.21	22.738
568.55	22.446
568.89	23.460
569.23	23.303
569.56	22.723
569.90	23.873
570.24	22.702
570.57	22.764
570.91	23.493
571.25	23.085
571.59	23.201
571.92	21.896
572.26	22.585
572.60	21.984
572.93	22.090
573.27	21.912
573.61	22.106
573.95	22.747
574.28	22.325
574.62	22.426
574.96	22.364
575.29	22.034
575.63	21.379
575.97	21.361
576.30	22.322
576.64	21.775
576.98	22.909
577.31	22.364
577.65	22.592
577.98	22.675
578.32	22.503
578.66	21.986
578.99	22.064
579.33	21.534
579.67	21.322
580.00	21.570
580.34	22.040
580.67	21.588
581.01	21.854
581.35	21.942
581.68	22.574
582.02	22.775
582.35	22.470
582.69	22.205
583.02	22.239
583.36	21.647
583.70	22.170
584.03	22.185
584.37	22.643
584.70	22.115
585.04	22.073
585.37	22.015
585.71	22.217
586.04	22.390
586.38	22.673
586.72	22.066
587.05	22.357
587.39	22.980
587.72	23.291
588.06	22.585
588.39	22.814
588.73	22.589
589.06	23.222
589.40	22.710
589.73	22.599
590.07	23.263
590.40	22.755
590.73	23.229
591.07	22.265
591.40	22.796
591.74	23.077
592.07	23.655
592.41	23.542
592.74	23.576
593.08	22.878
593.41	23.624
593.75	23.324
594.08	23.138
594.41	23.726
594.75	23.130
595.08	23.118
595.42	22.930
595.75	23.357
596.09	23.339
596.42	23.274
596.75	23.490
597.09	23.052
597.42	23.397
597.75	23.225
598.09	22.952
598.42	23.060
598.76	23.123
599.09	23.077
599.42	23.948
599.76	23.401
600.09	23.756
600.42	23.086
600.76	23.254
601.09	23.244
601.42	22.758
601.76	23.025
602.09	22.814
602.42	24.052
602.76	23.132
603.09	23.297
603.42	23.829
603.76	23.105
604.09	23.532
604.42	22.927
604.76	23.988
605.09	23.812
605.42	23.702
605.75	22.898
606.09	24.204
606.42	22.769
606.75	23.420
607.09	24.132
607.42	23.084
607.75	23.224
608.08	22.642
608.42	22.704
608.75	23.614
609.08	23.119
609.41	23.299
609.75	23.085
610.08	23.315
610.41	23.092
610.74	23.501
611.07	23.411
611.41	23.768
611.74	23.507
612.07	23.340
612.40	23.578
612.73	23.955
613.07	22.947
613.40	24.015
613.73	23.503
614.06	22.649
614.39	23.632
614.72	23.081
615.06	23.687
615.39	22.653
615.72	23.735
616.05	23.184
616.38	23.191
616.71	23.670
617.05	22.298
617.38	23.444
617.71	23.082
618.04	24.381
618.37	23.644
618.70	24.158
619.03	24.167
619.36	23.082
619.69	23.427
620.03	25.420
620.36	23.033
620.69	23.769
621.02	22.401
621.35	24.066
621.68	25.170
622.01	23.333
622.34	23.703
622.67	24.054
623.00	24.349
623.33	24.924
623.66	23.111
623.99	23.676
624.32	23.802
624.65	23.383
624.99	25.132
625.32	23.124
625.65	24.195
625.98	24.658
626.31	22.610
626.64	24.957
626.97	23.822
627.30	23.117
627.63	23.830
627.96	24.349
628.29	23.774
628.62	22.911
628.95	23.146
629.28	24.597
629.61	24.227
629.94	25.709
630.26	24.111
630.59	25.598
630.92	23.282
631.25	23.692
631.58	24.449
631.91	23.136
632.24	23.394
632.57	24.318
632.90	22.183
633.23	23.882
633.56	23.678
633.89	22.688
634.22	24.444
634.55	22.618
634.88	22.222
635.20	23.205
635.53	24.133
635.86	22.887
636.19	25.226
636.52	23.469
636.85	23.077
637.18	23.396
637.51	24.277
637.83	24.442
638.16	23.738
638.49	23.569
638.82	25.000
639.15	23.609
639.48	23.796
639.81	25.941
640.13	23.232
640.46	24.052
640.79	21.649
641.12	23.929
641.45	24.775
641.77	21.926
642.10	25.750
642.43	23.151
642.76	25.248
643.09	25.363
643.41	22.654
643.74	23.394
644.07	25.616
644.40	25.676
644.73	23.292
645.05	22.148
645.38	25.926
645.71	24.113
646.04	25.135
646.36	22.695
646.69	25.719
647.02	23.251
647.35	23.881
647.67	24.680
648.00	24.627
648.33	24.403
648.66	24.746
648.98	22.613
649.31	23.140
649.64	23.391
649.96	24.635
650.29	24.361
650.62	24.444
650.94	20.926
651.27	22.719
651.60	24.505
651.92	22.552
652.25	22.202
652.58	23.833
652.90	23.671
653.23	24.538
653.56	23.012
653.88	24.227
654.21	19.615
654.54	21.392
654.86	25.467
655.19	23.538
655.52	26.548
655.84	26.851
656.17	29.490
656.49	38.975
656.82	38.637
657.15	28.431
657.47	20.577
657.80	14.997
658.13	14.375
658.45	21.166
658.78	19.601
659.10	19.248
659.43	18.119
659.75	18.747
660.08	18.138
660.41	19.714
660.73	19.061
661.06	21.317
661.38	20.744
661.71	21.150
662.03	23.391
662.36	21.538
662.68	23.451
663.01	24.236
663.33	25.290
663.66	23.023
663.98	23.256
664.31	23.241
664.63	21.659
664.96	21.739
665.28	23.400
665.61	25.974
665.93	23.478
666.26	25.163
666.58	21.477
666.91	20.471
667.23	24.764
667.56	23.934
667.88	23.741
668.21	22.196
668.53	24.113
668.86	22.877
669.18	22.406
669.50	23.002
669.83	23.023
670.15	20.979
670.48	24.402
670.80	26.267
671.13	21.924
671.45	21.005
671.77	25.322
672.10	22.574
672.42	24.906
672.75	25.222
673.07	23.614
673.39	24.587
673.72	21.302
674.04	22.500
674.37	22.458
674.69	21.627
675.01	22.444
675.34	20.270
675.66	23.611
675.98	24.169
676.31	21.101
676.63	22.565
676.95	21.591
677.28	25.176
677.60	23.133
677.92	24.083
678.25	24.289
678.57	22.078
678.89	22.479
679.22	23.266
679.54	25.301
679.86	21.670
680.18	23.301
680.51	25.000
680.83	21.869
681.15	23.200
681.48	24.795
681.80	24.174
682.12	22.581
682.44	23.013
682.77	24.945
683.09	24.485
683.41	24.091
683.73	22.350
684.06	24.115
684.38	18.495
684.70	24.837
685.02	22.822
685.34	20.553
685.67	23.827
685.99	24.231
686.31	21.593
686.63	24.675
686.96	21.293
687.28	20.404
687.60	21.293
687.92	23.030
688.24	21.169
688.56	24.236
688.89	24.107
689.21	25.556
689.53	24.130
689.85	20.465
690.17	22.098
690.49	21.513
690.82	22.816
691.14	24.762
691.46	21.495
691.78	24.550
692.10	26.452
692.42	24.242
692.74	23.291
693.06	22.973
693.39	22.398
693.71	21.267
694.03	23.326
694.35	23.131
694.67	22.727
694.99	21.932
695.31	24.543
695.63	22.500
695.95	22.475
696.27	22.798
696.59	21.667
696.91	19.048
697.23	21.851
697.56	25.990
697.88	23.871
698.20	25.513
698.52	21.882
698.84	22.488
699.16	21.000
699.48	22.306
699.80	23.077
700.12	23.720
700.44	24.370
700.76	21.512
701.08	17.879
701.40	25.904
701.72	27.469
702.04	25.083
702.36	23.411
702.68	23.423
703.00	23.636
703.32	26.979
703.64	19.492
703.96	24.348
704.28	24.233
704.60	24.127
704.91	20.820
705.23	23.588
705.55	25.088
705.87	23.466
706.19	21.481
706.51	25.430
706.83	23.794
707.15	19.626
707.47	23.529
707.79	19.010
708.11	26.000
708.43	23.250
708.74	25.581
709.06	25.915
709.38	27.523
709.70	20.710
710.02	26.752
710.34	21.362
710.66	15.385
710.98	16.887
711.29	23.279
711.61	24.746
711.93	24.430
712.25	26.460
712.57	23.077
712.89	20.522
713.20	29.758
713.52	21.254
713.84	22.526
714.16	25.086
714.48	25.806
714.80	25.321
715.11	23.708
715.43	22.257
715.75	18.667
716.07	20.930
716.39	22.483
716.70	25.830
717.02	19.847
717.34	20.243
717.66	20.354
717.97	16.522
718.29	25.105
718.61	20.472
718.93	20.155
719.24	24.715
719.56	20.884
719.88	21.306
720.20	24.242
720.51	22.222
720.83	22.008
721.15	21.429
721.46	27.016
721.78	19.368
722.10	21.933
722.42	17.842
722.73	20.000
723.05	22.449
723.37	26.271
723.68	27.928
724.00	23.077
724.32	17.333
724.63	21.364
724.95	23.581
725.27	22.581
725.58	21.186
725.90	21.429
726.22	23.166
726.53	25.085
726.85	20.974
727.16	27.170
727.48	17.409
727.80	20.243
728.11	22.458
728.43	20.000
728.74	19.355
729.06	23.200
729.38	28.947
729.69	19.124
730.01	19.615
730.32	23.134
730.64	23.675
730.96	25.283
731.27	27.333
731.59	23.051
731.90	21.975
732.22	22.713
732.53	21.595
732.85	26.241
733.16	25.926
733.48	19.424
733.80	20.652
734.11	22.712
734.43	25.773
734.74	23.939
735.06	16.938
735.37	23.565
735.69	24.242
736.00	24.042
736.32	21.141
736.63	23.944
736.95	21.843
737.26	22.064
737.58	20.470
737.89	24.908
738.21	22.932
738.52	23.045
738.83	22.707
739.15	17.031
739.46	22.047
739.78	18.315
740.09	19.608
740.41	21.739
740.72	20.079
741.04	23.077
741.35	22.553
741.66	23.697
741.98	19.898
742.29	21.782
742.61	24.084
742.92	16.588
743.23	21.296
743.55	22.624
743.86	20.096
744.18	17.703
744.49	26.064
744.80	24.457
745.12	26.738
745.43	22.439
745.74	23.958
746.06	21.951
746.37	24.084
746.68	19.431
747.00	14.362
747.31	28.358
747.62	18.932
747.94	21.053
748.25	21.287
748.56	22.951
748.88	25.654
749.19	23.936
749.50	21.675
749.82	17.925
750.13	19.725
750.44	27.068
750.75	26.119
751.07	25.547
751.38	22.605
751.69	19.608
752.01	24.031
752.32	23.108
752.63	20.553
752.94	18.966
753.26	31.381
753.57	17.647
753.88	22.566
754.19	17.917
754.51	23.140
754.82	17.814
755.13	25.417
755.44	27.419
755.75	24.609
756.07	20.623
756.38	23.774
756.69	20.690
757.00	22.333
757.31	25.817
757.63	21.037
757.94	22.500
758.25	21.918
758.56	22.074
758.87	20.963
759.18	20.561
759.50	19.636
759.81	27.759
760.12	25.484
760.43	26.364
760.74	24.691
761.05	22.769
761.36	23.295
761.67	26.364
761.99	21.769
762.30	20.000
762.61	22.134
762.92	20.814
763.23	19.369
763.54	17.290
763.85	24.576
764.16	22.407
764.47	20.161
764.78	28.205
765.10	26.263
765.41	21.767
765.72	21.905
766.03	18.045
766.34	21.533
766.65	23.108
766.96	21.212
767.27	18.085
767.58	21.839
767.89	15.603
768.20	22.727
768.51	20.879
768.82	25.123
769.13	23.041
769.44	22.747
769.75	19.178
770.06	23.276
770.37	20.673
770.68	20.305
770.99	19.457
771.30	21.078
771.61	21.719
771.92	25.000
772.23	27.094
772.54	22.581
772.85	23.457
773.16	16.854
773.47	33.987
773.78	26.797
774.09	22.156
774.39	22.667
774.70	19.745
775.01	21.379
775.32	17.857
775.63	9.091
775.94	23.664
776.25	23.622
776.56	20.833
776.87	12.500
777.18	17.949
777.48	20.690
777.79	12.174
778.10	8.571
778.41	11.712
778.72	25.397
779.03	23.308
779.34	23.404
779.65	28.767
779.95	19.178
780.26	23.448
780.57	15.447
780.88	23.622
781.19	16.379
781.50	25.581
781.80	24.852
782.11	12.579
782.42	26.923
782.73	21.583
783.04	17.778
783.34	15.278
783.65	6.838
783.96	18.033
784.27	26.207
784.57	19.512
784.88	16.406
785.19	31.000
785.50	26.000
785.81	19.828
786.11	13.793
786.42	9.709
786.73	29.091
787.04	16.327
787.34	21.429
787.65	26.667
787.96	19.469
788.26	20.000
788.57	21.368
788.88	21.875
789.19	15.873
789.49	23.478
789.80	14.286
790.11	20.202
790.41	18.182
790.72	21.739
791.03	25.000
791.33	30.000
791.64	13.750
791.95	6.977
792.25	15.957
792.56	22.472
792.87	13.699
793.17	1.449
793.48	6.667
793.79	17.500
794.09	17.500
794.40	14.151
794.70	21.359
795.01	14.634
795.32	8.547
795.62	24.762
795.93	23.529
796.23	10.377
796.54	19.792
796.85	22.059
797.15	7.042
797.46	26.389
797.76	24.242
798.07	8.140
798.37	13.158
798.68	15.152
798.99	14.815
799.29	17.143
799.60	14.493
799.90	25.333
800.21	34.426
800.51	20.000
800.82	10.169
801.12	23.188
801.43	19.672
801.73	17.460
802.04	8.000
802.34	22.388
802.65	21.154
802.95	21.429
803.26	9.615
803.56	9.804
803.87	15.217
804.17	21.333
804.48	23.810
804.78	12.963
805.09	-2.174
805.39	20.000
805.70	22.222
806.00	-10.526
806.30	8.451
806.61	31.429
806.91	0.000
807.22	40.789
807.52	17.333
807.83	-18.182
808.13	19.444
808.43	13.235
808.74	1.493
809.04	11.864
809.35	1.923
809.65	20.313
809.95	-27.027
810.26	15.909
810.56	13.699
810.86	4.762
811.17	16.000
811.47	32.653
811.77	-10.526
812.08	34.091
812.38	1.887
812.69	0.000
812.99	12.121
813.29	5.263
813.59	-42.857
813.90	9.091
814.20	-5.128
814.50	25.000
814.81	15.094
815.11	-8.511
815.41	18.644
815.72	16.667
816.02	13.725
816.32	22.917
816.62	-4.878
816.93	-24.324
817.23	-17.143
817.53	14.583
817.84	0.000
818.14	21.154
818.44	13.158
818.74	28.261
819.04	-32.500
819.35	10.811
819.65	-32.353
819.95	-5.556
820.25	16.667
820.56	42.500
820.86	-41.379
821.16	27.500
821.46	0.000
821.76	27.500
822.07	27.907
822.37	-27.027
822.67	-9.375
822.97	33.333
823.27	-17.857
823.57	-12.000
823.88	-51.852
824.18	10.714
824.48	14.706
824.78	32.258
825.08	0.000
825.38	39.394
825.69	-8.333
825.99	26.316
826.29	5.556
826.59	-33.333
826.89	-42.857
827.19	13.043
827.49	32.500
827.79	-14.286
828.09	32.143
828.39	-3.030
828.70	24.324
829.00	-25.000
829.30	-38.095
829.60	-13.333
829.90	15.625
830.20	2.632
830.50	11.111
830.80	-30.435
831.10	18.182
831.40	36.364
831.70	16.129
832.00	57.143
832.30	-28.571
832.60	50.000
832.90	0.000
833.20	35.000
833.50	27.273
833.80	7.407
834.10	-19.231
834.40	31.250
834.70	-22.222
835.00	-10.526
835.30	-15.385
835.60	0.000
835.90	3.226
836.20	9.091
836.50	10.714
836.80	-42.308
837.10	25.000
837.40	-300.000
837.70	13.636
838.00	27.273
838.30	0.000
838.60	-53.846
838.90	45.455
839.19	-17.857
839.49	3.333
839.79	38.462
840.09	-25.000
840.39	53.571
840.69	10.714
840.99	-30.769
841.29	-47.368
841.59	-110.000
841.88	27.273
842.18	-90.000
842.48	31.250
842.78	-113.333
843.08	-25.926
843.38	-60.000
843.68	13.043
843.97	20.000
844.27	-106.667
844.57	-20.000
844.87	16.667
845.17	33.333
845.47	46.667
845.76	-23.810
846.06	-23.529
846.36	-20.000
846.66	-64.286
846.96	6.667
847.25	-237.500
847.55	-21.429
847.85	-50.000
848.15	-40.909
848.44	-66.667
848.74	-20.000
849.04	0.000
849.34	-18.182
849.63	-133.333
849.93	-240.000
850.23	-16.667
850.53	-30.000
850.82	-46.154
851.12	-66.667
851.42	26.667
851.71	-19.231
852.01	28.571
852.31	-475.000
852.61	-145.455
852.90	-60.000
853.20	42.105
853.50	0.000
853.79	21.739
854.09	45.833
854.39	-15.789
854.68	-12.500
854.98	0.000
855.28	46.154
855.57	-15.000
855.87	-44.444
856.17	7.407
856.46	-42.857
856.76	-6.667
857.05	-44.444
857.35	8.000
857.65	11.111
857.94	-46.154
858.24	31.034
858.53	22.222
858.83	7.407
859.13	22.727
859.42	-30.435
859.72	50.000
860.01	-533.333
860.31	12.000
860.60	-9.524
860.90	-266.667
861.20	13.333
861.49	-350.000
861.79	-100.000
862.08	-35.000
862.38	20.000
862.67	-280.000
862.97	-50.000
863.26	58.333
863.56	22.222
863.85	-533.333
864.15	-11.111
864.44	-30.000
864.74	-7.143
865.03	225.000
865.33	-300.000
865.62	83.333
865.92	-66.667
866.21	-333.333
866.51	0.000
866.80	-36.364
867.10	-50.000
867.39	66.667
867.69	0.000
867.98	38.462
868.27	-166.667
868.57	-26.667
868.86	-22.222
869.16	-30.769
869.45	33.333
869.75	-400.000
870.04	0.000
870.33	28.571
870.63	-4.762
870.92	433.333
871.22	-320.000
871.51	-400.000
871.80	33.333
872.10	633.333
>>>>>End Processed Spectral Data<<<<<
