SpectraSuite Data File
++++++++++++++++++++++++++++++++++++
Date: Fri May 15 20:27:36 PDT 2015
User: schluterlab
Dark Spectrum Present: Yes
Reference Spectrum Present: Yes
Number of Sampled Component Spectra: 1
Spectrometers: USB2E3373
Integration Time (usec): 3000 (USB2E3373)
Spectra Averaged: 3 (USB2E3373)
Boxcar Smoothing: 0 (USB2E3373)
Correct for Electrical Dark: No (USB2E3373)
Strobe/Lamp Enabled: No (USB2E3373)
Correct for Detector Non-linearity: No (USB2E3373)
Correct for Stray Light: No (USB2E3373)
Number of Pixels in Processed Spectrum: 2048
>>>>>Begin Processed Spectral Data<<<<<
178.53	0.000
178.91	0.000
179.29	100.000
179.67	-100.000
180.04	-28.571
180.42	125.000
180.80	-300.000
181.18	-33.333
181.56	250.000
181.94	-250.000
182.31	300.000
182.69	60.000
183.07	-266.667
183.45	-60.000
183.83	166.667
184.20	-27.273
184.58	133.333
184.96	-25.000
185.34	266.667
185.72	-550.000
186.09	100.000
186.47	-600.000
186.85	166.667
187.23	133.333
187.61	-0.000
187.98	-300.000
188.36	111.111
188.74	-400.000
189.12	58.824
189.49	66.667
189.87	0.000
190.25	50.000
190.63	250.000
191.00	-133.333
191.38	5.263
191.76	50.000
192.14	250.000
192.51	150.000
192.89	-88.889
193.27	-185.714
193.65	183.333
194.02	100.000
194.40	-50.000
194.78	-137.500
195.15	-83.333
195.53	-50.000
195.91	175.000
196.29	25.000
196.66	123.077
197.04	114.286
197.42	66.667
197.79	-433.333
198.17	-38.462
198.55	700.000
198.92	-433.333
199.30	800.000
199.68	-120.000
200.05	-100.000
200.43	0.000
200.81	-166.667
201.18	166.667
201.56	1500.000
201.94	150.000
202.31	233.333
202.69	-120.000
203.07	150.000
203.44	800.000
203.82	0.000
204.19	78.571
204.57	-333.333
204.95	25.000
205.32	-30.000
205.70	114.286
206.08	-25.000
206.45	122.222
206.83	28.571
207.20	-85.714
207.58	100.000
207.96	-366.667
208.33	-110.000
208.71	-200.000
209.08	-200.000
209.46	-900.000
209.84	60.000
210.21	-400.000
210.59	85.714
210.96	16.667
211.34	125.000
211.71	53.333
212.09	-14.286
212.46	-1200.000
212.84	0.000
213.22	30.000
213.59	500.000
213.97	46.154
214.34	36.364
214.72	0.000
215.09	300.000
215.47	-7.692
215.84	18.182
216.22	-100.000
216.59	25.000
216.97	250.000
217.34	-50.000
217.72	-160.000
218.09	25.000
218.47	125.000
218.84	-700.000
219.22	-44.444
219.59	-100.000
219.97	200.000
220.34	225.000
220.72	71.429
221.09	-125.000
221.47	-450.000
221.84	-100.000
222.22	-650.000
222.59	-18.182
222.97	8.333
223.34	-500.000
223.72	0.000
224.09	-4.762
224.46	-10.714
224.84	266.667
225.21	-100.000
225.59	40.000
225.96	200.000
226.34	325.000
226.71	14.286
227.08	16.667
227.46	-37.500
227.83	-350.000
228.21	-11.111
228.58	18.182
228.95	-37.500
229.33	30.000
229.70	0.000
230.08	-137.500
230.45	-114.286
230.82	157.143
231.20	-6.667
231.57	57.143
231.95	57.143
232.32	-60.000
232.69	107.143
233.07	-266.667
233.44	-40.000
233.81	10.000
234.19	133.333
234.56	-23.529
234.93	300.000
235.31	150.000
235.68	-320.000
236.05	-46.154
236.43	-20.000
236.80	0.000
237.17	9.375
237.55	5.000
237.92	18.519
238.29	2.778
238.67	13.333
239.04	-8.824
239.41	2.439
239.79	-13.333
240.16	34.146
240.53	15.789
240.91	13.043
241.28	17.460
241.65	19.643
242.02	26.027
242.40	25.000
242.77	15.254
243.14	31.818
243.51	16.250
243.89	24.138
244.26	12.644
244.63	21.429
245.00	21.649
245.38	23.711
245.75	13.483
246.12	11.207
246.49	23.967
246.87	25.000
247.24	12.605
247.61	14.035
247.98	20.325
248.36	23.125
248.73	23.684
249.10	20.779
249.47	22.152
249.84	23.529
250.22	24.118
250.59	20.261
250.96	25.822
251.33	20.349
251.70	24.706
252.08	24.365
252.45	23.267
252.82	23.116
253.19	21.659
253.56	25.701
253.94	21.171
254.31	24.348
254.68	23.684
255.05	24.016
255.42	25.764
255.79	23.938
256.16	27.626
256.54	23.881
256.91	21.673
257.28	23.048
257.65	21.348
258.02	19.858
258.39	23.569
258.76	26.007
259.14	26.578
259.51	22.977
259.88	25.086
260.25	22.222
260.62	25.000
260.99	20.339
261.36	24.315
261.73	25.949
262.10	25.228
262.47	24.233
262.85	20.690
263.22	22.154
263.59	22.118
263.96	27.950
264.33	25.455
264.70	25.000
265.07	24.405
265.44	22.946
265.81	24.576
266.18	22.678
266.55	25.193
266.92	23.575
267.29	25.065
267.66	24.041
268.03	23.037
268.40	24.282
268.77	28.610
269.14	24.940
269.51	24.679
269.88	23.441
270.25	24.745
270.62	20.732
270.99	24.041
271.36	22.494
271.73	26.526
272.10	25.547
272.47	24.113
272.84	22.772
273.21	24.130
273.58	26.024
273.95	25.629
274.32	21.247
274.69	24.887
275.06	24.777
275.43	24.490
275.80	23.841
276.17	25.057
276.54	21.627
276.91	21.711
277.28	23.362
277.65	24.587
278.02	20.638
278.39	22.319
278.76	22.013
279.13	19.295
279.50	22.899
279.87	22.894
280.23	20.645
280.60	22.612
280.97	24.848
281.34	20.577
281.71	24.641
282.08	23.926
282.45	21.918
282.82	21.429
283.19	23.404
283.56	21.387
283.92	22.960
284.29	22.308
284.66	22.287
285.03	24.754
285.40	21.172
285.77	20.562
286.14	22.383
286.51	22.694
286.87	20.475
287.24	20.994
287.61	20.635
287.98	20.526
288.35	22.010
288.72	22.767
289.08	23.090
289.45	21.441
289.82	21.154
290.19	20.137
290.56	20.069
290.93	21.044
291.29	19.260
291.66	21.260
292.03	20.893
292.40	19.516
292.77	19.617
293.13	16.396
293.50	20.637
293.87	18.473
294.24	21.484
294.60	18.033
294.97	18.899
295.34	16.564
295.71	19.523
296.08	18.087
296.44	16.501
296.81	17.917
297.18	15.942
297.55	17.751
297.91	17.945
298.28	19.261
298.65	16.825
299.02	18.733
299.38	13.680
299.75	17.103
300.12	16.885
300.48	16.996
300.85	17.997
301.22	16.364
301.59	16.447
301.95	17.975
302.32	18.158
302.69	17.040
303.05	16.832
303.42	16.812
303.79	16.121
304.15	16.965
304.52	14.744
304.89	15.205
305.25	14.891
305.62	14.936
305.99	15.673
306.35	15.029
306.72	13.498
307.09	15.735
307.45	15.844
307.82	15.278
308.19	16.028
308.55	14.831
308.92	16.776
309.29	15.978
309.65	15.285
310.02	15.732
310.38	16.246
310.75	16.503
311.12	16.039
311.48	16.225
311.85	14.974
312.22	15.823
312.58	16.030
312.95	15.475
313.31	15.321
313.68	16.021
314.05	15.918
314.41	15.155
314.78	15.361
315.14	16.547
315.51	17.391
315.87	16.906
316.24	17.492
316.61	17.126
316.97	18.948
317.34	17.090
317.70	17.878
318.07	17.500
318.43	19.216
318.80	17.992
319.16	18.945
319.53	20.608
319.89	20.079
320.26	19.028
320.62	22.066
320.99	21.086
321.35	22.405
321.72	22.430
322.08	21.652
322.45	20.203
322.81	21.611
323.18	20.805
323.54	22.201
323.91	23.272
324.27	24.609
324.64	24.813
325.00	24.179
325.37	26.171
325.73	24.116
326.10	26.794
326.46	27.175
326.83	25.984
327.19	27.289
327.56	28.063
327.92	27.465
328.29	27.054
328.65	28.679
329.01	28.125
329.38	28.940
329.74	27.290
330.11	30.491
330.47	29.592
330.84	28.365
331.20	29.278
331.56	28.981
331.93	29.589
332.29	30.431
332.66	29.593
333.02	29.926
333.38	29.973
333.75	31.593
334.11	29.364
334.48	30.916
334.84	29.670
335.20	30.924
335.57	29.918
335.93	30.443
336.29	32.228
336.66	30.881
337.02	30.112
337.38	30.463
337.75	30.727
338.11	31.019
338.47	30.931
338.84	31.793
339.20	31.627
339.56	31.009
339.93	30.707
340.29	30.734
340.65	30.466
341.02	29.521
341.38	30.000
341.74	29.594
342.11	28.769
342.47	32.295
342.83	31.055
343.20	29.530
343.56	30.435
343.92	30.204
344.28	29.804
344.65	29.534
345.01	28.349
345.37	29.016
345.73	30.377
346.10	29.767
346.46	29.100
346.82	28.642
347.19	28.013
347.55	29.156
347.91	29.045
348.27	28.860
348.63	30.835
349.00	29.368
349.36	29.593
349.72	29.353
350.08	27.869
350.45	28.412
350.81	29.153
351.17	27.524
351.53	29.469
351.89	28.489
352.26	28.560
352.62	28.306
352.98	27.631
353.34	27.536
353.70	28.964
354.07	28.629
354.43	27.702
354.79	27.663
355.15	27.937
355.51	29.035
355.87	27.184
356.24	26.264
356.60	27.324
356.96	28.413
357.32	26.677
357.68	26.818
358.04	27.141
358.40	27.492
358.77	29.187
359.13	28.423
359.49	26.579
359.85	27.223
360.21	29.027
360.57	27.467
360.93	27.534
361.29	26.360
361.66	27.821
362.02	27.424
362.38	28.180
362.74	26.949
363.10	27.690
363.46	26.538
363.82	28.850
364.18	27.306
364.54	27.132
364.90	26.667
365.26	27.220
365.62	28.905
365.98	27.053
366.35	27.385
366.71	28.381
367.07	28.302
367.43	27.750
367.79	28.269
368.15	27.064
368.51	28.478
368.87	28.356
369.23	27.870
369.59	28.499
369.95	28.152
370.31	28.035
370.67	28.881
371.03	27.558
371.39	27.133
371.75	28.571
372.11	27.960
372.47	27.959
372.83	28.957
373.19	28.887
373.55	27.726
373.91	27.862
374.27	29.766
374.63	29.146
374.99	28.014
375.35	29.109
375.71	28.741
376.07	29.073
376.42	30.136
376.78	30.805
377.14	29.926
377.50	28.619
377.86	31.191
378.22	30.057
378.58	30.385
378.94	28.986
379.30	29.819
379.66	30.784
380.02	31.024
380.38	31.467
380.74	30.640
381.09	31.902
381.45	30.887
381.81	30.907
382.17	31.409
382.53	32.542
382.89	32.203
383.25	33.354
383.61	33.415
383.97	32.317
384.32	32.083
384.68	32.693
385.04	31.311
385.40	32.110
385.76	33.836
386.12	33.118
386.48	34.930
386.83	33.862
387.19	33.394
387.55	34.630
387.91	34.046
388.27	33.455
388.62	35.368
388.98	34.868
389.34	35.415
389.70	35.550
390.06	34.361
390.42	35.104
390.77	35.252
391.13	34.678
391.49	36.223
391.85	35.608
392.20	34.777
392.56	35.474
392.92	36.876
393.28	36.733
393.64	35.315
393.99	37.116
394.35	34.978
394.71	36.845
395.07	36.204
395.42	35.883
395.78	36.612
396.14	36.255
396.50	37.349
396.85	37.090
397.21	36.529
397.57	36.552
397.92	36.549
398.28	38.333
398.64	36.566
399.00	37.020
399.35	37.472
399.71	36.301
400.07	37.424
400.42	36.414
400.78	38.089
401.14	38.294
401.49	37.761
401.85	38.147
402.21	37.530
402.57	37.625
402.92	37.265
403.28	37.531
403.63	38.714
403.99	37.628
404.35	37.164
404.70	37.321
405.06	37.603
405.42	36.544
405.77	37.304
406.13	36.903
406.49	37.182
406.84	37.469
407.20	36.845
407.55	35.995
407.91	37.834
408.27	37.157
408.62	37.292
408.98	37.585
409.34	38.414
409.69	37.855
410.05	37.254
410.40	36.975
410.76	37.153
411.11	38.625
411.47	37.804
411.83	37.037
412.18	36.937
412.54	35.705
412.89	36.884
413.25	36.703
413.60	36.957
413.96	36.074
414.31	37.317
414.67	37.139
415.03	36.951
415.38	37.206
415.74	37.003
416.09	37.622
416.45	37.745
416.80	37.211
417.16	37.776
417.51	38.574
417.87	36.636
418.22	37.306
418.58	37.391
418.93	39.310
419.29	36.236
419.64	37.589
420.00	39.043
420.35	37.134
420.71	37.485
421.06	37.017
421.42	38.041
421.77	38.671
422.12	38.025
422.48	37.141
422.83	37.297
423.19	37.585
423.54	37.449
423.90	36.985
424.25	37.313
424.61	37.087
424.96	37.166
425.31	38.359
425.67	37.265
426.02	37.986
426.38	39.512
426.73	37.712
427.09	37.025
427.44	38.529
427.79	37.596
428.15	37.925
428.50	37.190
428.85	36.794
429.21	37.351
429.56	37.574
429.92	37.904
430.27	37.393
430.62	37.428
430.98	37.208
431.33	38.065
431.68	38.095
432.04	38.178
432.39	37.479
432.74	36.260
433.10	38.736
433.45	38.471
433.80	38.770
434.16	37.341
434.51	38.656
434.86	38.734
435.22	38.474
435.57	37.367
435.92	38.263
436.28	37.925
436.63	38.677
436.98	37.080
437.34	38.113
437.69	38.104
438.04	37.607
438.39	37.813
438.75	38.434
439.10	38.766
439.45	39.075
439.81	36.820
440.16	39.846
440.51	39.403
440.86	39.698
441.22	38.462
441.57	38.962
441.92	39.664
442.27	39.302
442.63	39.775
442.98	39.518
443.33	39.566
443.68	39.204
444.03	38.698
444.39	38.662
444.74	39.632
445.09	39.811
445.44	39.145
445.79	40.949
446.15	39.978
446.50	38.991
446.85	40.064
447.20	39.677
447.55	40.625
447.91	38.917
448.26	39.670
448.61	40.472
448.96	39.759
449.31	39.711
449.66	39.954
450.02	40.274
450.37	39.478
450.72	39.347
451.07	39.494
451.42	38.826
451.77	39.361
452.12	38.935
452.47	38.957
452.83	39.812
453.18	39.785
453.53	39.633
453.88	40.376
454.23	40.074
454.58	40.113
454.93	39.755
455.28	38.413
455.63	40.174
455.98	40.529
456.34	40.613
456.69	39.517
457.04	41.084
457.39	39.854
457.74	40.024
458.09	38.729
458.44	40.316
458.79	39.496
459.14	40.046
459.49	41.433
459.84	39.820
460.19	40.595
460.54	40.403
460.89	41.080
461.24	39.752
461.59	39.846
461.94	39.119
462.29	40.169
462.64	40.864
462.99	39.878
463.34	39.360
463.69	39.768
464.04	40.557
464.39	40.509
464.74	40.245
465.09	41.173
465.44	39.815
465.79	38.889
466.14	40.251
466.49	39.735
466.84	40.869
467.19	40.175
467.54	39.464
467.89	39.735
468.24	39.477
468.59	40.825
468.94	38.921
469.29	39.148
469.64	40.055
469.99	40.995
470.34	39.522
470.68	40.418
471.03	39.066
471.38	40.514
471.73	40.196
472.08	40.027
472.43	40.067
472.78	40.164
473.13	39.660
473.48	39.544
473.83	38.667
474.17	40.868
474.52	39.375
474.87	39.818
475.22	39.475
475.57	39.921
475.92	40.208
476.27	39.173
476.61	39.699
476.96	38.595
477.31	38.886
477.66	38.708
478.01	39.528
478.36	39.161
478.70	39.804
479.05	39.725
479.40	39.746
479.75	39.260
480.10	40.707
480.45	39.700
480.79	40.131
481.14	39.652
481.49	39.704
481.84	39.865
482.19	39.523
482.53	40.000
482.88	39.475
483.23	38.676
483.58	39.198
483.92	39.497
484.27	38.605
484.62	38.637
484.97	38.391
485.31	38.909
485.66	39.522
486.01	40.169
486.36	39.893
486.70	39.928
487.05	38.642
487.40	38.883
487.75	39.014
488.09	37.639
488.44	37.483
488.79	38.140
489.13	38.061
489.48	39.675
489.83	38.834
490.17	38.787
490.52	38.014
490.87	37.899
491.22	38.777
491.56	38.520
491.91	38.480
492.26	38.746
492.60	38.292
492.95	39.597
493.30	38.544
493.64	39.293
493.99	38.502
494.34	39.320
494.68	38.571
495.03	38.102
495.37	38.077
495.72	38.516
496.07	39.512
496.41	37.783
496.76	37.540
497.11	38.519
497.45	38.091
497.80	38.951
498.14	37.407
498.49	38.598
498.84	38.473
499.18	38.906
499.53	38.740
499.87	37.986
500.22	38.526
500.56	38.326
500.91	37.801
501.26	37.123
501.60	38.367
501.95	37.943
502.29	38.063
502.64	38.417
502.98	38.135
503.33	37.224
503.67	37.108
504.02	37.830
504.36	38.545
504.71	36.465
505.06	36.940
505.40	37.919
505.75	37.784
506.09	37.253
506.44	38.963
506.78	37.653
507.13	37.746
507.47	37.076
507.82	37.447
508.16	36.820
508.51	37.093
508.85	37.834
509.19	37.201
509.54	36.676
509.88	36.677
510.23	37.278
510.57	37.948
510.92	36.247
511.26	37.971
511.61	37.569
511.95	36.986
512.30	36.973
512.64	36.394
512.98	36.609
513.33	37.605
513.67	36.327
514.02	37.128
514.36	37.829
514.70	38.228
515.05	38.367
515.39	37.249
515.74	37.485
516.08	36.282
516.42	37.220
516.77	37.566
517.11	37.151
517.46	37.163
517.80	36.234
518.14	36.069
518.49	36.959
518.83	36.695
519.17	36.264
519.52	36.767
519.86	35.774
520.20	35.966
520.55	35.710
520.89	36.763
521.23	37.302
521.58	37.539
521.92	36.346
522.26	36.825
522.61	36.688
522.95	37.748
523.29	36.277
523.64	37.230
523.98	36.293
524.32	35.309
524.66	37.196
525.01	36.818
525.35	36.487
525.69	35.556
526.04	36.111
526.38	36.835
526.72	35.317
527.06	35.668
527.41	35.290
527.75	36.126
528.09	34.950
528.43	37.070
528.78	34.653
529.12	35.419
529.46	35.802
529.80	35.149
530.15	35.842
530.49	34.815
530.83	35.636
531.17	35.729
531.51	36.115
531.86	35.078
532.20	35.630
532.54	34.581
532.88	36.413
533.22	34.812
533.57	35.387
533.91	36.227
534.25	36.003
534.59	34.958
534.93	34.424
535.27	34.898
535.62	35.321
535.96	36.595
536.30	34.894
536.64	37.078
536.98	35.261
537.32	36.344
537.66	35.975
538.01	35.664
538.35	35.160
538.69	33.955
539.03	34.655
539.37	35.061
539.71	35.037
540.05	35.234
540.39	34.834
540.73	34.868
541.07	34.530
541.42	35.215
541.76	34.343
542.10	34.687
542.44	34.955
542.78	34.343
543.12	35.027
543.46	35.327
543.80	34.282
544.14	33.712
544.48	34.510
544.82	35.270
545.16	35.383
545.50	33.912
545.84	35.269
546.18	35.106
546.52	35.472
546.86	35.083
547.20	34.478
547.54	31.943
547.88	34.851
548.22	33.399
548.56	33.443
548.90	34.164
549.24	33.471
549.58	32.581
549.92	33.167
550.26	33.846
550.60	32.565
550.94	34.653
551.28	33.462
551.62	33.692
551.96	33.759
552.30	33.114
552.64	33.427
552.98	33.615
553.32	32.240
553.66	34.688
554.00	33.066
554.34	34.343
554.68	32.522
555.02	33.557
555.36	32.536
555.69	32.454
556.03	32.905
556.37	33.025
556.71	33.357
557.05	32.513
557.39	31.822
557.73	32.834
558.07	33.635
558.41	31.394
558.75	32.190
559.08	32.151
559.42	31.746
559.76	32.746
560.10	32.798
560.44	32.986
560.78	31.958
561.12	33.427
561.45	34.153
561.79	32.073
562.13	32.434
562.47	33.022
562.81	32.205
563.15	32.722
563.48	32.390
563.82	32.464
564.16	31.685
564.50	33.176
564.84	32.463
565.17	31.522
565.51	33.197
565.85	32.030
566.19	32.294
566.52	32.105
566.86	33.740
567.20	33.188
567.54	30.900
567.88	32.806
568.21	32.579
568.55	32.391
568.89	32.495
569.23	32.210
569.56	32.443
569.90	33.090
570.24	31.969
570.57	32.218
570.91	32.799
571.25	31.569
571.59	31.704
571.92	31.585
572.26	31.099
572.60	30.946
572.93	30.750
573.27	30.721
573.61	31.474
573.95	31.458
574.28	31.091
574.62	30.943
574.96	30.616
575.29	30.767
575.63	29.982
575.97	30.008
576.30	31.037
576.64	29.987
576.98	30.914
577.31	30.990
577.65	30.528
577.98	30.896
578.32	30.761
578.66	29.981
578.99	30.276
579.33	29.878
579.67	29.624
580.00	30.481
580.34	30.100
580.67	29.871
581.01	29.803
581.35	30.362
581.68	30.486
582.02	30.171
582.35	30.269
582.69	30.522
583.02	30.143
583.36	29.927
583.70	30.478
584.03	29.747
584.37	29.842
584.70	29.643
585.04	28.990
585.37	29.730
585.71	29.746
586.04	30.005
586.38	29.528
586.72	30.273
587.05	29.347
587.39	30.053
587.72	30.837
588.06	29.560
588.39	29.735
588.73	29.335
589.06	29.387
589.40	28.690
589.73	29.865
590.07	29.834
590.40	29.412
590.73	28.913
591.07	29.347
591.40	29.519
591.74	29.864
592.07	30.288
592.41	29.947
592.74	29.988
593.08	29.410
593.41	30.049
593.75	29.833
594.08	28.699
594.41	29.476
594.75	28.931
595.08	28.982
595.42	29.923
595.75	29.140
596.09	29.672
596.42	29.268
596.75	28.597
597.09	28.884
597.42	28.636
597.75	29.684
598.09	28.610
598.42	28.384
598.76	28.100
599.09	29.207
599.42	28.534
599.76	28.819
600.09	28.582
600.42	28.772
600.76	28.306
601.09	28.511
601.42	27.340
601.76	28.027
602.09	28.218
602.42	28.728
602.76	28.778
603.09	28.738
603.42	28.679
603.76	28.710
604.09	27.542
604.42	28.088
604.76	28.616
605.09	28.473
605.42	28.217
605.75	28.196
606.09	28.493
606.42	27.565
606.75	27.792
607.09	28.220
607.42	28.046
607.75	27.265
608.08	27.269
608.42	27.410
608.75	27.807
609.08	28.700
609.41	27.766
609.75	27.016
610.08	28.108
610.41	27.246
610.74	27.791
611.07	28.114
611.41	28.490
611.74	29.264
612.07	27.141
612.40	27.516
612.73	27.797
613.07	27.165
613.40	27.133
613.73	26.917
614.06	27.546
614.39	27.355
614.72	27.395
615.06	27.039
615.39	27.129
615.72	26.534
616.05	27.374
616.38	25.641
616.71	27.217
617.05	26.189
617.38	28.284
617.71	27.358
618.04	26.984
618.37	27.869
618.70	27.195
619.03	27.778
619.36	25.977
619.69	28.582
620.03	28.269
620.36	27.110
620.69	27.123
621.02	26.529
621.35	26.805
621.68	27.466
622.01	27.083
622.34	27.135
622.67	26.183
623.00	27.182
623.33	26.982
623.66	26.851
623.99	27.534
624.32	26.844
624.65	26.391
624.99	27.013
625.32	26.232
625.65	26.080
625.98	27.478
626.31	25.769
626.64	27.816
626.97	28.185
627.30	28.109
627.63	27.643
627.96	26.685
628.29	26.087
628.62	26.844
628.95	26.653
629.28	24.194
629.61	25.623
629.94	28.152
630.26	26.877
630.59	27.367
630.92	27.487
631.25	27.385
631.58	26.872
631.91	26.316
632.24	27.638
632.57	26.818
632.90	26.809
633.23	27.412
633.56	27.456
633.89	26.017
634.22	27.037
634.55	27.446
634.88	26.564
635.20	25.769
635.53	27.333
635.86	26.008
636.19	25.744
636.52	27.296
636.85	25.310
637.18	26.541
637.51	28.176
637.83	26.413
638.16	27.149
638.49	25.886
638.82	26.447
639.15	26.323
639.48	25.722
639.81	27.615
640.13	25.108
640.46	26.968
640.79	26.215
641.12	27.474
641.45	26.426
641.77	26.963
642.10	28.436
642.43	27.814
642.76	26.568
643.09	26.171
643.41	26.052
643.74	24.712
644.07	26.929
644.40	25.676
644.73	25.744
645.05	26.678
645.38	25.750
645.71	25.355
646.04	28.546
646.36	24.113
646.69	27.878
647.02	27.032
647.35	26.679
647.67	25.960
648.00	27.052
648.33	25.939
648.66	26.780
648.98	24.791
649.31	26.446
649.64	25.746
649.96	23.987
650.29	25.724
650.62	25.641
650.94	23.333
651.27	23.464
651.60	25.766
651.92	25.524
652.25	25.933
652.58	28.167
652.90	27.273
653.23	23.193
653.56	24.535
653.88	25.430
654.21	23.292
654.54	26.995
654.86	26.486
655.19	25.146
655.52	26.703
655.84	26.128
656.17	29.047
656.49	38.148
656.82	38.203
657.15	27.988
657.47	20.688
657.80	15.039
658.13	14.354
658.45	20.947
658.78	20.576
659.10	19.641
659.43	19.602
659.75	20.523
660.08	21.103
660.41	21.348
660.73	22.790
661.06	22.184
661.38	22.309
661.71	21.561
662.03	27.253
662.36	25.055
662.68	24.779
663.01	27.293
663.33	23.898
663.66	22.791
663.98	21.628
664.31	24.520
664.63	21.889
664.96	21.739
665.28	23.179
665.61	27.489
665.93	24.348
666.26	23.427
666.58	23.266
666.91	22.824
667.23	24.528
667.56	26.777
667.88	24.221
668.21	26.014
668.53	25.532
668.86	26.415
669.18	24.764
669.50	22.276
669.83	22.093
670.15	24.476
670.48	24.163
670.80	25.115
671.13	24.161
671.45	22.146
671.77	25.966
672.10	24.752
672.42	23.596
672.75	23.623
673.07	25.403
673.39	22.018
673.72	22.485
674.04	21.458
674.37	24.576
674.69	21.199
675.01	24.444
675.34	20.946
675.66	24.306
675.98	22.616
676.31	23.165
676.63	24.941
676.95	22.045
677.28	26.353
677.60	26.747
677.92	25.917
678.25	26.258
678.57	22.078
678.89	23.529
679.22	25.951
679.54	22.490
679.86	23.857
680.18	25.049
680.51	23.864
680.83	22.068
681.15	23.200
681.48	23.975
681.80	23.760
682.12	23.589
682.44	22.594
682.77	22.296
683.09	21.968
683.41	20.909
683.73	23.502
684.06	24.336
684.38	20.215
684.70	23.747
685.02	22.822
685.34	22.332
685.67	22.139
685.99	24.231
686.31	23.894
686.63	22.635
686.96	22.814
687.28	21.616
687.60	22.243
687.92	24.040
688.24	21.371
688.56	20.087
688.89	23.661
689.21	25.333
689.53	24.130
689.85	21.395
690.17	23.661
690.49	21.040
690.82	23.786
691.14	21.667
691.46	23.832
691.78	23.874
692.10	24.946
692.42	21.429
692.74	23.291
693.06	20.721
693.39	22.624
693.71	20.362
694.03	23.095
694.35	22.196
694.67	21.970
694.99	20.888
695.31	25.065
695.63	20.500
695.95	22.222
696.27	22.280
696.59	24.722
696.91	22.689
697.23	17.995
697.56	23.762
697.88	23.871
698.20	22.551
698.52	20.941
698.84	18.660
699.16	19.500
699.48	21.053
699.80	21.092
700.12	23.989
700.44	22.969
700.76	23.547
701.08	21.818
701.40	23.795
701.72	22.222
702.04	27.393
702.36	25.418
702.68	20.420
703.00	22.727
703.32	26.100
703.64	19.209
703.96	21.159
704.28	21.472
704.60	25.079
704.91	17.981
705.23	15.947
705.55	24.735
705.87	20.939
706.19	22.222
706.51	21.993
706.83	24.437
707.15	18.380
707.47	21.849
707.79	21.875
708.11	22.500
708.43	23.000
708.74	20.672
709.06	22.817
709.38	21.713
709.70	23.373
710.02	21.019
710.34	24.458
710.66	17.308
710.98	23.179
711.29	20.328
711.61	22.034
711.93	21.498
712.25	26.804
712.57	24.542
712.89	20.149
713.20	22.491
713.52	21.951
713.84	20.137
714.16	19.244
714.48	23.871
714.80	27.564
715.11	21.581
715.43	19.749
715.75	21.667
716.07	17.276
716.39	19.799
716.70	17.712
717.02	20.229
717.34	25.101
717.66	22.124
717.97	19.130
718.29	18.410
718.61	22.441
718.93	21.318
719.24	22.053
719.56	21.687
719.88	19.931
720.20	21.212
720.51	16.092
720.83	20.463
721.15	21.849
721.46	21.371
721.78	20.158
722.10	19.331
722.42	16.183
722.73	21.633
723.05	24.082
723.37	25.000
723.68	23.874
724.00	19.658
724.32	16.000
724.63	14.545
724.95	22.707
725.27	21.198
725.58	19.068
725.90	21.032
726.22	20.849
726.53	24.746
726.85	22.472
727.16	21.887
727.48	17.814
727.80	23.482
728.11	22.458
728.43	18.824
728.74	16.129
729.06	18.400
729.38	25.564
729.69	16.733
730.01	18.462
730.32	21.642
730.64	24.028
730.96	24.528
731.27	21.000
731.59	21.695
731.90	19.745
732.22	20.189
732.53	24.585
732.85	22.695
733.16	24.242
733.48	17.986
733.80	17.391
734.11	18.644
734.43	20.619
734.74	19.394
735.06	18.893
735.37	20.544
735.69	23.232
736.00	15.331
736.32	20.805
736.63	20.775
736.95	22.867
737.26	20.641
737.58	19.463
737.89	21.612
738.21	18.797
738.52	20.988
738.83	19.214
739.15	17.904
739.46	18.504
739.78	16.850
740.09	16.993
740.41	22.826
740.72	21.260
741.04	21.053
741.35	20.426
741.66	18.009
741.98	16.327
742.29	19.802
742.61	17.277
742.92	13.270
743.23	17.130
743.55	18.552
743.86	15.311
744.18	17.703
744.49	16.489
744.80	23.913
745.12	21.390
745.43	15.122
745.74	22.396
746.06	23.415
746.37	15.707
746.68	22.749
747.00	10.638
747.31	23.383
747.62	20.874
747.94	17.225
748.25	26.238
748.56	22.404
748.88	14.660
749.19	27.128
749.50	19.212
749.82	11.792
750.13	17.890
750.44	25.188
750.75	17.910
751.07	24.088
751.38	22.222
751.69	19.608
752.01	17.054
752.32	18.725
752.63	16.996
752.94	16.379
753.26	24.686
753.57	19.457
753.88	14.159
754.19	16.667
754.51	18.595
754.82	16.599
755.13	18.333
755.44	18.952
755.75	23.047
756.07	20.623
756.38	20.377
756.69	19.540
757.00	19.667
757.31	20.588
757.63	12.500
757.94	18.611
758.25	16.438
758.56	17.553
758.87	18.980
759.18	17.757
759.50	17.455
759.81	23.411
760.12	20.968
760.43	19.697
760.74	19.753
761.05	20.000
761.36	19.886
761.67	19.697
761.99	22.789
762.30	15.273
762.61	19.368
762.92	16.742
763.23	19.369
763.54	17.757
763.85	22.034
764.16	16.598
764.47	18.145
764.78	19.780
765.10	19.192
765.41	21.136
765.72	20.317
766.03	13.158
766.34	18.613
766.65	23.506
766.96	20.202
767.27	21.809
767.58	10.345
767.89	19.858
768.20	17.045
768.51	15.385
768.82	21.182
769.13	19.816
769.44	18.884
769.75	17.352
770.06	22.414
770.37	21.635
770.68	15.736
770.99	20.814
771.30	18.627
771.61	14.932
771.92	20.690
772.23	18.719
772.54	11.290
772.85	17.901
773.16	15.169
773.47	19.608
773.78	19.608
774.09	17.964
774.39	14.000
774.70	22.930
775.01	27.586
775.32	27.143
775.63	19.008
775.94	10.687
776.25	18.898
776.56	12.500
776.87	10.577
777.18	10.256
777.48	14.655
777.79	13.043
778.10	9.524
778.41	15.315
778.72	13.492
779.03	18.045
779.34	17.730
779.65	21.918
779.95	18.493
780.26	20.000
780.57	5.691
780.88	25.984
781.19	17.241
781.50	17.829
781.80	13.018
782.11	17.610
782.42	22.308
782.73	15.827
783.04	16.296
783.34	17.361
783.65	1.709
783.96	21.311
784.27	18.621
784.57	20.325
784.88	19.531
785.19	17.000
785.50	22.000
785.81	23.276
786.11	18.966
786.42	18.447
786.73	30.000
787.04	11.224
787.34	22.321
787.65	15.238
787.96	15.044
788.26	17.273
788.57	18.803
788.88	16.406
789.19	14.286
789.49	20.870
789.80	10.204
790.11	17.172
790.41	12.727
790.72	25.000
791.03	17.045
791.33	16.250
791.64	20.000
791.95	10.465
792.25	22.340
792.56	34.831
792.87	5.479
793.17	18.841
793.48	8.000
793.79	13.750
794.09	20.000
794.40	7.547
794.70	22.330
795.01	20.325
795.32	8.547
795.62	13.333
795.93	23.529
796.23	14.151
796.54	20.833
796.85	30.882
797.15	21.127
797.46	26.389
797.76	19.697
798.07	9.302
798.37	3.947
798.68	15.152
798.99	18.519
799.29	25.714
799.60	2.899
799.90	16.000
800.21	13.115
800.51	15.385
800.82	18.644
801.12	21.739
801.43	13.115
801.73	15.873
802.04	8.000
802.34	16.418
802.65	15.385
802.95	7.143
803.26	1.923
803.56	25.490
803.87	-6.522
804.17	18.667
804.48	28.571
804.78	-3.704
805.09	19.565
805.39	0.000
805.70	31.481
806.00	-26.316
806.30	8.451
806.61	27.143
806.91	5.556
807.22	11.842
807.52	1.333
807.83	-9.091
808.13	5.556
808.43	11.765
808.74	13.433
809.04	-3.390
809.35	-5.769
809.65	6.250
809.95	-13.514
810.26	20.455
810.56	26.027
810.86	9.524
811.17	0.000
811.47	42.857
811.77	-15.789
812.08	4.545
812.38	20.755
812.69	27.500
812.99	39.394
813.29	2.632
813.59	5.714
813.90	13.636
814.20	-12.821
814.50	26.923
814.81	28.302
815.11	-10.638
815.41	23.729
815.72	9.524
816.02	17.647
816.32	-2.083
816.62	7.317
816.93	0.000
817.23	5.714
817.53	14.583
817.84	10.870
818.14	15.385
818.44	-5.263
818.74	34.783
819.04	-25.000
819.35	13.514
819.65	23.529
819.95	5.556
820.25	4.762
820.56	32.500
820.86	-13.793
821.16	25.000
821.46	23.404
821.76	-2.500
822.07	16.279
822.37	-21.622
822.67	0.000
822.97	35.714
823.27	-28.571
823.57	-4.000
823.88	-25.926
824.18	17.857
824.48	32.353
824.78	19.355
825.08	13.043
825.38	30.303
825.69	-54.167
825.99	23.684
826.29	5.556
826.59	-13.333
826.89	-38.095
827.19	23.913
827.49	-5.000
827.79	40.000
828.09	14.286
828.39	24.242
828.70	37.838
829.00	7.143
829.30	-38.095
829.60	3.333
829.90	34.375
830.20	10.526
830.50	-18.519
830.80	-13.043
831.10	4.545
831.40	39.394
831.70	32.258
832.00	4.762
832.30	-23.810
832.60	-41.667
832.90	-13.793
833.20	35.000
833.50	27.273
833.80	-18.519
834.10	19.231
834.40	21.875
834.70	-66.667
835.00	5.263
835.30	23.077
835.60	-33.333
835.90	16.129
836.20	-22.727
836.50	89.286
836.80	-42.308
837.10	21.429
837.40	-33.333
837.70	9.091
838.00	-154.545
838.30	26.087
838.60	30.769
838.90	13.636
839.19	39.286
839.49	10.000
839.79	7.692
840.09	-83.333
840.39	17.857
840.69	14.286
840.99	-34.615
841.29	-36.842
841.59	-70.000
841.88	-9.091
842.18	30.000
842.48	25.000
842.78	-26.667
843.08	18.519
843.38	-150.000
843.68	-13.043
843.97	33.333
844.27	-40.000
844.57	30.000
844.87	-61.111
845.17	23.810
845.47	0.000
845.76	-42.857
846.06	29.412
846.36	-90.000
846.66	-71.429
846.96	13.333
847.25	-125.000
847.55	28.571
847.85	12.500
848.15	-40.909
848.44	-300.000
848.74	20.000
849.04	14.815
849.34	9.091
849.63	-66.667
849.93	-220.000
850.23	-5.556
850.53	10.000
850.82	-23.077
851.12	-77.778
851.42	-26.667
851.71	-15.385
852.01	50.000
852.31	-325.000
852.61	-36.364
852.90	15.000
853.20	21.053
853.50	-16.667
853.79	0.000
854.09	54.167
854.39	21.053
854.68	8.333
854.98	0.000
855.28	11.538
855.57	0.000
855.87	-27.778
856.17	7.407
856.46	-7.143
856.76	13.333
857.05	66.667
857.35	20.000
857.65	5.556
857.94	-100.000
858.24	44.828
858.53	33.333
858.83	25.926
859.13	4.545
859.42	-43.478
859.72	150.000
860.01	-600.000
860.31	-20.000
860.60	-4.762
860.90	-366.667
861.20	20.000
861.49	-600.000
861.79	-46.667
862.08	-5.000
862.38	86.667
862.67	-80.000
862.97	-100.000
863.26	8.333
863.56	88.889
863.85	-100.000
864.15	5.556
864.44	-50.000
864.74	28.571
865.03	225.000
865.33	-200.000
865.62	-50.000
865.92	-66.667
866.21	-16.667
866.51	50.000
866.80	-63.636
867.10	-250.000
867.39	66.667
867.69	0.000
867.98	-76.923
868.27	-233.333
868.57	46.667
868.86	11.111
869.16	-38.462
869.45	6.667
869.75	-1700.000
870.04	0.000
870.33	-128.571
870.63	33.333
870.92	233.333
871.22	-120.000
871.51	-1400.000
871.80	-55.556
872.10	366.667
>>>>>End Processed Spectral Data<<<<<
