SpectraSuite Data File
++++++++++++++++++++++++++++++++++++
Date: Fri May 15 20:38:04 PDT 2015
User: schluterlab
Dark Spectrum Present: Yes
Reference Spectrum Present: Yes
Number of Sampled Component Spectra: 1
Spectrometers: USB2E3373
Integration Time (usec): 3000 (USB2E3373)
Spectra Averaged: 3 (USB2E3373)
Boxcar Smoothing: 0 (USB2E3373)
Correct for Electrical Dark: No (USB2E3373)
Strobe/Lamp Enabled: No (USB2E3373)
Correct for Detector Non-linearity: No (USB2E3373)
Correct for Stray Light: No (USB2E3373)
Number of Pixels in Processed Spectrum: 2048
>>>>>Begin Processed Spectral Data<<<<<
178.53	0.000
178.91	0.000
179.29	-37.500
179.67	-750.000
180.04	114.286
180.42	25.000
180.80	1100.000
181.18	100.000
181.56	400.000
181.94	-600.000
182.31	-200.000
182.69	-80.000
183.07	-600.000
183.45	-60.000
183.83	83.333
184.20	18.182
184.58	77.778
184.96	-50.000
185.34	100.000
185.72	-950.000
186.09	92.308
186.47	-1000.000
186.85	300.000
187.23	66.667
187.61	-400.000
187.98	-366.667
188.36	100.000
188.74	-66.667
189.12	11.765
189.49	16.667
189.87	0.000
190.25	71.429
190.63	-250.000
191.00	-100.000
191.38	21.053
191.76	500.000
192.14	175.000
192.51	-100.000
192.89	-22.222
193.27	-57.143
193.65	183.333
194.02	27.273
194.40	10.000
194.78	-87.500
195.15	-25.000
195.53	37.500
195.91	-100.000
196.29	-100.000
196.66	69.231
197.04	85.714
197.42	77.778
197.79	-266.667
198.17	-84.615
198.55	1900.000
198.92	-266.667
199.30	-900.000
199.68	-120.000
200.05	-266.667
200.43	0.000
200.81	-133.333
201.18	-66.667
201.56	2000.000
201.94	250.000
202.31	-100.000
202.69	-140.000
203.07	200.000
203.44	-400.000
203.82	0.000
204.19	57.143
204.57	-233.333
204.95	50.000
205.32	90.000
205.70	-142.857
206.08	-150.000
206.45	211.111
206.83	64.286
207.20	-142.857
207.58	-0.000
207.96	-100.000
208.33	-70.000
208.71	100.000
209.08	-83.333
209.46	-400.000
209.84	-80.000
210.21	-500.000
210.59	71.429
210.96	33.333
211.34	-225.000
211.71	-6.667
212.09	-14.286
212.46	-900.000
212.84	0.000
213.22	30.000
213.59	650.000
213.97	53.846
214.34	63.636
214.72	-50.000
215.09	400.000
215.47	-92.308
215.84	18.182
216.22	-333.333
216.59	0.000
216.97	-200.000
217.34	0.000
217.72	-260.000
218.09	50.000
218.47	150.000
218.84	-100.000
219.22	-55.556
219.59	-60.000
219.97	600.000
220.34	150.000
220.72	71.429
221.09	75.000
221.47	-400.000
221.84	-650.000
222.22	-800.000
222.59	-18.182
222.97	33.333
223.34	-366.667
223.72	28.571
224.09	66.667
224.46	10.714
224.84	366.667
225.21	20.000
225.59	0.000
225.96	-250.000
226.34	325.000
226.71	-57.143
227.08	-150.000
227.46	-75.000
227.83	-250.000
228.21	-11.111
228.58	90.909
228.95	-62.500
229.33	120.000
229.70	-31.250
230.08	-150.000
230.45	-114.286
230.82	42.857
231.20	26.667
231.57	35.714
231.95	-42.857
232.32	0.000
232.69	7.143
233.07	-33.333
233.44	220.000
233.81	30.000
234.19	-66.667
234.56	0.000
234.93	50.000
235.31	200.000
235.68	-240.000
236.05	-53.846
236.43	40.000
236.80	-17.647
237.17	21.875
237.55	30.000
237.92	44.444
238.29	19.444
238.67	23.333
239.04	23.529
239.41	9.756
239.79	40.000
240.16	12.195
240.53	-15.789
240.91	10.870
241.28	22.222
241.65	32.143
242.02	27.397
242.40	40.000
242.77	22.034
243.14	22.727
243.51	26.250
243.89	28.736
244.26	14.943
244.63	30.952
245.00	15.464
245.38	36.082
245.75	17.978
246.12	4.310
246.49	25.620
246.87	28.846
247.24	16.807
247.61	29.825
247.98	30.081
248.36	25.000
248.73	33.553
249.10	18.831
249.47	29.114
249.84	27.451
250.22	21.765
250.59	24.183
250.96	30.047
251.33	29.070
251.70	28.824
252.08	22.843
252.45	24.752
252.82	29.146
253.19	24.885
253.56	25.701
253.94	24.324
254.31	28.696
254.68	25.877
255.05	25.197
255.42	20.961
255.79	24.710
256.16	28.016
256.54	26.493
256.91	23.574
257.28	24.164
257.65	26.217
258.02	26.950
258.39	30.640
258.76	29.670
259.14	21.262
259.51	28.479
259.88	25.086
260.25	28.105
260.62	27.083
260.99	26.780
261.36	26.370
261.73	25.000
262.10	28.571
262.47	26.380
262.85	28.527
263.22	28.308
263.59	27.726
263.96	28.261
264.33	28.182
264.70	28.571
265.07	27.976
265.44	28.612
265.81	26.836
266.18	23.497
266.55	28.792
266.92	25.130
267.29	25.849
267.66	27.110
268.03	25.654
268.40	26.893
268.77	27.273
269.14	28.777
269.51	23.136
269.88	27.182
270.25	22.959
270.62	27.317
270.99	24.297
271.36	25.183
271.73	26.995
272.10	27.494
272.47	25.296
272.84	26.980
273.21	26.682
273.58	27.229
273.95	27.918
274.32	24.249
274.69	24.887
275.06	27.232
275.43	25.170
275.80	27.152
276.17	25.517
276.54	26.338
276.91	26.535
277.28	24.236
277.65	27.273
278.02	27.447
278.39	27.352
278.76	26.834
279.13	21.162
279.50	28.361
279.87	23.974
280.23	24.516
280.60	27.875
280.97	27.879
281.34	24.808
281.71	27.105
282.08	25.153
282.45	25.832
282.82	24.903
283.19	24.952
283.56	28.709
283.92	24.478
284.29	25.769
284.66	23.643
285.03	21.807
285.40	23.819
285.77	24.780
286.14	24.188
286.51	26.199
286.87	23.035
287.24	26.151
287.61	23.457
287.98	26.140
288.35	22.877
288.72	26.445
289.08	23.438
289.45	23.374
289.82	25.699
290.19	21.843
290.56	21.784
290.93	24.916
291.29	21.263
291.66	23.937
292.03	23.126
292.40	22.581
292.77	21.691
293.13	20.130
293.50	20.334
293.87	22.748
294.24	22.102
294.60	22.057
294.97	20.536
295.34	21.933
295.71	19.672
296.08	20.478
296.44	19.488
296.81	20.694
297.18	19.275
297.55	21.003
297.91	19.041
298.28	19.129
298.65	18.182
299.02	19.272
299.38	17.237
299.75	18.345
300.12	18.325
300.48	19.763
300.85	20.786
301.22	18.961
301.59	17.763
301.95	17.848
302.32	19.844
302.69	20.025
303.05	18.688
303.42	19.054
303.79	17.523
304.15	18.877
304.52	18.549
304.89	17.778
305.25	17.433
305.62	16.453
305.99	16.608
306.35	17.225
306.72	16.198
307.09	17.218
307.45	18.140
307.82	16.204
308.19	19.396
308.55	18.975
308.92	19.172
309.29	18.436
309.65	17.330
310.02	18.152
310.38	17.563
310.75	17.923
311.12	17.761
311.48	16.543
311.85	17.068
312.22	16.772
312.58	16.561
312.95	17.289
313.31	16.563
313.68	18.639
314.05	18.265
314.41	17.526
314.78	18.144
315.14	19.424
315.51	19.151
315.87	18.852
316.24	19.515
316.61	20.374
316.97	18.056
317.34	18.359
317.70	18.834
318.07	19.808
318.43	20.294
318.80	20.170
319.16	19.629
319.53	20.228
319.89	20.079
320.26	20.547
320.62	20.461
320.99	20.772
321.35	19.630
321.72	21.495
322.08	21.047
322.45	21.827
322.81	22.692
323.18	20.510
323.54	21.139
323.91	21.811
324.27	20.703
324.64	21.910
325.00	21.533
325.37	23.783
325.73	22.484
326.10	22.525
326.46	23.677
326.83	23.622
327.19	23.540
327.56	23.805
327.92	25.000
328.29	23.036
328.65	24.906
329.01	23.989
329.38	24.885
329.74	24.646
330.11	24.189
330.47	23.933
330.84	24.519
331.20	26.711
331.56	22.870
331.93	24.566
332.29	25.940
332.66	26.154
333.02	25.836
333.38	25.023
333.75	25.275
334.11	24.799
334.48	26.292
334.84	24.725
335.20	25.618
335.57	24.841
335.93	26.016
336.29	26.980
336.66	25.886
337.02	25.929
337.38	25.463
337.75	24.455
338.11	26.060
338.47	24.818
338.84	27.079
339.20	25.686
339.56	26.239
339.93	26.141
340.29	26.147
340.65	25.806
341.02	26.064
341.38	26.106
341.74	23.410
342.11	25.043
342.47	25.000
342.83	26.557
343.20	24.826
343.56	25.304
343.92	25.066
344.28	27.156
344.65	25.475
345.01	25.670
345.37	25.315
345.73	25.356
346.10	24.935
346.46	25.568
346.82	25.368
347.19	23.441
347.55	25.982
347.91	25.971
348.27	24.737
348.63	25.554
349.00	24.446
349.36	25.436
349.72	25.788
350.08	26.967
350.45	24.820
350.81	25.166
351.17	25.489
351.53	24.898
351.89	25.021
352.26	25.360
352.62	25.887
352.98	24.418
353.34	24.718
353.70	26.294
354.07	24.758
354.43	24.900
354.79	25.846
355.15	26.746
355.51	25.396
355.87	25.324
356.24	24.470
356.60	25.627
356.96	25.556
357.32	25.799
357.68	23.612
358.04	25.202
358.40	26.045
358.77	25.359
359.13	26.181
359.49	25.578
359.85	25.663
360.21	25.917
360.57	25.019
360.93	26.172
361.29	24.320
361.66	25.549
362.02	26.212
362.38	24.524
362.74	24.527
363.10	25.508
363.46	25.056
363.82	26.146
364.18	26.421
364.54	25.882
364.90	25.735
365.26	26.419
365.62	26.642
365.98	26.100
366.35	27.458
366.71	26.460
367.07	26.415
367.43	25.449
367.79	25.442
368.15	25.126
368.51	26.293
368.87	25.772
369.23	24.404
369.59	25.656
369.95	26.393
370.31	26.879
370.67	27.463
371.03	25.691
371.39	26.331
371.75	25.348
372.11	26.248
372.47	26.923
372.83	26.828
373.19	26.177
373.55	26.859
373.91	27.430
374.27	27.711
374.63	25.413
374.99	26.312
375.35	27.368
375.71	27.692
376.07	26.826
376.42	27.483
376.78	27.651
377.14	27.217
377.50	26.826
377.86	27.711
378.22	27.760
378.58	28.141
378.94	26.843
379.30	27.760
379.66	28.025
380.02	27.590
380.38	27.450
380.74	28.486
381.09	29.018
381.45	27.645
381.81	28.254
382.17	27.919
382.53	28.482
382.89	28.625
383.25	28.811
383.61	28.659
383.97	27.619
384.32	29.644
384.68	29.040
385.04	29.044
385.40	27.505
385.76	30.566
386.12	30.078
386.48	29.885
386.83	28.916
387.19	29.976
387.55	29.297
387.91	29.401
388.27	29.243
388.62	30.271
388.98	30.694
389.34	30.981
389.70	30.827
390.06	28.949
390.42	29.728
390.77	30.870
391.13	30.454
391.49	31.630
391.85	30.214
392.20	30.822
392.56	30.515
392.92	31.885
393.28	31.132
393.64	30.450
393.99	32.100
394.35	31.689
394.71	31.928
395.07	31.238
395.42	31.755
395.78	32.117
396.14	31.904
396.50	31.642
396.85	32.582
397.21	32.456
397.57	33.292
397.92	31.995
398.28	33.046
398.64	31.988
399.00	32.731
399.35	32.675
399.71	33.314
400.07	34.160
400.42	33.721
400.78	33.742
401.14	34.362
401.49	34.247
401.85	34.674
402.21	33.855
402.57	34.062
402.92	33.877
403.28	35.150
403.63	35.183
403.99	34.630
404.35	36.102
404.70	34.048
405.06	33.666
405.42	35.115
405.77	35.445
406.13	36.147
406.49	36.057
406.84	36.002
407.20	36.063
407.55	35.287
407.91	36.832
408.27	36.138
408.62	36.615
408.98	37.277
409.34	36.679
409.69	36.693
410.05	36.761
410.40	38.395
410.76	38.661
411.11	37.875
411.47	38.659
411.83	37.790
412.18	38.160
412.54	37.953
412.89	37.993
413.25	39.410
413.60	38.634
413.96	37.730
414.31	39.085
414.67	38.743
415.03	39.680
415.38	39.687
415.74	40.391
416.09	39.582
416.45	41.053
416.80	40.053
417.16	41.644
417.51	40.640
417.87	41.265
418.22	42.422
418.58	42.207
418.93	42.069
419.29	40.205
419.64	41.542
420.00	42.191
420.35	41.134
420.71	42.831
421.06	41.989
421.42	42.368
421.77	43.006
422.12	41.317
422.48	41.960
422.83	41.821
423.19	41.930
423.54	42.798
423.90	41.696
424.25	44.030
424.61	43.880
424.96	43.031
425.31	45.638
425.67	45.188
426.02	44.287
426.38	44.834
426.73	45.036
427.09	45.127
427.44	45.118
427.79	45.846
428.15	44.357
428.50	44.761
428.85	44.472
429.21	44.482
429.56	45.876
429.92	44.530
430.27	43.759
430.62	44.956
430.98	45.223
431.33	45.373
431.68	44.270
432.04	45.947
432.39	45.009
432.74	46.242
433.10	47.586
433.45	45.520
433.80	47.417
434.16	46.150
434.51	46.344
434.86	47.038
435.22	46.158
435.57	48.347
435.92	46.527
436.28	46.691
436.63	48.032
436.98	46.234
437.34	47.126
437.69	47.585
438.04	48.775
438.39	47.709
438.75	49.059
439.10	47.765
439.45	49.239
439.81	48.624
440.16	49.287
440.51	48.955
440.86	49.849
441.22	48.416
441.57	48.786
441.92	49.685
442.27	49.335
442.63	49.197
442.98	49.282
443.33	49.750
443.68	48.011
444.03	48.684
444.39	49.779
444.74	50.111
445.09	50.724
445.44	49.573
445.79	51.160
446.15	50.110
446.50	48.974
446.85	51.116
447.20	48.853
447.55	50.000
447.91	50.310
448.26	50.313
448.61	50.720
448.96	51.234
449.31	50.116
449.66	50.697
450.02	50.314
450.37	51.571
450.72	50.172
451.07	52.468
451.42	50.624
451.77	50.874
452.12	51.974
452.47	51.642
452.83	51.708
453.18	51.233
453.53	51.770
453.88	52.763
454.23	52.305
454.58	52.015
454.93	52.062
455.28	50.349
455.63	52.635
455.98	52.676
456.34	52.427
456.69	53.050
457.04	53.371
457.39	51.883
457.74	52.660
458.09	51.677
458.44	52.194
458.79	51.877
459.14	53.146
459.49	52.716
459.84	52.115
460.19	52.973
460.54	52.689
460.89	52.443
461.24	53.540
461.59	52.375
461.94	51.132
462.29	52.292
462.64	55.681
462.99	53.351
463.34	52.712
463.69	54.183
464.04	53.935
464.39	53.730
464.74	52.577
465.09	53.337
465.44	53.953
465.79	51.474
466.14	51.881
466.49	52.156
466.84	53.064
467.19	53.630
467.54	53.448
467.89	53.696
468.24	53.710
468.59	54.921
468.94	52.889
469.29	54.689
469.64	55.776
469.99	55.781
470.34	54.949
470.68	57.122
471.03	56.476
471.38	56.063
471.73	55.462
472.08	55.224
472.43	55.436
472.78	54.010
473.13	55.850
473.48	55.700
473.83	55.168
474.17	56.412
474.52	55.265
474.87	55.394
475.22	54.301
475.57	54.207
475.92	54.690
476.27	55.180
476.61	55.440
476.96	53.932
477.31	55.489
477.66	54.382
478.01	55.138
478.36	55.338
478.70	54.867
479.05	55.275
479.40	54.478
479.75	54.745
480.10	54.736
480.45	55.000
480.79	55.136
481.14	55.943
481.49	55.222
481.84	56.033
482.19	53.929
482.53	54.580
482.88	54.940
483.23	55.422
483.58	54.717
483.92	55.131
484.27	54.011
484.62	55.222
484.97	53.939
485.31	51.842
485.66	50.107
486.01	49.322
486.36	49.090
486.70	49.784
487.05	50.704
487.40	51.370
487.75	51.775
488.09	51.422
488.44	54.023
488.79	54.090
489.13	55.369
489.48	54.211
489.83	55.157
490.17	55.551
490.52	54.688
490.87	54.604
491.22	56.495
491.56	56.262
491.91	55.593
492.26	56.976
492.60	55.374
492.95	58.436
493.30	54.323
493.64	57.171
493.99	55.942
494.34	55.049
494.68	56.143
495.03	54.988
495.37	56.232
495.72	55.881
496.07	57.366
496.41	56.745
496.76	56.287
497.11	54.960
497.45	55.895
497.80	57.064
498.14	56.731
498.49	57.085
498.84	57.335
499.18	57.279
499.53	56.399
499.87	56.518
500.22	56.528
500.56	56.783
500.91	57.229
501.26	55.660
501.60	56.714
501.95	57.011
502.29	56.465
502.64	56.612
502.98	57.129
503.33	55.524
503.67	55.952
504.02	56.989
504.36	57.843
504.71	56.263
505.06	56.970
505.40	57.259
505.75	58.557
506.09	56.969
506.44	58.624
506.78	58.469
507.13	58.170
507.47	57.755
507.82	58.974
508.16	57.475
508.51	59.339
508.85	58.451
509.19	58.701
509.54	57.909
509.88	59.061
510.23	59.118
510.57	59.220
510.92	57.996
511.26	59.083
511.61	59.461
511.95	59.616
512.30	59.922
512.64	59.878
512.98	59.966
513.33	60.828
513.67	59.920
514.02	60.412
514.36	61.257
514.70	62.587
515.05	62.045
515.39	61.393
515.74	62.455
516.08	61.925
516.42	63.192
516.77	63.546
517.11	62.018
517.46	63.076
517.80	61.144
518.14	61.176
518.49	62.139
518.83	63.123
519.17	61.977
519.52	61.871
519.86	62.305
520.20	63.123
520.55	64.103
520.89	63.363
521.23	64.471
521.58	64.038
521.92	64.487
522.26	62.394
522.61	65.130
522.95	66.689
523.29	64.041
523.64	64.867
523.98	63.966
524.32	64.111
524.66	64.469
525.01	64.675
525.35	64.031
525.69	65.657
526.04	64.550
526.38	64.851
526.72	64.814
527.06	63.684
527.41	64.182
527.75	64.946
528.09	64.518
528.43	66.779
528.78	65.281
529.12	65.355
529.46	65.237
529.80	63.078
530.15	65.611
530.49	65.051
530.83	66.826
531.17	64.540
531.51	67.305
531.86	64.310
532.20	66.875
532.54	66.236
532.88	66.598
533.22	65.390
533.57	65.138
533.91	65.470
534.25	66.992
534.59	63.695
534.93	63.940
535.27	64.086
535.62	63.189
535.96	65.101
536.30	63.984
536.64	65.679
536.98	65.296
537.32	66.785
537.66	65.358
538.01	65.594
538.35	64.147
538.69	63.915
539.03	64.388
539.37	64.536
539.71	64.690
540.05	65.580
540.39	65.651
540.73	67.294
541.07	66.091
541.42	64.583
541.76	64.831
542.10	65.726
542.44	64.211
542.78	64.143
543.12	65.041
543.46	64.534
543.80	64.330
544.14	63.017
544.48	64.957
544.82	65.208
545.16	65.642
545.50	64.820
545.84	65.935
546.18	65.390
546.52	66.691
546.86	64.989
547.20	66.023
547.54	64.452
547.88	65.353
548.22	62.985
548.56	63.522
548.90	64.892
549.24	63.292
549.58	65.515
549.92	65.761
550.26	64.835
550.60	66.394
550.94	66.318
551.28	67.465
551.62	68.077
551.96	66.241
552.30	64.839
552.64	63.117
552.98	64.205
553.32	64.051
553.66	65.747
554.00	64.818
554.34	67.282
554.68	65.265
555.02	67.708
555.36	65.520
555.69	65.201
556.03	64.597
556.37	64.128
556.71	66.065
557.05	66.816
557.39	64.907
557.73	65.667
558.07	66.063
558.41	66.692
558.75	66.875
559.08	65.879
559.42	67.619
559.76	68.135
560.10	65.826
560.44	65.153
560.78	64.406
561.12	65.726
561.45	63.949
561.79	65.546
562.13	64.372
562.47	64.748
562.81	65.346
563.15	63.470
563.48	65.347
563.82	66.369
564.16	64.415
564.50	63.649
564.84	63.521
565.17	63.783
565.51	65.710
565.85	63.855
566.19	63.727
566.52	63.137
566.86	62.404
567.20	61.955
567.54	63.078
567.88	61.980
568.21	62.443
568.55	60.217
568.89	60.472
569.23	59.461
569.56	58.625
569.90	57.816
570.24	54.968
570.57	56.436
570.91	56.570
571.25	53.667
571.59	53.753
571.92	53.630
572.26	53.533
572.60	53.953
572.93	53.122
573.27	53.135
573.61	53.938
573.95	52.594
574.28	52.145
574.62	51.106
574.96	50.885
575.29	50.934
575.63	50.661
575.97	51.559
576.30	51.476
576.64	50.808
576.98	52.072
577.31	51.241
577.65	50.849
577.98	50.740
578.32	50.198
578.66	49.774
578.99	50.187
579.33	50.837
579.67	49.533
580.00	50.506
580.34	50.896
580.67	50.569
581.01	51.081
581.35	50.280
581.68	49.577
582.02	48.780
582.35	49.656
582.69	49.260
583.02	49.327
583.36	50.532
583.70	51.480
584.03	51.849
584.37	52.005
584.70	51.648
585.04	49.482
585.37	50.000
585.71	49.988
586.04	50.303
586.38	50.200
586.72	51.105
587.05	51.646
587.39	50.657
587.72	51.832
588.06	51.066
588.39	51.438
588.73	52.350
589.06	53.164
589.40	52.748
589.73	53.487
590.07	53.210
590.40	53.986
590.73	55.189
591.07	53.774
591.40	54.720
591.74	54.253
592.07	55.288
592.41	54.064
592.74	53.126
593.08	51.275
593.41	51.466
593.75	51.096
594.08	51.253
594.41	52.001
594.75	52.710
595.08	52.516
595.42	51.711
595.75	51.971
596.09	52.737
596.42	52.997
596.75	52.975
597.09	54.670
597.42	53.162
597.75	54.421
598.09	52.920
598.42	53.475
598.76	52.081
599.09	51.242
599.42	49.375
599.76	51.392
600.09	50.038
600.42	50.076
600.76	50.780
601.09	51.145
601.42	50.607
601.76	51.846
602.09	50.990
602.42	52.991
602.76	51.868
603.09	52.326
603.42	52.383
603.76	51.048
604.09	51.600
604.42	52.665
604.76	52.114
605.09	52.925
605.42	52.009
605.75	51.095
606.09	51.932
606.42	51.626
606.75	51.775
607.09	51.692
607.42	52.060
607.75	51.510
608.08	50.898
608.42	51.348
608.75	52.916
609.08	52.317
609.41	53.401
609.75	52.419
610.08	51.972
610.41	52.319
610.74	51.682
611.07	53.540
611.41	53.191
611.74	53.838
612.07	51.017
612.40	53.993
612.73	54.520
613.07	53.937
613.40	53.501
613.73	52.770
614.06	53.589
614.39	52.961
614.72	52.885
615.06	53.128
615.39	52.020
615.72	52.314
616.05	52.961
616.38	51.510
616.71	53.700
617.05	54.540
617.38	54.620
617.71	53.899
618.04	53.714
618.37	55.296
618.70	54.917
619.03	57.014
619.36	56.295
619.69	58.150
620.03	56.903
620.36	56.295
620.69	55.675
621.02	56.116
621.35	59.253
621.68	59.439
622.01	57.667
622.34	57.143
622.67	57.098
623.00	56.968
623.33	57.317
623.66	55.348
623.99	55.976
624.32	55.285
624.65	54.511
624.99	55.606
625.32	55.193
625.65	57.581
625.98	58.098
626.31	56.110
626.64	59.272
626.97	57.592
627.30	59.457
627.63	59.099
627.96	58.401
628.29	57.909
628.62	58.800
628.95	61.122
629.28	59.879
629.61	61.017
629.94	60.704
630.26	59.783
630.59	61.186
630.92	61.436
631.25	58.769
631.58	64.317
631.91	63.377
632.24	62.041
632.57	63.523
632.90	64.413
633.23	62.118
633.56	65.113
633.89	64.242
634.22	64.568
634.55	64.295
634.88	65.006
635.20	62.821
635.53	65.333
635.86	64.369
636.19	64.554
636.52	62.500
636.85	63.027
637.18	59.245
637.51	61.887
637.83	62.155
638.16	63.438
638.49	63.351
638.82	64.868
639.15	65.129
639.48	64.512
639.81	66.248
640.13	67.677
640.46	65.160
640.79	64.507
641.12	64.254
641.45	66.817
641.77	66.222
642.10	68.088
642.43	66.720
642.76	68.152
643.09	69.144
643.41	64.725
643.74	66.557
644.07	64.860
644.40	66.216
644.73	69.877
645.05	67.450
645.38	68.607
645.71	65.957
646.04	70.736
646.36	69.858
646.69	69.065
647.02	67.675
647.35	69.963
647.67	69.104
648.00	68.657
648.33	65.700
648.66	64.746
648.98	62.312
649.31	64.132
649.64	61.068
649.96	63.209
650.29	66.269
650.62	63.590
650.94	65.185
651.27	64.804
651.60	64.865
651.92	62.587
652.25	66.430
652.58	66.333
652.90	64.666
653.23	62.185
653.56	64.467
653.88	63.574
654.21	61.996
654.54	60.441
654.86	62.818
655.19	57.310
655.52	50.929
655.84	39.661
656.17	42.774
656.49	58.117
656.82	60.162
657.15	46.281
657.47	35.218
657.80	26.355
658.13	26.405
658.45	41.198
658.78	42.127
659.10	42.396
659.43	43.255
659.75	46.226
660.08	47.172
660.41	52.503
660.73	56.215
661.06	64.125
661.38	63.405
661.71	63.655
662.03	65.021
662.36	67.473
662.68	67.257
663.01	67.904
663.33	66.125
663.66	67.442
663.98	64.186
664.31	65.672
664.63	64.516
664.96	63.913
665.28	64.018
665.61	66.017
665.93	64.783
666.26	65.727
666.58	65.548
666.91	66.824
667.23	68.632
667.56	68.720
667.88	66.906
668.21	67.064
668.53	66.667
668.86	63.679
669.18	64.151
669.50	64.407
669.83	65.116
670.15	64.103
670.48	64.115
670.80	64.516
671.13	61.745
671.45	63.242
671.77	61.803
672.10	59.802
672.42	58.989
672.75	58.970
673.07	60.286
673.39	59.083
673.72	57.988
674.04	60.833
674.37	62.076
674.69	63.597
675.01	62.889
675.34	61.261
675.66	65.509
675.98	64.080
676.31	62.156
676.63	66.746
676.95	59.091
677.28	66.353
677.60	66.747
677.92	61.239
678.25	61.050
678.57	61.255
678.89	61.345
679.22	62.864
679.54	55.221
679.86	54.473
680.18	56.699
680.51	58.144
680.83	58.052
681.15	58.600
681.48	61.885
681.80	57.438
682.12	56.452
682.44	58.996
682.77	58.720
683.09	60.641
683.41	57.273
683.73	61.060
684.06	59.292
684.38	57.204
684.70	58.606
685.02	58.921
685.34	52.767
685.67	53.283
685.99	53.707
686.31	52.743
686.63	54.360
686.96	51.331
687.28	54.949
687.60	50.570
687.92	58.990
688.24	54.032
688.56	56.987
688.89	58.482
689.21	56.667
689.53	57.077
689.85	59.070
690.17	55.134
690.49	59.338
690.82	59.951
691.14	55.952
691.46	57.009
691.78	54.955
692.10	55.484
692.42	53.680
692.74	52.350
693.06	54.730
693.39	51.584
693.71	51.810
694.03	52.194
694.35	56.075
694.67	57.323
694.99	55.352
695.31	56.658
695.63	57.750
695.95	52.525
696.27	55.181
696.59	63.056
696.91	55.742
697.23	53.985
697.56	54.703
697.88	51.398
698.20	53.531
698.52	53.647
698.84	51.675
699.16	54.750
699.48	54.887
699.80	52.854
700.12	54.447
700.44	58.543
700.76	54.070
701.08	60.909
701.40	57.229
701.72	61.420
702.04	61.716
702.36	61.873
702.68	57.658
703.00	54.545
703.32	55.132
703.64	53.390
703.96	55.072
704.28	54.908
704.60	57.460
704.91	57.729
705.23	55.150
705.55	65.371
705.87	62.816
706.19	61.852
706.51	57.388
706.83	57.235
707.15	50.779
707.47	54.062
707.79	49.479
708.11	49.250
708.43	49.750
708.74	49.354
709.06	54.930
709.38	51.682
709.70	53.254
710.02	55.732
710.34	53.560
710.66	50.641
710.98	53.642
711.29	55.410
711.61	60.678
711.93	55.049
712.25	56.014
712.57	61.538
712.89	59.328
713.20	56.747
713.52	57.491
713.84	54.949
714.16	54.639
714.48	51.290
714.80	51.923
715.11	51.672
715.43	49.216
715.75	53.000
716.07	53.156
716.39	50.000
716.70	53.137
717.02	53.435
717.34	57.085
717.66	59.292
717.97	60.000
718.29	56.485
718.61	59.055
718.93	50.000
719.24	58.935
719.56	54.217
719.88	53.608
720.20	54.924
720.51	50.192
720.83	50.965
721.15	57.143
721.46	54.032
721.78	48.617
722.10	52.416
722.42	52.282
722.73	55.510
723.05	52.653
723.37	55.085
723.68	60.811
724.00	47.436
724.32	52.000
724.63	54.091
724.95	52.838
725.27	52.995
725.58	51.271
725.90	46.825
726.22	49.035
726.53	49.153
726.85	49.438
727.16	52.075
727.48	55.061
727.80	52.632
728.11	43.644
728.43	47.059
728.74	48.387
729.06	50.400
729.38	52.256
729.69	45.817
730.01	45.385
730.32	49.254
730.64	53.004
730.96	48.679
731.27	47.667
731.59	43.051
731.90	45.541
732.22	46.372
732.53	49.502
732.85	47.518
733.16	48.148
733.48	39.209
733.80	47.826
734.11	46.441
734.43	52.577
734.74	46.667
735.06	40.065
735.37	42.296
735.69	47.138
736.00	43.206
736.32	46.644
736.63	40.493
736.95	45.392
737.26	44.128
737.58	41.946
737.89	40.293
738.21	50.376
738.52	47.737
738.83	49.345
739.15	44.978
739.46	50.394
739.78	42.125
740.09	44.118
740.41	44.565
740.72	43.307
741.04	50.607
741.35	44.681
741.66	44.076
741.98	53.061
742.29	49.010
742.61	45.550
742.92	43.128
743.23	43.981
743.55	50.226
743.86	46.411
744.18	46.411
744.49	48.936
744.80	53.261
745.12	55.615
745.43	44.390
745.74	54.167
746.06	48.293
746.37	49.215
746.68	48.341
747.00	53.191
747.31	54.229
747.62	52.427
747.94	45.455
748.25	45.545
748.56	50.820
748.88	46.073
749.19	52.128
749.50	47.291
749.82	43.396
750.13	50.917
750.44	48.872
750.75	48.507
751.07	50.000
751.38	44.444
751.69	39.216
752.01	45.349
752.32	46.215
752.63	43.874
752.94	46.121
753.26	50.628
753.57	43.439
753.88	47.345
754.19	42.083
754.51	40.083
754.82	46.559
755.13	45.833
755.44	47.581
755.75	45.312
756.07	45.136
756.38	37.736
756.69	44.061
757.00	38.333
757.31	41.503
757.63	41.159
757.94	36.667
758.25	35.890
758.56	35.106
758.87	36.261
759.18	37.383
759.50	40.727
759.81	41.137
760.12	38.387
760.43	40.000
760.74	42.593
761.05	36.923
761.36	36.648
761.67	40.606
761.99	40.476
762.30	41.455
762.61	41.502
762.92	45.249
763.23	41.441
763.54	41.589
763.85	41.525
764.16	39.004
764.47	41.129
764.78	34.432
765.10	43.434
765.41	34.385
765.72	39.048
766.03	34.962
766.34	40.146
766.65	44.223
766.96	44.949
767.27	46.277
767.58	43.103
767.89	37.589
768.20	44.318
768.51	40.110
768.82	41.872
769.13	36.866
769.44	36.481
769.75	38.813
770.06	37.500
770.37	38.462
770.68	37.056
770.99	43.891
771.30	43.137
771.61	38.009
771.92	42.672
772.23	40.394
772.54	45.699
772.85	43.210
773.16	37.079
773.47	43.791
773.78	47.059
774.09	35.329
774.39	47.333
774.70	42.038
775.01	48.966
775.32	45.000
775.63	42.975
775.94	35.878
776.25	37.008
776.56	40.000
776.87	44.231
777.18	46.154
777.48	44.828
777.79	42.609
778.10	37.143
778.41	42.342
778.72	45.238
779.03	42.105
779.34	37.589
779.65	43.151
779.95	36.986
780.26	44.138
780.57	38.211
780.88	53.543
781.19	46.552
781.50	48.837
781.80	37.278
782.11	31.447
782.42	44.615
782.73	37.410
783.04	41.481
783.34	37.500
783.65	31.624
783.96	41.803
784.27	37.931
784.57	34.959
784.88	51.562
785.19	49.000
785.50	40.000
785.81	36.207
786.11	38.793
786.42	36.893
786.73	34.545
787.04	39.796
787.34	36.607
787.65	42.857
787.96	32.743
788.26	47.273
788.57	39.316
788.88	42.969
789.19	39.683
789.49	40.000
789.80	43.878
790.11	41.414
790.41	28.182
790.72	36.957
791.03	36.364
791.33	51.250
791.64	50.000
791.95	40.698
792.25	31.915
792.56	48.315
792.87	36.986
793.17	39.130
793.48	24.000
793.79	45.000
794.09	63.750
794.40	40.566
794.70	32.039
795.01	28.455
795.32	31.624
795.62	26.667
795.93	32.353
796.23	33.019
796.54	32.292
796.85	50.000
797.15	46.479
797.46	26.389
797.76	54.545
798.07	29.070
798.37	25.000
798.68	31.818
798.99	37.037
799.29	45.714
799.60	43.478
799.90	34.667
800.21	62.295
800.51	35.385
800.82	49.153
801.12	28.986
801.43	27.869
801.73	41.270
802.04	54.000
802.34	37.313
802.65	57.692
802.95	28.571
803.26	40.385
803.56	60.784
803.87	19.565
804.17	36.000
804.48	55.556
804.78	42.593
805.09	41.304
805.39	55.556
805.70	55.556
806.00	22.807
806.30	32.394
806.61	30.000
806.91	27.778
807.22	56.579
807.52	44.000
807.83	29.091
808.13	29.167
808.43	38.235
808.74	31.343
809.04	20.339
809.35	32.692
809.65	34.375
809.95	13.514
810.26	29.545
810.56	26.027
810.86	26.190
811.17	24.000
811.47	28.571
811.77	50.000
812.08	34.091
812.38	37.736
812.69	0.000
812.99	42.424
813.29	52.632
813.59	17.143
813.90	45.455
814.20	17.949
814.50	9.615
814.81	26.415
815.11	19.149
815.41	33.898
815.72	35.714
816.02	39.216
816.32	20.833
816.62	34.146
816.93	8.108
817.23	20.000
817.53	41.667
817.84	4.348
818.14	13.462
818.44	13.158
818.74	50.000
819.04	-15.000
819.35	32.432
819.65	17.647
819.95	38.889
820.25	19.048
820.56	55.000
820.86	-3.448
821.16	72.500
821.46	29.787
821.76	47.500
822.07	32.558
822.37	21.622
822.67	18.750
822.97	40.476
823.27	17.857
823.57	28.000
823.88	11.111
824.18	42.857
824.48	20.588
824.78	12.903
825.08	39.130
825.38	39.394
825.69	0.000
825.99	39.474
826.29	5.556
826.59	33.333
826.89	23.810
827.19	19.565
827.49	47.500
827.79	40.000
828.09	39.286
828.39	60.606
828.70	48.649
829.00	14.286
829.30	66.667
829.60	20.000
829.90	37.500
830.20	21.053
830.50	18.519
830.80	4.348
831.10	13.636
831.40	54.545
831.70	45.161
832.00	47.619
832.30	0.000
832.60	41.667
832.90	44.828
833.20	20.000
833.50	66.667
833.80	7.407
834.10	57.692
834.40	21.875
834.70	-66.667
835.00	10.526
835.30	57.692
835.60	120.000
835.90	58.065
836.20	72.727
836.50	67.857
836.80	19.231
837.10	35.714
837.40	-233.333
837.70	36.364
838.00	-81.818
838.30	21.739
838.60	46.154
838.90	36.364
839.19	7.143
839.49	46.667
839.79	-7.692
840.09	-8.333
840.39	46.429
840.69	0.000
840.99	-7.692
841.29	15.789
841.59	-90.000
841.88	-18.182
842.18	90.000
842.48	75.000
842.78	13.333
843.08	-7.407
843.38	-60.000
843.68	17.391
843.97	60.000
844.27	-66.667
844.57	-30.000
844.87	11.111
845.17	-4.762
845.47	13.333
845.76	9.524
846.06	-17.647
846.36	30.000
846.66	28.571
846.96	40.000
847.25	-212.500
847.55	35.714
847.85	-12.500
848.15	13.636
848.44	-333.333
848.74	15.000
849.04	37.037
849.34	-45.455
849.63	16.667
849.93	-120.000
850.23	16.667
850.53	70.000
850.82	46.154
851.12	-22.222
851.42	-6.667
851.71	11.538
852.01	42.857
852.31	-100.000
852.61	-45.455
852.90	45.000
853.20	-21.053
853.50	-25.000
853.79	8.696
854.09	66.667
854.39	52.632
854.68	12.500
854.98	61.290
855.28	26.923
855.57	-25.000
855.87	38.889
856.17	-11.111
856.46	57.143
856.76	6.667
857.05	100.000
857.35	32.000
857.65	5.556
857.94	-7.692
858.24	10.345
858.53	38.889
858.83	40.741
859.13	18.182
859.42	0.000
859.72	25.000
860.01	-400.000
860.31	16.000
860.60	9.524
860.90	33.333
861.20	6.667
861.49	-550.000
861.79	-20.000
862.08	40.000
862.38	100.000
862.67	20.000
862.97	-50.000
863.26	66.667
863.56	44.444
863.85	-333.333
864.15	27.778
864.44	30.000
864.74	35.714
865.03	200.000
865.33	120.000
865.62	66.667
865.92	-16.667
866.21	-166.667
866.51	37.500
866.80	-27.273
867.10	-300.000
867.39	33.333
867.69	0.000
867.98	38.462
868.27	-66.667
868.57	-26.667
868.86	-16.667
869.16	-69.231
869.45	26.667
869.75	-100.000
870.04	0.000
870.33	42.857
870.63	61.905
870.92	400.000
871.22	-280.000
871.51	-1900.000
871.80	55.556
872.10	266.667
>>>>>End Processed Spectral Data<<<<<
