SpectraSuite Data File
++++++++++++++++++++++++++++++++++++
Date: Fri May 15 20:51:24 PDT 2015
User: schluterlab
Dark Spectrum Present: Yes
Reference Spectrum Present: Yes
Number of Sampled Component Spectra: 1
Spectrometers: USB2E3373
Integration Time (usec): 3000 (USB2E3373)
Spectra Averaged: 3 (USB2E3373)
Boxcar Smoothing: 0 (USB2E3373)
Correct for Electrical Dark: No (USB2E3373)
Strobe/Lamp Enabled: No (USB2E3373)
Correct for Detector Non-linearity: No (USB2E3373)
Correct for Stray Light: No (USB2E3373)
Number of Pixels in Processed Spectrum: 2048
>>>>>Begin Processed Spectral Data<<<<<
178.53	0.000
178.91	0.000
179.29	-37.500
179.67	-1150.000
180.04	85.714
180.42	75.000
180.80	-300.000
181.18	333.333
181.56	750.000
181.94	-300.000
182.31	400.000
182.69	-180.000
183.07	-300.000
183.45	-60.000
183.83	200.000
184.20	-54.545
184.58	88.889
184.96	25.000
185.34	300.000
185.72	-200.000
186.09	53.846
186.47	0.000
186.85	166.667
187.23	100.000
187.61	400.000
187.98	-300.000
188.36	88.889
188.74	-366.667
189.12	35.294
189.49	0.000
189.87	0.000
190.25	0.000
190.63	450.000
191.00	-100.000
191.38	0.000
191.76	250.000
192.14	-50.000
192.51	300.000
192.89	-66.667
193.27	-57.143
193.65	216.667
194.02	100.000
194.40	50.000
194.78	-112.500
195.15	-25.000
195.53	-62.500
195.91	150.000
196.29	-125.000
196.66	76.923
197.04	185.714
197.42	-22.222
197.79	-166.667
198.17	-146.154
198.55	1800.000
198.92	-366.667
199.30	-600.000
199.68	-80.000
200.05	33.333
200.43	0.000
200.81	-33.333
201.18	-200.000
201.56	1200.000
201.94	-400.000
202.31	-166.667
202.69	-360.000
203.07	275.000
203.44	500.000
203.82	0.000
204.19	-14.286
204.57	-566.667
204.95	175.000
205.32	10.000
205.70	14.286
206.08	0.000
206.45	66.667
206.83	7.143
207.20	-171.429
207.58	700.000
207.96	-133.333
208.33	-60.000
208.71	-225.000
209.08	-150.000
209.46	-800.000
209.84	-120.000
210.21	-1500.000
210.59	-28.571
210.96	-100.000
211.34	-25.000
211.71	40.000
212.09	-171.429
212.46	-2500.000
212.84	0.000
213.22	50.000
213.59	650.000
213.97	-15.385
214.34	-136.364
214.72	-33.333
215.09	475.000
215.47	46.154
215.84	-27.273
216.22	-166.667
216.59	-12.500
216.97	250.000
217.34	-175.000
217.72	-280.000
218.09	-12.500
218.47	112.500
218.84	-1500.000
219.22	-133.333
219.59	-180.000
219.97	466.667
220.34	300.000
220.72	-100.000
221.09	50.000
221.47	-250.000
221.84	-50.000
222.22	-650.000
222.59	0.000
222.97	0.000
223.34	-200.000
223.72	-42.857
224.09	9.524
224.46	10.714
224.84	400.000
225.21	-110.000
225.59	26.667
225.96	-300.000
226.34	25.000
226.71	-100.000
227.08	66.667
227.46	0.000
227.83	-950.000
228.21	22.222
228.58	-36.364
228.95	-62.500
229.33	120.000
229.70	6.250
230.08	-100.000
230.45	-171.429
230.82	-42.857
231.20	46.667
231.57	21.429
231.95	-157.143
232.32	-50.000
232.69	-35.714
233.07	66.667
233.44	-260.000
233.81	-110.000
234.19	-177.778
234.56	-5.882
234.93	350.000
235.31	100.000
235.68	-320.000
236.05	-38.462
236.43	15.000
236.80	29.412
237.17	31.250
237.55	10.000
237.92	3.704
238.29	30.556
238.67	-6.667
239.04	-5.882
239.41	-17.073
239.79	-23.333
240.16	34.146
240.53	36.842
240.91	-13.043
241.28	-1.587
241.65	-3.571
242.02	6.849
242.40	15.000
242.77	-8.475
243.14	12.121
243.51	1.250
243.89	26.437
244.26	2.299
244.63	7.143
245.00	3.093
245.38	14.433
245.75	13.483
246.12	6.897
246.49	18.182
246.87	11.538
247.24	-0.840
247.61	1.754
247.98	13.008
248.36	13.125
248.73	17.105
249.10	9.091
249.47	13.924
249.84	16.993
250.22	8.824
250.59	13.725
250.96	15.962
251.33	12.791
251.70	19.412
252.08	17.766
252.45	12.871
252.82	16.080
253.19	18.433
253.56	9.813
253.94	20.270
254.31	16.522
254.68	16.228
255.05	16.535
255.42	10.917
255.79	15.444
256.16	15.564
256.54	14.925
256.91	14.829
257.28	13.755
257.65	15.730
258.02	13.121
258.39	18.182
258.76	17.582
259.14	18.937
259.51	17.152
259.88	16.151
260.25	16.993
260.62	16.667
260.99	17.627
261.36	12.329
261.73	12.658
262.10	15.502
262.47	16.564
262.85	16.928
263.22	14.769
263.59	16.199
263.96	19.255
264.33	16.667
264.70	15.476
265.07	13.988
265.44	23.229
265.81	14.972
266.18	13.934
266.55	17.224
266.92	17.358
267.29	13.838
267.66	17.136
268.03	15.707
268.40	18.016
268.77	19.519
269.14	16.547
269.51	14.396
269.88	17.955
270.25	13.776
270.62	13.171
270.99	17.903
271.36	14.425
271.73	16.667
272.10	15.815
272.47	14.184
272.84	17.079
273.21	16.705
273.58	18.313
273.95	14.874
274.32	14.319
274.69	14.480
275.06	18.080
275.43	14.966
275.80	14.790
276.17	17.241
276.54	16.060
276.91	16.667
277.28	17.031
277.65	17.149
278.02	14.043
278.39	15.974
278.76	15.304
279.13	13.071
279.50	17.017
279.87	15.119
280.23	13.118
280.60	17.349
280.97	16.566
281.34	15.000
281.71	18.480
282.08	14.519
282.45	15.068
282.82	14.865
283.19	16.248
283.56	15.414
283.92	15.370
284.29	14.231
284.66	13.372
285.03	14.538
285.40	15.879
285.77	14.060
286.14	16.245
286.51	16.421
286.87	13.163
287.24	14.917
287.61	13.757
287.98	17.018
288.35	15.078
288.72	15.236
289.08	14.410
289.45	13.005
289.82	14.860
290.19	12.116
290.56	12.178
290.93	12.121
291.29	13.097
291.66	14.488
292.03	10.526
292.40	13.548
292.77	12.759
293.13	11.526
293.50	11.077
293.87	12.824
294.24	11.437
294.60	12.519
294.97	14.137
295.34	14.264
295.71	11.177
296.08	11.809
296.44	10.100
296.81	11.111
297.18	11.304
297.55	14.092
297.91	11.644
298.28	11.478
298.65	11.262
299.02	10.782
299.38	8.892
299.75	11.586
300.12	10.471
300.48	10.145
300.85	11.407
301.22	11.558
301.59	11.711
301.95	10.886
302.32	11.154
302.69	11.940
303.05	10.767
303.42	11.333
303.79	11.916
304.15	12.067
304.52	10.107
304.89	9.240
305.25	10.775
305.62	9.568
305.99	10.058
306.35	9.827
306.72	10.461
307.09	10.262
307.45	10.448
307.82	10.301
308.19	11.034
308.55	11.232
308.92	11.983
309.29	10.168
309.65	9.365
310.02	9.901
310.38	10.867
310.75	11.038
311.12	10.334
311.48	9.120
311.85	9.319
312.22	10.232
312.58	10.828
312.95	9.392
313.31	10.870
313.68	10.157
314.05	10.816
314.41	10.722
314.78	11.340
315.14	11.614
315.51	10.766
315.87	11.578
316.24	11.527
316.61	11.220
316.97	11.012
317.34	11.230
317.70	11.090
318.07	10.481
318.43	12.255
318.80	10.511
319.16	12.305
319.53	12.156
319.89	11.811
320.26	11.842
320.62	12.738
320.99	12.735
321.35	11.614
321.72	13.707
322.08	12.991
322.45	13.706
322.81	14.244
323.18	14.328
323.54	13.320
323.91	14.411
324.27	15.723
324.64	15.169
325.00	16.058
325.37	16.896
325.73	15.503
326.10	16.167
326.46	17.668
326.83	17.323
327.19	17.873
327.56	18.766
327.92	19.454
328.29	19.107
328.65	18.868
329.01	19.118
329.38	19.631
329.74	19.830
330.11	20.667
330.47	20.594
330.84	19.712
331.20	22.433
331.56	20.556
331.93	21.644
332.29	22.548
332.66	21.719
333.02	21.468
333.38	21.632
333.75	22.436
334.11	22.919
334.48	22.212
334.84	22.985
335.20	22.964
335.57	21.124
335.93	24.752
336.29	24.125
336.66	22.162
337.02	23.048
337.38	22.407
337.75	24.091
338.11	23.986
338.47	23.723
338.84	24.307
339.20	22.852
339.56	24.495
339.93	23.456
340.29	24.037
340.65	23.746
341.02	23.759
341.38	23.186
341.74	23.498
342.11	23.744
342.47	24.377
342.83	24.740
343.20	26.132
343.56	25.391
343.92	24.889
344.28	24.338
344.65	23.230
345.01	23.509
345.37	23.886
345.73	25.439
346.10	24.935
346.46	24.811
346.82	24.959
347.19	23.857
347.55	23.726
347.91	24.110
348.27	24.252
348.63	25.298
349.00	24.364
349.36	23.358
349.72	24.959
350.08	23.770
350.45	24.741
350.81	24.585
351.17	23.534
351.53	24.653
351.89	24.030
352.26	24.480
352.62	25.081
352.98	24.980
353.34	25.604
353.70	25.081
354.07	22.984
354.43	23.219
354.79	24.195
355.15	24.841
355.51	25.633
355.87	24.434
356.24	24.062
356.60	23.282
356.96	24.762
357.32	24.281
357.68	24.785
358.04	23.990
358.40	24.035
358.77	25.279
359.13	24.019
359.49	25.347
359.85	24.415
360.21	24.880
360.57	24.484
360.93	25.189
361.29	24.471
361.66	24.922
362.02	25.227
362.38	25.514
362.74	23.618
363.10	25.809
363.46	25.426
363.82	26.296
364.18	25.018
364.54	25.074
364.90	24.803
365.26	24.527
365.62	25.912
365.98	25.513
366.35	25.492
366.71	25.499
367.07	26.125
367.43	25.737
367.79	26.148
368.15	25.844
368.51	25.419
368.87	25.269
369.23	25.343
369.59	24.636
369.95	24.780
370.31	25.650
370.67	25.448
371.03	25.467
371.39	25.675
371.75	26.227
372.11	25.178
372.47	25.592
372.83	25.337
373.19	26.177
373.55	25.632
373.91	25.702
374.27	26.790
374.63	25.987
374.99	24.965
375.35	26.184
375.71	27.762
376.07	26.966
376.42	26.054
376.78	26.107
377.14	27.691
377.50	26.228
377.86	26.640
378.22	25.463
378.58	26.154
378.94	26.654
379.30	26.076
379.66	27.273
380.02	27.039
380.38	27.085
380.74	25.853
381.09	28.037
381.45	26.972
381.81	26.589
382.17	27.411
382.53	27.233
382.89	27.872
383.25	28.127
383.61	27.012
383.97	27.238
384.32	27.142
384.68	27.183
385.04	27.574
385.40	27.567
385.76	27.673
386.12	28.913
386.48	28.480
386.83	29.296
387.19	28.205
387.55	28.356
387.91	28.545
388.27	27.473
388.62	28.571
388.98	29.098
389.34	29.419
389.70	29.397
390.06	28.886
390.42	28.756
390.77	28.842
391.13	28.499
391.49	29.690
391.85	28.785
392.20	28.751
392.56	29.816
392.92	29.360
393.28	29.658
393.64	28.649
393.99	30.282
394.35	29.412
394.71	29.949
395.07	29.038
395.42	29.751
395.78	30.423
396.14	30.643
396.50	29.867
396.85	30.071
397.21	30.639
397.57	29.154
397.92	30.258
398.28	30.000
398.64	29.578
399.00	30.305
399.35	29.684
399.71	30.040
400.07	30.774
400.42	30.477
400.78	31.047
401.14	30.611
401.49	31.269
401.85	29.921
402.21	30.663
402.57	31.688
402.92	30.176
403.28	31.892
403.63	31.589
403.99	31.569
404.35	31.293
404.70	31.429
405.06	31.727
405.42	31.572
405.77	31.203
406.13	32.538
406.49	31.439
406.84	31.601
407.20	31.969
407.55	31.745
407.91	32.420
408.27	32.186
408.62	32.308
408.98	32.532
409.34	32.962
409.69	32.106
410.05	31.650
410.40	33.210
410.76	33.172
411.11	33.312
411.47	32.873
411.83	32.203
412.18	33.205
412.54	32.272
412.89	33.128
413.25	33.153
413.60	33.354
413.96	33.313
414.31	33.537
414.67	32.970
415.03	32.557
415.38	32.702
415.74	33.485
416.09	34.618
416.45	33.828
416.80	33.576
417.16	34.945
417.51	34.310
417.87	33.442
418.22	33.938
418.58	34.114
418.93	35.172
419.29	33.483
419.64	35.126
420.00	35.390
420.35	35.403
420.71	34.751
421.06	35.298
421.42	35.036
421.77	35.780
422.12	35.074
422.48	35.625
422.83	34.861
423.19	36.738
423.54	34.921
423.90	35.689
424.25	36.165
424.61	35.985
424.96	36.818
425.31	37.782
425.67	37.148
426.02	37.044
426.38	37.884
426.73	37.712
427.09	37.152
427.44	37.529
427.79	37.596
428.15	37.257
428.50	38.159
428.85	36.241
429.21	37.861
429.56	38.275
429.92	36.980
430.27	37.644
430.62	38.212
430.98	37.739
431.33	37.539
431.68	38.095
432.04	38.625
432.39	37.536
432.74	39.026
433.10	39.023
433.45	38.889
433.80	39.002
434.16	38.781
434.51	38.656
434.86	39.431
435.22	39.484
435.57	39.239
435.92	39.880
436.28	38.998
436.63	39.532
436.98	39.803
437.34	40.109
437.69	40.489
438.04	40.114
438.39	39.401
438.75	41.044
439.10	40.125
439.45	41.388
439.81	40.245
440.16	40.736
440.51	41.194
440.86	42.961
441.22	40.837
441.57	41.501
441.92	41.763
442.27	42.184
442.63	42.024
442.98	42.389
443.33	40.401
443.68	42.069
444.03	42.275
444.39	42.843
444.74	43.478
445.09	42.929
445.44	41.823
445.79	43.424
446.15	42.511
446.50	41.764
446.85	42.880
447.20	41.554
447.55	43.471
447.91	42.188
448.26	43.597
448.61	43.638
448.96	43.775
449.31	42.948
449.66	43.206
450.02	43.240
450.37	44.398
450.72	43.299
451.07	44.557
451.42	43.945
451.77	44.002
452.12	43.002
452.47	44.173
452.83	44.287
453.18	44.592
453.53	44.374
453.88	45.294
454.23	44.253
454.58	45.655
454.93	44.974
455.28	43.556
455.63	44.451
455.98	45.039
456.34	44.317
456.69	45.680
457.04	44.486
457.39	44.411
457.74	45.647
458.09	43.496
458.44	45.231
458.79	43.978
459.14	44.851
459.49	45.612
459.84	44.726
460.19	44.660
460.54	46.210
460.89	44.943
461.24	45.466
461.59	45.724
461.94	44.969
462.29	45.657
462.64	45.648
462.99	46.378
463.34	45.549
463.69	44.788
464.04	46.005
464.39	46.028
464.74	45.460
465.09	45.602
465.44	45.759
465.79	44.218
466.14	46.180
466.49	45.371
466.84	45.866
467.19	47.059
467.54	45.019
467.89	46.557
468.24	46.046
468.59	47.175
468.94	45.460
469.29	46.164
469.64	46.206
469.99	48.353
470.34	45.256
470.68	48.993
471.03	48.125
471.38	47.504
471.73	47.339
472.08	47.422
472.43	48.389
472.78	46.539
473.13	47.687
473.48	46.515
473.83	45.828
474.17	48.381
474.52	47.862
474.87	47.333
475.22	47.224
475.57	47.261
475.92	47.888
476.27	47.672
476.61	47.627
476.96	46.514
477.31	47.269
477.66	46.854
478.01	48.063
478.36	46.950
478.70	48.396
479.05	48.242
479.40	46.953
479.75	47.237
480.10	47.465
480.45	47.500
480.79	47.784
481.14	48.463
481.49	47.143
481.84	47.780
482.19	46.726
482.53	47.338
482.88	47.780
483.23	47.601
483.58	47.311
483.92	46.370
484.27	46.354
484.62	47.647
484.97	47.595
485.31	45.845
485.66	44.600
486.01	44.471
486.36	43.983
486.70	45.748
487.05	45.767
487.40	45.993
487.75	46.930
488.09	46.415
488.44	47.249
488.79	47.777
489.13	48.598
489.48	48.653
489.83	48.879
490.17	48.090
490.52	48.360
490.87	47.802
491.22	49.284
491.56	48.956
491.91	49.187
492.26	50.024
492.60	48.800
492.95	49.188
493.30	48.901
493.64	50.098
493.99	48.647
494.34	48.689
494.68	49.000
495.03	48.808
495.37	49.460
495.72	49.470
496.07	49.366
496.41	49.009
496.76	49.148
497.11	47.834
497.45	49.642
497.80	49.546
498.14	49.478
498.49	49.365
498.84	49.900
499.18	50.552
499.53	51.042
499.87	48.541
500.22	49.110
500.56	50.025
500.91	49.950
501.26	48.789
501.60	49.188
501.95	49.296
502.29	48.620
502.64	50.676
502.98	50.173
503.33	49.760
503.67	48.964
504.02	49.658
504.36	50.816
504.71	50.303
505.06	50.277
505.40	50.203
505.75	50.773
506.09	49.062
506.44	50.873
506.78	49.847
507.13	51.138
507.47	48.512
507.82	50.748
508.16	49.868
508.51	50.420
508.85	51.805
509.19	49.707
509.54	50.617
509.88	49.838
510.23	51.264
510.57	50.668
510.92	48.827
511.26	51.446
511.61	51.980
511.95	50.685
512.30	51.829
512.64	51.920
512.98	50.983
513.33	50.532
513.67	51.904
514.02	52.174
514.36	52.800
514.70	53.380
515.05	52.703
515.39	52.538
515.74	53.174
516.08	53.437
516.42	52.945
516.77	53.482
517.11	52.166
517.46	53.501
517.80	53.218
518.14	53.031
518.49	52.284
518.83	53.584
519.17	52.153
519.52	52.931
519.86	53.661
520.20	53.098
520.55	53.158
520.89	53.513
521.23	52.628
521.58	54.700
521.92	53.910
522.26	54.392
522.61	53.636
522.95	55.629
523.29	53.177
523.64	55.464
523.98	54.958
524.32	53.157
524.66	54.033
525.01	52.792
525.35	54.569
525.69	54.680
526.04	53.902
526.38	54.994
526.72	53.564
527.06	54.345
527.41	55.145
527.75	54.692
528.09	54.352
528.43	55.706
528.78	54.191
529.12	54.968
529.46	54.191
529.80	54.275
530.15	54.587
530.49	55.421
530.83	55.062
531.17	55.003
531.51	55.609
531.86	55.269
532.20	55.463
532.54	54.255
532.88	55.784
533.22	55.578
533.57	54.325
533.91	55.222
534.25	55.013
534.59	54.458
534.93	54.688
535.27	52.982
535.62	53.727
535.96	53.881
536.30	54.881
536.64	54.307
536.98	54.495
537.32	57.326
537.66	55.330
538.01	55.734
538.35	54.785
538.69	53.995
539.03	54.751
539.37	55.787
539.71	53.715
540.05	53.836
540.39	56.025
540.73	55.788
541.07	56.423
541.42	55.242
541.76	55.196
542.10	54.852
542.44	55.594
542.78	54.508
543.12	55.701
543.46	54.659
543.80	56.072
544.14	54.272
544.48	53.698
544.82	55.024
545.16	56.148
545.50	54.139
545.84	56.516
546.18	56.879
546.52	56.164
546.86	57.225
547.20	55.508
547.54	56.042
547.88	54.076
548.22	54.504
548.56	55.079
548.90	55.997
549.24	54.890
549.58	55.289
549.92	55.754
550.26	55.751
550.60	57.546
550.94	56.236
551.28	56.491
551.62	57.077
551.96	55.789
552.30	56.287
552.64	55.712
552.98	56.540
553.32	55.492
553.66	55.806
554.00	56.934
554.34	56.278
554.68	55.310
555.02	57.143
555.36	55.647
555.69	57.070
556.03	55.175
556.37	55.872
556.71	57.040
557.05	56.749
557.39	55.167
557.73	56.747
558.07	57.692
558.41	57.121
558.75	55.963
559.08	58.077
559.42	56.508
559.76	56.765
560.10	56.881
560.44	56.143
560.78	54.685
561.12	55.712
561.45	56.360
561.79	56.583
562.13	56.281
562.47	56.547
562.81	56.124
563.15	55.501
563.48	56.648
563.82	55.800
564.16	56.755
564.50	55.676
564.84	53.815
565.17	55.332
565.51	56.899
565.85	56.241
566.19	55.106
566.52	56.233
566.86	56.170
567.20	56.663
567.54	55.657
567.88	55.067
568.21	55.713
568.55	53.424
568.89	55.287
569.23	53.154
569.56	53.371
569.90	52.659
570.24	51.656
570.57	52.218
570.91	52.004
571.25	51.003
571.59	50.265
571.92	49.215
572.26	50.091
572.60	50.202
572.93	50.329
573.27	50.282
573.61	50.865
573.95	50.191
574.28	49.894
574.62	49.911
574.96	49.040
575.29	49.975
575.63	49.028
575.97	49.634
576.30	49.930
576.64	48.583
576.98	49.884
577.31	50.455
577.65	49.541
577.98	49.408
578.32	49.030
578.66	48.442
578.99	49.275
579.33	49.038
579.67	48.978
580.00	49.519
580.34	50.721
580.67	49.505
581.01	49.183
581.35	49.053
581.68	48.337
582.02	48.578
582.35	48.858
582.69	49.357
583.02	49.370
583.36	49.917
583.70	50.234
584.03	50.792
584.37	51.976
584.70	49.945
585.04	49.378
585.37	49.754
585.71	49.074
586.04	49.319
586.38	49.933
586.72	50.445
587.05	51.358
587.39	50.685
587.72	51.312
588.06	50.650
588.39	50.527
588.73	51.557
589.06	52.544
589.40	52.575
589.73	52.245
590.07	51.813
590.40	51.858
590.73	53.501
591.07	52.757
591.40	52.538
591.74	53.394
592.07	52.505
592.41	52.518
592.74	51.772
593.08	50.087
593.41	50.840
593.75	50.801
594.08	51.184
594.41	50.946
594.75	51.679
595.08	51.532
595.42	51.859
595.75	52.422
596.09	51.525
596.42	52.377
596.75	53.375
597.09	52.027
597.42	51.897
597.75	53.275
598.09	51.924
598.42	51.354
598.76	51.437
599.09	50.361
599.42	50.360
599.76	51.430
600.09	51.056
600.42	49.810
600.76	51.300
601.09	51.031
601.42	50.411
601.76	51.211
602.09	51.774
602.42	52.696
602.76	51.698
603.09	52.201
603.42	53.261
603.76	51.290
604.09	51.478
604.42	51.988
604.76	53.672
605.09	53.199
605.42	51.332
605.75	52.102
606.09	52.102
606.42	50.667
606.75	51.126
607.09	51.780
607.42	51.794
607.75	50.666
608.08	50.674
608.42	50.845
608.75	52.289
609.08	52.815
609.41	52.234
609.75	52.671
610.08	53.020
610.41	51.643
610.74	51.682
611.07	52.765
611.41	52.880
611.74	53.891
612.07	53.212
612.40	53.337
612.73	53.616
613.07	52.137
613.40	52.681
613.73	52.490
614.06	52.810
614.39	53.299
614.72	51.373
615.06	52.291
615.39	51.528
615.72	51.453
616.05	52.793
616.38	52.593
616.71	52.416
617.05	54.540
617.38	54.494
617.71	53.522
618.04	53.714
618.37	54.603
618.70	54.983
619.03	54.167
619.36	54.920
619.69	55.345
620.03	55.150
620.36	55.579
620.69	55.032
621.02	54.587
621.35	56.763
621.68	57.738
622.01	57.000
622.34	55.706
622.67	54.811
623.00	55.207
623.33	55.793
623.66	54.001
623.99	54.463
624.32	56.502
624.65	54.962
624.99	55.380
625.32	54.814
625.65	55.852
625.98	56.648
626.31	55.528
626.64	56.412
626.97	55.672
627.30	56.567
627.63	56.239
627.96	55.615
628.29	56.707
628.62	59.784
628.95	58.116
629.28	58.669
629.61	57.228
629.94	57.674
630.26	57.905
630.59	61.290
630.92	56.923
631.25	56.615
631.58	59.141
631.91	58.991
632.24	58.257
632.57	60.909
632.90	59.075
633.23	59.882
633.56	60.453
633.89	59.433
634.22	60.123
634.55	61.881
634.88	61.814
635.20	61.923
635.53	60.667
635.86	61.248
636.19	60.414
636.52	60.204
636.85	59.181
637.18	58.491
637.51	59.874
637.83	61.104
638.16	61.801
638.49	57.629
638.82	59.211
639.15	60.923
639.48	60.248
639.81	59.135
640.13	61.328
640.46	59.913
640.79	59.205
641.12	60.118
641.45	62.162
641.77	61.481
642.10	62.717
642.43	61.093
642.76	61.386
643.09	61.551
643.41	62.298
643.74	62.768
644.07	63.054
644.40	62.331
644.73	64.799
645.05	59.732
645.38	63.139
645.71	62.766
646.04	65.171
646.36	64.362
646.69	64.928
647.02	65.406
647.35	63.246
647.67	62.888
648.00	67.164
648.33	63.652
648.66	61.864
648.98	58.291
649.31	61.818
649.64	59.655
649.96	57.699
650.29	62.521
650.62	61.197
650.94	64.815
651.27	63.501
651.60	61.982
651.92	61.538
652.25	58.615
652.58	58.500
652.90	58.319
653.23	60.840
653.56	58.206
653.88	58.591
654.21	55.517
654.54	57.895
654.86	61.460
655.19	55.994
655.52	55.418
655.84	44.496
656.17	48.267
656.49	65.442
656.82	68.492
657.15	53.054
657.47	40.550
657.80	30.564
658.13	30.123
658.45	47.305
658.78	48.235
659.10	49.130
659.43	49.584
659.75	53.034
660.08	53.103
660.41	56.282
660.73	58.702
661.06	60.659
661.38	57.730
661.71	61.396
662.03	63.948
662.36	64.176
662.68	61.283
663.01	63.100
663.33	63.341
663.66	62.558
663.98	61.628
664.31	59.915
664.63	59.677
664.96	54.565
665.28	58.499
665.61	59.524
665.93	60.652
666.26	61.388
666.58	60.179
666.91	63.294
667.23	62.028
667.56	59.242
667.88	63.309
668.21	64.200
668.53	64.775
668.86	60.142
669.18	59.198
669.50	59.806
669.83	58.605
670.15	58.042
670.48	62.201
670.80	60.829
671.13	58.613
671.45	60.046
671.77	57.082
672.10	55.644
672.42	56.367
672.75	57.194
673.07	56.708
673.39	55.963
673.72	54.832
674.04	59.792
674.37	58.686
674.69	57.816
675.01	59.778
675.34	56.757
675.66	57.870
675.98	59.202
676.31	60.321
676.63	61.045
676.95	57.727
677.28	63.765
677.60	61.446
677.92	56.193
678.25	56.674
678.57	56.277
678.89	56.092
679.22	59.508
679.54	55.020
679.86	53.280
680.18	56.311
680.51	55.303
680.83	52.684
681.15	56.400
681.48	57.377
681.80	54.959
682.12	55.444
682.44	55.230
682.77	54.967
683.09	56.751
683.41	55.227
683.73	56.682
684.06	55.310
684.38	53.548
684.70	57.734
685.02	52.905
685.34	53.953
685.67	52.533
685.99	54.973
686.31	51.327
686.63	52.876
686.96	50.760
687.28	52.323
687.60	51.141
687.92	54.949
688.24	52.621
688.56	56.550
688.89	55.580
689.21	56.444
689.53	58.005
689.85	54.884
690.17	53.571
690.49	55.083
690.82	54.854
691.14	54.048
691.46	51.402
691.78	52.928
692.10	53.978
692.42	50.649
692.74	53.419
693.06	53.378
693.39	54.525
693.71	52.941
694.03	51.501
694.35	51.402
694.67	54.293
694.99	51.958
695.31	56.136
695.63	54.500
695.95	51.768
696.27	52.073
696.59	55.278
696.91	55.462
697.23	51.414
697.56	53.218
697.88	53.548
698.20	49.658
698.52	52.235
698.84	46.651
699.16	48.500
699.48	52.882
699.80	51.613
700.12	49.326
700.44	53.782
700.76	53.198
701.08	52.727
701.40	56.627
701.72	58.642
702.04	56.436
702.36	59.532
702.68	51.652
703.00	54.242
703.32	51.320
703.64	51.695
703.96	50.145
704.28	54.294
704.60	53.333
704.91	52.050
705.23	58.472
705.55	56.890
705.87	53.791
706.19	54.815
706.51	53.608
706.83	54.341
707.15	48.287
707.47	50.420
707.79	48.958
708.11	48.500
708.43	48.750
708.74	49.871
709.06	53.521
709.38	49.847
709.70	48.225
710.02	50.000
710.34	56.966
710.66	47.436
710.98	50.993
711.29	58.689
711.61	53.559
711.93	49.837
712.25	53.265
712.57	53.480
712.89	52.612
713.20	58.478
713.52	48.084
713.84	52.218
714.16	49.485
714.48	48.710
714.80	49.038
715.11	50.760
715.43	44.828
715.75	49.667
716.07	47.508
716.39	47.315
716.70	48.708
717.02	47.710
717.34	52.632
717.66	55.752
717.97	51.739
718.29	53.138
718.61	50.394
718.93	51.938
719.24	53.232
719.56	48.193
719.88	48.454
720.20	46.591
720.51	43.678
720.83	45.174
721.15	52.941
721.46	54.435
721.78	45.850
722.10	47.584
722.42	50.622
722.73	48.980
723.05	55.918
723.37	53.390
723.68	53.153
724.00	54.701
724.32	47.111
724.63	49.091
724.95	51.528
725.27	54.839
725.58	52.119
725.90	42.460
726.22	49.035
726.53	49.492
726.85	43.820
727.16	46.415
727.48	45.344
727.80	50.607
728.11	47.881
728.43	45.490
728.74	49.194
729.06	47.200
729.38	52.256
729.69	41.036
730.01	44.615
730.32	47.015
730.64	42.756
730.96	49.434
731.27	42.333
731.59	42.712
731.90	42.675
732.22	44.479
732.53	41.528
732.85	46.454
733.16	46.465
733.48	43.885
733.80	46.739
734.11	44.068
734.43	46.392
734.74	45.758
735.06	41.042
735.37	40.785
735.69	41.751
736.00	43.206
736.32	42.953
736.63	41.197
736.95	42.662
737.26	42.349
737.58	40.940
737.89	39.560
738.21	45.865
738.52	41.152
738.83	44.541
739.15	44.978
739.46	45.669
739.78	37.363
740.09	40.523
740.41	43.478
740.72	40.551
741.04	41.700
741.35	43.404
741.66	45.972
741.98	46.939
742.29	42.574
742.61	47.644
742.92	40.284
743.23	39.815
743.55	39.367
743.86	46.890
744.18	46.411
744.49	49.468
744.80	46.196
745.12	51.872
745.43	39.024
745.74	47.917
746.06	49.756
746.37	41.361
746.68	38.863
747.00	47.872
747.31	52.736
747.62	44.660
747.94	45.455
748.25	40.594
748.56	47.541
748.88	42.408
749.19	51.596
749.50	45.813
749.82	38.208
750.13	41.743
750.44	43.233
750.75	43.284
751.07	43.796
751.38	43.295
751.69	37.255
752.01	42.248
752.32	43.028
752.63	41.107
752.94	40.948
753.26	47.699
753.57	40.271
753.88	42.478
754.19	37.917
754.51	39.669
754.82	44.130
755.13	46.667
755.44	43.145
755.75	42.578
756.07	39.689
756.38	40.755
756.69	40.230
757.00	37.000
757.31	41.176
757.63	37.500
757.94	39.167
758.25	33.973
758.56	36.436
758.87	34.561
759.18	40.810
759.50	41.818
759.81	39.799
760.12	40.000
760.43	38.485
760.74	39.815
761.05	40.615
761.36	34.659
761.67	36.970
761.99	39.796
762.30	34.182
762.61	38.340
762.92	41.629
763.23	38.288
763.54	40.187
763.85	46.186
764.16	34.025
764.47	37.097
764.78	35.531
765.10	39.057
765.41	35.647
765.72	37.460
766.03	37.218
766.34	36.496
766.65	38.247
766.96	35.859
767.27	37.234
767.58	36.782
767.89	34.752
768.20	32.955
768.51	36.813
768.82	42.365
769.13	34.562
769.44	39.485
769.75	34.247
770.06	37.069
770.37	37.981
770.68	40.102
770.99	37.104
771.30	36.765
771.61	33.937
771.92	39.224
772.23	39.409
772.54	30.108
772.85	42.593
773.16	40.449
773.47	43.137
773.78	45.752
774.09	35.928
774.39	36.667
774.70	34.395
775.01	40.000
775.32	45.714
775.63	23.140
775.94	40.458
776.25	33.858
776.56	41.667
776.87	39.423
777.18	42.735
777.48	44.828
777.79	42.609
778.10	38.095
778.41	27.928
778.72	38.095
779.03	33.835
779.34	39.716
779.65	37.671
779.95	32.877
780.26	32.414
780.57	35.772
780.88	33.858
781.19	33.621
781.50	44.961
781.80	30.178
782.11	33.333
782.42	43.077
782.73	31.655
783.04	34.815
783.34	37.500
783.65	25.641
783.96	40.984
784.27	37.931
784.57	34.146
784.88	39.063
785.19	39.000
785.50	47.000
785.81	39.655
786.11	37.931
786.42	30.097
786.73	35.455
787.04	30.612
787.34	39.286
787.65	28.571
787.96	35.398
788.26	33.636
788.57	32.479
788.88	37.500
789.19	31.746
789.49	26.957
789.80	40.816
790.11	33.333
790.41	29.091
790.72	36.957
791.03	31.818
791.33	57.500
791.64	23.750
791.95	24.419
792.25	27.660
792.56	31.461
792.87	30.137
793.17	30.435
793.48	29.333
793.79	26.250
794.09	38.750
794.40	34.906
794.70	34.951
795.01	28.455
795.32	23.932
795.62	30.476
795.93	28.431
796.23	34.906
796.54	41.667
796.85	27.941
797.15	29.577
797.46	25.000
797.76	36.364
798.07	31.395
798.37	22.368
798.68	12.121
798.99	24.691
799.29	42.857
799.60	34.783
799.90	46.667
800.21	24.590
800.51	23.077
800.82	33.898
801.12	36.232
801.43	24.590
801.73	36.508
802.04	34.000
802.34	26.866
802.65	48.077
802.95	16.071
803.26	23.077
803.56	41.176
803.87	50.000
804.17	34.667
804.48	26.984
804.78	22.222
805.09	30.435
805.39	37.778
805.70	33.333
806.00	-8.772
806.30	38.028
806.61	34.286
806.91	9.722
807.22	32.895
807.52	34.667
807.83	23.636
808.13	30.556
808.43	25.000
808.74	37.313
809.04	16.949
809.35	17.308
809.65	28.125
809.95	-8.108
810.26	29.545
810.56	21.918
810.86	21.429
811.17	40.000
811.47	40.816
811.77	39.474
812.08	27.273
812.38	30.189
812.69	2.500
812.99	45.455
813.29	36.842
813.59	-5.714
813.90	29.545
814.20	0.000
814.50	21.154
814.81	41.509
815.11	8.511
815.41	38.983
815.72	19.048
816.02	33.333
816.32	20.833
816.62	19.512
816.93	13.514
817.23	20.000
817.53	33.333
817.84	13.043
818.14	23.077
818.44	-13.158
818.74	52.174
819.04	15.000
819.35	16.216
819.65	26.471
819.95	30.556
820.25	38.095
820.56	25.000
820.86	-10.345
821.16	30.000
821.46	25.532
821.76	12.500
822.07	34.884
822.37	13.514
822.67	18.750
822.97	59.524
823.27	35.714
823.57	28.000
823.88	37.037
824.18	35.714
824.48	23.529
824.78	6.452
825.08	47.826
825.38	51.515
825.69	-4.167
825.99	2.632
826.29	36.111
826.59	13.333
826.89	-9.524
827.19	23.913
827.49	30.000
827.79	65.714
828.09	39.286
828.39	45.455
828.70	8.108
829.00	25.000
829.30	4.762
829.60	13.333
829.90	9.375
830.20	13.158
830.50	29.630
830.80	21.739
831.10	18.182
831.40	48.485
831.70	35.484
832.00	23.810
832.30	-38.095
832.60	-66.667
832.90	34.483
833.20	-40.000
833.50	21.212
833.80	37.037
834.10	26.923
834.40	15.625
834.70	-100.000
835.00	47.368
835.30	38.462
835.60	80.000
835.90	25.806
836.20	9.091
836.50	25.000
836.80	3.846
837.10	17.857
837.40	-100.000
837.70	13.636
838.00	0.000
838.30	4.348
838.60	-30.769
838.90	-9.091
839.19	-7.143
839.49	33.333
839.79	15.385
840.09	-83.333
840.39	28.571
840.69	3.571
840.99	-7.692
841.29	-57.895
841.59	-120.000
841.88	-54.545
842.18	-20.000
842.48	25.000
842.78	-33.333
843.08	-3.704
843.38	-100.000
843.68	13.043
843.97	33.333
844.27	-26.667
844.57	50.000
844.87	11.111
845.17	0.000
845.47	40.000
845.76	19.048
846.06	17.647
846.36	-60.000
846.66	-35.714
846.96	26.667
847.25	-100.000
847.55	35.714
847.85	-162.500
848.15	-31.818
848.44	-566.667
848.74	-10.000
849.04	40.741
849.34	-27.273
849.63	-166.667
849.93	-40.000
850.23	61.111
850.53	60.000
850.82	-46.154
851.12	-33.333
851.42	13.333
851.71	34.615
852.01	142.857
852.31	-275.000
852.61	45.455
852.90	30.000
853.20	15.789
853.50	58.333
853.79	47.826
854.09	50.000
854.39	15.789
854.68	-4.167
854.98	38.710
855.28	19.231
855.57	-5.000
855.87	-16.667
856.17	37.037
856.46	7.143
856.76	-26.667
857.05	11.111
857.35	20.000
857.65	-5.556
857.94	23.077
858.24	17.241
858.53	27.778
858.83	-7.407
859.13	22.727
859.42	-8.696
859.72	0.000
860.01	-366.667
860.31	8.000
860.60	0.000
860.90	-400.000
861.20	-53.333
861.49	-600.000
861.79	-46.667
862.08	0.000
862.38	60.000
862.67	-200.000
862.97	-100.000
863.26	25.000
863.56	-11.111
863.85	-666.667
864.15	11.111
864.44	-20.000
864.74	-50.000
865.03	550.000
865.33	40.000
865.62	-16.667
865.92	-16.667
866.21	-116.667
866.51	6.250
866.80	-36.364
867.10	-450.000
867.39	-16.667
867.69	0.000
867.98	-30.769
868.27	-100.000
868.57	13.333
868.86	16.667
869.16	23.077
869.45	26.667
869.75	-1400.000
870.04	0.000
870.33	-171.429
870.63	-4.762
870.92	333.333
871.22	-160.000
871.51	-500.000
871.80	33.333
872.10	633.333
>>>>>End Processed Spectral Data<<<<<
