SpectraSuite Data File
++++++++++++++++++++++++++++++++++++
Date: Fri May 15 20:51:26 PDT 2015
User: schluterlab
Dark Spectrum Present: Yes
Reference Spectrum Present: Yes
Number of Sampled Component Spectra: 1
Spectrometers: USB2E3373
Integration Time (usec): 3000 (USB2E3373)
Spectra Averaged: 3 (USB2E3373)
Boxcar Smoothing: 0 (USB2E3373)
Correct for Electrical Dark: No (USB2E3373)
Strobe/Lamp Enabled: No (USB2E3373)
Correct for Detector Non-linearity: No (USB2E3373)
Correct for Stray Light: No (USB2E3373)
Number of Pixels in Processed Spectrum: 2048
>>>>>Begin Processed Spectral Data<<<<<
178.53	0.000
178.91	0.000
179.29	112.500
179.67	-600.000
180.04	100.000
180.42	100.000
180.80	-700.000
181.18	33.333
181.56	400.000
181.94	50.000
182.31	-100.000
182.69	-100.000
183.07	-166.667
183.45	-200.000
183.83	250.000
184.20	90.909
184.58	166.667
184.96	-25.000
185.34	166.667
185.72	-350.000
186.09	76.923
186.47	100.000
186.85	100.000
187.23	200.000
187.61	200.000
187.98	-133.333
188.36	-66.667
188.74	-33.333
189.12	-5.882
189.49	-22.222
189.87	0.000
190.25	42.857
190.63	-350.000
191.00	200.000
191.38	-15.789
191.76	100.000
192.14	-50.000
192.51	300.000
192.89	-55.556
193.27	-157.143
193.65	50.000
194.02	190.909
194.40	-90.000
194.78	-62.500
195.15	25.000
195.53	-137.500
195.91	275.000
196.29	-300.000
196.66	153.846
197.04	85.714
197.42	-22.222
197.79	-166.667
198.17	-123.077
198.55	1200.000
198.92	-233.333
199.30	-300.000
199.68	-200.000
200.05	-466.667
200.43	0.000
200.81	-366.667
201.18	-566.667
201.56	700.000
201.94	-150.000
202.31	-100.000
202.69	40.000
203.07	175.000
203.44	-400.000
203.82	0.000
204.19	78.571
204.57	-433.333
204.95	125.000
205.32	40.000
205.70	14.286
206.08	100.000
206.45	22.222
206.83	-42.857
207.20	-28.571
207.58	1100.000
207.96	-400.000
208.33	-140.000
208.71	-100.000
209.08	-316.667
209.46	-1300.000
209.84	-120.000
210.21	-1100.000
210.59	-128.571
210.96	-200.000
211.34	-25.000
211.71	-20.000
212.09	-200.000
212.46	-1500.000
212.84	0.000
213.22	90.000
213.59	350.000
213.97	61.538
214.34	81.818
214.72	66.667
215.09	200.000
215.47	61.538
215.84	-54.545
216.22	-133.333
216.59	-37.500
216.97	400.000
217.34	-50.000
217.72	-260.000
218.09	-75.000
218.47	262.500
218.84	800.000
219.22	-66.667
219.59	20.000
219.97	233.333
220.34	150.000
220.72	-14.286
221.09	-225.000
221.47	-150.000
221.84	-850.000
222.22	-850.000
222.59	63.636
222.97	91.667
223.34	-233.333
223.72	7.143
224.09	38.095
224.46	-14.286
224.84	133.333
225.21	-20.000
225.59	33.333
225.96	0.000
226.34	275.000
226.71	42.857
227.08	-16.667
227.46	-50.000
227.83	-550.000
228.21	100.000
228.58	-18.182
228.95	-25.000
229.33	100.000
229.70	18.750
230.08	-137.500
230.45	0.000
230.82	71.429
231.20	-20.000
231.57	85.714
231.95	-42.857
232.32	-160.000
232.69	28.571
233.07	-300.000
233.44	0.000
233.81	-40.000
234.19	11.111
234.56	58.824
234.93	750.000
235.31	-300.000
235.68	-480.000
236.05	-92.308
236.43	-25.000
236.80	11.765
237.17	21.875
237.55	5.000
237.92	11.111
238.29	13.889
238.67	13.333
239.04	5.882
239.41	-12.195
239.79	-13.333
240.16	17.073
240.53	2.632
240.91	-19.565
241.28	9.524
241.65	19.643
242.02	12.329
242.40	0.000
242.77	1.695
243.14	-13.636
243.51	5.000
243.89	18.391
244.26	13.793
244.63	7.143
245.00	12.371
245.38	18.557
245.75	-2.247
246.12	17.241
246.49	10.744
246.87	10.577
247.24	5.042
247.61	8.772
247.98	8.943
248.36	16.250
248.73	11.842
249.10	10.390
249.47	18.987
249.84	20.261
250.22	12.941
250.59	16.340
250.96	18.779
251.33	7.558
251.70	19.412
252.08	10.660
252.45	14.356
252.82	18.090
253.19	19.816
253.56	10.280
253.94	14.414
254.31	14.783
254.68	20.614
255.05	15.748
255.42	10.044
255.79	16.988
256.16	18.288
256.54	19.776
256.91	14.068
257.28	14.126
257.65	12.360
258.02	12.766
258.39	15.152
258.76	16.850
259.14	15.282
259.51	16.181
259.88	13.746
260.25	12.092
260.62	17.361
260.99	13.220
261.36	12.671
261.73	17.089
262.10	12.462
262.47	12.270
262.85	15.987
263.22	15.077
263.59	14.642
263.96	16.149
264.33	17.273
264.70	17.262
265.07	16.369
265.44	18.414
265.81	16.949
266.18	16.120
266.55	15.424
266.92	15.803
267.29	17.493
267.66	16.368
268.03	15.969
268.40	13.316
268.77	17.914
269.14	20.144
269.51	16.967
269.88	14.713
270.25	14.286
270.62	15.122
270.99	16.113
271.36	16.137
271.73	16.901
272.10	16.058
272.47	13.948
272.84	13.614
273.21	16.009
273.58	17.108
273.95	15.789
274.32	12.933
274.69	13.575
275.06	17.634
275.43	15.646
275.80	16.336
276.17	15.632
276.54	16.488
276.91	14.474
277.28	14.629
277.65	18.802
278.02	17.447
278.39	14.004
278.76	15.304
279.13	12.656
279.50	16.387
279.87	13.823
280.23	14.409
280.60	16.374
280.97	16.364
281.34	13.654
281.71	17.864
282.08	13.497
282.45	13.112
282.82	13.707
283.19	14.700
283.56	13.680
283.92	14.042
284.29	12.692
284.66	14.147
285.03	13.752
285.40	14.745
285.77	13.357
286.14	13.357
286.51	14.391
286.87	12.980
287.24	13.444
287.61	13.051
287.98	14.211
288.35	13.518
288.72	15.236
289.08	12.674
289.45	13.181
289.82	13.462
290.19	11.092
290.56	13.894
290.93	12.795
291.29	12.018
291.66	11.181
292.03	13.078
292.40	10.806
292.77	13.397
293.13	10.552
293.50	10.319
293.87	12.672
294.24	12.828
294.60	11.773
294.97	12.351
295.34	11.963
295.71	12.966
296.08	12.407
296.44	10.242
296.81	11.806
297.18	12.754
297.55	12.737
297.91	11.918
298.28	12.401
298.65	10.583
299.02	10.108
299.38	9.986
299.75	10.759
300.12	11.257
300.48	10.277
300.85	11.153
301.22	12.338
301.59	11.711
301.95	10.759
302.32	12.970
302.69	10.448
303.05	11.015
303.42	10.087
303.79	10.981
304.15	9.916
304.52	8.680
304.89	10.409
305.25	11.622
305.62	9.452
305.99	10.760
306.35	9.711
306.72	9.899
307.09	10.946
307.45	10.333
307.82	10.069
308.19	11.150
308.55	10.033
308.92	10.566
309.29	9.721
309.65	9.580
310.02	11.331
310.38	10.099
310.75	10.601
311.12	9.580
311.48	10.710
311.85	10.366
312.22	9.494
312.58	10.191
312.95	9.392
313.31	9.524
313.68	9.843
314.05	9.388
314.41	10.515
314.78	10.619
315.14	11.202
315.51	10.248
315.87	10.041
316.24	11.122
316.61	12.008
316.97	11.111
317.34	11.328
317.70	10.994
318.07	11.250
318.43	12.255
318.80	11.932
319.16	12.793
319.53	13.010
319.89	11.713
320.26	11.741
320.62	13.541
320.99	12.735
321.35	13.258
321.72	14.538
322.08	13.293
322.45	14.416
322.81	14.735
323.18	13.739
323.54	14.672
323.91	14.898
324.27	15.723
324.64	16.573
325.00	17.336
325.37	17.080
325.73	16.138
326.10	17.075
326.46	18.834
326.83	18.810
327.19	19.180
327.56	18.679
327.92	19.806
328.29	19.911
328.65	19.623
329.01	20.496
329.38	21.198
329.74	19.924
330.11	21.223
330.47	19.852
330.84	21.635
331.20	23.859
331.56	22.593
331.93	22.466
332.29	22.548
332.66	22.262
333.02	22.862
333.38	22.181
333.75	22.985
334.11	21.665
334.48	23.753
334.84	23.077
335.20	24.611
335.57	23.119
335.93	24.390
336.29	24.309
336.66	23.433
337.02	23.513
337.38	23.981
337.75	24.000
338.11	22.182
338.47	23.175
338.84	24.954
339.20	24.314
339.56	24.404
339.93	25.157
340.29	24.771
340.65	24.014
341.02	24.202
341.38	25.310
341.74	23.852
342.11	23.397
342.47	24.288
342.83	24.394
343.20	24.913
343.56	24.435
343.92	25.864
344.28	25.534
344.65	24.439
345.01	26.016
345.37	25.988
345.73	24.770
346.10	25.022
346.46	24.727
346.82	24.714
347.19	24.688
347.55	23.977
347.91	24.676
348.27	24.495
348.63	25.128
349.00	24.856
349.36	25.686
349.72	25.788
350.08	25.164
350.45	25.299
350.81	25.000
351.17	24.430
351.53	24.735
351.89	24.525
352.26	25.360
352.62	25.242
352.98	23.293
353.34	24.799
353.70	24.595
354.07	24.839
354.43	24.820
354.79	24.195
355.15	26.190
355.51	24.842
355.87	24.919
356.24	23.573
356.60	25.222
356.96	26.032
357.32	24.361
357.68	23.378
358.04	24.879
358.40	25.482
358.77	25.120
359.13	24.420
359.49	25.270
359.85	23.557
360.21	25.439
360.57	24.484
360.93	25.265
361.29	24.320
361.66	25.392
362.02	26.818
362.38	25.057
362.74	24.830
363.10	26.486
363.46	25.056
363.82	26.446
364.18	25.535
364.54	25.368
364.90	25.376
365.26	25.691
365.62	25.328
365.98	26.393
366.35	26.875
366.71	26.016
367.07	25.762
367.43	26.240
367.79	25.230
368.15	25.772
368.51	25.856
368.87	26.059
369.23	25.199
369.59	25.292
369.95	25.880
370.31	25.506
370.67	26.493
371.03	25.392
371.39	26.550
371.75	25.495
372.11	25.749
372.47	26.849
372.83	26.544
373.19	26.819
373.55	26.787
373.91	26.134
374.27	27.286
374.63	25.987
374.99	25.745
375.35	26.323
375.71	26.084
376.07	27.739
376.42	26.463
376.78	27.383
377.14	26.743
377.50	26.627
377.86	27.309
378.22	27.058
378.58	26.154
378.94	26.843
379.30	26.014
379.66	28.339
380.02	26.793
380.38	27.572
380.74	26.810
381.09	28.037
381.45	27.645
381.81	27.020
382.17	28.553
382.53	28.420
382.89	28.186
383.25	28.749
383.61	28.171
383.97	27.111
384.32	28.580
384.68	28.173
385.04	27.390
385.40	27.754
385.76	29.182
386.12	29.107
386.48	28.799
386.83	28.725
387.19	28.449
387.55	28.356
387.91	29.401
388.27	29.426
388.62	29.264
388.98	29.098
389.34	28.170
389.70	29.584
390.06	29.138
390.42	29.016
390.77	29.039
391.13	29.067
391.49	30.207
391.85	29.045
392.20	29.316
392.56	30.706
392.92	30.358
393.28	30.307
393.64	30.450
393.99	31.661
394.35	30.044
394.71	30.651
395.07	29.793
395.42	29.265
395.78	30.358
396.14	30.769
396.50	30.311
396.85	30.393
397.21	30.388
397.57	29.969
397.92	31.815
398.28	32.184
398.64	30.783
399.00	31.377
399.35	29.515
399.71	30.557
400.07	32.044
400.42	30.722
400.78	31.170
401.14	31.700
401.49	32.162
401.85	31.749
402.21	31.807
402.57	31.625
402.92	31.493
403.28	32.581
403.63	32.472
403.99	32.398
404.35	33.417
404.70	31.667
405.06	32.550
405.42	32.132
405.77	31.319
406.13	32.480
406.49	32.386
406.84	32.824
407.20	32.330
407.55	33.097
407.91	32.420
408.27	32.696
408.62	33.108
408.98	33.333
409.34	33.333
409.69	33.463
410.05	33.374
410.40	33.889
410.76	34.258
411.11	34.625
411.47	34.911
411.83	34.024
412.18	34.234
412.54	33.396
412.89	33.190
413.25	34.657
413.60	34.161
413.96	34.540
414.31	34.451
414.67	34.638
415.03	34.554
415.38	35.183
415.74	34.919
416.09	35.075
416.45	35.044
416.80	35.162
417.16	36.326
417.51	36.109
417.87	35.332
418.22	36.464
418.58	36.054
418.93	36.426
419.29	34.443
419.64	35.645
420.00	36.965
420.35	36.537
420.71	35.601
421.06	36.403
421.42	37.019
421.77	35.896
422.12	37.174
422.48	36.383
422.83	37.181
423.19	36.230
423.54	36.390
423.90	36.278
424.25	37.773
424.61	37.760
424.96	36.934
425.31	38.186
425.67	37.148
426.02	38.575
426.38	38.760
426.73	38.862
427.09	39.937
427.44	38.706
427.79	38.656
428.15	38.532
428.50	38.643
428.85	37.654
429.21	39.955
429.56	39.784
429.92	39.086
430.27	37.945
430.62	38.630
430.98	38.907
431.33	39.958
431.68	39.560
432.04	39.855
432.39	38.391
432.74	38.966
433.10	40.690
433.45	40.621
433.80	41.091
434.16	39.889
434.51	40.054
434.86	39.779
435.22	41.054
435.57	41.547
435.92	41.078
436.28	41.145
436.63	40.730
436.98	40.962
437.34	41.682
437.69	41.920
438.04	41.595
438.39	40.745
438.75	42.623
439.10	41.539
439.45	43.457
439.81	42.691
440.16	44.121
440.51	43.701
440.86	43.384
441.22	43.156
441.57	43.543
441.92	43.127
442.27	43.902
442.63	44.272
442.98	44.285
443.33	41.848
443.68	43.342
444.03	44.709
444.39	44.171
444.74	44.593
445.09	45.267
445.44	43.875
445.79	46.313
446.15	44.714
446.50	44.537
446.85	45.218
447.20	45.516
447.55	45.424
447.91	45.460
448.26	45.475
448.61	45.078
448.96	45.095
449.31	45.318
449.66	45.935
450.02	46.948
450.37	47.421
450.72	46.048
451.07	47.025
451.42	46.629
451.77	46.715
452.12	45.873
452.47	46.104
452.83	46.702
453.18	45.984
453.53	48.040
453.88	46.873
454.23	47.203
454.58	47.103
454.93	47.809
455.28	45.460
455.63	47.365
455.98	47.805
456.34	47.510
456.69	48.221
457.04	47.259
457.39	46.902
457.74	48.489
458.09	46.557
458.44	48.332
458.79	47.955
459.14	48.227
459.49	47.224
459.84	48.957
460.19	48.119
460.54	47.861
460.89	48.864
461.24	48.261
461.59	47.922
461.94	48.428
462.29	48.733
462.64	49.236
462.99	49.154
463.34	49.374
463.69	48.906
464.04	50.121
464.39	48.575
464.74	49.202
465.09	48.908
465.44	49.336
465.79	48.073
466.14	48.689
466.49	48.419
466.84	49.613
467.19	49.625
467.54	48.531
467.89	50.032
468.24	49.027
468.59	49.778
468.94	48.635
469.29	49.836
469.64	50.376
469.99	51.367
470.34	50.444
470.68	49.217
471.03	50.743
471.38	50.357
471.73	50.350
472.08	51.832
472.43	49.463
472.78	49.554
473.13	51.361
473.48	50.814
473.83	50.249
474.17	51.166
474.52	49.904
474.87	50.727
475.22	51.129
475.57	51.270
475.92	50.905
476.27	49.185
476.61	51.215
476.96	49.526
477.31	50.135
477.66	50.562
478.01	51.151
478.36	50.654
478.70	51.876
479.05	51.593
479.40	50.980
479.75	51.408
480.10	50.589
480.45	50.100
480.79	51.511
481.14	52.510
481.49	49.655
481.84	50.676
482.19	50.514
482.53	50.743
482.88	50.788
483.23	50.336
483.58	50.991
483.92	51.404
484.27	49.499
484.62	50.560
484.97	49.212
485.31	49.277
485.66	48.576
486.01	48.537
486.36	48.339
486.70	48.505
487.05	49.363
487.40	49.716
487.75	49.437
488.09	49.845
488.44	49.553
488.79	51.065
489.13	50.521
489.48	51.347
489.83	51.300
490.17	50.247
490.52	51.085
490.87	51.504
491.22	52.913
491.56	50.806
491.91	51.386
492.26	53.136
492.60	51.536
492.95	53.517
493.30	51.783
493.64	53.045
493.99	52.850
494.34	51.650
494.68	52.714
495.03	52.165
495.37	52.061
495.72	53.054
496.07	53.512
496.41	52.217
496.76	51.313
497.11	51.793
497.45	52.076
497.80	53.229
498.14	51.615
498.49	52.209
498.84	51.846
499.18	52.962
499.53	53.175
499.87	52.578
500.22	53.116
500.56	53.202
500.91	52.610
501.26	52.200
501.60	52.681
501.95	52.353
502.29	52.349
502.64	52.365
502.98	53.281
503.33	52.834
503.67	52.916
504.02	53.372
504.36	53.785
504.71	53.131
505.06	53.598
505.40	54.162
505.75	54.433
506.09	53.269
506.44	55.031
506.78	54.949
507.13	53.257
507.47	53.786
507.82	52.938
508.16	53.407
508.51	53.830
508.85	54.736
509.19	53.379
509.54	54.960
509.88	51.672
510.23	54.384
510.57	54.516
510.92	52.559
511.26	54.937
511.61	54.345
511.95	54.685
512.30	54.435
512.64	53.589
512.98	53.734
513.33	55.736
513.67	55.031
514.02	56.121
514.36	54.914
514.70	55.711
515.05	55.699
515.39	54.841
515.74	57.066
516.08	57.023
516.42	55.713
516.77	56.992
517.11	56.380
517.46	55.416
517.80	57.330
518.14	56.093
518.49	55.288
518.83	56.561
519.17	54.821
519.52	55.595
519.86	55.462
520.20	56.865
520.55	55.972
520.89	57.152
521.23	56.428
521.58	56.215
521.92	56.154
522.26	56.669
522.61	57.273
522.95	59.139
523.29	56.163
523.64	57.243
523.98	58.393
524.32	56.186
524.66	57.106
525.01	58.506
525.35	57.032
525.69	58.114
526.04	57.937
526.38	58.171
526.72	56.311
527.06	57.069
527.41	57.520
527.75	57.440
528.09	56.877
528.43	59.082
528.78	57.360
529.12	57.548
529.46	57.505
529.80	55.858
530.15	58.218
530.49	57.710
530.83	58.413
531.17	57.220
531.51	58.755
531.86	57.104
532.20	58.455
532.54	57.522
532.88	57.974
533.22	57.325
533.57	56.422
533.91	57.050
534.25	58.724
534.59	57.280
534.93	57.835
535.27	56.345
535.62	56.384
535.96	57.534
536.30	55.805
536.64	59.201
536.98	57.143
537.32	59.317
537.66	59.958
538.01	58.601
538.35	57.975
538.69	57.390
539.03	58.168
539.37	57.201
539.71	58.759
540.05	57.366
540.39	58.587
540.73	58.926
541.07	59.185
541.42	58.132
541.76	59.463
542.10	58.293
542.44	59.486
542.78	57.880
543.12	57.830
543.46	59.597
543.80	58.015
544.14	56.809
544.48	57.495
544.82	59.125
545.16	58.607
545.50	57.276
545.84	59.136
546.18	59.291
546.52	57.390
546.86	57.872
547.20	57.725
547.54	56.961
547.88	57.405
548.22	58.317
548.56	56.135
548.90	59.906
549.24	59.022
549.58	59.168
549.92	57.327
550.26	58.755
550.60	59.628
550.94	59.671
551.28	58.810
551.62	59.692
551.96	59.774
552.30	58.699
552.64	58.886
552.98	57.314
553.32	58.417
553.66	59.289
554.00	59.708
554.34	59.527
554.68	58.038
555.02	59.673
555.36	60.583
555.69	58.681
556.03	58.744
556.37	58.078
556.71	59.422
557.05	58.762
557.39	59.480
557.73	59.895
558.07	60.256
558.41	60.184
558.75	61.107
559.08	59.496
559.42	61.746
559.76	60.689
560.10	59.939
560.44	58.526
560.78	59.650
561.12	59.732
561.45	60.295
561.79	59.314
562.13	60.185
562.47	59.928
562.81	60.231
563.15	58.533
563.48	58.769
563.82	59.986
564.16	59.889
564.50	58.581
564.84	58.835
565.17	59.155
565.51	59.631
565.85	60.837
566.19	59.947
566.52	59.517
566.86	60.411
567.20	58.406
567.54	59.063
567.88	58.992
568.21	58.654
568.55	57.120
568.89	57.084
569.23	56.476
569.56	55.648
569.90	55.664
570.24	54.485
570.57	54.764
570.91	54.758
571.25	54.028
571.59	54.126
571.92	53.096
572.26	53.382
572.60	53.085
572.93	53.530
573.27	54.263
573.61	54.356
573.95	53.550
574.28	52.542
574.62	52.759
574.96	52.306
575.29	51.615
575.63	51.956
575.97	52.562
576.30	53.163
576.64	51.974
576.98	53.359
577.31	53.035
577.65	52.569
577.98	52.219
578.32	51.324
578.66	51.236
578.99	51.497
579.33	51.936
579.67	51.703
580.00	52.557
580.34	52.736
580.67	52.127
581.01	53.170
581.35	51.572
581.68	51.683
582.02	50.982
582.35	51.551
582.69	51.967
583.02	52.403
583.36	52.520
583.70	53.764
584.03	53.433
584.37	53.811
584.70	53.214
585.04	53.212
585.37	52.531
585.71	52.703
586.04	52.421
586.38	52.441
586.72	53.888
587.05	53.668
587.39	53.676
587.72	54.101
588.06	52.975
588.39	53.945
588.73	54.487
589.06	54.599
589.40	54.303
589.73	55.312
590.07	55.514
590.40	54.915
590.73	56.260
591.07	55.598
591.40	55.922
591.74	56.471
592.07	56.262
592.41	55.477
592.74	54.998
593.08	53.685
593.41	54.003
593.75	53.418
594.08	52.935
594.41	54.185
594.75	53.779
595.08	54.559
595.42	54.509
595.75	55.952
596.09	54.769
596.42	56.346
596.75	56.528
597.09	55.991
597.42	55.510
597.75	56.070
598.09	54.504
598.42	54.783
598.76	54.955
599.09	54.607
599.42	53.695
599.76	53.574
600.09	53.658
600.42	54.132
600.76	52.860
601.09	54.198
601.42	54.602
601.76	55.220
602.09	54.373
602.42	56.571
602.76	55.263
603.09	55.108
603.42	56.731
603.76	54.677
604.09	53.989
604.42	54.399
604.76	54.651
605.09	55.439
605.42	55.576
605.75	53.765
606.09	55.202
606.42	53.461
606.75	54.502
607.09	55.165
607.42	54.409
607.75	53.952
608.08	53.100
608.42	54.363
608.75	55.470
609.08	55.506
609.41	55.736
609.75	55.494
610.08	55.317
610.41	54.638
610.74	54.656
611.07	55.607
611.41	56.513
611.74	57.036
612.07	55.567
612.40	55.799
612.73	57.401
613.07	56.074
613.40	55.853
613.73	55.512
614.06	55.314
614.39	56.007
614.72	54.454
615.06	56.536
615.39	54.640
615.72	54.790
616.05	55.084
616.38	55.783
616.71	55.719
617.05	55.775
617.38	55.563
617.71	56.981
618.04	56.571
618.37	56.242
618.70	57.162
619.03	58.889
619.36	58.177
619.69	58.378
620.03	59.240
620.36	57.010
620.69	57.816
621.02	59.327
621.35	59.170
621.68	60.799
622.01	59.083
622.34	58.420
622.67	58.517
623.00	57.887
623.33	58.155
623.66	58.414
623.99	57.716
624.32	59.163
624.65	57.594
624.99	57.938
625.32	57.392
625.65	58.209
625.98	59.790
626.31	60.515
626.64	61.092
626.97	59.686
627.30	58.231
627.63	59.272
627.96	60.377
628.29	59.297
628.62	61.554
628.95	60.421
629.28	60.887
629.61	60.120
629.94	61.095
630.26	59.783
630.59	61.811
630.92	61.538
631.25	59.795
631.58	62.335
631.91	61.952
632.24	62.500
632.57	63.182
632.90	61.091
633.23	61.412
633.56	64.232
633.89	63.502
634.22	63.951
634.55	63.787
634.88	61.814
635.20	60.769
635.53	63.600
635.86	63.069
636.19	64.554
636.52	63.393
636.85	62.159
637.18	63.145
637.51	60.000
637.83	61.892
638.16	64.529
638.49	61.308
638.82	64.474
639.15	63.636
639.48	64.924
639.81	62.064
640.13	63.781
640.46	63.848
640.79	63.034
641.12	62.186
641.45	63.664
641.77	61.481
642.10	66.193
642.43	63.344
642.76	65.347
643.09	64.297
643.41	61.165
643.74	63.097
644.07	63.218
644.40	65.541
644.73	67.426
645.05	64.597
645.38	63.492
645.71	65.248
646.04	67.504
646.36	67.021
646.69	67.986
647.02	68.431
647.35	66.231
647.67	61.792
648.00	69.030
648.33	62.799
648.66	62.881
648.98	60.972
649.31	61.322
649.64	61.068
649.96	60.940
650.29	62.692
650.62	63.761
650.94	64.259
651.27	64.432
651.60	61.622
651.92	61.538
652.25	63.055
652.58	63.833
652.90	62.436
653.23	61.345
653.56	60.068
653.88	60.309
654.21	60.245
654.54	60.441
654.86	63.328
655.19	58.772
655.52	55.728
655.84	48.314
656.17	51.563
656.49	68.324
656.82	71.457
657.15	54.435
657.47	41.606
657.80	31.357
658.13	31.210
658.45	48.240
658.78	49.118
659.10	48.709
659.43	49.439
659.75	51.406
660.08	53.655
660.41	56.895
660.73	57.459
661.06	61.179
661.38	61.840
661.71	60.986
662.03	64.592
662.36	63.077
662.68	65.487
663.01	62.882
663.33	62.645
663.66	65.349
663.98	60.233
664.31	62.047
664.63	63.825
664.96	58.043
665.28	60.486
665.61	62.554
665.93	63.043
666.26	60.738
666.58	62.192
666.91	61.412
667.23	64.387
667.56	61.848
667.88	63.070
668.21	65.394
668.53	65.485
668.86	65.330
669.18	59.198
669.50	62.954
669.83	61.163
670.15	63.170
670.48	63.158
670.80	63.364
671.13	59.955
671.45	56.849
671.77	62.017
672.10	60.396
672.42	58.240
672.75	58.615
673.07	57.782
673.39	55.963
673.72	55.424
674.04	58.333
674.37	58.475
674.69	55.246
675.01	62.222
675.34	58.108
675.66	59.259
675.98	61.863
676.31	61.239
676.63	59.857
676.95	59.773
677.28	60.471
677.60	59.518
677.92	58.945
678.25	60.175
678.57	56.494
678.89	56.092
679.22	58.837
679.54	57.430
679.86	55.268
680.18	55.728
680.51	53.788
680.83	53.280
681.15	56.800
681.48	57.992
681.80	56.198
682.12	57.661
682.44	55.649
682.77	61.148
683.09	56.293
683.41	57.727
683.73	56.452
684.06	57.743
684.38	56.989
684.70	56.645
685.02	56.846
685.34	55.731
685.67	52.345
685.99	52.260
686.31	53.982
686.63	54.917
686.96	54.373
687.28	52.525
687.60	53.232
687.92	57.374
688.24	55.444
688.56	56.332
688.89	54.911
689.21	57.111
689.53	55.220
689.85	54.419
690.17	58.036
690.49	54.137
690.82	56.311
691.14	55.476
691.46	55.841
691.78	52.703
692.10	54.839
692.42	50.866
692.74	53.205
693.06	56.081
693.39	52.489
693.71	50.679
694.03	56.120
694.35	56.075
694.67	53.030
694.99	54.308
695.31	56.397
695.63	50.750
695.95	51.768
696.27	54.145
696.59	52.778
696.91	50.700
697.23	49.614
697.56	53.960
697.88	53.118
698.20	52.847
698.52	51.765
698.84	48.325
699.16	52.750
699.48	53.383
699.80	51.117
700.12	51.213
700.44	55.182
700.76	55.523
701.08	52.121
701.40	56.024
701.72	60.494
702.04	58.746
702.36	57.860
702.68	56.156
703.00	53.939
703.32	53.079
703.64	46.610
703.96	53.913
704.28	55.215
704.60	57.778
704.91	53.312
705.23	54.153
705.55	59.364
705.87	59.928
706.19	57.778
706.51	55.670
706.83	51.447
707.15	52.025
707.47	51.541
707.79	50.781
708.11	48.750
708.43	48.500
708.74	47.545
709.06	50.704
709.38	51.682
709.70	50.592
710.02	52.866
710.34	49.845
710.66	48.397
710.98	51.325
711.29	52.131
711.61	50.169
711.93	48.860
712.25	55.326
712.57	56.044
712.89	51.866
713.20	52.595
713.52	51.568
713.84	49.829
714.16	51.203
714.48	52.258
714.80	50.962
715.11	51.368
715.43	48.276
715.75	48.333
716.07	47.508
716.39	51.678
716.70	49.815
717.02	48.092
717.34	53.036
717.66	54.425
717.97	49.130
718.29	51.883
718.61	50.394
718.93	53.876
719.24	49.049
719.56	51.406
719.88	48.797
720.20	46.212
720.51	45.977
720.83	50.193
721.15	55.042
721.46	49.194
721.78	51.383
722.10	50.186
722.42	47.303
722.73	47.347
723.05	49.796
723.37	50.000
723.68	54.054
724.00	50.000
724.32	44.444
724.63	44.545
724.95	51.965
725.27	47.005
725.58	45.339
725.90	42.063
726.22	45.560
726.53	45.424
726.85	44.944
727.16	50.189
727.48	43.725
727.80	50.202
728.11	47.881
728.43	41.176
728.74	42.742
729.06	45.600
729.38	49.248
729.69	45.020
730.01	37.692
730.32	45.149
730.64	47.350
730.96	49.057
731.27	44.333
731.59	46.441
731.90	45.541
732.22	45.741
732.53	40.864
732.85	41.844
733.16	46.128
733.48	43.885
733.80	45.290
734.11	38.983
734.43	44.330
734.74	45.455
735.06	43.322
735.37	43.202
735.69	43.771
736.00	40.767
736.32	43.624
736.63	45.423
736.95	45.734
737.26	45.196
737.58	42.617
737.89	46.520
738.21	40.977
738.52	48.560
738.83	43.231
739.15	41.048
739.46	44.882
739.78	38.095
740.09	41.503
740.41	44.565
740.72	38.976
741.04	44.534
741.35	40.426
741.66	44.076
741.98	47.449
742.29	44.059
742.61	51.309
742.92	37.441
743.23	35.185
743.55	41.176
743.86	40.191
744.18	39.234
744.49	43.617
744.80	45.109
745.12	51.337
745.43	38.049
745.74	44.271
746.06	43.415
746.37	46.073
746.68	47.867
747.00	43.617
747.31	48.259
747.62	46.602
747.94	46.890
748.25	45.050
748.56	46.448
748.88	42.932
749.19	48.936
749.50	43.350
749.82	42.453
750.13	39.450
750.44	48.496
750.75	41.045
751.07	44.161
751.38	43.678
751.69	39.216
752.01	41.085
752.32	37.849
752.63	39.130
752.94	43.534
753.26	47.280
753.57	36.199
753.88	44.690
754.19	40.417
754.51	40.909
754.82	40.891
755.13	47.083
755.44	47.177
755.75	44.531
756.07	40.467
756.38	36.604
756.69	36.015
757.00	38.000
757.31	38.562
757.63	38.720
757.94	37.500
758.25	35.616
758.56	33.777
758.87	34.844
759.18	34.579
759.50	37.455
759.81	40.803
760.12	38.387
760.43	40.303
760.74	37.346
761.05	35.385
761.36	34.943
761.67	33.636
761.99	34.014
762.30	33.818
762.61	41.107
762.92	37.104
763.23	45.946
763.54	40.654
763.85	36.017
764.16	36.100
764.47	35.887
764.78	38.095
765.10	36.700
765.41	36.593
765.72	36.825
766.03	35.338
766.34	35.766
766.65	39.841
766.96	44.444
767.27	43.617
767.58	34.483
767.89	35.461
768.20	36.364
768.51	41.209
768.82	36.946
769.13	36.406
769.44	36.052
769.75	34.247
770.06	34.483
770.37	37.500
770.68	35.025
770.99	33.937
771.30	39.216
771.61	34.842
771.92	39.655
772.23	39.409
772.54	36.022
772.85	33.333
773.16	35.393
773.47	43.137
773.78	40.523
774.09	31.737
774.39	43.333
774.70	42.038
775.01	51.724
775.32	38.571
775.63	35.537
775.94	39.695
776.25	41.732
776.56	33.333
776.87	37.500
777.18	33.333
777.48	34.483
777.79	40.870
778.10	38.095
778.41	37.838
778.72	40.476
779.03	39.098
779.34	41.844
779.65	41.781
779.95	19.863
780.26	39.310
780.57	34.146
780.88	41.732
781.19	38.793
781.50	50.388
781.80	36.686
782.11	32.075
782.42	34.615
782.73	35.971
783.04	36.296
783.34	27.083
783.65	31.624
783.96	32.787
784.27	44.828
784.57	30.081
784.88	32.812
785.19	56.000
785.50	48.000
785.81	32.759
786.11	40.517
786.42	33.981
786.73	35.455
787.04	31.633
787.34	33.929
787.65	28.571
787.96	31.858
788.26	36.364
788.57	37.607
788.88	38.281
789.19	31.746
789.49	33.913
789.80	31.633
790.11	28.283
790.41	29.091
790.72	41.304
791.03	22.727
791.33	40.000
791.64	33.750
791.95	29.070
792.25	38.298
792.56	46.067
792.87	24.658
793.17	24.638
793.48	18.667
793.79	28.750
794.09	41.250
794.40	30.189
794.70	33.981
795.01	26.016
795.32	29.915
795.62	31.429
795.93	34.314
796.23	36.792
796.54	34.375
796.85	44.118
797.15	33.803
797.46	38.889
797.76	33.333
798.07	25.581
798.37	25.000
798.68	36.364
798.99	37.037
799.29	31.429
799.60	20.290
799.90	44.000
800.21	34.426
800.51	30.769
800.82	28.814
801.12	46.377
801.43	32.787
801.73	19.048
802.04	34.000
802.34	37.313
802.65	32.692
802.95	26.786
803.26	21.154
803.56	37.255
803.87	32.609
804.17	38.667
804.48	31.746
804.78	31.481
805.09	17.391
805.39	11.111
805.70	11.111
806.00	1.754
806.30	33.803
806.61	27.143
806.91	25.000
807.22	50.000
807.52	29.333
807.83	7.273
808.13	48.611
808.43	25.000
808.74	26.866
809.04	33.898
809.35	32.692
809.65	31.250
809.95	8.108
810.26	4.545
810.56	23.288
810.86	30.952
811.17	30.000
811.47	36.735
811.77	28.947
812.08	34.091
812.38	45.283
812.69	37.500
812.99	27.273
813.29	21.053
813.59	22.857
813.90	34.091
814.20	5.128
814.50	23.077
814.81	33.962
815.11	19.149
815.41	32.203
815.72	23.810
816.02	31.373
816.32	14.583
816.62	31.707
816.93	32.432
817.23	14.286
817.53	37.500
817.84	23.913
818.14	26.923
818.44	21.053
818.74	32.609
819.04	0.000
819.35	40.541
819.65	2.941
819.95	50.000
820.25	26.190
820.56	35.000
820.86	-24.138
821.16	27.500
821.46	19.149
821.76	30.000
822.07	11.628
822.37	-18.919
822.67	3.125
822.97	57.143
823.27	3.571
823.57	36.000
823.88	22.222
824.18	25.000
824.48	20.588
824.78	9.677
825.08	34.783
825.38	42.424
825.69	8.333
825.99	5.263
826.29	16.667
826.59	6.667
826.89	-57.143
827.19	19.565
827.49	30.000
827.79	14.286
828.09	14.286
828.39	24.242
828.70	27.027
829.00	21.429
829.30	-19.048
829.60	26.667
829.90	37.500
830.20	13.158
830.50	14.815
830.80	34.783
831.10	27.273
831.40	42.424
831.70	22.581
832.00	23.810
832.30	14.286
832.60	25.000
832.90	20.690
833.20	5.000
833.50	33.333
833.80	0.000
834.10	42.308
834.40	34.375
834.70	-33.333
835.00	0.000
835.30	65.385
835.60	13.333
835.90	3.226
836.20	40.909
836.50	7.143
836.80	-19.231
837.10	-7.143
837.40	-233.333
837.70	-36.364
838.00	9.091
838.30	39.130
838.60	-46.154
838.90	63.636
839.19	39.286
839.49	43.333
839.79	-69.231
840.09	-66.667
840.39	60.714
840.69	7.143
840.99	-11.538
841.29	-26.316
841.59	-90.000
841.88	-45.455
842.18	0.000
842.48	81.250
842.78	26.667
843.08	7.407
843.38	-90.000
843.68	34.783
843.97	6.667
844.27	20.000
844.57	20.000
844.87	-22.222
845.17	-19.048
845.47	6.667
845.76	28.571
846.06	11.765
846.36	-20.000
846.66	-14.286
846.96	33.333
847.25	-62.500
847.55	71.429
847.85	-112.500
848.15	-13.636
848.44	-333.333
848.74	0.000
849.04	29.630
849.34	54.545
849.63	-216.667
849.93	-200.000
850.23	27.778
850.53	-20.000
850.82	53.846
851.12	-33.333
851.42	13.333
851.71	15.385
852.01	14.286
852.31	-175.000
852.61	0.000
852.90	0.000
853.20	-10.526
853.50	-58.333
853.79	0.000
854.09	70.833
854.39	-31.579
854.68	-8.333
854.98	22.581
855.28	15.385
855.57	20.000
855.87	44.444
856.17	-3.704
856.46	0.000
856.76	-60.000
857.05	0.000
857.35	64.000
857.65	-5.556
857.94	76.923
858.24	55.172
858.53	44.444
858.83	7.407
859.13	22.727
859.42	13.043
859.72	-100.000
860.01	-533.333
860.31	8.000
860.60	-4.762
860.90	-266.667
861.20	0.000
861.49	-900.000
861.79	20.000
862.08	30.000
862.38	53.333
862.67	-120.000
862.97	-33.333
863.26	-66.667
863.56	11.111
863.85	-366.667
864.15	-5.556
864.44	-80.000
864.74	107.143
865.03	125.000
865.33	-60.000
865.62	66.667
865.92	-16.667
866.21	-316.667
866.51	-18.750
866.80	-63.636
867.10	-800.000
867.39	0.000
867.69	0.000
867.98	-53.846
868.27	-200.000
868.57	26.667
868.86	38.889
869.16	-53.846
869.45	20.000
869.75	-500.000
870.04	0.000
870.33	-157.143
870.63	38.095
870.92	166.667
871.22	-220.000
871.51	100.000
871.80	-11.111
872.10	633.333
>>>>>End Processed Spectral Data<<<<<
