SpectraSuite Data File
++++++++++++++++++++++++++++++++++++
Date: Fri May 15 21:05:52 PDT 2015
User: schluterlab
Dark Spectrum Present: Yes
Reference Spectrum Present: Yes
Number of Sampled Component Spectra: 1
Spectrometers: USB2E3373
Integration Time (usec): 3000 (USB2E3373)
Spectra Averaged: 3 (USB2E3373)
Boxcar Smoothing: 0 (USB2E3373)
Correct for Electrical Dark: No (USB2E3373)
Strobe/Lamp Enabled: No (USB2E3373)
Correct for Detector Non-linearity: No (USB2E3373)
Correct for Stray Light: No (USB2E3373)
Number of Pixels in Processed Spectrum: 2048
>>>>>Begin Processed Spectral Data<<<<<
178.53	0.000
178.91	0.000
179.29	-37.500
179.67	-500.000
180.04	85.714
180.42	-150.000
180.80	-900.000
181.18	100.000
181.56	250.000
181.94	-250.000
182.31	1400.000
182.69	-80.000
183.07	-400.000
183.45	80.000
183.83	150.000
184.20	-127.273
184.58	55.556
184.96	-0.000
185.34	100.000
185.72	-250.000
186.09	153.846
186.47	-1000.000
186.85	166.667
187.23	77.778
187.61	500.000
187.98	-466.667
188.36	-22.222
188.74	-133.333
189.12	-35.294
189.49	11.111
189.87	0.000
190.25	42.857
190.63	-100.000
191.00	-266.667
191.38	-5.263
191.76	50.000
192.14	100.000
192.51	0.000
192.89	-133.333
193.27	-100.000
193.65	233.333
194.02	154.545
194.40	10.000
194.78	-212.500
195.15	-100.000
195.53	-137.500
195.91	475.000
196.29	50.000
196.66	161.538
197.04	300.000
197.42	-33.333
197.79	-400.000
198.17	-146.154
198.55	1600.000
198.92	-566.667
199.30	-800.000
199.68	-80.000
200.05	233.333
200.43	0.000
200.81	-100.000
201.18	-200.000
201.56	900.000
201.94	-550.000
202.31	100.000
202.69	-220.000
203.07	275.000
203.44	0.000
203.82	0.000
204.19	21.429
204.57	-366.667
204.95	187.500
205.32	0.000
205.70	-128.571
206.08	-125.000
206.45	166.667
206.83	57.143
207.20	-142.857
207.58	1100.000
207.96	-433.333
208.33	-130.000
208.71	-275.000
209.08	-83.333
209.46	-1000.000
209.84	-120.000
210.21	-900.000
210.59	-57.143
210.96	-33.333
211.34	-275.000
211.71	26.667
212.09	-242.857
212.46	-1300.000
212.84	0.000
213.22	30.000
213.59	850.000
213.97	30.769
214.34	27.273
214.72	16.667
215.09	300.000
215.47	-30.769
215.84	-45.455
216.22	-600.000
216.59	-125.000
216.97	-250.000
217.34	-175.000
217.72	-300.000
218.09	-25.000
218.47	175.000
218.84	100.000
219.22	33.333
219.59	-160.000
219.97	366.667
220.34	250.000
220.72	-28.571
221.09	-150.000
221.47	-350.000
221.84	-900.000
222.22	-850.000
222.59	-36.364
222.97	-50.000
223.34	-200.000
223.72	7.143
224.09	47.619
224.46	17.857
224.84	600.000
225.21	-110.000
225.59	0.000
225.96	-150.000
226.34	200.000
226.71	-171.429
227.08	-66.667
227.46	112.500
227.83	-500.000
228.21	-33.333
228.58	27.273
228.95	-25.000
229.33	90.000
229.70	6.250
230.08	-12.500
230.45	-57.143
230.82	-228.571
231.20	-46.667
231.57	-14.286
231.95	-57.143
232.32	-100.000
232.69	-21.429
233.07	-266.667
233.44	-40.000
233.81	-160.000
234.19	88.889
234.56	-82.353
234.93	350.000
235.31	-100.000
235.68	-140.000
236.05	-84.615
236.43	-25.000
236.80	-23.529
237.17	-15.625
237.55	-40.000
237.92	-18.519
238.29	-2.778
238.67	-10.000
239.04	5.882
239.41	-17.073
239.79	-43.333
240.16	14.634
240.53	0.000
240.91	-13.043
241.28	9.524
241.65	7.143
242.02	13.699
242.40	10.000
242.77	20.339
243.14	-6.061
243.51	17.500
243.89	21.839
244.26	12.644
244.63	14.286
245.00	19.588
245.38	20.619
245.75	5.618
246.12	12.931
246.49	13.223
246.87	12.500
247.24	15.126
247.61	-1.754
247.98	11.382
248.36	15.000
248.73	13.158
249.10	15.584
249.47	13.291
249.84	9.804
250.22	18.824
250.59	10.458
250.96	23.005
251.33	15.116
251.70	17.059
252.08	21.827
252.45	18.317
252.82	15.075
253.19	18.894
253.56	15.888
253.94	18.468
254.31	20.000
254.68	22.368
255.05	16.535
255.42	17.031
255.79	21.622
256.16	17.899
256.54	16.791
256.91	11.787
257.28	16.729
257.65	15.356
258.02	16.312
258.39	14.478
258.76	16.484
259.14	20.598
259.51	18.123
259.88	22.337
260.25	16.340
260.62	16.319
260.99	14.576
261.36	14.726
261.73	18.987
262.10	19.453
262.47	15.644
262.85	18.495
263.22	16.923
263.59	15.888
263.96	19.876
264.33	19.394
264.70	15.179
265.07	16.667
265.44	16.147
265.81	17.797
266.18	18.579
266.55	19.280
266.92	18.394
267.29	17.232
267.66	17.647
268.03	17.801
268.40	18.799
268.77	18.717
269.14	16.787
269.51	16.195
269.88	16.209
270.25	12.245
270.62	16.585
270.99	16.880
271.36	15.648
271.73	16.901
272.10	19.221
272.47	15.839
272.84	20.050
273.21	19.026
273.58	17.349
273.95	18.993
274.32	18.476
274.69	14.253
275.06	16.518
275.43	18.141
275.80	16.336
276.17	15.632
276.54	17.773
276.91	16.667
277.28	17.904
277.65	18.388
278.02	17.872
278.39	16.849
278.76	15.094
279.13	13.071
279.50	16.597
279.87	17.279
280.23	14.409
280.60	18.324
280.97	18.182
281.34	15.385
281.71	18.480
282.08	16.973
282.45	14.481
282.82	16.795
283.19	15.087
283.56	17.148
283.92	16.319
284.29	15.577
284.66	15.698
285.03	16.896
285.40	13.800
285.77	13.884
286.14	16.968
286.51	16.421
286.87	15.722
287.24	15.838
287.61	13.933
287.98	18.070
288.35	15.945
288.72	14.886
289.08	12.500
289.45	16.872
289.82	15.734
290.19	13.311
290.56	15.266
290.93	14.983
291.29	14.484
291.66	15.118
292.03	15.789
292.40	14.516
292.77	14.354
293.13	12.987
293.50	12.747
293.87	14.198
294.24	13.447
294.60	15.052
294.97	14.583
295.34	12.730
295.71	12.668
296.08	13.154
296.44	11.380
296.81	13.611
297.18	13.913
297.55	12.060
297.91	12.329
298.28	14.380
298.65	11.805
299.02	12.668
299.38	11.218
299.75	12.414
300.12	12.435
300.48	10.408
300.85	12.674
301.22	12.468
301.59	11.579
301.95	12.658
302.32	14.008
302.69	11.940
303.05	11.139
303.42	11.831
303.79	12.967
304.15	13.023
304.52	10.583
304.89	11.111
305.25	12.228
305.62	11.085
305.99	10.526
306.35	10.405
306.72	9.899
307.09	12.657
307.45	11.711
307.82	9.838
308.19	12.311
308.55	11.668
308.92	11.547
309.29	11.173
309.65	9.688
310.02	10.451
310.38	11.526
310.75	10.820
311.12	12.056
311.48	10.817
311.85	11.414
312.22	10.338
312.58	11.571
312.95	10.139
313.31	11.594
313.68	11.518
314.05	10.000
314.41	10.412
314.78	10.619
315.14	11.614
315.51	10.455
315.87	10.348
316.24	12.336
316.61	11.614
316.97	11.111
317.34	11.816
317.70	10.516
318.07	10.577
318.43	11.569
318.80	10.795
319.16	10.645
319.53	11.681
319.89	11.122
320.26	11.032
320.62	10.933
320.99	10.647
321.35	11.100
321.72	11.734
322.08	12.991
322.45	12.690
322.81	12.475
323.18	12.071
323.54	12.162
323.91	10.516
324.27	12.207
324.64	13.202
325.00	13.686
325.37	14.692
325.73	13.055
326.10	15.350
326.46	16.323
326.83	16.448
327.19	15.780
327.56	17.984
327.92	16.637
328.29	15.982
328.65	17.170
329.01	17.739
329.38	17.972
329.74	17.280
330.11	18.906
330.47	18.275
330.84	18.750
331.20	20.437
331.56	18.426
331.93	21.096
332.29	20.532
332.66	19.095
333.02	20.725
333.38	20.623
333.75	22.253
334.11	19.875
334.48	22.756
334.84	22.894
335.20	22.141
335.57	21.487
335.93	22.584
336.29	22.652
336.66	22.888
337.02	22.491
337.38	21.944
337.75	23.545
338.11	22.633
338.47	23.723
338.84	24.492
339.20	24.497
339.56	23.486
339.93	22.739
340.29	24.128
340.65	25.358
341.02	23.759
341.38	23.894
341.74	24.558
342.11	23.744
342.47	25.445
342.83	26.125
343.20	24.042
343.56	24.870
343.92	24.978
344.28	24.936
344.65	24.007
345.01	23.682
345.37	23.549
345.73	26.109
346.10	25.280
346.46	24.138
346.82	25.532
347.19	25.270
347.55	25.480
347.91	24.838
348.27	24.818
348.63	25.383
349.00	24.364
349.36	24.938
349.72	26.119
350.08	23.934
350.45	25.619
350.81	25.581
351.17	24.674
351.53	25.714
351.89	23.947
352.26	25.120
352.62	24.839
352.98	25.221
353.34	24.960
353.70	26.214
354.07	24.758
354.43	25.620
354.79	26.342
355.15	26.667
355.51	25.633
355.87	27.023
356.24	23.980
356.60	25.061
356.96	26.190
357.32	26.837
357.68	25.723
358.04	25.767
358.40	26.045
358.77	26.156
359.13	26.741
359.49	25.886
359.85	26.287
360.21	25.997
360.57	26.549
360.93	25.643
361.29	25.604
361.66	27.351
362.02	27.045
362.38	27.723
362.74	26.268
363.10	27.916
363.46	26.390
363.82	28.024
364.18	25.830
364.54	26.471
364.90	26.380
365.26	27.147
365.62	27.883
365.98	27.493
366.35	27.749
366.71	27.716
367.07	28.012
367.43	28.109
367.79	27.774
368.15	27.782
368.51	27.677
368.87	28.141
369.23	27.292
369.59	28.644
369.95	28.372
370.31	27.818
370.67	28.731
371.03	27.110
371.39	29.103
371.75	28.718
372.11	27.675
372.47	28.328
372.83	28.389
373.19	28.031
373.55	27.870
373.91	28.366
374.27	29.624
374.63	29.505
374.99	28.369
375.35	29.248
375.71	29.580
376.07	28.230
376.42	28.707
376.78	28.926
377.14	28.368
377.50	29.681
377.86	28.849
378.22	29.930
378.58	29.423
378.94	29.679
379.30	30.193
379.66	31.034
380.02	29.246
380.38	28.971
380.74	29.503
381.09	29.387
381.45	30.092
381.81	30.845
382.17	30.711
382.53	28.919
382.89	31.073
383.25	30.865
383.61	30.488
383.97	30.730
384.32	31.082
384.68	30.960
385.04	30.576
385.40	30.492
385.76	31.384
386.12	31.177
386.48	31.098
386.83	30.755
387.19	31.990
387.55	32.058
387.91	30.929
388.27	30.525
388.62	30.711
388.98	31.492
389.34	32.480
389.70	32.132
390.06	31.340
390.42	31.088
390.77	32.505
391.13	32.282
391.49	31.953
391.85	31.904
392.20	31.952
392.56	32.549
392.92	32.061
393.28	32.370
393.64	32.312
393.99	32.727
394.35	32.574
394.71	33.269
395.07	32.307
395.42	32.362
395.78	32.508
396.14	32.472
396.50	33.228
396.85	33.033
397.21	32.957
397.57	32.038
397.92	32.415
398.28	33.103
398.64	32.470
399.00	32.901
399.35	32.506
399.71	32.970
400.07	33.736
400.42	32.619
400.78	33.313
401.14	34.120
401.49	33.889
401.85	33.029
402.21	33.916
402.57	33.250
402.92	32.748
403.28	34.712
403.63	33.985
403.99	33.673
404.35	34.291
404.70	32.857
405.06	32.080
405.42	34.058
405.77	33.062
406.13	33.586
406.49	34.577
406.84	34.046
407.20	34.979
407.55	33.226
407.91	33.489
408.27	34.162
408.62	34.154
408.98	33.826
409.34	35.006
409.69	32.752
410.05	33.682
410.40	34.259
410.76	35.223
411.11	34.688
411.47	34.122
411.83	34.526
412.18	34.427
412.54	34.145
412.89	33.867
413.25	35.018
413.60	34.099
413.96	33.926
414.31	34.329
414.67	34.702
415.03	33.955
415.38	34.138
415.74	35.309
416.09	34.618
416.45	34.909
416.80	34.435
417.16	36.464
417.51	36.309
417.87	35.398
418.22	36.658
418.58	35.853
418.93	36.364
419.29	33.675
419.64	35.386
420.00	37.406
420.35	35.761
420.71	36.209
421.06	36.955
421.42	36.238
421.77	35.954
422.12	35.698
422.48	35.679
422.83	36.485
423.19	36.512
423.54	36.449
423.90	35.807
424.25	36.739
424.61	36.659
424.96	37.108
425.31	37.377
425.67	37.207
426.02	38.398
426.38	36.694
426.73	38.801
427.09	37.848
427.44	38.294
427.79	37.301
428.15	37.075
428.50	37.190
428.85	36.671
429.21	38.427
429.56	37.898
429.92	38.007
430.27	37.644
430.62	37.585
430.98	38.376
431.33	38.381
431.68	38.305
432.04	38.681
432.39	37.707
432.74	37.943
433.10	38.851
433.45	38.710
433.80	38.886
434.16	38.283
434.51	38.441
434.86	39.082
435.22	40.045
435.57	39.052
435.92	40.060
436.28	39.475
436.63	39.703
436.98	39.397
437.34	40.290
437.69	40.608
438.04	40.171
438.39	39.157
438.75	41.166
439.10	39.615
439.45	40.536
439.81	39.450
440.16	41.865
440.51	40.179
440.86	40.906
441.22	40.385
441.57	40.949
441.92	42.550
442.27	41.463
442.63	41.435
442.98	40.724
443.33	41.235
443.68	40.690
444.03	41.331
444.39	40.138
444.74	41.862
445.09	41.815
445.44	41.880
445.79	42.135
446.15	41.520
446.50	40.765
446.85	42.455
447.20	41.658
447.55	41.406
447.91	41.286
448.26	41.890
448.61	41.451
448.96	42.111
449.31	42.948
449.66	41.521
450.02	42.670
450.37	42.442
450.72	42.841
451.07	42.089
451.42	42.572
451.77	42.616
452.12	41.746
452.47	42.692
452.83	42.285
453.18	41.872
453.53	42.478
453.88	43.230
454.23	42.840
454.58	43.010
454.93	43.557
455.28	41.968
455.63	42.467
455.98	43.716
456.34	43.167
456.69	43.583
457.04	43.793
457.39	43.864
457.74	42.382
458.09	42.554
458.44	42.774
458.79	41.737
459.14	43.650
459.49	43.701
459.84	43.880
460.19	42.961
460.54	43.032
460.89	43.182
461.24	44.224
461.59	42.933
461.94	42.893
462.29	44.150
462.64	44.983
462.99	43.466
463.34	42.907
463.69	42.407
464.04	42.676
464.39	44.572
464.74	43.558
465.09	44.167
465.44	43.739
465.79	43.141
466.14	43.387
466.49	42.956
466.84	44.259
467.19	43.367
467.54	42.976
467.89	43.083
468.24	44.221
468.59	43.556
468.94	44.063
469.29	44.262
469.64	43.199
469.99	45.830
470.34	43.208
470.68	44.817
471.03	44.232
471.38	44.508
471.73	44.678
472.08	43.148
472.43	43.893
472.78	44.208
473.13	44.558
473.48	44.365
473.83	42.341
474.17	43.977
474.52	44.097
474.87	44.061
475.22	44.356
475.57	43.930
475.92	44.871
476.27	44.354
476.61	44.965
476.96	43.224
477.31	44.240
477.66	44.213
478.01	44.357
478.36	44.118
478.70	44.589
479.05	44.066
479.40	43.667
479.75	43.691
480.10	43.984
480.45	44.400
480.79	45.468
481.14	45.184
481.49	44.039
481.84	44.305
482.19	43.826
482.53	43.165
482.88	43.914
483.23	43.858
483.58	43.443
483.92	43.369
484.27	43.437
484.62	43.568
484.97	43.615
485.31	42.955
485.66	41.617
486.01	41.721
486.36	41.813
486.70	42.090
487.05	42.908
487.40	42.865
487.75	43.099
488.09	42.923
488.44	43.226
488.79	43.967
489.13	43.670
489.48	43.908
489.83	44.439
490.17	43.640
490.52	43.788
490.87	43.869
491.22	44.938
491.56	43.975
491.91	43.021
492.26	44.823
492.60	43.426
492.95	44.466
493.30	44.064
493.64	44.155
493.99	43.671
494.34	44.175
494.68	43.857
495.03	43.552
495.37	44.897
495.72	45.634
496.07	45.317
496.41	43.821
496.76	44.081
497.11	43.037
497.45	44.200
497.80	44.652
498.14	43.467
498.49	44.744
498.84	43.164
499.18	44.378
499.53	44.792
499.87	43.677
500.22	44.906
500.56	45.638
500.91	45.080
501.26	43.450
501.60	44.319
501.95	44.202
502.29	44.068
502.64	45.125
502.98	44.894
503.33	43.516
503.67	43.133
504.02	43.842
504.36	44.879
504.71	43.485
505.06	44.540
505.40	43.959
505.75	44.330
506.09	43.893
506.44	44.302
506.78	43.980
507.13	44.002
507.47	43.081
507.82	43.910
508.16	43.001
508.51	44.386
508.85	43.904
509.19	44.918
509.54	45.898
509.88	44.175
510.23	45.239
510.57	44.522
510.92	41.898
511.26	44.463
511.61	44.774
511.95	45.041
512.30	44.568
512.64	43.684
512.98	44.975
513.33	45.104
513.67	44.912
514.02	44.050
514.36	46.229
514.70	45.862
515.05	44.477
515.39	45.159
515.74	47.066
516.08	45.786
516.42	45.819
516.77	45.933
517.11	45.223
517.46	46.499
517.80	45.471
518.14	45.989
518.49	45.072
518.83	44.654
519.17	44.512
519.52	44.287
519.86	45.318
520.20	46.476
520.55	44.215
520.89	45.609
521.23	45.218
521.58	46.120
521.92	46.154
522.26	45.738
522.61	46.039
522.95	47.815
523.29	45.172
523.64	45.934
523.98	46.468
524.32	44.845
524.66	45.903
525.01	46.299
525.35	45.755
525.69	46.465
526.04	45.370
526.38	46.109
526.72	44.408
527.06	45.460
527.41	46.768
527.75	45.643
528.09	45.382
528.43	45.982
528.78	44.554
529.12	45.097
529.46	44.250
529.80	44.142
530.15	45.611
530.49	45.859
530.83	46.101
531.17	44.258
531.51	47.059
531.86	44.052
532.20	45.442
532.54	45.337
532.88	45.311
533.22	46.640
533.57	45.020
533.91	45.496
534.25	46.029
534.59	45.029
534.93	43.612
535.27	44.480
535.62	44.459
535.96	44.553
536.30	45.449
536.64	46.382
536.98	45.505
537.32	46.017
537.66	45.582
538.01	45.035
538.35	44.591
538.69	44.075
539.03	43.336
539.37	45.357
539.71	43.899
540.05	44.263
540.39	44.391
540.73	44.003
541.07	45.511
541.42	44.960
541.76	44.391
542.10	44.253
542.44	43.155
542.78	42.808
543.12	44.712
543.46	44.089
543.80	44.761
544.14	42.123
544.48	44.570
544.82	43.609
545.16	45.560
545.50	44.927
545.84	44.901
546.18	44.043
546.52	44.124
546.86	44.357
547.20	45.279
547.54	43.322
547.88	43.750
548.22	42.078
548.56	43.074
548.90	43.396
549.24	44.215
549.58	44.358
549.92	43.746
550.26	43.150
550.60	44.312
550.94	43.988
551.28	44.900
551.62	44.846
551.96	44.286
552.30	43.567
552.64	42.595
552.98	43.390
553.32	43.509
553.66	43.469
554.00	44.161
554.34	43.279
554.68	43.363
555.02	44.345
555.36	42.558
555.69	42.564
556.03	42.398
556.37	43.701
556.71	42.816
557.05	42.878
557.39	42.156
557.73	43.103
558.07	44.193
558.41	44.257
558.75	43.414
559.08	43.499
559.42	43.492
559.76	43.795
560.10	42.278
560.44	43.485
560.78	42.028
561.12	42.877
561.45	43.781
561.79	43.557
562.13	42.796
562.47	42.158
562.81	41.859
563.15	42.525
563.48	42.433
563.82	43.583
564.16	42.409
564.50	41.419
564.84	41.700
565.17	41.315
565.51	43.443
565.85	42.524
566.19	41.645
566.52	41.086
566.86	41.774
567.20	41.719
567.54	41.727
567.88	43.175
568.21	41.629
568.55	41.087
568.89	42.043
569.23	40.684
569.56	39.974
569.90	40.479
570.24	39.263
570.57	39.455
570.91	40.119
571.25	38.573
571.59	38.181
571.92	37.867
572.26	38.768
572.60	37.891
572.93	38.061
573.27	38.025
573.61	37.530
573.95	37.957
574.28	37.447
574.62	37.249
574.96	37.073
575.29	36.774
575.63	35.968
575.97	36.893
576.30	37.026
576.64	36.848
576.98	37.658
577.31	37.208
577.65	37.271
577.98	37.384
578.32	36.475
578.66	36.278
578.99	36.336
579.33	36.323
579.67	36.437
580.00	36.886
580.34	36.443
580.67	36.375
581.01	37.056
581.35	36.972
581.68	36.331
582.02	36.410
582.35	36.063
582.69	35.840
583.02	36.018
583.36	36.622
583.70	36.526
584.03	37.003
584.37	37.436
584.70	36.456
585.04	36.140
585.37	35.946
585.71	36.040
586.04	35.855
586.38	36.356
586.72	36.901
587.05	36.540
587.39	36.567
587.72	36.905
588.06	36.701
588.39	36.827
588.73	36.996
589.06	37.378
589.40	36.813
589.73	37.605
590.07	36.896
590.40	36.184
590.73	37.521
591.07	36.684
591.40	37.177
591.74	37.285
592.07	38.404
592.41	37.367
592.74	36.479
593.08	35.243
593.41	35.881
593.75	36.277
594.08	35.290
594.41	36.099
594.75	35.802
595.08	35.982
595.42	35.591
595.75	36.200
596.09	36.435
596.42	36.461
596.75	36.323
597.09	37.267
597.42	36.902
597.75	36.464
598.09	35.038
598.42	34.838
598.76	35.264
599.09	35.417
599.42	35.279
599.76	34.575
600.09	35.407
600.42	34.723
600.76	34.175
601.09	34.389
601.42	34.822
601.76	35.728
602.09	35.644
602.42	36.226
602.76	35.866
603.09	36.088
603.42	36.706
603.76	34.919
604.09	35.318
604.42	35.195
604.76	35.425
605.09	35.146
605.42	35.124
605.75	35.683
606.09	35.584
606.42	34.696
606.75	34.805
607.09	34.242
607.42	34.869
607.75	33.925
608.08	33.917
608.42	34.765
608.75	34.988
609.08	35.027
609.41	35.482
609.75	35.131
610.08	34.848
610.41	35.604
610.74	33.837
611.07	34.625
611.41	35.288
611.74	35.661
612.07	34.690
612.40	35.503
612.73	35.085
613.07	34.139
613.40	34.300
613.73	34.359
614.06	34.001
614.39	34.461
614.72	33.950
615.06	34.804
615.39	33.297
615.72	32.939
616.05	34.134
616.38	33.732
616.71	34.557
617.05	34.157
617.38	35.072
617.71	34.088
618.04	36.063
618.37	35.561
618.70	34.851
619.03	36.042
619.36	33.502
619.69	35.785
620.03	35.939
620.36	35.122
620.69	34.475
621.02	35.398
621.35	35.436
621.68	35.119
622.01	35.000
622.34	34.717
622.67	34.779
623.00	34.992
623.33	33.537
623.66	34.705
623.99	34.039
624.32	35.285
624.65	33.459
624.99	34.462
625.32	34.723
625.65	35.742
625.98	35.375
626.31	35.245
626.64	33.882
626.97	34.642
627.30	34.939
627.63	34.055
627.96	36.388
628.29	35.523
628.62	36.578
628.95	35.271
629.28	36.492
629.61	35.494
629.94	36.461
630.26	36.067
630.59	37.253
630.92	35.282
631.25	34.256
631.58	36.013
631.91	34.978
632.24	35.206
632.57	36.705
632.90	35.706
633.23	36.235
633.56	37.028
633.89	35.758
634.22	38.765
634.55	36.976
634.88	34.866
635.20	35.256
635.53	36.000
635.86	34.980
636.19	37.128
636.52	34.821
636.85	34.739
637.18	34.214
637.51	35.220
637.83	35.085
638.16	36.562
638.49	35.695
638.82	36.579
639.15	37.313
639.48	37.276
639.81	35.286
640.13	35.354
640.46	34.694
640.79	36.672
641.12	33.530
641.45	33.934
641.77	35.852
642.10	38.863
642.43	36.495
642.76	36.469
643.09	37.157
643.41	34.628
643.74	36.244
644.07	36.617
644.40	38.007
644.73	36.602
645.05	36.913
645.38	36.155
645.71	34.220
646.04	37.343
646.36	37.411
646.69	35.971
647.02	35.350
647.35	38.806
647.67	35.649
648.00	37.500
648.33	36.007
648.66	33.729
648.98	34.673
649.31	34.876
649.64	33.281
649.96	31.118
650.29	35.264
650.62	35.726
650.94	33.519
651.27	35.382
651.60	35.676
651.92	35.839
652.25	34.458
652.58	34.167
652.90	36.192
653.23	31.765
653.56	33.333
653.88	31.959
654.21	32.925
654.54	32.767
654.86	33.956
655.19	31.140
655.52	32.972
655.84	28.745
656.17	31.466
656.49	42.070
656.82	43.373
657.15	33.561
657.47	25.049
657.80	18.507
658.13	18.145
658.45	27.909
658.78	28.240
659.10	28.339
659.43	28.825
659.75	30.143
660.08	30.138
660.41	32.789
660.73	29.558
661.06	32.756
661.38	31.703
661.71	31.006
662.03	35.837
662.36	35.604
662.68	33.186
663.01	35.153
663.33	34.803
663.66	32.791
663.98	33.256
664.31	33.049
664.63	32.719
664.96	30.435
665.28	33.333
665.61	31.818
665.93	35.870
666.26	37.093
666.58	30.649
666.91	31.765
667.23	35.849
667.56	36.493
667.88	33.094
668.21	33.890
668.53	34.515
668.86	33.726
669.18	33.726
669.50	31.477
669.83	31.395
670.15	34.033
670.48	33.732
670.80	31.336
671.13	29.530
671.45	32.420
671.77	33.262
672.10	34.455
672.42	31.648
672.75	32.149
673.07	32.379
673.39	31.743
673.72	30.375
674.04	32.500
674.37	33.263
674.69	29.550
675.01	33.111
675.34	32.658
675.66	31.944
675.98	31.929
676.31	31.193
676.63	33.729
676.95	31.364
677.28	35.294
677.60	30.843
677.92	33.486
678.25	31.510
678.57	31.602
678.89	31.303
679.22	31.096
679.54	30.924
679.86	28.628
680.18	29.903
680.51	28.977
680.83	27.833
681.15	28.600
681.48	32.582
681.80	30.372
682.12	29.839
682.44	29.289
682.77	31.347
683.09	31.121
683.41	32.273
683.73	31.797
684.06	29.425
684.38	26.237
684.70	31.808
685.02	29.253
685.34	28.261
685.67	28.705
685.99	26.401
686.31	30.442
686.63	28.386
686.96	28.517
687.28	26.869
687.60	27.376
687.92	31.515
688.24	27.419
688.56	27.948
688.89	28.795
689.21	32.889
689.53	26.682
689.85	30.233
690.17	29.911
690.49	28.132
690.82	30.583
691.14	28.333
691.46	29.439
691.78	28.153
692.10	30.108
692.42	29.221
692.74	26.709
693.06	27.027
693.39	26.923
693.71	30.090
694.03	27.483
694.35	28.271
694.67	31.566
694.99	26.632
695.31	28.460
695.63	30.250
695.95	29.040
696.27	28.756
696.59	30.833
696.91	30.812
697.23	28.021
697.56	28.713
697.88	29.892
698.20	27.107
698.52	27.294
698.84	28.947
699.16	28.250
699.48	27.820
699.80	28.040
700.12	29.111
700.44	28.852
700.76	23.837
701.08	25.152
701.40	29.217
701.72	28.704
702.04	28.713
702.36	30.435
702.68	28.228
703.00	29.091
703.32	32.845
703.64	24.576
703.96	26.087
704.28	27.607
704.60	28.889
704.91	21.451
705.23	30.233
705.55	30.035
705.87	29.964
706.19	28.889
706.51	27.148
706.83	27.974
707.15	23.053
707.47	27.451
707.79	25.521
708.11	25.500
708.43	25.750
708.74	28.682
709.06	24.789
709.38	29.052
709.70	28.402
710.02	25.796
710.34	31.889
710.66	26.603
710.98	24.172
711.29	28.197
711.61	24.407
711.93	31.270
712.25	32.990
712.57	27.839
712.89	25.000
713.20	29.066
713.52	26.132
713.84	26.621
714.16	29.553
714.48	28.387
714.80	28.846
715.11	27.052
715.43	26.959
715.75	27.000
716.07	26.578
716.39	26.174
716.70	24.354
717.02	28.626
717.34	30.769
717.66	31.416
717.97	23.043
718.29	25.105
718.61	27.953
718.93	25.969
719.24	26.996
719.56	26.104
719.88	25.430
720.20	30.303
720.51	26.437
720.83	33.591
721.15	26.891
721.46	29.435
721.78	24.506
722.10	23.792
722.42	23.237
722.73	26.531
723.05	32.653
723.37	29.237
723.68	30.631
724.00	28.205
724.32	26.667
724.63	31.364
724.95	29.694
725.27	22.581
725.58	30.508
725.90	23.810
726.22	23.552
726.53	26.441
726.85	25.843
727.16	30.566
727.48	21.457
727.80	22.672
728.11	26.695
728.43	22.745
728.74	18.548
729.06	29.200
729.38	24.812
729.69	25.896
730.01	23.846
730.32	27.239
730.64	27.915
730.96	25.283
731.27	24.667
731.59	18.644
731.90	25.159
732.22	26.183
732.53	26.246
732.85	29.433
733.16	27.273
733.48	21.583
733.80	21.377
734.11	26.441
734.43	24.742
734.74	25.152
735.06	25.407
735.37	22.356
735.69	23.232
736.00	21.951
736.32	22.483
736.63	21.831
736.95	25.939
737.26	22.064
737.58	22.483
737.89	24.176
738.21	25.188
738.52	25.926
738.83	27.948
739.15	17.467
739.46	25.197
739.78	23.810
740.09	22.876
740.41	24.638
740.72	22.441
741.04	20.243
741.35	19.574
741.66	22.749
741.98	27.041
742.29	20.297
742.61	23.560
742.92	20.379
743.23	24.074
743.55	26.697
743.86	21.531
744.18	17.703
744.49	21.277
744.80	20.109
745.12	29.947
745.43	24.390
745.74	25.000
746.06	25.854
746.37	28.272
746.68	28.436
747.00	24.468
747.31	29.353
747.62	19.417
747.94	25.837
748.25	21.287
748.56	24.044
748.88	25.654
749.19	30.851
749.50	24.631
749.82	17.453
750.13	24.771
750.44	27.068
750.75	31.343
751.07	31.022
751.38	20.690
751.69	21.569
752.01	27.907
752.32	22.311
752.63	22.925
752.94	21.121
753.26	30.126
753.57	24.887
753.88	27.434
754.19	17.500
754.51	21.901
754.82	22.267
755.13	29.583
755.44	21.774
755.75	25.391
756.07	20.623
756.38	21.132
756.69	24.521
757.00	19.667
757.31	19.935
757.63	21.646
757.94	21.389
758.25	20.000
758.56	19.149
758.87	17.847
759.18	22.430
759.50	18.545
759.81	21.405
760.12	26.452
760.43	20.303
760.74	20.062
761.05	20.923
761.36	19.602
761.67	23.939
761.99	23.469
762.30	20.000
762.61	21.344
762.92	19.910
763.23	23.874
763.54	20.561
763.85	25.424
764.16	17.842
764.47	18.548
764.78	21.245
765.10	25.253
765.41	20.505
765.72	18.413
766.03	15.414
766.34	25.182
766.65	24.701
766.96	16.667
767.27	20.213
767.58	13.218
767.89	14.894
768.20	15.341
768.51	21.978
768.82	17.241
769.13	19.816
769.44	23.605
769.75	19.635
770.06	25.862
770.37	17.788
770.68	14.721
770.99	18.552
771.30	26.961
771.61	22.624
771.92	25.000
772.23	22.167
772.54	24.194
772.85	25.926
773.16	19.101
773.47	24.837
773.78	28.105
774.09	21.557
774.39	18.667
774.70	23.567
775.01	24.138
775.32	21.429
775.63	16.529
775.94	16.031
776.25	21.260
776.56	28.333
776.87	16.346
777.18	22.222
777.48	16.379
777.79	25.217
778.10	17.143
778.41	23.423
778.72	17.460
779.03	19.549
779.34	22.695
779.65	26.027
779.95	19.863
780.26	19.310
780.57	10.569
780.88	18.110
781.19	20.690
781.50	20.930
781.80	21.302
782.11	15.723
782.42	22.308
782.73	8.633
783.04	26.667
783.34	27.778
783.65	4.274
783.96	10.656
784.27	15.862
784.57	13.821
784.88	18.750
785.19	16.000
785.50	33.000
785.81	15.517
786.11	7.759
786.42	13.592
786.73	20.909
787.04	20.408
787.34	20.536
787.65	19.048
787.96	15.929
788.26	22.727
788.57	23.077
788.88	18.750
789.19	23.016
789.49	17.391
789.80	8.163
790.11	18.182
790.41	14.545
790.72	20.652
791.03	22.727
791.33	25.000
791.64	-1.250
791.95	4.651
792.25	22.340
792.56	19.101
792.87	16.438
793.17	7.246
793.48	8.000
793.79	13.750
794.09	25.000
794.40	8.491
794.70	7.767
795.01	14.634
795.32	9.402
795.62	14.286
795.93	18.627
796.23	30.189
796.54	15.625
796.85	32.353
797.15	19.718
797.46	18.056
797.76	28.788
798.07	22.093
798.37	14.474
798.68	9.091
798.99	14.815
799.29	17.143
799.60	13.043
799.90	21.333
800.21	9.836
800.51	12.308
800.82	22.034
801.12	20.290
801.43	11.475
801.73	31.746
802.04	-2.000
802.34	13.433
802.65	40.385
802.95	5.357
803.26	9.615
803.56	7.843
803.87	-8.696
804.17	16.000
804.48	26.984
804.78	-1.852
805.09	10.870
805.39	20.000
805.70	24.074
806.00	17.544
806.30	9.859
806.61	8.571
806.91	2.778
807.22	36.842
807.52	16.000
807.83	12.727
808.13	20.833
808.43	23.529
808.74	14.925
809.04	-3.390
809.35	-5.769
809.65	14.062
809.95	-16.216
810.26	2.273
810.56	21.918
810.86	9.524
811.17	12.000
811.47	8.163
811.77	10.526
812.08	20.455
812.38	22.642
812.69	10.000
812.99	12.121
813.29	28.947
813.59	-17.143
813.90	2.273
814.20	-38.462
814.50	11.538
814.81	-7.547
815.11	-4.255
815.41	27.119
815.72	16.667
816.02	11.765
816.32	12.500
816.62	-4.878
816.93	10.811
817.23	-14.286
817.53	25.000
817.84	6.522
818.14	13.462
818.44	-13.158
818.74	13.043
819.04	-17.500
819.35	16.216
819.65	0.000
819.95	0.000
820.25	0.000
820.56	30.000
820.86	-37.931
821.16	20.000
821.46	17.021
821.76	20.000
822.07	6.977
822.37	-16.216
822.67	3.125
822.97	30.952
823.27	-35.714
823.57	-4.000
823.88	-44.444
824.18	39.286
824.48	20.588
824.78	-3.226
825.08	-13.043
825.38	-12.121
825.69	-12.500
825.99	-15.789
826.29	5.556
826.59	-66.667
826.89	-14.286
827.19	-4.348
827.49	25.000
827.79	-17.143
828.09	-7.143
828.39	18.182
828.70	16.216
829.00	-25.000
829.30	-14.286
829.60	20.000
829.90	31.250
830.20	15.789
830.50	-11.111
830.80	-21.739
831.10	0.000
831.40	21.212
831.70	25.806
832.00	23.810
832.30	-52.381
832.60	-16.667
832.90	10.345
833.20	-35.000
833.50	42.424
833.80	0.000
834.10	-53.846
834.40	18.750
834.70	-88.889
835.00	10.526
835.30	42.308
835.60	-20.000
835.90	-22.581
836.20	22.727
836.50	17.857
836.80	-23.077
837.10	21.429
837.40	-266.667
837.70	-13.636
838.00	-63.636
838.30	13.043
838.60	-69.231
838.90	36.364
839.19	7.143
839.49	33.333
839.79	15.385
840.09	-66.667
840.39	32.143
840.69	14.286
840.99	-50.000
841.29	-15.789
841.59	-100.000
841.88	72.727
842.18	10.000
842.48	6.250
842.78	0.000
843.08	-33.333
843.38	-80.000
843.68	21.739
843.97	6.667
844.27	-126.667
844.57	-40.000
844.87	50.000
845.17	14.286
845.47	40.000
845.76	-47.619
846.06	-35.294
846.36	-50.000
846.66	-50.000
846.96	-53.333
847.25	-137.500
847.55	71.429
847.85	-137.500
848.15	-27.273
848.44	-200.000
848.74	0.000
849.04	48.148
849.34	-18.182
849.63	-133.333
849.93	-160.000
850.23	-55.556
850.53	70.000
850.82	69.231
851.12	0.000
851.42	-93.333
851.71	-19.231
852.01	0.000
852.31	-450.000
852.61	-100.000
852.90	-55.000
853.20	-31.579
853.50	-58.333
853.79	0.000
854.09	12.500
854.39	26.316
854.68	-4.167
854.98	32.258
855.28	26.923
855.57	-20.000
855.87	11.111
856.17	22.222
856.46	-14.286
856.76	13.333
857.05	-11.111
857.35	28.000
857.65	0.000
857.94	-30.769
858.24	41.379
858.53	50.000
858.83	14.815
859.13	-4.545
859.42	-26.087
859.72	-125.000
860.01	-400.000
860.31	16.000
860.60	-61.905
860.90	-233.333
861.20	-60.000
861.49	-550.000
861.79	-33.333
862.08	10.000
862.38	53.333
862.67	-80.000
862.97	-250.000
863.26	-33.333
863.56	33.333
863.85	-300.000
864.15	-5.556
864.44	-50.000
864.74	-21.429
865.03	375.000
865.33	-140.000
865.62	-183.333
865.92	-91.667
866.21	-300.000
866.51	31.250
866.80	-27.273
867.10	-400.000
867.39	108.333
867.69	0.000
867.98	15.385
868.27	-466.667
868.57	-40.000
868.86	5.556
869.16	-100.000
869.45	20.000
869.75	-1200.000
870.04	0.000
870.33	-100.000
870.63	23.810
870.92	533.333
871.22	-240.000
871.51	-1000.000
871.80	0.000
872.10	666.667
>>>>>End Processed Spectral Data<<<<<
