SpectraSuite Data File
++++++++++++++++++++++++++++++++++++
Date: Fri May 15 20:41:38 PDT 2015
User: schluterlab
Dark Spectrum Present: Yes
Reference Spectrum Present: Yes
Number of Sampled Component Spectra: 1
Spectrometers: USB2E3373
Integration Time (usec): 3000 (USB2E3373)
Spectra Averaged: 3 (USB2E3373)
Boxcar Smoothing: 0 (USB2E3373)
Correct for Electrical Dark: No (USB2E3373)
Strobe/Lamp Enabled: No (USB2E3373)
Correct for Detector Non-linearity: No (USB2E3373)
Correct for Stray Light: No (USB2E3373)
Number of Pixels in Processed Spectrum: 2048
>>>>>Begin Processed Spectral Data<<<<<
178.53	0.000
178.91	0.000
179.29	50.000
179.67	-200.000
180.04	-114.286
180.42	-50.000
180.80	-500.000
181.18	133.333
181.56	100.000
181.94	-50.000
182.31	700.000
182.69	120.000
183.07	-33.333
183.45	-100.000
183.83	33.333
184.20	-63.636
184.58	122.222
184.96	-175.000
185.34	366.667
185.72	-450.000
186.09	92.308
186.47	-100.000
186.85	166.667
187.23	44.444
187.61	-500.000
187.98	-600.000
188.36	-88.889
188.74	-66.667
189.12	11.765
189.49	38.889
189.87	0.000
190.25	28.571
190.63	450.000
191.00	33.333
191.38	26.316
191.76	-150.000
192.14	-25.000
192.51	-150.000
192.89	-77.778
193.27	-85.714
193.65	150.000
194.02	127.273
194.40	20.000
194.78	-112.500
195.15	-50.000
195.53	25.000
195.91	400.000
196.29	-150.000
196.66	38.462
197.04	-0.000
197.42	11.111
197.79	-366.667
198.17	-76.923
198.55	600.000
198.92	-500.000
199.30	-500.000
199.68	-180.000
200.05	-400.000
200.43	0.000
200.81	-66.667
201.18	-33.333
201.56	600.000
201.94	-600.000
202.31	-0.000
202.69	-260.000
203.07	175.000
203.44	0.000
203.82	0.000
204.19	85.714
204.57	0.000
204.95	100.000
205.32	-50.000
205.70	42.857
206.08	150.000
206.45	155.556
206.83	42.857
207.20	-128.571
207.58	400.000
207.96	-300.000
208.33	-90.000
208.71	125.000
209.08	-166.667
209.46	-100.000
209.84	40.000
210.21	-100.000
210.59	100.000
210.96	150.000
211.34	-100.000
211.71	-20.000
212.09	-28.571
212.46	-1500.000
212.84	0.000
213.22	-40.000
213.59	650.000
213.97	69.231
214.34	0.000
214.72	-166.667
215.09	475.000
215.47	7.692
215.84	-9.091
216.22	-200.000
216.59	-162.500
216.97	150.000
217.34	75.000
217.72	-260.000
218.09	-100.000
218.47	100.000
218.84	200.000
219.22	-33.333
219.59	0.000
219.97	466.667
220.34	25.000
220.72	42.857
221.09	-175.000
221.47	50.000
221.84	-800.000
222.22	-850.000
222.59	145.455
222.97	0.000
223.34	-100.000
223.72	-21.429
224.09	28.571
224.46	39.286
224.84	200.000
225.21	60.000
225.59	40.000
225.96	-50.000
226.34	50.000
226.71	-14.286
227.08	-66.667
227.46	-137.500
227.83	-800.000
228.21	-11.111
228.58	-18.182
228.95	-25.000
229.33	20.000
229.70	6.250
230.08	-37.500
230.45	-71.429
230.82	28.571
231.20	6.667
231.57	35.714
231.95	-28.571
232.32	10.000
232.69	42.857
233.07	-100.000
233.44	40.000
233.81	50.000
234.19	-11.111
234.56	-5.882
234.93	150.000
235.31	150.000
235.68	-240.000
236.05	-46.154
236.43	15.000
236.80	76.471
237.17	6.250
237.55	0.000
237.92	-29.630
238.29	27.778
238.67	13.333
239.04	14.706
239.41	-12.195
239.79	40.000
240.16	34.146
240.53	26.316
240.91	15.217
241.28	26.984
241.65	30.357
242.02	39.726
242.40	31.667
242.77	40.678
243.14	15.152
243.51	32.500
243.89	31.034
244.26	20.690
244.63	30.952
245.00	27.835
245.38	37.113
245.75	25.843
246.12	27.586
246.49	24.793
246.87	32.692
247.24	30.252
247.61	20.175
247.98	29.268
248.36	29.375
248.73	27.632
249.10	30.519
249.47	31.013
249.84	31.373
250.22	32.941
250.59	33.987
250.96	39.437
251.33	30.814
251.70	35.882
252.08	30.457
252.45	24.752
252.82	38.693
253.19	34.562
253.56	25.701
253.94	32.883
254.31	30.870
254.68	37.281
255.05	31.102
255.42	31.441
255.79	28.958
256.16	35.019
256.54	32.090
256.91	30.038
257.28	32.714
257.65	25.094
258.02	28.369
258.39	34.343
258.76	36.630
259.14	33.555
259.51	33.333
259.88	33.677
260.25	28.431
260.62	35.069
260.99	31.186
261.36	28.082
261.73	31.329
262.10	32.219
262.47	30.368
262.85	31.975
263.22	31.385
263.59	30.218
263.96	32.919
264.33	30.909
264.70	30.357
265.07	33.036
265.44	36.544
265.81	34.463
266.18	34.973
266.55	31.362
266.92	33.420
267.29	33.159
267.66	30.435
268.03	34.031
268.40	32.376
268.77	33.957
269.14	32.134
269.51	33.676
269.88	30.673
270.25	32.653
270.62	32.195
270.99	30.691
271.36	30.073
271.73	34.038
272.10	31.387
272.47	33.097
272.84	30.693
273.21	33.179
273.58	31.807
273.95	33.181
274.32	30.485
274.69	31.900
275.06	33.259
275.43	32.426
275.80	30.684
276.17	31.724
276.54	29.336
276.91	31.579
277.28	30.786
277.65	31.198
278.02	33.191
278.39	30.416
278.76	29.350
279.13	28.423
279.50	30.462
279.87	31.749
280.23	27.527
280.60	31.579
280.97	33.737
281.34	29.808
281.71	33.470
282.08	31.697
282.45	29.550
282.82	31.467
283.19	28.046
283.56	31.214
283.92	26.755
284.29	29.038
284.66	30.233
285.03	29.862
285.40	31.002
285.77	27.592
286.14	29.242
286.51	29.336
286.87	29.982
287.24	30.203
287.61	28.042
287.98	29.825
288.35	31.023
288.72	29.947
289.08	26.562
289.45	28.822
289.82	27.622
290.19	29.352
290.56	27.787
290.93	26.599
291.29	24.499
291.66	25.354
292.03	28.230
292.40	25.161
292.77	26.475
293.13	24.026
293.50	24.279
293.87	25.038
294.24	25.811
294.60	25.335
294.97	23.661
295.34	23.466
295.71	25.484
296.08	24.963
296.44	23.755
296.81	23.750
297.18	25.797
297.55	23.171
297.91	24.110
298.28	24.934
298.65	23.202
299.02	23.181
299.38	20.520
299.75	24.138
300.12	21.466
300.48	22.793
300.85	23.194
301.22	21.818
301.59	22.632
301.95	24.684
302.32	23.606
302.69	22.512
303.05	23.144
303.42	21.544
303.79	22.897
304.15	23.417
304.52	20.333
304.89	22.573
305.25	21.429
305.62	21.120
305.99	20.585
306.35	21.734
306.72	20.472
307.09	21.323
307.45	22.273
307.82	21.759
308.19	22.300
308.55	20.065
308.92	22.549
309.29	21.453
309.65	21.206
310.02	20.242
310.38	21.405
310.75	22.404
311.12	20.129
311.48	22.163
311.85	22.618
312.22	21.624
312.58	21.868
312.95	21.451
313.31	22.050
313.68	22.618
314.05	22.041
314.41	22.784
314.78	23.093
315.14	25.694
315.51	23.706
315.87	23.053
316.24	26.694
316.61	25.098
316.97	25.000
317.34	27.051
317.70	26.099
318.07	26.635
318.43	26.471
318.80	26.894
319.16	28.027
319.53	28.965
319.89	29.035
320.26	29.656
320.62	30.491
320.99	29.332
321.35	30.627
321.72	33.022
322.08	31.823
322.45	34.924
322.81	34.086
323.18	35.918
323.54	34.846
323.91	37.488
324.27	37.305
324.64	39.139
325.00	38.504
325.37	41.873
325.73	40.526
326.10	42.961
326.46	43.946
326.83	45.232
327.19	45.074
327.56	45.265
327.92	48.592
328.29	48.571
328.65	49.717
329.01	49.724
329.38	51.060
329.74	50.992
330.11	51.900
330.47	52.968
330.84	52.981
331.20	57.034
331.56	52.500
331.93	55.525
332.29	54.904
332.66	53.846
333.02	56.599
333.38	54.904
333.75	56.593
334.11	55.595
334.48	57.208
334.84	57.418
335.20	59.652
335.57	57.661
335.93	57.362
336.29	60.958
336.66	58.311
337.02	59.572
337.38	59.352
337.75	61.364
338.11	60.685
338.47	61.588
338.84	61.183
339.20	62.340
339.56	61.468
339.93	62.847
340.29	62.018
340.65	62.814
341.02	63.032
341.38	61.770
341.74	61.484
342.11	62.912
342.47	65.836
342.83	64.792
343.20	63.763
343.56	65.391
343.92	64.216
344.28	64.816
344.65	64.767
345.01	65.082
345.37	63.751
345.73	64.603
346.10	67.903
346.46	65.517
346.82	66.285
347.19	65.669
347.55	67.251
347.91	67.799
348.27	66.451
348.63	67.462
349.00	68.253
349.36	70.075
349.72	70.066
350.08	68.525
350.45	67.119
350.81	69.020
351.17	68.404
351.53	68.898
351.89	69.612
352.26	68.480
352.62	70.484
352.98	67.631
353.34	68.196
353.70	69.013
354.07	69.919
354.43	70.616
354.79	71.429
355.15	70.873
355.51	70.253
355.87	71.359
356.24	72.349
356.60	71.787
356.96	72.540
357.32	72.364
357.68	69.586
358.04	71.648
358.40	70.740
358.77	72.887
359.13	74.940
359.49	71.032
359.85	73.557
360.21	73.604
360.57	72.379
360.93	73.374
361.29	71.828
361.66	75.157
362.02	74.924
362.38	74.714
362.74	74.565
363.10	76.825
363.46	77.539
363.82	77.385
364.18	75.572
364.54	73.897
364.90	76.846
365.26	77.365
365.62	78.394
365.98	77.933
366.35	77.640
366.71	79.157
367.07	78.737
367.43	76.779
367.79	77.880
368.15	78.033
368.51	78.223
368.87	79.612
369.23	77.112
369.59	79.592
369.95	78.446
370.31	79.046
370.67	79.179
371.03	78.790
371.39	78.920
371.75	79.707
372.11	76.391
372.47	80.991
372.83	79.844
373.19	79.173
373.55	78.989
373.91	80.706
374.27	81.502
374.63	81.694
374.99	80.071
375.35	79.875
375.71	80.839
376.07	81.180
376.42	82.449
376.78	82.081
377.14	81.652
377.50	81.873
377.86	83.467
378.22	83.663
378.58	84.103
378.94	82.105
379.30	83.094
379.66	85.204
380.02	83.017
380.38	84.845
380.74	85.338
381.09	84.233
381.45	84.893
381.81	84.331
382.17	84.645
382.53	84.197
382.89	86.001
383.25	85.563
383.61	84.817
383.97	84.635
384.32	84.365
384.68	86.873
385.04	85.662
385.40	86.123
385.76	88.365
386.12	87.840
386.48	87.292
386.83	86.810
387.19	87.424
387.55	88.582
387.91	86.491
388.27	84.737
388.62	88.483
388.98	87.600
389.34	86.633
389.70	87.383
390.06	86.218
390.42	86.464
390.77	89.143
391.13	86.696
391.49	87.775
391.85	88.954
392.20	86.378
392.56	88.175
392.92	87.493
393.28	88.090
393.64	87.988
393.99	88.652
394.35	90.006
394.71	89.208
395.07	87.429
395.42	86.764
395.78	88.534
396.14	88.146
396.50	88.586
396.85	89.697
397.21	88.534
397.57	88.088
397.92	87.118
398.28	87.356
398.64	86.446
399.00	88.093
399.35	87.810
399.71	87.823
400.07	87.727
400.42	85.373
400.78	88.794
401.14	86.993
401.49	88.326
401.85	87.751
402.21	87.349
402.57	88.500
402.92	86.136
403.28	89.348
403.63	88.398
403.99	87.054
404.35	87.758
404.70	84.940
405.06	85.664
405.42	85.768
405.77	86.519
406.13	87.427
406.49	84.902
406.84	88.814
407.20	87.357
407.55	86.478
407.91	87.767
408.27	86.361
408.62	84.985
408.98	85.336
409.34	87.051
409.69	85.917
410.05	85.530
410.40	85.556
410.76	85.826
411.11	86.187
411.47	86.719
411.83	86.252
412.18	87.259
412.54	84.956
412.89	83.867
413.25	87.425
413.60	84.969
413.96	83.129
414.31	84.390
414.67	82.809
415.03	85.353
415.38	83.747
415.74	84.886
416.09	84.193
416.45	84.267
416.80	84.071
417.16	86.878
417.51	83.278
417.87	83.572
418.22	86.075
418.58	85.686
418.93	84.765
419.29	82.714
419.64	83.863
420.00	85.516
420.35	82.746
420.71	84.569
421.06	83.548
421.42	83.834
421.77	84.335
422.12	83.428
422.48	83.216
422.83	82.309
423.19	83.183
423.54	82.305
423.90	82.273
424.25	83.869
424.61	82.558
424.96	81.475
425.31	83.651
425.67	84.155
426.02	84.335
426.38	84.095
426.73	82.809
427.09	85.190
427.44	82.706
427.79	82.499
428.15	81.129
428.50	82.132
428.85	80.897
429.21	82.286
429.56	84.097
429.92	80.791
430.27	79.248
430.62	81.443
430.98	81.794
431.33	80.862
431.68	80.324
432.04	82.448
432.39	81.004
432.74	78.833
433.10	81.379
433.45	80.227
433.80	81.544
434.16	81.385
434.51	80.108
434.86	81.998
435.22	80.258
435.57	81.347
435.92	81.557
436.28	78.891
436.63	79.007
436.98	79.374
437.34	79.855
437.69	81.395
438.04	78.348
438.39	79.475
438.75	80.935
439.10	79.400
439.45	79.367
439.81	77.920
440.16	80.760
440.51	79.821
440.86	80.967
441.22	79.129
441.57	79.415
441.92	79.748
442.27	79.213
442.63	79.497
442.98	78.920
443.33	78.575
443.68	77.825
444.03	78.788
444.39	77.226
444.74	79.320
445.09	79.566
445.44	78.803
445.79	78.855
446.15	76.377
446.50	76.206
446.85	77.152
447.20	76.017
447.55	77.121
447.91	77.157
448.26	76.665
448.61	77.317
448.96	76.879
449.31	75.838
449.66	77.178
450.02	76.440
450.37	77.001
450.72	76.346
451.07	77.405
451.42	74.719
451.77	74.985
452.12	74.701
452.47	74.823
452.83	75.206
453.18	75.712
453.53	76.612
453.88	77.171
454.23	74.677
454.58	75.252
454.93	74.871
455.28	72.127
455.63	75.201
455.98	75.406
456.34	75.415
456.69	74.778
457.04	74.291
457.39	74.970
457.74	75.091
458.09	72.572
458.44	73.844
458.79	71.877
459.14	72.712
459.49	73.194
459.84	73.153
460.19	74.150
460.54	73.227
460.89	72.670
461.24	72.547
461.59	71.556
461.94	71.887
462.29	72.376
462.64	71.561
462.99	72.376
463.34	70.306
463.69	70.785
464.04	70.642
464.39	70.042
464.74	69.448
465.09	70.680
465.44	70.975
465.79	68.311
466.14	69.612
466.49	69.523
466.84	70.732
467.19	69.775
467.54	70.307
467.89	69.362
468.24	68.370
468.59	69.460
468.94	68.381
469.29	69.246
469.64	68.831
469.99	69.376
470.34	68.942
470.68	70.544
471.03	70.064
471.38	68.117
471.73	69.748
472.08	67.368
472.43	69.597
472.78	67.306
473.13	67.483
473.48	67.818
473.83	66.625
474.17	69.236
474.52	67.262
474.87	67.697
475.22	66.809
475.57	66.516
475.92	66.539
476.27	66.182
476.61	67.245
476.96	65.031
477.31	65.170
477.66	66.348
478.01	66.592
478.36	64.869
478.70	66.069
479.05	66.538
479.40	66.349
479.75	64.859
480.10	64.721
480.45	63.650
480.79	64.602
481.14	65.625
481.49	63.596
481.84	64.479
482.19	63.424
482.53	64.317
482.88	62.434
483.23	62.428
483.58	62.453
483.92	63.456
484.27	61.759
484.62	62.214
484.97	61.401
485.31	61.488
485.66	58.678
486.01	60.283
486.36	59.756
486.70	60.414
487.05	60.576
487.40	59.824
487.75	60.761
488.09	59.951
488.44	60.626
488.79	61.449
489.13	61.859
489.48	60.838
489.83	60.673
490.17	60.629
490.52	60.554
490.87	59.602
491.22	60.411
491.56	59.867
491.91	59.226
492.26	60.671
492.60	59.165
492.95	60.895
493.30	59.013
493.64	61.002
493.99	59.710
494.34	58.835
494.68	59.714
495.03	58.637
495.37	59.863
495.72	59.616
496.07	59.415
496.41	58.726
496.76	58.452
497.11	58.221
497.45	57.947
497.80	58.678
498.14	57.923
498.49	57.186
498.84	57.036
499.18	58.735
499.53	57.986
499.87	57.977
500.22	56.627
500.56	57.539
500.91	57.179
501.26	55.561
501.60	57.108
501.95	57.205
502.29	56.320
502.64	57.529
502.98	56.685
503.33	55.091
503.67	55.422
504.02	56.500
504.36	56.012
504.71	55.101
505.06	55.108
505.40	55.584
505.75	56.701
506.09	55.550
506.44	57.084
506.78	55.459
507.13	54.654
507.47	54.621
507.82	55.021
508.16	54.411
508.51	54.512
508.85	54.945
509.19	54.976
509.54	54.155
509.88	54.962
510.23	55.299
510.57	54.837
510.92	53.518
511.26	53.955
511.61	55.171
511.95	53.863
512.30	55.266
512.64	53.255
512.98	52.499
513.33	54.561
513.67	52.700
514.02	52.746
514.36	54.057
514.70	54.429
515.05	54.113
515.39	54.604
515.74	54.790
516.08	53.198
516.42	54.122
516.77	53.657
517.11	54.243
517.46	54.039
517.80	53.456
518.14	53.889
518.49	52.404
518.83	52.187
519.17	52.820
519.52	50.799
519.86	51.621
520.20	53.098
520.55	52.158
520.89	53.388
521.23	52.122
521.58	53.123
521.92	52.821
522.26	52.895
522.61	52.468
522.95	52.583
523.29	51.207
523.64	52.160
523.98	53.597
524.32	50.773
524.66	51.985
525.01	52.338
525.35	50.227
525.69	50.572
526.04	51.455
526.38	51.751
526.72	49.640
527.06	51.167
527.41	51.253
527.75	50.804
528.09	50.631
528.43	51.789
528.78	50.297
529.12	49.935
529.46	49.773
529.80	49.588
530.15	51.353
530.49	49.091
530.83	51.094
531.17	50.101
531.51	50.889
531.86	49.966
532.20	49.339
532.54	50.170
532.88	51.335
533.22	48.790
533.57	48.886
533.91	49.217
534.25	50.456
534.59	48.557
534.93	49.276
535.27	47.398
535.62	47.440
535.96	48.010
536.30	49.340
536.64	48.725
536.98	48.502
537.32	50.000
537.66	50.070
538.01	47.902
538.35	48.058
538.69	47.071
539.03	46.890
539.37	46.366
539.71	47.648
540.05	46.707
540.39	47.230
540.73	47.071
541.07	47.376
541.42	47.312
541.76	47.488
542.10	46.387
542.44	46.421
542.78	44.804
543.12	46.841
543.46	46.523
543.80	47.606
544.14	44.927
544.48	44.037
544.82	46.548
545.16	46.107
545.50	45.194
545.84	45.609
546.18	45.532
546.52	46.575
546.86	45.938
547.20	45.708
547.54	45.512
547.88	45.788
548.22	43.590
548.56	44.525
548.90	45.283
549.24	43.044
549.58	44.781
549.92	44.174
550.26	46.227
550.60	45.428
550.94	45.930
551.28	44.900
551.62	47.154
551.96	45.489
552.30	44.956
552.64	44.006
552.98	44.163
553.32	44.437
553.66	43.179
554.00	43.285
554.34	44.165
554.68	43.953
555.02	44.494
555.36	43.530
555.69	43.443
556.03	42.327
556.37	43.843
556.71	43.177
557.05	43.773
557.39	42.230
557.73	43.328
558.07	44.721
558.41	43.492
558.75	44.037
559.08	42.711
559.42	43.651
559.76	43.555
560.10	41.437
560.44	43.708
560.78	43.007
561.12	41.114
561.45	42.164
561.79	43.207
562.13	42.229
562.47	42.158
562.81	41.354
563.15	42.031
563.48	41.938
563.82	44.200
564.16	41.435
564.50	41.014
564.84	42.369
565.17	42.254
565.51	42.760
565.85	42.593
566.19	41.777
566.52	41.756
566.86	41.195
567.20	40.598
567.54	41.119
567.88	41.945
568.21	41.290
568.55	39.783
568.89	41.324
569.23	41.117
569.56	40.193
569.90	40.357
570.24	39.263
570.57	40.436
570.91	40.572
571.25	38.639
571.59	38.898
571.92	38.519
572.26	39.251
572.60	39.101
572.93	39.190
573.27	37.962
573.61	38.813
573.95	38.831
574.28	38.480
574.62	38.241
574.96	38.120
575.29	38.213
575.63	36.564
575.97	38.249
576.30	37.841
576.64	37.457
576.98	38.481
577.31	38.363
577.65	37.890
577.98	37.637
578.32	37.268
578.66	36.665
578.99	36.968
579.33	37.172
579.67	37.472
580.00	37.646
580.34	37.189
580.67	37.043
581.01	37.272
581.35	37.188
581.68	36.804
582.02	37.053
582.35	37.196
582.69	36.833
583.02	36.851
583.36	37.237
583.70	37.980
584.03	37.726
584.37	38.227
584.70	37.527
585.04	35.984
585.37	36.732
585.71	36.855
586.04	36.510
586.38	36.490
586.72	37.131
587.05	37.291
587.39	36.679
587.72	37.233
588.06	36.895
588.39	37.055
588.73	37.179
589.06	37.312
589.40	36.640
589.73	37.094
590.07	37.727
590.40	37.268
590.73	37.727
591.07	37.405
591.40	37.890
591.74	36.923
592.07	37.755
592.41	36.396
592.74	35.962
593.08	36.011
593.41	35.815
593.75	35.590
594.08	35.359
594.41	36.463
594.75	36.756
595.08	36.020
595.42	36.106
595.75	36.538
596.09	35.887
596.42	36.957
596.75	36.590
597.09	36.355
597.42	35.772
597.75	35.822
598.09	35.401
598.42	35.560
598.76	35.478
599.09	34.936
599.42	34.862
599.76	34.838
600.09	35.407
600.42	35.330
600.76	34.101
601.09	35.534
601.42	34.352
601.76	34.458
602.09	35.561
602.42	35.973
602.76	35.357
603.09	34.967
603.42	37.166
603.76	34.798
604.09	34.751
604.42	35.237
604.76	36.004
605.09	35.192
605.42	35.350
605.75	34.676
606.09	34.607
606.42	34.404
606.75	34.459
607.09	34.330
607.42	34.072
607.75	34.147
608.08	34.232
608.42	33.942
608.75	34.602
609.08	34.629
609.41	34.315
609.75	35.282
610.08	34.498
610.41	34.493
610.74	34.130
611.07	34.729
611.41	35.444
611.74	35.448
612.07	34.261
612.40	35.394
612.73	34.802
613.07	33.858
613.40	34.737
613.73	34.303
614.06	34.725
614.39	35.477
614.72	34.230
615.06	33.911
615.39	33.570
615.72	33.961
616.05	33.408
616.38	32.934
616.71	35.168
617.05	33.601
617.38	33.438
617.71	34.088
618.04	35.556
618.37	34.994
618.70	34.917
619.03	35.694
619.36	33.936
619.69	34.723
620.03	35.427
620.36	34.120
620.69	33.904
621.02	34.098
621.35	34.938
621.68	34.269
622.01	33.500
622.34	34.238
622.67	34.148
623.00	34.686
623.33	34.070
623.66	34.555
623.99	33.661
624.32	34.449
624.65	33.083
624.99	34.688
625.32	33.889
625.65	34.643
625.98	35.052
626.31	33.998
626.64	33.189
626.97	35.253
627.30	35.377
627.63	34.662
627.96	34.501
628.29	33.488
628.62	35.792
628.95	34.168
629.28	34.375
629.61	34.497
629.94	33.724
630.26	33.103
630.59	33.923
630.92	34.051
631.25	32.821
631.58	33.260
631.91	34.101
632.24	33.372
632.57	34.091
632.90	34.401
633.23	35.765
633.56	33.879
633.89	34.155
634.22	34.691
634.55	34.435
634.88	33.461
635.20	33.205
635.53	32.933
635.86	32.250
636.19	36.093
636.52	33.801
636.85	31.886
637.18	34.214
637.51	33.711
637.83	31.537
638.16	35.744
638.49	31.063
638.82	33.553
639.15	35.007
639.48	32.875
639.81	34.589
640.13	33.045
640.46	33.382
640.79	32.548
641.12	32.053
641.45	33.183
641.77	33.481
642.10	33.807
642.43	34.887
642.76	35.644
643.09	34.733
643.41	32.686
643.74	33.608
644.07	34.975
644.40	34.797
644.73	32.399
645.05	34.060
645.38	32.628
645.71	32.624
646.04	33.393
646.36	32.092
646.69	32.554
647.02	36.106
647.35	35.075
647.67	31.810
648.00	34.888
648.33	31.911
648.66	32.712
648.98	32.161
649.31	31.405
649.64	32.653
649.96	31.280
650.29	32.368
650.62	33.504
650.94	33.519
651.27	32.961
651.60	32.072
651.92	34.266
652.25	31.261
652.58	30.500
652.90	33.276
653.23	34.118
653.56	31.810
653.88	31.787
654.21	29.772
654.54	30.730
654.86	32.767
655.19	30.409
655.52	32.895
655.84	29.838
656.17	32.888
656.49	44.586
656.82	46.840
657.15	36.227
657.47	27.187
657.80	20.297
658.13	20.036
658.45	31.112
658.78	31.259
659.10	31.117
659.43	30.958
659.75	31.672
660.08	31.034
660.41	32.993
660.73	30.801
661.06	30.156
661.38	31.898
661.71	30.185
662.03	29.185
662.36	30.989
662.68	29.425
663.01	32.533
663.33	28.770
663.66	30.698
663.98	31.628
664.31	30.064
664.63	30.184
664.96	30.000
665.28	27.815
665.61	32.468
665.93	31.522
666.26	30.369
666.58	29.530
666.91	31.059
667.23	32.783
667.56	31.517
667.88	29.736
668.21	32.458
668.53	30.733
668.86	30.425
669.18	30.189
669.50	29.056
669.83	30.698
670.15	29.371
670.48	29.904
670.80	29.954
671.13	28.859
671.45	27.854
671.77	31.116
672.10	31.683
672.42	30.524
672.75	32.149
673.07	30.590
673.39	31.376
673.72	25.838
674.04	30.625
674.37	28.814
674.69	28.908
675.01	32.000
675.34	31.982
675.66	29.167
675.98	30.377
676.31	30.963
676.63	30.404
676.95	30.455
677.28	31.529
677.60	30.361
677.92	26.606
678.25	31.072
678.57	25.974
678.89	27.731
679.22	29.530
679.54	27.711
679.86	29.423
680.18	29.126
680.51	28.409
680.83	29.622
681.15	30.200
681.48	30.533
681.80	27.893
682.12	30.645
682.44	28.452
682.77	27.373
683.09	29.291
683.41	29.318
683.73	30.645
684.06	29.867
684.38	27.312
684.70	29.412
685.02	29.876
685.34	28.656
685.67	29.081
685.99	27.667
686.31	29.558
686.63	28.200
686.96	27.376
687.28	26.869
687.60	27.567
687.92	30.303
688.24	30.040
688.56	31.441
688.89	28.795
689.21	29.333
689.53	28.306
689.85	30.000
690.17	29.911
690.49	29.314
690.82	29.612
691.14	28.095
691.46	28.972
691.78	26.802
692.10	32.688
692.42	26.190
692.74	29.060
693.06	31.306
693.39	26.923
693.71	26.697
694.03	26.328
694.35	26.402
694.67	29.798
694.99	26.110
695.31	28.460
695.63	28.500
695.95	28.283
696.27	27.461
696.59	28.611
696.91	28.011
697.23	28.535
697.56	27.970
697.88	29.892
698.20	26.196
698.52	24.941
698.84	25.598
699.16	27.000
699.48	29.323
699.80	27.295
700.12	26.954
700.44	26.331
700.76	25.291
701.08	27.879
701.40	28.313
701.72	29.321
702.04	28.383
702.36	30.435
702.68	26.126
703.00	25.152
703.32	26.393
703.64	24.576
703.96	30.435
704.28	27.301
704.60	31.111
704.91	24.606
705.23	28.904
705.55	27.562
705.87	27.437
706.19	27.778
706.51	29.553
706.83	27.010
707.15	25.545
707.47	32.493
707.79	26.302
708.11	27.750
708.43	27.750
708.74	28.941
709.06	30.704
709.38	30.581
709.70	31.361
710.02	26.752
710.34	26.935
710.66	24.038
710.98	20.199
711.29	28.525
711.61	26.441
711.93	29.316
712.25	29.210
712.57	26.374
712.89	22.761
713.20	29.412
713.52	22.300
713.84	26.962
714.16	24.742
714.48	28.710
714.80	25.962
715.11	27.964
715.43	24.451
715.75	27.667
716.07	24.252
716.39	28.188
716.70	23.247
717.02	27.863
717.34	27.935
717.66	23.894
717.97	27.391
718.29	26.778
718.61	26.378
718.93	27.519
719.24	23.954
719.56	26.104
719.88	21.649
720.20	26.515
720.51	22.222
720.83	29.344
721.15	28.571
721.46	32.661
721.78	22.925
722.10	26.394
722.42	25.311
722.73	25.714
723.05	30.204
723.37	28.814
723.68	34.234
724.00	22.222
724.32	20.000
724.63	27.727
724.95	22.707
725.27	28.111
725.58	26.695
725.90	27.381
726.22	25.869
726.53	27.119
726.85	31.086
727.16	30.189
727.48	25.101
727.80	25.101
728.11	22.881
728.43	25.098
728.74	26.210
729.06	24.400
729.38	31.203
729.69	21.912
730.01	22.308
730.32	27.985
730.64	26.148
730.96	30.189
731.27	24.333
731.59	27.119
731.90	24.522
732.22	28.076
732.53	27.243
732.85	25.177
733.16	28.283
733.48	24.460
733.80	25.362
734.11	24.407
734.43	29.210
734.74	27.576
735.06	24.430
735.37	25.982
735.69	25.589
736.00	26.481
736.32	23.490
736.63	30.986
736.95	29.010
737.26	23.132
737.58	26.846
737.89	26.740
738.21	25.564
738.52	25.514
738.83	24.891
739.15	19.651
739.46	29.921
739.78	24.908
740.09	20.261
740.41	25.362
740.72	23.622
741.04	30.364
741.35	22.553
741.66	27.014
741.98	28.061
742.29	24.257
742.61	24.607
742.92	20.379
743.23	19.907
743.55	22.172
743.86	24.402
744.18	22.967
744.49	21.277
744.80	23.913
745.12	27.273
745.43	24.878
745.74	23.438
746.06	27.317
746.37	27.749
746.68	23.697
747.00	26.064
747.31	26.866
747.62	22.816
747.94	30.144
748.25	24.752
748.56	36.612
748.88	27.749
749.19	25.000
749.50	23.153
749.82	22.170
750.13	25.688
750.44	24.436
750.75	28.358
751.07	29.562
751.38	26.437
751.69	21.961
752.01	22.868
752.32	23.904
752.63	24.506
752.94	26.293
753.26	31.381
753.57	26.697
753.88	26.991
754.19	20.833
754.51	23.554
754.82	25.911
755.13	25.000
755.44	22.581
755.75	20.703
756.07	26.070
756.38	26.415
756.69	26.820
757.00	26.667
757.31	23.203
757.63	21.951
757.94	25.556
758.25	23.288
758.56	22.606
758.87	19.547
759.18	23.988
759.50	20.364
759.81	26.421
760.12	24.194
760.43	24.242
760.74	27.469
761.05	22.769
761.36	26.705
761.67	27.879
761.99	26.190
762.30	24.727
762.61	28.458
762.92	29.412
763.23	22.523
763.54	22.897
763.85	23.305
764.16	26.971
764.47	24.597
764.78	21.612
765.10	24.242
765.41	23.028
765.72	24.762
766.03	22.932
766.34	23.358
766.65	32.271
766.96	24.747
767.27	30.319
767.58	18.966
767.89	24.823
768.20	27.273
768.51	28.022
768.82	20.690
769.13	19.816
769.44	24.893
769.75	19.635
770.06	24.569
770.37	28.846
770.68	23.350
770.99	22.172
771.30	28.431
771.61	23.529
771.92	25.431
772.23	25.123
772.54	26.344
772.85	26.543
773.16	24.157
773.47	27.451
773.78	28.105
774.09	24.551
774.39	25.333
774.70	26.752
775.01	25.517
775.32	22.143
775.63	15.702
775.94	23.664
776.25	21.260
776.56	17.500
776.87	21.154
777.18	27.350
777.48	18.103
777.79	15.652
778.10	16.190
778.41	27.027
778.72	14.286
779.03	21.053
779.34	21.986
779.65	19.863
779.95	21.918
780.26	16.552
780.57	18.699
780.88	27.559
781.19	25.000
781.50	18.605
781.80	23.077
782.11	12.579
782.42	23.846
782.73	16.547
783.04	25.185
783.34	22.222
783.65	11.111
783.96	19.672
784.27	24.828
784.57	21.138
784.88	23.437
785.19	23.000
785.50	34.000
785.81	27.586
786.11	22.414
786.42	13.592
786.73	30.909
787.04	15.306
787.34	16.071
787.65	22.857
787.96	17.699
788.26	24.545
788.57	17.949
788.88	27.344
789.19	26.984
789.49	18.261
789.80	16.327
790.11	10.101
790.41	13.636
790.72	20.652
791.03	10.227
791.33	26.250
791.64	21.250
791.95	15.116
792.25	26.596
792.56	23.596
792.87	10.959
793.17	31.884
793.48	14.667
793.79	0.000
794.09	28.750
794.40	19.811
794.70	15.534
795.01	17.073
795.32	14.530
795.62	21.905
795.93	21.569
796.23	29.245
796.54	31.250
796.85	22.059
797.15	19.718
797.46	26.389
797.76	28.788
798.07	19.767
798.37	11.842
798.68	21.212
798.99	14.815
799.29	24.286
799.60	13.043
799.90	16.000
800.21	24.590
800.51	13.846
800.82	28.814
801.12	30.435
801.43	36.066
801.73	31.746
802.04	2.000
802.34	14.925
802.65	30.769
802.95	26.786
803.26	15.385
803.56	29.412
803.87	0.000
804.17	6.667
804.48	38.095
804.78	25.926
805.09	19.565
805.39	37.778
805.70	18.519
806.00	-1.754
806.30	26.761
806.61	17.143
806.91	8.333
807.22	21.053
807.52	32.000
807.83	-1.818
808.13	19.444
808.43	19.118
808.74	29.851
809.04	23.729
809.35	19.231
809.65	25.000
809.95	-18.919
810.26	15.909
810.56	12.329
810.86	16.667
811.17	8.000
811.47	28.571
811.77	2.632
812.08	31.818
812.38	15.094
812.69	42.500
812.99	0.000
813.29	23.684
813.59	14.286
813.90	4.545
814.20	-7.692
814.50	11.538
814.81	20.755
815.11	19.149
815.41	28.814
815.72	35.714
816.02	15.686
816.32	35.417
816.62	9.756
816.93	10.811
817.23	28.571
817.53	31.250
817.84	19.565
818.14	3.846
818.44	7.895
818.74	4.348
819.04	27.500
819.35	35.135
819.65	8.824
819.95	-5.556
820.25	23.810
820.56	47.500
820.86	-31.034
821.16	30.000
821.46	38.298
821.76	17.500
822.07	23.256
822.37	-13.514
822.67	-12.500
822.97	33.333
823.27	7.143
823.57	12.000
823.88	11.111
824.18	17.857
824.48	41.176
824.78	25.806
825.08	4.348
825.38	9.091
825.69	0.000
825.99	7.895
826.29	38.889
826.59	6.667
826.89	-19.048
827.19	23.913
827.49	5.000
827.79	8.571
828.09	42.857
828.39	6.061
828.70	27.027
829.00	10.714
829.30	-9.524
829.60	10.000
829.90	6.250
830.20	18.421
830.50	7.407
830.80	0.000
831.10	40.909
831.40	48.485
831.70	35.484
832.00	0.000
832.30	-19.048
832.60	50.000
832.90	3.448
833.20	-20.000
833.50	3.030
833.80	-18.519
834.10	46.154
834.40	15.625
834.70	-188.889
835.00	73.684
835.30	57.692
835.60	53.333
835.90	38.710
836.20	31.818
836.50	25.000
836.80	34.615
837.10	-10.714
837.40	-33.333
837.70	0.000
838.00	-63.636
838.30	4.348
838.60	7.692
838.90	22.727
839.19	-17.857
839.49	16.667
839.79	-15.385
840.09	-16.667
840.39	53.571
840.69	17.857
840.99	0.000
841.29	-42.105
841.59	-10.000
841.88	-54.545
842.18	100.000
842.48	37.500
842.78	-66.667
843.08	18.519
843.38	-80.000
843.68	17.391
843.97	-13.333
844.27	-53.333
844.57	0.000
844.87	72.222
845.17	-52.381
845.47	0.000
845.76	-38.095
846.06	23.529
846.36	30.000
846.66	-35.714
846.96	33.333
847.25	-212.500
847.55	64.286
847.85	0.000
848.15	-22.727
848.44	-600.000
848.74	25.000
849.04	29.630
849.34	-63.636
849.63	-116.667
849.93	-260.000
850.23	-5.556
850.53	40.000
850.82	30.769
851.12	-100.000
851.42	6.667
851.71	-7.692
852.01	-35.714
852.31	-325.000
852.61	72.727
852.90	-25.000
853.20	-10.526
853.50	-41.667
853.79	30.435
854.09	70.833
854.39	0.000
854.68	-8.333
854.98	12.903
855.28	11.538
855.57	25.000
855.87	55.556
856.17	0.000
856.46	-35.714
856.76	13.333
857.05	88.889
857.35	24.000
857.65	16.667
857.94	-61.538
858.24	17.241
858.53	77.778
858.83	40.741
859.13	50.000
859.42	4.348
859.72	-175.000
860.01	-433.333
860.31	-8.000
860.60	28.571
860.90	-400.000
861.20	-40.000
861.49	150.000
861.79	-6.667
862.08	5.000
862.38	20.000
862.67	-200.000
862.97	-33.333
863.26	8.333
863.56	16.667
863.85	-633.333
864.15	33.333
864.44	50.000
864.74	57.143
865.03	375.000
865.33	40.000
865.62	0.000
865.92	-8.333
866.21	-183.333
866.51	25.000
866.80	9.091
867.10	-250.000
867.39	0.000
867.69	0.000
867.98	-53.846
868.27	-66.667
868.57	-73.333
868.86	0.000
869.16	-46.154
869.45	13.333
869.75	-1300.000
870.04	0.000
870.33	14.286
870.63	95.238
870.92	566.667
871.22	-100.000
871.51	100.000
871.80	66.667
872.10	166.667
>>>>>End Processed Spectral Data<<<<<
