SpectraSuite Data File
++++++++++++++++++++++++++++++++++++
Date: Fri May 15 20:46:25 PDT 2015
User: schluterlab
Dark Spectrum Present: Yes
Reference Spectrum Present: Yes
Number of Sampled Component Spectra: 1
Spectrometers: USB2E3373
Integration Time (usec): 3000 (USB2E3373)
Spectra Averaged: 3 (USB2E3373)
Boxcar Smoothing: 0 (USB2E3373)
Correct for Electrical Dark: No (USB2E3373)
Strobe/Lamp Enabled: No (USB2E3373)
Correct for Detector Non-linearity: No (USB2E3373)
Correct for Stray Light: No (USB2E3373)
Number of Pixels in Processed Spectrum: 2048
>>>>>Begin Processed Spectral Data<<<<<
178.53	0.000
178.91	0.000
179.29	37.500
179.67	-150.000
180.04	57.143
180.42	-150.000
180.80	-800.000
181.18	166.667
181.56	100.000
181.94	-250.000
182.31	-600.000
182.69	-180.000
183.07	-100.000
183.45	-200.000
183.83	300.000
184.20	-90.909
184.58	144.444
184.96	100.000
185.34	133.333
185.72	-150.000
186.09	100.000
186.47	-500.000
186.85	183.333
187.23	88.889
187.61	500.000
187.98	-300.000
188.36	-33.333
188.74	-233.333
189.12	52.941
189.49	0.000
189.87	0.000
190.25	7.143
190.63	100.000
191.00	-200.000
191.38	-36.842
191.76	200.000
192.14	125.000
192.51	-550.000
192.89	-22.222
193.27	-71.429
193.65	166.667
194.02	127.273
194.40	-20.000
194.78	-187.500
195.15	-50.000
195.53	-75.000
195.91	225.000
196.29	-200.000
196.66	138.462
197.04	71.429
197.42	-55.556
197.79	-266.667
198.17	-123.077
198.55	2300.000
198.92	-133.333
199.30	-300.000
199.68	-80.000
200.05	-333.333
200.43	0.000
200.81	-366.667
201.18	-33.333
201.56	1100.000
201.94	150.000
202.31	266.667
202.69	-360.000
203.07	175.000
203.44	-800.000
203.82	0.000
204.19	14.286
204.57	-433.333
204.95	287.500
205.32	80.000
205.70	0.000
206.08	-350.000
206.45	155.556
206.83	57.143
207.20	-157.143
207.58	-100.000
207.96	-333.333
208.33	-90.000
208.71	-100.000
209.08	-100.000
209.46	100.000
209.84	-60.000
210.21	-300.000
210.59	-85.714
210.96	-16.667
211.34	-150.000
211.71	-26.667
212.09	-128.571
212.46	-2000.000
212.84	0.000
213.22	0.000
213.59	550.000
213.97	100.000
214.34	63.636
214.72	0.000
215.09	300.000
215.47	-30.769
215.84	-72.727
216.22	-66.667
216.59	-62.500
216.97	-200.000
217.34	-25.000
217.72	-360.000
218.09	-12.500
218.47	150.000
218.84	-900.000
219.22	-66.667
219.59	-220.000
219.97	533.333
220.34	400.000
220.72	-142.857
221.09	-250.000
221.47	-250.000
221.84	-400.000
222.22	-850.000
222.59	9.091
222.97	-33.333
223.34	-166.667
223.72	-50.000
224.09	-4.762
224.46	-7.143
224.84	433.333
225.21	60.000
225.59	53.333
225.96	-150.000
226.34	700.000
226.71	-71.429
227.08	16.667
227.46	-25.000
227.83	-150.000
228.21	-55.556
228.58	54.545
228.95	-50.000
229.33	130.000
229.70	-50.000
230.08	0.000
230.45	-171.429
230.82	-114.286
231.20	-93.333
231.57	107.143
231.95	28.571
232.32	-70.000
232.69	21.429
233.07	100.000
233.44	0.000
233.81	-80.000
234.19	77.778
234.56	11.765
234.93	450.000
235.31	-25.000
235.68	-180.000
236.05	0.000
236.43	-20.000
236.80	58.824
237.17	28.125
237.55	45.000
237.92	18.519
238.29	25.000
238.67	50.000
239.04	38.235
239.41	2.439
239.79	36.667
240.16	53.659
240.53	57.895
240.91	39.130
241.28	42.857
241.65	60.714
242.02	56.164
242.40	56.667
242.77	45.763
243.14	60.606
243.51	42.500
243.89	64.368
244.26	47.126
244.63	50.000
245.00	50.515
245.38	53.608
245.75	49.438
246.12	49.138
246.49	52.893
246.87	54.808
247.24	56.303
247.61	52.632
247.98	54.472
248.36	53.125
248.73	51.974
249.10	55.844
249.47	55.696
249.84	57.516
250.22	53.529
250.59	60.131
250.96	55.869
251.33	59.302
251.70	64.706
252.08	56.853
252.45	59.406
252.82	61.809
253.19	55.760
253.56	56.542
253.94	55.856
254.31	60.435
254.68	58.772
255.05	56.299
255.42	61.572
255.79	61.390
256.16	57.588
256.54	60.821
256.91	61.977
257.28	56.506
257.65	59.551
258.02	57.801
258.39	55.556
258.76	67.033
259.14	59.801
259.51	59.547
259.88	61.856
260.25	59.150
260.62	68.056
260.99	57.966
261.36	61.301
261.73	60.443
262.10	60.486
262.47	61.043
262.85	64.577
263.22	59.077
263.59	61.371
263.96	63.043
264.33	65.152
264.70	60.417
265.07	63.988
265.44	64.023
265.81	58.757
266.18	60.656
266.55	58.612
266.92	61.399
267.29	63.969
267.66	64.194
268.03	61.518
268.40	59.269
268.77	64.706
269.14	59.472
269.51	60.154
269.88	61.845
270.25	59.949
270.62	61.220
270.99	62.404
271.36	58.435
271.73	60.563
272.10	62.287
272.47	60.520
272.84	59.901
273.21	62.645
273.58	61.928
273.95	56.979
274.32	59.584
274.69	56.561
275.06	64.063
275.43	58.957
275.80	58.057
276.17	57.931
276.54	59.101
276.91	63.596
277.28	58.952
277.65	57.851
278.02	57.660
278.39	59.081
278.76	59.539
279.13	58.921
279.50	59.874
279.87	58.963
280.23	56.559
280.60	57.895
280.97	58.788
281.34	54.231
281.71	59.343
282.08	56.033
282.45	58.708
282.82	56.371
283.19	57.060
283.56	58.574
283.92	58.254
284.29	55.385
284.66	55.620
285.03	62.083
285.40	57.467
285.77	54.833
286.14	54.693
286.51	58.487
286.87	55.941
287.24	58.195
287.61	55.026
287.98	53.333
288.35	55.286
288.72	55.166
289.08	54.861
289.45	54.306
289.82	54.196
290.19	52.218
290.56	54.374
290.93	53.535
291.29	49.307
291.66	51.024
292.03	52.153
292.40	51.613
292.77	48.963
293.13	47.240
293.50	49.621
293.87	49.008
294.24	49.923
294.60	45.306
294.97	47.768
295.34	48.160
295.71	44.858
296.08	47.384
296.44	44.808
296.81	44.167
297.18	46.957
297.55	46.883
297.91	44.384
298.28	43.404
298.65	43.012
299.02	42.857
299.38	44.049
299.75	44.138
300.12	42.277
300.48	43.610
300.85	42.459
301.22	42.208
301.59	44.079
301.95	42.532
302.32	44.877
302.69	42.040
303.05	42.698
303.42	42.590
303.79	42.290
304.15	40.741
304.52	40.904
304.89	40.351
305.25	40.194
305.62	40.023
305.99	39.298
306.35	40.694
306.72	38.470
307.09	41.847
307.45	41.906
307.82	37.963
308.19	40.418
308.55	39.477
308.92	40.632
309.29	38.659
309.65	39.290
310.02	38.504
310.38	39.846
310.75	40.000
311.12	38.644
311.48	37.964
311.85	38.429
312.22	37.447
312.58	38.535
312.95	39.168
313.31	37.992
313.68	36.230
314.05	38.061
314.41	38.247
314.78	38.557
315.14	39.157
315.51	39.855
315.87	37.398
316.24	38.220
316.61	38.189
316.97	37.302
317.34	38.086
317.70	38.719
318.07	39.038
318.43	38.333
318.80	36.742
319.16	39.063
319.53	38.272
319.89	38.976
320.26	37.652
320.62	37.111
320.99	37.474
321.35	36.999
321.72	37.902
322.08	38.369
322.45	38.782
322.81	38.900
323.18	36.605
323.54	35.714
323.91	37.877
324.27	38.672
324.64	39.045
325.00	35.310
325.37	38.108
325.73	36.355
326.10	37.330
326.46	38.027
326.83	36.920
327.19	37.402
327.56	37.706
327.92	38.644
328.29	38.036
328.65	36.981
329.01	38.511
329.38	36.590
329.74	37.299
330.11	37.535
330.47	35.436
330.84	37.212
331.20	37.262
331.56	35.648
331.93	37.169
332.29	36.755
332.66	35.475
333.02	37.639
333.38	36.480
333.75	35.897
334.11	35.452
334.48	36.718
334.84	35.256
335.20	36.688
335.57	34.995
335.93	35.863
336.29	36.004
336.66	35.604
337.02	35.595
337.38	34.074
337.75	34.909
338.11	35.167
338.47	35.949
338.84	35.952
339.20	35.466
339.56	34.679
339.93	34.825
340.29	34.954
340.65	35.932
341.02	35.461
341.38	35.044
341.74	34.011
342.11	34.922
342.47	35.231
342.83	36.332
343.20	34.495
343.56	35.739
343.92	35.961
344.28	33.646
344.65	34.888
345.01	33.708
345.37	34.567
345.73	34.477
346.10	36.066
346.46	33.978
346.82	32.733
347.19	32.835
347.55	34.085
347.91	34.304
348.27	34.600
348.63	35.775
349.00	31.829
349.36	33.416
349.72	35.323
350.08	34.672
350.45	34.078
350.81	33.887
351.17	32.248
351.53	34.041
351.89	32.865
352.26	32.880
352.62	33.790
352.98	32.771
353.34	31.965
353.70	33.900
354.07	32.258
354.43	32.266
354.79	33.526
355.15	33.730
355.51	33.070
355.87	34.304
356.24	33.687
356.60	32.741
356.96	31.667
357.32	33.307
357.68	32.134
358.04	33.118
358.40	33.119
358.77	32.217
359.13	32.666
359.49	32.512
359.85	32.605
360.21	33.812
360.57	32.594
360.93	31.392
361.29	31.949
361.66	31.975
362.02	33.258
362.38	33.206
362.74	32.854
363.10	33.108
363.46	31.950
363.82	32.607
364.18	32.694
364.54	32.794
364.90	32.760
365.26	32.242
365.62	33.358
365.98	32.551
366.35	31.464
366.71	31.633
367.07	32.148
367.43	32.423
367.79	31.025
368.15	31.658
368.51	32.484
368.87	31.371
369.23	31.769
369.59	31.195
369.95	32.845
370.31	32.298
370.67	31.642
371.03	31.591
371.39	31.875
371.75	32.234
372.11	30.742
372.47	32.027
372.83	33.286
373.19	31.883
373.55	29.819
373.91	30.958
374.27	31.538
374.63	31.084
374.99	30.638
375.35	31.755
375.71	32.238
376.07	31.461
376.42	30.680
376.78	31.275
377.14	30.670
377.50	31.076
377.86	31.727
378.22	29.866
378.58	30.256
378.94	30.498
379.30	31.192
379.66	31.850
380.02	29.430
380.38	30.128
380.74	31.239
381.09	31.350
381.45	30.765
381.81	29.488
382.17	30.076
382.53	30.356
382.89	30.948
383.25	30.243
383.61	31.220
383.97	30.222
384.32	30.081
384.68	31.022
385.04	30.392
385.40	29.869
385.76	31.006
386.12	31.177
386.48	31.354
386.83	30.120
387.19	31.319
387.55	30.301
387.91	30.257
388.27	30.952
388.62	30.459
388.98	29.834
389.34	30.543
389.70	31.324
390.06	29.704
390.42	29.728
390.77	29.627
391.13	29.256
391.49	29.819
391.85	30.279
392.20	29.441
392.56	29.943
392.92	30.534
393.28	29.953
393.64	29.910
393.99	31.160
394.35	29.791
394.71	29.566
395.07	29.353
395.42	30.176
395.78	29.837
396.14	29.697
396.50	30.120
396.85	30.393
397.21	29.887
397.57	29.404
397.92	29.898
398.28	30.920
398.64	28.976
399.00	30.418
399.35	29.628
399.71	29.523
400.07	29.444
400.42	29.070
400.78	31.721
401.14	29.099
401.49	29.422
401.85	30.165
402.21	30.723
402.57	29.250
402.92	28.795
403.28	29.699
403.63	31.274
403.99	30.166
404.35	29.232
404.70	29.226
405.06	28.496
405.42	29.646
405.77	28.704
406.13	28.871
406.49	29.366
406.84	30.134
407.20	30.403
407.55	29.234
407.91	29.011
408.27	29.764
408.62	29.908
408.98	28.466
409.34	29.306
409.69	29.199
410.05	29.495
410.40	29.938
410.76	30.277
411.11	29.250
411.47	30.178
411.83	29.190
412.18	30.116
412.54	29.089
412.89	28.879
413.25	29.362
413.60	29.565
413.96	29.264
414.31	30.183
414.67	29.057
415.03	28.495
415.38	29.112
415.74	29.902
416.09	29.131
416.45	30.722
416.80	29.412
417.16	29.903
417.51	30.846
417.87	28.944
418.22	29.793
418.58	29.097
418.93	29.718
419.29	28.425
419.64	29.164
420.00	29.849
420.35	29.313
420.71	30.194
421.06	28.484
421.42	30.168
421.77	29.942
422.12	28.661
422.48	30.103
422.83	30.046
423.19	29.233
423.54	30.041
423.90	29.152
424.25	29.966
424.61	29.804
424.96	28.688
425.31	29.347
425.67	30.282
426.02	29.918
426.38	29.054
426.73	31.356
427.09	30.443
427.44	29.412
427.79	29.641
428.15	29.551
428.50	28.892
428.85	28.563
429.21	29.428
429.56	30.296
429.92	29.379
430.27	29.023
430.62	28.960
430.98	29.140
431.33	29.443
431.68	29.095
432.04	29.681
432.39	28.637
432.74	27.841
433.10	29.885
433.45	28.495
433.80	29.135
434.16	28.975
434.51	29.516
434.86	30.139
435.22	29.052
435.57	29.320
435.92	29.341
436.28	29.338
436.63	29.150
436.98	29.838
437.34	29.462
437.69	29.756
438.04	29.630
438.39	29.016
438.75	29.569
439.10	29.032
439.45	30.858
439.81	28.869
440.16	31.057
440.51	30.030
440.86	30.695
441.22	29.186
441.57	29.857
441.92	29.381
442.27	30.987
442.63	30.407
442.98	29.351
443.33	29.494
443.68	30.398
444.03	30.204
444.39	29.415
444.74	30.658
445.09	29.566
445.44	29.630
445.79	30.892
446.15	29.130
446.50	29.673
446.85	30.340
447.20	29.666
447.55	30.190
447.91	29.160
448.26	30.734
448.61	29.937
448.96	29.432
449.31	29.133
449.66	29.733
450.02	30.006
450.37	31.061
450.72	29.782
451.07	30.127
451.42	29.838
451.77	30.078
452.12	29.127
452.47	28.654
452.83	29.918
453.18	29.791
453.53	29.899
453.88	29.872
454.23	31.039
454.58	30.542
454.93	30.670
455.28	29.841
455.63	29.758
455.98	29.826
456.34	29.374
456.69	30.368
457.04	30.561
457.39	30.012
457.74	30.048
458.09	29.253
458.44	30.018
458.79	29.188
459.14	29.748
459.49	30.627
459.84	29.949
460.19	30.583
460.54	29.768
460.89	30.170
461.24	29.876
461.59	30.285
461.94	29.308
462.29	30.458
462.64	31.030
462.99	30.535
463.34	30.111
463.69	30.566
464.04	30.448
464.39	30.382
464.74	30.552
465.09	30.131
465.44	29.948
465.79	28.855
466.14	30.901
466.49	29.902
466.84	30.637
467.19	30.601
467.54	29.630
467.89	29.375
468.24	29.684
468.59	31.111
468.94	30.159
469.29	30.361
469.64	29.187
469.99	31.184
470.34	29.556
470.68	31.022
471.03	30.502
471.38	29.743
471.73	29.972
472.08	29.579
472.43	29.329
472.78	29.609
473.13	29.864
473.48	30.033
473.83	30.012
474.17	29.663
474.52	29.419
474.87	30.364
475.22	30.750
475.57	30.661
475.92	30.060
476.27	30.733
476.61	30.382
476.96	29.782
477.31	30.719
477.66	29.551
478.01	28.636
478.36	29.793
478.70	29.853
479.05	29.396
479.40	30.419
479.75	30.083
480.10	30.210
480.45	30.450
480.79	30.211
481.14	30.840
481.49	29.064
481.84	30.550
482.19	30.262
482.53	29.880
482.88	30.644
483.23	29.798
483.58	29.387
483.92	29.526
484.27	29.170
484.62	29.718
484.97	29.726
485.31	29.227
485.66	28.909
486.01	29.424
486.36	29.745
486.70	30.721
487.05	30.534
487.40	30.222
487.75	30.761
488.09	30.222
488.44	30.330
488.79	30.071
489.13	30.168
489.48	30.611
489.83	29.507
490.17	29.888
490.52	30.115
490.87	29.986
491.22	29.656
491.56	29.934
491.91	30.019
492.26	30.335
492.60	29.607
492.95	30.841
493.30	29.409
493.64	30.157
493.99	30.193
494.34	29.806
494.68	30.048
495.03	29.538
495.37	30.029
495.72	29.278
496.07	29.756
496.41	29.858
496.76	29.618
497.11	28.924
497.45	30.931
497.80	31.282
498.14	29.111
498.49	29.863
498.84	30.339
499.18	30.873
499.53	30.308
499.87	28.794
500.22	29.822
500.56	30.106
500.91	30.070
501.26	30.302
501.60	30.202
501.95	30.082
502.29	29.879
502.64	30.116
502.98	30.488
503.33	29.155
503.67	29.928
504.02	30.938
504.36	31.569
504.71	30.051
505.06	29.995
505.40	29.188
505.75	29.948
506.09	29.650
506.44	29.620
506.78	30.663
507.13	29.886
507.47	28.721
507.82	29.327
508.16	29.794
508.51	30.850
508.85	29.827
509.19	29.324
509.54	30.938
509.88	29.935
510.23	29.909
510.57	30.144
510.92	28.785
511.26	29.733
511.61	30.363
511.95	30.247
512.30	28.880
512.64	29.661
512.98	30.320
513.33	29.379
513.67	29.335
514.02	30.835
514.36	30.914
514.70	30.186
515.05	30.670
515.39	29.811
515.74	30.479
516.08	30.066
516.42	30.860
516.77	29.783
517.11	30.504
517.46	30.999
517.80	30.155
518.14	30.557
518.49	30.228
518.83	30.377
519.17	30.261
519.52	30.018
519.86	29.772
520.20	30.255
520.55	30.081
520.89	30.176
521.23	30.209
521.58	30.536
521.92	31.090
522.26	29.993
522.61	30.455
522.95	30.993
523.29	29.479
523.64	30.432
523.98	30.201
524.32	29.253
524.66	30.474
525.01	31.494
525.35	31.043
525.69	29.697
526.04	29.762
526.38	30.415
526.72	29.627
527.06	30.285
527.41	31.003
527.75	30.161
528.09	29.302
528.43	31.263
528.78	30.429
529.12	30.968
529.46	30.019
529.80	30.399
530.15	30.627
530.49	30.370
530.83	31.259
531.17	30.759
531.51	31.395
531.86	30.455
532.20	30.967
532.54	29.612
532.88	30.938
533.22	29.839
533.57	30.079
533.91	30.091
534.25	31.055
534.59	30.212
534.93	29.704
535.27	29.569
535.62	30.525
535.96	32.290
536.30	30.409
536.64	29.910
536.98	30.523
537.32	30.441
537.66	31.978
538.01	31.329
538.35	30.583
538.69	29.960
539.03	30.827
539.37	30.148
539.71	29.175
540.05	29.871
540.39	30.332
540.73	30.265
541.07	30.525
541.42	30.578
541.76	30.489
542.10	29.456
542.44	29.187
542.78	29.250
543.12	30.220
543.46	29.694
543.80	29.910
544.14	29.306
544.48	29.913
544.82	28.982
545.16	30.806
545.50	29.640
545.84	30.666
546.18	31.135
546.52	31.002
546.86	29.331
547.20	30.973
547.54	29.399
547.88	30.639
548.22	29.652
548.56	30.475
548.90	30.728
549.24	30.165
549.58	29.901
549.92	29.378
550.26	29.890
550.60	30.037
550.94	31.889
551.28	31.144
551.62	30.923
551.96	29.850
552.30	30.117
552.64	29.408
552.98	30.450
553.32	29.244
553.66	29.753
554.00	30.730
554.34	30.281
554.68	29.130
555.02	30.134
555.36	29.768
555.69	29.597
556.03	30.621
556.37	28.541
556.71	30.253
557.05	30.127
557.39	29.963
557.73	29.685
558.07	30.166
558.41	31.547
558.75	30.242
559.08	29.551
559.42	30.000
559.76	30.424
560.10	29.052
560.44	28.965
560.78	29.790
561.12	31.100
561.45	30.639
561.79	31.373
562.13	30.447
562.47	29.712
562.81	30.764
563.15	30.959
563.48	30.835
563.82	30.199
564.16	29.805
564.50	29.459
564.84	30.924
565.17	30.047
565.51	31.694
565.85	30.590
566.19	30.172
566.52	31.032
566.86	32.069
567.20	30.012
567.54	31.204
567.88	31.517
568.21	31.109
568.55	30.054
568.89	30.749
569.23	31.343
569.56	30.692
569.90	31.222
570.24	30.889
570.57	31.127
570.91	31.614
571.25	31.042
571.59	30.302
571.92	29.807
572.26	30.525
572.60	30.450
572.93	30.185
573.27	30.251
573.61	30.251
573.95	30.093
574.28	30.270
574.62	30.359
574.96	30.292
575.29	30.035
575.63	29.438
575.97	29.845
576.30	30.531
576.64	29.748
576.98	30.888
577.31	30.253
577.65	30.092
577.98	30.558
578.32	30.532
578.66	30.088
578.99	29.878
579.33	30.002
579.67	29.473
580.00	30.608
580.34	30.398
580.67	29.896
581.01	30.259
581.35	30.512
581.68	30.447
582.02	30.079
582.35	30.195
582.69	30.541
583.02	30.656
583.36	30.471
583.70	30.815
584.03	30.553
584.37	31.338
584.70	30.302
585.04	29.948
585.37	30.369
585.71	30.560
586.04	30.308
586.38	30.621
586.72	30.617
587.05	30.936
587.39	31.032
587.72	32.012
588.06	30.252
588.39	31.074
588.73	30.891
589.06	30.887
589.40	30.798
589.73	31.325
590.07	30.853
590.40	31.695
590.73	31.713
591.07	31.637
591.40	31.923
591.74	31.131
592.07	30.473
592.41	31.228
592.74	30.346
593.08	29.724
593.41	30.643
593.75	30.258
594.08	29.969
594.41	30.750
594.75	30.763
595.08	30.685
595.42	30.659
595.75	31.093
596.09	30.063
596.42	30.219
596.75	31.483
597.09	30.524
597.42	30.623
597.75	31.150
598.09	30.195
598.42	29.783
598.76	30.588
599.09	30.449
599.42	29.632
599.76	30.324
600.09	30.241
600.42	30.440
600.76	30.052
601.09	30.344
601.42	29.730
601.76	30.528
602.09	30.363
602.42	31.719
602.76	30.772
603.09	30.980
603.42	31.480
603.76	30.484
604.09	29.729
604.42	30.753
604.76	31.731
605.09	30.393
605.42	30.384
605.75	30.385
606.09	30.573
606.42	30.901
606.75	29.957
607.09	30.066
607.42	30.217
607.75	29.885
608.08	29.605
608.42	30.151
608.75	30.410
609.08	30.294
609.41	31.117
609.75	29.486
610.08	30.055
610.41	30.000
610.74	30.717
611.07	30.336
611.41	29.943
611.74	30.810
612.07	30.353
612.40	30.689
612.73	30.734
613.07	30.090
613.40	30.470
613.73	30.106
614.06	30.217
614.39	31.359
614.72	29.860
615.06	30.223
615.39	30.022
615.72	29.709
616.05	30.391
616.38	29.915
616.71	30.214
617.05	31.007
617.38	31.113
617.71	29.748
618.04	30.730
618.37	30.832
618.70	30.957
619.03	30.972
619.36	30.535
619.69	30.705
620.03	30.460
620.36	29.971
620.69	29.764
621.02	30.887
621.35	31.037
621.68	30.357
622.01	30.750
622.34	30.726
622.67	30.205
623.00	30.858
623.33	29.726
623.66	30.292
623.99	28.669
624.32	30.646
624.65	30.526
624.99	31.452
625.32	30.099
625.65	31.343
625.98	30.620
626.31	28.845
626.64	30.069
626.97	31.152
627.30	29.860
627.63	30.243
627.96	30.009
628.29	29.972
628.62	30.678
628.95	30.461
629.28	30.948
629.61	30.508
629.94	30.596
630.26	29.842
630.59	31.530
630.92	28.308
631.25	30.462
631.58	31.828
631.91	29.496
632.24	28.899
632.57	30.795
632.90	29.063
633.23	30.000
633.56	29.849
633.89	29.593
634.22	31.358
634.55	28.971
634.88	29.502
635.20	29.359
635.53	30.400
635.86	28.088
636.19	30.789
636.52	29.464
636.85	28.908
637.18	30.440
637.51	29.560
637.83	29.304
638.16	32.469
638.49	29.564
638.82	30.132
639.15	29.579
639.48	27.923
639.81	29.010
640.13	30.592
640.46	29.883
640.79	28.130
641.12	28.508
641.45	28.829
641.77	30.222
642.10	31.912
642.43	29.260
642.76	30.693
643.09	29.564
643.41	28.155
643.74	29.654
644.07	31.034
644.40	30.574
644.73	30.823
645.05	30.034
645.38	30.688
645.71	29.078
646.04	28.725
646.36	28.546
646.69	30.576
647.02	28.355
647.35	29.104
647.67	32.541
648.00	30.037
648.33	29.181
648.66	28.644
648.98	29.313
649.31	28.926
649.64	30.298
649.96	27.877
650.29	32.538
650.62	30.256
650.94	29.630
651.27	28.119
651.60	29.910
651.92	30.944
652.25	29.840
652.58	28.833
652.90	31.046
653.23	27.899
653.56	27.580
653.88	28.522
654.21	29.072
654.54	28.014
654.86	30.221
655.19	29.240
655.52	32.972
655.84	30.624
656.17	34.361
656.49	46.751
656.82	48.126
657.15	37.718
657.47	27.868
657.80	20.493
658.13	20.268
658.45	30.973
658.78	30.957
659.10	30.696
659.43	30.127
659.75	29.650
660.08	29.724
660.41	29.724
660.73	27.901
661.06	29.809
661.38	29.159
661.71	27.310
662.03	29.399
662.36	29.451
662.68	28.982
663.01	27.948
663.33	25.754
663.66	30.233
663.98	26.512
664.31	30.490
664.63	28.111
664.96	24.565
665.28	26.269
665.61	32.035
665.93	30.217
666.26	28.633
666.58	27.964
666.91	30.118
667.23	30.189
667.56	27.962
667.88	26.139
668.21	28.162
668.53	29.314
668.86	29.009
669.18	28.774
669.50	26.634
669.83	30.000
670.15	29.138
670.48	27.273
670.80	27.880
671.13	26.174
671.45	28.311
671.77	31.330
672.10	27.327
672.42	29.775
672.75	29.130
673.07	29.696
673.39	29.174
673.72	26.233
674.04	27.083
674.37	29.237
674.69	29.122
675.01	28.222
675.34	27.477
675.66	30.787
675.98	29.047
676.31	28.211
676.63	29.216
676.95	27.955
677.28	30.118
677.60	28.434
677.92	30.046
678.25	28.446
678.57	26.840
678.89	29.832
679.22	27.964
679.54	28.112
679.86	28.032
680.18	30.874
680.51	29.735
680.83	28.827
681.15	28.400
681.48	28.893
681.80	30.579
682.12	29.234
682.44	27.197
682.77	30.464
683.09	27.689
683.41	26.818
683.73	31.336
684.06	28.540
684.38	26.882
684.70	29.847
685.02	26.971
685.34	25.889
685.67	27.205
685.99	27.125
686.31	29.381
686.63	29.870
686.96	28.327
687.28	29.495
687.60	25.665
687.92	31.515
688.24	28.024
688.56	27.293
688.89	30.357
689.21	31.111
689.53	29.234
689.85	27.209
690.17	26.116
690.49	27.660
690.82	27.427
691.14	28.810
691.46	28.271
691.78	28.604
692.10	28.817
692.42	29.004
692.74	27.137
693.06	27.928
693.39	27.602
693.71	28.733
694.03	24.942
694.35	29.439
694.67	28.030
694.99	26.893
695.31	31.070
695.63	26.500
695.95	26.768
696.27	26.684
696.59	27.222
696.91	27.731
697.23	25.450
697.56	26.980
697.88	29.892
698.20	28.929
698.52	28.706
698.84	23.206
699.16	27.250
699.48	30.075
699.80	26.303
700.12	33.154
700.44	26.611
700.76	26.453
701.08	24.545
701.40	26.807
701.72	33.642
702.04	30.693
702.36	28.094
702.68	30.330
703.00	26.364
703.32	22.581
703.64	22.034
703.96	24.638
704.28	26.994
704.60	26.667
704.91	25.552
705.23	23.588
705.55	29.329
705.87	26.715
706.19	28.519
706.51	27.491
706.83	30.225
707.15	25.545
707.47	29.692
707.79	23.958
708.11	27.750
708.43	29.250
708.74	27.649
709.06	29.577
709.38	29.969
709.70	27.811
710.02	27.707
710.34	26.625
710.66	24.038
710.98	24.834
711.29	28.852
711.61	30.169
711.93	25.733
712.25	27.148
712.57	28.571
712.89	22.388
713.20	27.682
713.52	27.178
713.84	25.939
714.16	23.711
714.48	27.097
714.80	28.526
715.11	24.316
715.43	25.705
715.75	23.000
716.07	26.246
716.39	22.819
716.70	25.092
717.02	26.718
717.34	27.126
717.66	24.779
717.97	26.087
718.29	25.941
718.61	27.165
718.93	26.357
719.24	28.517
719.56	27.711
719.88	22.337
720.20	26.136
720.51	26.820
720.83	27.027
721.15	26.050
721.46	25.806
721.78	22.925
722.10	26.766
722.42	24.066
722.73	24.898
723.05	28.980
723.37	29.661
723.68	26.126
724.00	30.342
724.32	23.111
724.63	21.364
724.95	21.834
725.27	29.954
725.58	26.695
725.90	24.206
726.22	30.116
726.53	29.831
726.85	26.217
727.16	30.943
727.48	24.696
727.80	25.911
728.11	23.729
728.43	29.020
728.74	20.161
729.06	26.000
729.38	27.820
729.69	27.092
730.01	23.846
730.32	27.985
730.64	32.509
730.96	24.906
731.27	28.333
731.59	27.458
731.90	29.618
732.22	29.022
732.53	27.575
732.85	27.305
733.16	30.976
733.48	24.820
733.80	25.362
734.11	27.797
734.43	26.460
734.74	30.303
735.06	28.664
735.37	28.097
735.69	30.976
736.00	22.300
736.32	22.819
736.63	28.521
736.95	25.939
737.26	25.267
737.58	26.846
737.89	25.275
738.21	26.316
738.52	24.691
738.83	32.314
739.15	23.144
739.46	29.921
739.78	30.403
740.09	25.490
740.41	23.188
740.72	24.803
741.04	25.911
741.35	25.106
741.66	25.118
741.98	25.000
742.29	18.812
742.61	24.607
742.92	18.483
743.23	27.315
743.55	24.434
743.86	25.359
744.18	22.010
744.49	21.809
744.80	28.804
745.12	31.551
745.43	22.927
745.74	28.646
746.06	20.488
746.37	26.702
746.68	26.066
747.00	26.064
747.31	25.871
747.62	23.301
747.94	27.751
748.25	22.772
748.56	27.869
748.88	22.513
749.19	37.234
749.50	26.601
749.82	24.057
750.13	24.312
750.44	26.316
750.75	26.493
751.07	26.642
751.38	26.054
751.69	23.922
752.01	29.845
752.32	26.295
752.63	24.111
752.94	25.431
753.26	35.983
753.57	24.434
753.88	25.664
754.19	27.500
754.51	23.140
754.82	25.101
755.13	29.583
755.44	28.629
755.75	31.250
756.07	25.681
756.38	28.302
756.69	26.820
757.00	25.000
757.31	27.451
757.63	21.951
757.94	26.389
758.25	22.466
758.56	26.862
758.87	22.663
759.18	27.103
759.50	26.909
759.81	24.080
760.12	29.677
760.43	25.758
760.74	30.247
761.05	28.000
761.36	29.261
761.67	30.606
761.99	26.871
762.30	23.636
762.61	23.320
762.92	24.434
763.23	28.829
763.54	22.430
763.85	26.695
764.16	24.481
764.47	22.581
764.78	26.740
765.10	30.640
765.41	28.707
765.72	29.524
766.03	22.932
766.34	26.642
766.65	33.068
766.96	27.273
767.27	21.809
767.58	21.264
767.89	17.730
768.20	26.705
768.51	26.374
768.82	26.108
769.13	22.581
769.44	24.893
769.75	22.374
770.06	24.569
770.37	21.154
770.68	23.350
770.99	25.792
771.30	30.392
771.61	27.149
771.92	25.862
772.23	32.020
772.54	26.344
772.85	28.395
773.16	29.213
773.47	29.412
773.78	27.451
774.09	20.958
774.39	18.667
774.70	26.115
775.01	24.828
775.32	27.143
775.63	17.355
775.94	22.137
776.25	22.835
776.56	26.667
776.87	15.385
777.18	19.658
777.48	24.138
777.79	21.739
778.10	18.095
778.41	20.721
778.72	26.190
779.03	18.045
779.34	34.752
779.65	29.452
779.95	18.493
780.26	20.690
780.57	17.073
780.88	22.047
781.19	15.517
781.50	20.155
781.80	26.627
782.11	25.157
782.42	33.077
782.73	23.022
783.04	19.259
783.34	29.167
783.65	18.803
783.96	25.410
784.27	24.138
784.57	17.886
784.88	25.781
785.19	22.000
785.50	32.000
785.81	31.897
786.11	23.276
786.42	29.126
786.73	28.182
787.04	18.367
787.34	15.179
787.65	30.476
787.96	26.549
788.26	22.727
788.57	22.222
788.88	26.563
789.19	16.667
789.49	28.696
789.80	17.347
790.11	17.172
790.41	14.545
790.72	30.435
791.03	17.045
791.33	17.500
791.64	17.500
791.95	20.930
792.25	10.638
792.56	28.090
792.87	8.219
793.17	15.942
793.48	18.667
793.79	6.250
794.09	25.000
794.40	25.472
794.70	24.272
795.01	15.447
795.32	25.641
795.62	22.857
795.93	27.451
796.23	21.698
796.54	17.708
796.85	17.647
797.15	19.718
797.46	31.944
797.76	28.788
798.07	15.116
798.37	19.737
798.68	16.667
798.99	14.815
799.29	27.143
799.60	23.188
799.90	24.000
800.21	16.393
800.51	18.462
800.82	3.390
801.12	13.043
801.43	26.230
801.73	22.222
802.04	18.000
802.34	7.463
802.65	36.538
802.95	5.357
803.26	11.538
803.56	31.373
803.87	2.174
804.17	21.333
804.48	38.095
804.78	1.852
805.09	-6.522
805.39	20.000
805.70	31.481
806.00	14.035
806.30	25.352
806.61	15.714
806.91	11.111
807.22	26.316
807.52	38.667
807.83	16.364
808.13	25.000
808.43	32.353
808.74	10.448
809.04	10.169
809.35	23.077
809.65	10.938
809.95	-2.703
810.26	4.545
810.56	15.068
810.86	16.667
811.17	4.000
811.47	4.082
811.77	-7.895
812.08	9.091
812.38	11.321
812.69	2.500
812.99	6.061
813.29	-2.632
813.59	17.143
813.90	22.727
814.20	-17.949
814.50	5.769
814.81	41.509
815.11	2.128
815.41	27.119
815.72	14.286
816.02	27.451
816.32	27.083
816.62	9.756
816.93	18.919
817.23	0.000
817.53	33.333
817.84	2.174
818.14	11.538
818.44	2.632
818.74	17.391
819.04	-27.500
819.35	27.027
819.65	11.765
819.95	-27.778
820.25	26.190
820.56	40.000
820.86	-31.034
821.16	22.500
821.46	2.128
821.76	2.500
822.07	16.279
822.37	16.216
822.67	-46.875
822.97	28.571
823.27	7.143
823.57	-28.000
823.88	-25.926
824.18	14.286
824.48	-35.294
824.78	-9.677
825.08	39.130
825.38	-6.061
825.69	-16.667
825.99	10.526
826.29	-19.444
826.59	-13.333
826.89	-9.524
827.19	8.696
827.49	20.000
827.79	42.857
828.09	17.857
828.39	-3.030
828.70	24.324
829.00	-10.714
829.30	0.000
829.60	6.667
829.90	34.375
830.20	0.000
830.50	7.407
830.80	30.435
831.10	-18.182
831.40	27.273
831.70	12.903
832.00	42.857
832.30	-4.762
832.60	-58.333
832.90	13.793
833.20	-20.000
833.50	6.061
833.80	-29.630
834.10	38.462
834.40	37.500
834.70	-155.556
835.00	-63.158
835.30	11.538
835.60	-6.667
835.90	-3.226
836.20	18.182
836.50	21.429
836.80	-53.846
837.10	17.857
837.40	0.000
837.70	36.364
838.00	-154.545
838.30	39.130
838.60	0.000
838.90	13.636
839.19	28.571
839.49	33.333
839.79	-38.462
840.09	-83.333
840.39	28.571
840.69	-17.857
840.99	-15.385
841.29	-52.632
841.59	-130.000
841.88	-36.364
842.18	-80.000
842.48	0.000
842.78	-33.333
843.08	-11.111
843.38	-180.000
843.68	0.000
843.97	-33.333
844.27	-73.333
844.57	-15.000
844.87	-5.556
845.17	-9.524
845.47	106.667
845.76	-19.048
846.06	5.882
846.36	-20.000
846.66	-71.429
846.96	-40.000
847.25	-37.500
847.55	28.571
847.85	-62.500
848.15	-22.727
848.44	-433.333
848.74	5.000
849.04	-11.111
849.34	-72.727
849.63	-150.000
849.93	-320.000
850.23	-33.333
850.53	20.000
850.82	-38.462
851.12	-88.889
851.42	26.667
851.71	-11.538
852.01	-57.143
852.31	0.000
852.61	-127.273
852.90	0.000
853.20	42.105
853.50	-50.000
853.79	30.435
854.09	33.333
854.39	5.263
854.68	-20.833
854.98	22.581
855.28	38.462
855.57	45.000
855.87	-16.667
856.17	37.037
856.46	-21.429
856.76	-33.333
857.05	88.889
857.35	-4.000
857.65	-11.111
857.94	-61.538
858.24	13.793
858.53	16.667
858.83	-3.704
859.13	-9.091
859.42	13.043
859.72	-175.000
860.01	-300.000
860.31	-28.000
860.60	-19.048
860.90	-466.667
861.20	-86.667
861.49	-1050.000
861.79	-73.333
862.08	-5.000
862.38	86.667
862.67	-80.000
862.97	-100.000
863.26	0.000
863.56	-38.889
863.85	-533.333
864.15	33.333
864.44	-110.000
864.74	0.000
865.03	300.000
865.33	-260.000
865.62	-116.667
865.92	-33.333
866.21	-133.333
866.51	31.250
866.80	-90.909
867.10	-550.000
867.39	66.667
867.69	0.000
867.98	53.846
868.27	-200.000
868.57	-20.000
868.86	-33.333
869.16	-84.615
869.45	13.333
869.75	-600.000
870.04	0.000
870.33	-157.143
870.63	33.333
870.92	333.333
871.22	-200.000
871.51	-1100.000
871.80	55.556
872.10	466.667
>>>>>End Processed Spectral Data<<<<<
