SpectraSuite Data File
++++++++++++++++++++++++++++++++++++
Date: Fri May 15 20:53:44 PDT 2015
User: schluterlab
Dark Spectrum Present: Yes
Reference Spectrum Present: Yes
Number of Sampled Component Spectra: 1
Spectrometers: USB2E3373
Integration Time (usec): 3000 (USB2E3373)
Spectra Averaged: 3 (USB2E3373)
Boxcar Smoothing: 0 (USB2E3373)
Correct for Electrical Dark: No (USB2E3373)
Strobe/Lamp Enabled: No (USB2E3373)
Correct for Detector Non-linearity: No (USB2E3373)
Correct for Stray Light: No (USB2E3373)
Number of Pixels in Processed Spectrum: 2048
>>>>>Begin Processed Spectral Data<<<<<
178.53	0.000
178.91	0.000
179.29	75.000
179.67	-550.000
180.04	-0.000
180.42	-50.000
180.80	-900.000
181.18	466.667
181.56	400.000
181.94	50.000
182.31	700.000
182.69	-100.000
183.07	-233.333
183.45	60.000
183.83	166.667
184.20	-9.091
184.58	111.111
184.96	-175.000
185.34	133.333
185.72	-500.000
186.09	100.000
186.47	-1100.000
186.85	133.333
187.23	11.111
187.61	1000.000
187.98	-333.333
188.36	55.556
188.74	100.000
189.12	-23.529
189.49	66.667
189.87	0.000
190.25	57.143
190.63	250.000
191.00	-266.667
191.38	10.526
191.76	250.000
192.14	350.000
192.51	-150.000
192.89	-122.222
193.27	-142.857
193.65	116.667
194.02	90.909
194.40	10.000
194.78	-75.000
195.15	116.667
195.53	-150.000
195.91	375.000
196.29	-400.000
196.66	61.538
197.04	128.571
197.42	-77.778
197.79	-400.000
198.17	-38.462
198.55	-0.000
198.92	0.000
199.30	-100.000
199.68	20.000
200.05	-166.667
200.43	0.000
200.81	-133.333
201.18	-100.000
201.56	1500.000
201.94	-550.000
202.31	66.667
202.69	-100.000
203.07	175.000
203.44	-100.000
203.82	0.000
204.19	42.857
204.57	-466.667
204.95	162.500
205.32	-130.000
205.70	14.286
206.08	-125.000
206.45	88.889
206.83	64.286
207.20	-157.143
207.58	1100.000
207.96	-433.333
208.33	-150.000
208.71	-75.000
209.08	-300.000
209.46	-600.000
209.84	-80.000
210.21	-400.000
210.59	85.714
210.96	50.000
211.34	-100.000
211.71	0.000
212.09	-28.571
212.46	-1800.000
212.84	0.000
213.22	-10.000
213.59	300.000
213.97	61.538
214.34	-36.364
214.72	-133.333
215.09	325.000
215.47	-15.385
215.84	-27.273
216.22	-266.667
216.59	-50.000
216.97	-150.000
217.34	75.000
217.72	-100.000
218.09	37.500
218.47	200.000
218.84	-500.000
219.22	-111.111
219.59	0.000
219.97	266.667
220.34	250.000
220.72	71.429
221.09	-150.000
221.47	-550.000
221.84	-650.000
222.22	-350.000
222.59	54.545
222.97	-41.667
223.34	-166.667
223.72	14.286
224.09	-23.810
224.46	-3.571
224.84	466.667
225.21	-90.000
225.59	6.667
225.96	50.000
226.34	650.000
226.71	57.143
227.08	-66.667
227.46	-162.500
227.83	-500.000
228.21	44.444
228.58	0.000
228.95	-62.500
229.33	210.000
229.70	-6.250
230.08	-137.500
230.45	28.571
230.82	-42.857
231.20	-33.333
231.57	71.429
231.95	114.286
232.32	-110.000
232.69	42.857
233.07	-166.667
233.44	-200.000
233.81	-120.000
234.19	0.000
234.56	-41.176
234.93	650.000
235.31	-25.000
235.68	-320.000
236.05	-123.077
236.43	-45.000
236.80	-41.176
237.17	-12.500
237.55	25.000
237.92	-44.444
238.29	-2.778
238.67	-16.667
239.04	-2.941
239.41	-4.878
239.79	-33.333
240.16	4.878
240.53	7.895
240.91	-23.913
241.28	-6.349
241.65	3.571
242.02	4.110
242.40	5.000
242.77	-11.864
243.14	-1.515
243.51	-1.250
243.89	2.299
244.26	-11.494
244.63	-14.286
245.00	4.124
245.38	4.124
245.75	-6.742
246.12	-12.069
246.49	0.826
246.87	-3.846
247.24	-7.563
247.61	-9.649
247.98	-4.878
248.36	-2.500
248.73	0.658
249.10	-2.597
249.47	-5.063
249.84	-5.229
250.22	1.765
250.59	1.961
250.96	2.347
251.33	-2.326
251.70	-0.588
252.08	-4.061
252.45	-2.475
252.82	0.000
253.19	-0.922
253.56	-6.542
253.94	-0.450
254.31	0.870
254.68	3.070
255.05	-1.181
255.42	-3.057
255.79	-0.772
256.16	-0.778
256.54	3.731
256.91	0.380
257.28	-3.717
257.65	-0.749
258.02	0.000
258.39	0.673
258.76	-1.465
259.14	4.319
259.51	1.942
259.88	-2.405
260.25	-0.327
260.62	0.694
260.99	-3.390
261.36	-2.740
261.73	-2.848
262.10	0.000
262.47	-0.307
262.85	-0.627
263.22	-0.308
263.59	-0.312
263.96	1.553
264.33	-2.727
264.70	-1.786
265.07	-0.893
265.44	0.567
265.81	1.130
266.18	-1.639
266.55	0.771
266.92	0.777
267.29	-1.044
267.66	-2.813
268.03	0.000
268.40	0.261
268.77	-1.070
269.14	0.000
269.51	0.000
269.88	-0.998
270.25	-2.041
270.62	-3.171
270.99	-2.302
271.36	-2.934
271.73	2.582
272.10	0.487
272.47	-0.236
272.84	-4.208
273.21	3.016
273.58	-0.241
273.95	-0.229
274.32	-2.540
274.69	-1.584
275.06	0.000
275.43	0.907
275.80	-0.442
276.17	-1.379
276.54	-1.927
276.91	-0.219
277.28	1.092
277.65	0.000
278.02	-0.638
278.39	-0.438
278.76	-1.468
279.13	-0.622
279.50	2.521
279.87	-0.216
280.23	-1.075
280.60	1.949
280.97	1.010
281.34	-0.577
281.71	2.875
282.08	-2.658
282.45	-0.978
282.82	-0.386
283.19	1.934
283.56	-0.578
283.92	-1.518
284.29	-2.115
284.66	-1.357
285.03	-0.393
285.40	0.945
285.77	0.000
286.14	0.000
286.51	2.030
286.87	0.548
287.24	0.737
287.61	-1.764
287.98	2.632
288.35	0.520
288.72	1.751
289.08	0.000
289.45	0.000
289.82	1.573
290.19	-1.195
290.56	-0.858
290.93	0.673
291.29	-0.770
291.66	1.417
292.03	1.276
292.40	0.806
292.77	-0.159
293.13	-1.299
293.50	-0.455
293.87	0.763
294.24	0.618
294.60	0.745
294.97	1.637
295.34	-0.767
295.71	0.596
296.08	0.299
296.44	0.569
296.81	1.250
297.18	1.739
297.55	2.033
297.91	0.274
298.28	3.958
298.65	2.578
299.02	0.943
299.38	1.094
299.75	1.103
300.12	1.309
300.48	2.635
300.85	2.662
301.22	2.338
301.59	1.842
301.95	2.405
302.32	3.891
302.69	3.234
303.05	2.723
303.42	2.864
303.79	4.089
304.15	4.779
304.52	2.854
304.89	3.275
305.25	2.179
305.62	4.434
305.99	2.924
306.35	3.584
306.72	5.512
307.09	3.877
307.45	5.626
307.82	4.398
308.19	6.156
308.55	5.016
308.92	5.991
309.29	3.575
309.65	6.136
310.02	5.501
310.38	6.147
310.75	6.230
311.12	7.427
311.48	7.423
311.85	7.435
312.22	7.595
312.58	6.476
312.95	6.724
313.31	6.625
313.68	6.702
314.05	7.551
314.41	8.041
314.78	7.216
315.14	8.530
315.51	9.627
315.87	8.709
316.24	9.808
316.61	10.236
316.97	9.325
317.34	8.691
317.70	9.273
318.07	9.712
318.43	10.392
318.80	9.943
319.16	10.449
319.53	12.441
319.89	10.728
320.26	10.729
320.62	12.538
320.99	12.422
321.35	13.258
321.72	13.396
322.08	13.494
322.45	13.807
322.81	13.360
323.18	13.739
323.54	14.286
323.91	14.216
324.27	16.309
324.64	14.700
325.00	17.336
325.37	18.274
325.73	18.314
326.10	19.346
326.46	18.386
326.83	17.673
327.19	19.180
327.56	20.156
327.92	20.599
328.29	20.179
328.65	21.792
329.01	20.864
329.38	22.028
329.74	22.191
330.11	22.892
330.47	21.985
330.84	22.692
331.20	23.004
331.56	23.704
331.93	24.018
332.29	24.381
332.66	23.348
333.02	24.535
333.38	23.831
333.75	25.549
334.11	23.187
334.48	24.841
334.84	24.359
335.20	24.886
335.57	25.023
335.93	23.668
336.29	24.678
336.66	24.342
337.02	25.465
337.38	24.352
337.75	25.727
338.11	24.436
338.47	24.818
338.84	25.693
339.20	25.229
339.56	25.138
339.93	23.903
340.29	23.945
340.65	24.283
341.02	24.911
341.38	23.805
341.74	24.470
342.11	24.090
342.47	24.288
342.83	25.692
343.20	25.348
343.56	25.565
343.92	25.421
344.28	25.705
344.65	23.748
345.01	24.546
345.37	24.895
345.73	25.523
346.10	24.935
346.46	24.474
346.82	25.123
347.19	23.358
347.55	25.230
347.91	25.485
348.27	24.252
348.63	24.872
349.00	24.528
349.36	25.104
349.72	25.207
350.08	25.082
350.45	24.900
350.81	24.003
351.17	24.023
351.53	25.143
351.89	23.782
352.26	24.160
352.62	24.839
352.98	24.177
353.34	24.879
353.70	25.162
354.07	25.000
354.43	23.859
354.79	24.277
355.15	24.841
355.51	25.000
355.87	24.838
356.24	23.328
356.60	23.767
356.96	24.127
357.32	24.441
357.68	23.925
358.04	24.879
358.40	24.920
358.77	25.359
359.13	24.019
359.49	23.806
359.85	24.103
360.21	24.402
360.57	23.718
360.93	23.979
361.29	24.169
361.66	24.451
362.02	25.076
362.38	24.981
362.74	24.300
363.10	24.755
363.46	24.463
363.82	24.944
364.18	25.092
364.54	23.309
364.90	24.803
365.26	23.872
365.62	25.985
365.98	25.367
366.35	24.035
366.71	25.795
367.07	25.181
367.43	25.018
367.79	24.876
368.15	24.551
368.51	24.253
368.87	24.623
369.23	24.693
369.59	25.146
369.95	25.660
370.31	24.711
370.67	25.149
371.03	25.243
371.39	24.945
371.75	25.275
372.11	24.750
372.47	25.148
372.83	25.337
373.19	24.322
373.55	25.487
373.91	26.422
374.27	25.443
374.63	25.413
374.99	23.830
375.35	25.139
375.71	26.783
376.07	26.194
376.42	24.762
376.78	25.570
377.14	25.118
377.50	25.365
377.86	26.707
378.22	25.846
378.58	25.641
378.94	26.024
379.30	25.515
379.66	25.580
380.02	25.506
380.38	25.137
380.74	25.135
381.09	26.258
381.45	25.994
381.81	25.787
382.17	26.332
382.53	25.796
382.89	26.177
383.25	26.447
383.61	25.793
383.97	25.270
384.32	25.328
384.68	25.139
385.04	24.877
385.40	24.891
385.76	26.981
386.12	27.296
386.48	26.756
386.83	25.999
387.19	26.068
387.55	26.035
387.91	25.795
388.27	25.397
388.62	26.621
388.98	25.660
389.34	25.422
389.70	25.979
390.06	24.733
390.42	25.648
390.77	25.180
391.13	25.536
391.49	25.226
391.85	24.691
392.20	25.989
392.56	25.747
392.92	25.367
393.28	24.882
393.64	26.126
393.99	26.458
394.35	24.478
394.71	24.904
395.07	25.707
395.42	25.379
395.78	25.016
396.14	25.032
396.50	25.301
396.85	26.401
397.21	26.190
397.57	25.705
397.92	25.824
398.28	25.977
398.64	25.060
399.00	25.847
399.35	25.056
399.71	25.790
400.07	24.970
400.42	26.071
400.78	24.434
401.14	26.558
401.49	26.147
401.85	25.229
402.21	24.940
402.57	25.375
402.92	24.655
403.28	25.627
403.63	24.905
403.99	24.490
404.35	25.734
404.70	24.821
405.06	25.323
405.42	25.482
405.77	24.869
406.13	24.913
406.49	25.281
406.84	25.367
407.20	25.166
407.55	24.147
407.91	24.666
408.27	24.665
408.62	25.292
408.98	24.954
409.34	24.969
409.69	25.000
410.05	23.768
410.40	24.753
410.76	24.849
411.11	24.437
411.47	25.247
411.83	23.666
412.18	24.968
412.54	24.282
412.89	24.076
413.25	24.729
413.60	24.596
413.96	24.356
414.31	25.061
414.67	24.310
415.03	24.700
415.38	23.956
415.74	25.342
416.09	25.669
416.45	25.321
416.80	24.124
417.16	24.793
417.51	24.450
417.87	24.902
418.22	25.130
418.58	25.552
418.93	25.455
419.29	23.816
419.64	24.433
420.00	24.811
420.35	24.776
420.71	25.152
421.06	24.923
421.42	25.240
421.77	24.798
422.12	24.461
422.48	24.635
422.83	25.000
423.19	25.282
423.54	24.574
423.90	25.618
424.25	24.914
424.61	25.153
424.96	24.797
425.31	25.765
425.67	25.176
426.02	26.031
426.38	25.924
426.73	26.090
427.09	26.582
427.44	26.412
427.79	25.575
428.15	25.850
428.50	25.500
428.85	24.939
429.21	26.033
429.56	25.876
429.92	25.937
430.27	26.266
430.62	24.935
430.98	25.955
431.33	25.920
431.68	26.269
432.04	27.725
432.39	25.727
432.74	26.398
433.10	26.667
433.45	26.464
433.80	26.930
434.16	25.928
434.51	26.290
434.86	27.294
435.22	26.584
435.57	27.137
435.92	26.228
436.28	26.535
436.63	26.469
436.98	27.289
437.34	26.558
437.69	28.145
438.04	27.806
438.39	27.123
438.75	28.112
439.10	27.787
439.45	27.754
439.81	27.584
440.16	27.494
440.51	27.582
440.86	29.668
441.22	27.771
441.57	28.201
441.92	29.381
442.27	28.548
442.63	29.015
442.98	27.800
443.33	27.379
443.68	28.276
444.03	28.564
444.39	27.939
444.74	28.261
445.09	28.675
445.44	29.003
445.79	29.706
446.15	28.304
446.50	28.175
446.85	28.799
447.20	28.206
447.55	29.576
447.91	29.103
448.26	29.596
448.61	29.534
448.96	29.604
449.31	29.480
449.66	29.907
450.02	29.093
450.37	28.749
450.72	28.465
451.07	29.810
451.42	28.714
451.77	29.777
452.12	28.768
452.47	29.041
452.83	29.034
453.18	28.526
453.53	29.646
453.88	30.055
454.23	30.240
454.58	29.975
454.93	30.026
455.28	28.889
455.63	29.448
455.98	29.645
456.34	30.587
456.69	30.559
457.04	30.687
457.39	30.863
457.74	29.927
458.09	29.135
458.44	28.906
458.79	29.188
459.14	30.549
459.49	30.567
459.84	30.118
460.19	29.672
460.54	30.134
460.89	29.716
461.24	30.186
461.59	30.404
461.94	29.686
462.29	31.484
462.64	30.365
462.99	30.129
463.34	29.833
463.69	29.794
464.04	30.811
464.39	29.654
464.74	30.491
465.09	30.256
465.44	30.294
465.79	29.025
466.14	30.103
466.49	28.867
466.84	30.220
467.19	30.601
467.54	29.821
467.89	30.575
468.24	29.927
468.59	31.111
468.94	29.714
469.29	30.689
469.64	30.554
469.99	30.624
470.34	28.874
470.68	31.096
471.03	30.432
471.38	30.171
471.73	30.742
472.08	30.190
472.43	29.933
472.78	30.295
473.13	30.612
473.48	30.228
473.83	29.639
474.17	29.922
474.52	29.547
474.87	29.515
475.22	29.835
475.57	29.870
475.92	30.005
476.27	30.501
476.61	30.208
476.96	29.894
477.31	30.936
477.66	30.169
478.01	29.983
478.36	29.412
478.70	30.995
479.05	31.264
479.40	30.737
479.75	29.406
480.10	29.186
480.45	29.500
480.79	29.507
481.14	30.789
481.49	29.163
481.84	29.875
482.19	29.373
482.53	30.024
482.88	30.167
483.23	29.415
483.58	29.953
483.92	28.945
484.27	29.809
484.62	29.494
484.97	29.353
485.31	29.263
485.66	27.646
486.01	28.344
486.36	28.092
486.70	27.802
487.05	28.278
487.40	28.309
487.75	28.479
488.09	28.801
488.44	29.127
488.79	29.361
489.13	28.886
489.48	29.329
489.83	29.686
490.17	29.213
490.52	29.607
490.87	28.690
491.22	29.847
491.56	29.554
491.91	28.298
492.26	29.217
492.60	28.791
492.95	29.611
493.30	28.872
493.64	29.666
493.99	30.145
494.34	29.029
494.68	29.619
495.03	29.343
495.37	28.852
495.72	29.581
496.07	30.244
496.41	29.104
496.76	29.526
497.11	28.551
497.45	28.783
497.80	29.566
498.14	29.061
498.49	28.542
498.84	29.741
499.18	29.367
499.53	28.968
499.87	28.259
500.22	28.635
500.56	28.089
500.91	28.062
501.26	27.781
501.60	28.972
501.95	29.015
502.29	28.329
502.64	28.958
502.98	28.712
503.33	27.906
503.67	28.145
504.02	28.348
504.36	28.946
504.71	27.929
505.06	27.680
505.40	28.071
505.75	28.505
506.09	28.028
506.44	28.285
506.78	29.082
507.13	28.387
507.47	28.668
507.82	27.618
508.16	28.051
508.51	28.437
508.85	29.513
509.19	27.940
509.54	27.775
509.88	28.101
510.23	28.886
510.57	28.755
510.92	27.239
511.26	28.696
511.61	28.548
511.95	28.274
512.30	28.548
512.64	28.881
512.98	28.299
513.33	28.036
513.67	27.459
514.02	28.661
514.36	29.429
514.70	29.254
515.05	27.732
515.39	28.630
515.74	28.563
516.08	29.050
516.42	28.563
516.77	29.023
517.11	28.546
517.46	28.965
517.80	28.546
518.14	28.659
518.49	28.786
518.83	28.129
519.17	27.229
519.52	28.005
519.86	27.731
520.20	28.068
520.55	27.830
520.89	28.231
521.23	28.689
521.58	28.517
521.92	28.269
522.26	27.977
522.61	28.052
522.95	29.073
523.29	28.272
523.64	28.463
523.98	29.099
524.32	26.546
524.66	29.193
525.01	28.636
525.35	28.192
525.69	28.418
526.04	27.712
526.38	28.923
526.72	26.619
527.06	26.913
527.41	27.704
527.75	26.676
528.09	27.641
528.43	28.224
528.78	27.591
529.12	28.516
529.46	27.420
529.80	27.296
530.15	28.779
530.49	27.744
530.83	27.291
531.17	26.864
531.51	27.018
531.86	27.328
532.20	26.026
532.54	26.821
532.88	27.173
533.22	26.882
533.57	27.457
533.91	26.632
534.25	28.060
534.59	26.812
534.93	26.054
535.27	26.332
535.62	26.507
535.96	26.288
536.30	26.979
536.64	27.016
536.98	26.620
537.32	26.956
537.66	27.770
538.01	26.713
538.35	26.352
538.69	25.965
539.03	25.427
539.37	26.043
539.71	26.176
540.05	26.069
540.39	26.177
540.73	26.709
541.07	26.450
541.42	26.411
541.76	25.740
542.10	25.946
542.44	26.199
542.78	24.914
543.12	25.824
543.46	25.452
543.80	26.509
544.14	25.567
544.48	25.849
544.82	25.974
545.16	26.093
545.50	25.768
545.84	26.062
546.18	25.957
546.52	26.604
546.86	25.953
547.20	25.608
547.54	25.512
547.88	25.476
548.22	24.852
548.56	24.406
548.90	25.337
549.24	25.758
549.58	25.529
549.92	25.232
550.26	25.275
550.60	25.948
550.94	25.019
551.28	25.425
551.62	24.692
551.96	24.887
552.30	24.269
552.64	25.035
552.98	25.738
553.32	24.108
553.66	23.440
554.00	24.380
554.34	25.406
554.68	24.779
555.02	25.298
555.36	23.411
555.69	23.150
556.03	23.983
556.37	23.559
556.71	25.054
557.05	23.714
557.39	23.941
557.73	24.963
558.07	25.867
558.41	24.579
558.75	24.474
559.08	24.980
559.42	25.079
559.76	24.580
560.10	23.394
560.44	24.274
560.78	23.357
561.12	23.061
561.45	24.385
561.79	24.720
562.13	24.273
562.47	24.101
562.81	23.775
563.15	24.612
563.48	25.106
563.82	24.640
564.16	24.025
564.50	23.378
564.84	23.762
565.17	22.871
565.51	23.361
565.85	24.074
566.19	23.011
566.52	24.196
566.86	23.972
567.20	22.727
567.54	24.027
567.88	23.492
568.21	24.434
568.55	21.576
568.89	21.869
569.23	22.966
569.56	21.541
569.90	22.127
570.24	21.213
570.57	21.418
570.91	21.819
571.25	21.440
571.59	21.084
571.92	20.770
572.26	20.894
572.60	21.240
572.93	20.772
573.27	21.097
573.61	20.853
573.95	21.191
574.28	19.862
574.62	19.959
574.96	20.568
575.29	20.394
575.63	19.668
575.97	19.816
576.30	20.551
576.64	20.053
576.98	20.154
577.31	20.349
577.65	20.505
577.98	19.886
578.32	19.791
578.66	19.815
578.99	19.396
579.33	19.660
579.67	19.783
580.00	19.848
580.34	19.851
580.67	19.263
581.01	19.957
581.35	19.940
581.68	19.622
582.02	19.325
582.35	19.499
582.69	19.692
583.02	19.889
583.36	19.659
583.70	20.483
584.03	20.267
584.37	20.158
584.70	19.396
585.04	19.611
585.37	19.779
585.71	19.625
586.04	19.667
586.38	19.312
586.72	20.115
587.05	19.757
587.39	20.073
587.72	20.148
588.06	19.651
588.39	19.653
588.73	20.085
589.06	20.026
589.40	20.290
589.73	20.007
590.07	20.242
590.40	20.395
590.73	20.264
591.07	20.017
591.40	20.169
591.74	20.181
592.07	21.104
592.41	20.230
592.74	19.315
593.08	19.246
593.41	19.769
593.75	19.562
594.08	19.053
594.41	19.869
594.75	19.847
595.08	19.258
595.42	19.617
595.75	19.414
596.09	19.116
596.42	19.636
596.75	20.648
597.09	20.273
597.42	20.506
597.75	20.018
598.09	19.602
598.42	18.998
598.76	19.477
599.09	19.351
599.42	19.439
599.76	19.338
600.09	19.155
600.42	19.295
600.76	18.648
601.09	19.008
601.42	19.115
601.76	19.055
602.09	19.266
602.42	19.503
602.76	19.397
603.09	19.145
603.42	19.565
603.76	19.435
604.09	19.077
604.42	19.162
604.76	20.160
605.09	19.378
605.42	19.323
605.75	19.527
606.09	19.108
606.42	19.058
606.75	18.745
607.09	19.780
607.42	18.520
607.75	19.094
608.08	18.419
608.42	19.415
608.75	19.663
609.08	19.033
609.41	19.036
609.75	18.952
610.08	19.371
610.41	18.937
610.74	19.015
611.07	19.483
611.41	19.253
611.74	20.096
612.07	18.737
612.40	19.694
612.73	19.379
613.07	18.729
613.40	19.748
613.73	18.747
614.06	19.699
614.39	19.289
614.72	19.552
615.06	18.715
615.39	18.723
615.72	18.299
616.05	18.994
616.38	17.550
616.71	18.287
617.05	19.642
617.38	19.673
617.71	19.623
618.04	19.111
618.37	19.924
618.70	20.264
619.03	21.389
619.36	18.958
619.69	19.030
620.03	20.307
620.36	19.814
620.69	19.343
621.02	20.107
621.35	19.834
621.68	19.558
622.01	21.083
622.34	20.351
622.67	20.189
623.00	19.296
623.33	20.046
623.66	19.147
623.99	19.365
624.32	18.859
624.65	17.970
624.99	18.962
625.32	19.333
625.65	20.581
625.98	20.064
626.31	18.953
626.64	20.191
626.97	21.204
627.30	18.914
627.63	19.757
627.96	20.036
628.29	19.426
628.62	21.337
628.95	20.541
629.28	20.060
629.61	19.143
629.94	20.723
630.26	19.368
630.59	21.020
630.92	20.923
631.25	19.795
631.58	20.264
631.91	21.711
632.24	18.349
632.57	21.250
632.90	18.861
633.23	20.941
633.56	19.899
633.89	19.852
634.22	20.741
634.55	19.822
634.88	19.413
635.20	19.231
635.53	21.733
635.86	18.726
636.19	20.052
636.52	20.791
636.85	20.223
637.18	20.126
637.51	20.126
637.83	20.631
638.16	21.282
638.49	19.210
638.82	20.658
639.15	19.674
639.48	21.596
639.81	19.805
640.13	20.924
640.46	19.242
640.79	19.735
641.12	19.793
641.45	18.619
641.77	19.407
642.10	22.433
642.43	19.293
642.76	22.442
643.09	20.355
643.41	19.417
643.74	20.099
644.07	19.540
644.40	19.257
644.73	21.891
645.05	20.638
645.38	20.282
645.71	19.858
646.04	22.262
646.36	20.745
646.69	21.583
647.02	20.227
647.35	21.269
647.67	22.121
648.00	22.761
648.33	19.966
648.66	19.322
648.98	17.085
649.31	19.174
649.64	19.309
649.96	18.801
650.29	18.228
650.62	17.778
650.94	21.852
651.27	21.415
651.60	21.441
651.92	20.280
652.25	18.295
652.58	19.167
652.90	22.298
653.23	18.319
653.56	17.766
653.88	20.447
654.21	15.762
654.54	20.034
654.86	18.846
655.19	17.105
655.52	18.189
655.84	15.073
656.17	16.316
656.49	22.203
656.82	23.509
657.15	17.815
657.47	13.423
657.80	9.952
658.13	9.907
658.45	15.158
658.78	15.583
659.10	14.675
659.43	15.624
659.75	16.576
660.08	17.310
660.41	17.467
660.73	19.199
661.06	19.237
661.38	17.221
661.71	16.838
662.03	19.742
662.36	19.780
662.68	18.805
663.01	21.179
663.33	17.633
663.66	21.395
663.98	19.070
664.31	18.337
664.63	17.742
664.96	17.609
665.28	17.219
665.61	20.346
665.93	18.696
666.26	18.655
666.58	19.463
666.91	20.000
667.23	21.698
667.56	21.327
667.88	17.026
668.21	19.093
668.53	21.513
668.86	18.160
669.18	18.396
669.50	20.097
669.83	19.070
670.15	17.483
670.48	20.335
670.80	18.433
671.13	17.897
671.45	15.982
671.77	20.815
672.10	19.802
672.42	18.165
672.75	17.052
673.07	19.499
673.39	19.450
673.72	16.371
674.04	19.167
674.37	20.975
674.69	16.060
675.01	17.333
675.34	18.919
675.66	19.676
675.98	18.847
676.31	19.725
676.63	17.815
676.95	15.682
677.28	21.176
677.60	20.000
677.92	17.431
678.25	17.724
678.57	17.316
678.89	20.168
679.22	16.331
679.54	15.863
679.86	16.501
680.18	17.476
680.51	19.697
680.83	16.103
681.15	18.000
681.48	19.672
681.80	16.736
682.12	19.556
682.44	16.946
682.77	17.881
683.09	16.705
683.41	17.955
683.73	20.737
684.06	17.478
684.38	15.054
684.70	14.597
685.02	16.598
685.34	15.810
685.67	14.259
685.99	17.541
686.31	15.752
686.63	17.440
686.96	14.449
687.28	14.343
687.60	15.779
687.92	17.576
688.24	15.524
688.56	16.594
688.89	16.295
689.21	18.889
689.53	14.849
689.85	15.349
690.17	17.188
690.49	13.002
690.82	16.019
691.14	17.381
691.46	17.757
691.78	15.991
692.10	16.344
692.42	14.719
692.74	16.667
693.06	16.892
693.39	14.027
693.71	15.611
694.03	15.935
694.35	17.523
694.67	17.424
694.99	13.577
695.31	16.710
695.63	21.750
695.95	15.909
696.27	13.990
696.59	18.333
696.91	14.846
697.23	14.653
697.56	15.594
697.88	17.419
698.20	14.579
698.52	18.353
698.84	14.354
699.16	15.250
699.48	14.787
699.80	13.896
700.12	14.286
700.44	15.126
700.76	12.791
701.08	12.727
701.40	16.566
701.72	15.741
702.04	17.162
702.36	16.722
702.68	13.814
703.00	17.273
703.32	13.196
703.64	14.689
703.96	18.551
704.28	14.110
704.60	18.095
704.91	14.511
705.23	11.960
705.55	18.021
705.87	17.690
706.19	15.185
706.51	13.402
706.83	15.434
707.15	13.084
707.47	14.566
707.79	15.885
708.11	18.750
708.43	16.000
708.74	16.279
709.06	16.901
709.38	15.596
709.70	15.976
710.02	18.790
710.34	20.433
710.66	10.577
710.98	16.225
711.29	17.705
711.61	16.610
711.93	17.264
712.25	15.808
712.57	10.989
712.89	13.433
713.20	17.993
713.52	16.725
713.84	15.700
714.16	14.777
714.48	18.065
714.80	12.821
715.11	13.982
715.43	14.107
715.75	16.333
716.07	13.953
716.39	12.752
716.70	14.760
717.02	14.885
717.34	12.955
717.66	16.814
717.97	13.913
718.29	13.389
718.61	13.780
718.93	16.279
719.24	13.688
719.56	12.048
719.88	11.684
720.20	16.288
720.51	10.728
720.83	12.355
721.15	15.966
721.46	15.726
721.78	12.648
722.10	13.383
722.42	14.523
722.73	10.612
723.05	17.959
723.37	24.576
723.68	18.018
724.00	13.248
724.32	13.778
724.63	10.909
724.95	17.467
725.27	13.364
725.58	16.949
725.90	7.540
726.22	15.830
726.53	16.271
726.85	15.356
727.16	19.623
727.48	10.931
727.80	19.433
728.11	10.593
728.43	19.216
728.74	8.468
729.06	16.400
729.38	18.045
729.69	10.359
730.01	12.308
730.32	14.179
730.64	14.841
730.96	15.094
731.27	13.667
731.59	15.254
731.90	15.924
732.22	16.404
732.53	16.279
732.85	14.184
733.16	18.519
733.48	9.712
733.80	14.493
734.11	11.186
734.43	11.340
734.74	13.333
735.06	10.098
735.37	14.804
735.69	15.825
736.00	11.498
736.32	13.087
736.63	11.620
736.95	13.311
737.26	11.744
737.58	6.711
737.89	10.256
738.21	12.406
738.52	18.930
738.83	13.974
739.15	9.170
739.46	15.354
739.78	9.524
740.09	13.725
740.41	14.855
740.72	9.843
741.04	18.219
741.35	9.787
741.66	8.531
741.98	10.714
742.29	8.911
742.61	10.995
742.92	8.531
743.23	9.722
743.55	13.122
743.86	11.962
744.18	8.612
744.49	12.766
744.80	9.783
745.12	13.904
745.43	10.244
745.74	13.021
746.06	8.293
746.37	13.089
746.68	13.744
747.00	9.043
747.31	13.930
747.62	16.019
747.94	13.397
748.25	18.812
748.56	7.650
748.88	13.089
749.19	9.043
749.50	10.837
749.82	8.019
750.13	8.257
750.44	16.917
750.75	10.448
751.07	17.883
751.38	10.345
751.69	10.980
752.01	17.054
752.32	11.554
752.63	10.672
752.94	9.483
753.26	15.481
753.57	7.240
753.88	8.407
754.19	10.000
754.51	8.678
754.82	6.478
755.13	20.000
755.44	12.903
755.75	14.062
756.07	11.673
756.38	10.566
756.69	7.663
757.00	12.667
757.31	10.784
757.63	10.366
757.94	9.444
758.25	11.507
758.56	11.436
758.87	9.915
759.18	11.215
759.50	8.727
759.81	12.709
760.12	11.290
760.43	12.727
760.74	12.037
761.05	13.846
761.36	14.205
761.67	14.242
761.99	12.925
762.30	10.909
762.61	11.858
762.92	9.502
763.23	8.108
763.54	8.879
763.85	13.136
764.16	9.129
764.47	5.645
764.78	11.722
765.10	12.795
765.41	8.202
765.72	10.794
766.03	4.887
766.34	9.854
766.65	13.147
766.96	9.596
767.27	10.638
767.58	7.471
767.89	6.383
768.20	11.364
768.51	15.934
768.82	9.852
769.13	9.217
769.44	10.300
769.75	5.936
770.06	15.517
770.37	7.212
770.68	13.198
770.99	8.145
771.30	13.725
771.61	11.312
771.92	13.793
772.23	12.808
772.54	11.290
772.85	6.790
773.16	12.921
773.47	9.150
773.78	15.033
774.09	11.976
774.39	8.667
774.70	13.376
775.01	12.414
775.32	17.143
775.63	5.785
775.94	2.290
776.25	15.748
776.56	10.833
776.87	10.577
777.18	10.256
777.48	6.034
777.79	6.957
778.10	1.905
778.41	13.514
778.72	9.524
779.03	6.767
779.34	14.894
779.65	13.699
779.95	4.110
780.26	13.793
780.57	-2.439
780.88	5.512
781.19	12.931
781.50	9.302
781.80	13.018
782.11	6.289
782.42	10.000
782.73	12.950
783.04	12.593
783.34	10.417
783.65	-10.256
783.96	2.459
784.27	20.000
784.57	8.943
784.88	6.250
785.19	15.000
785.50	8.000
785.81	4.310
786.11	6.034
786.42	1.942
786.73	16.364
787.04	4.082
787.34	9.821
787.65	9.524
787.96	3.540
788.26	15.455
788.57	7.692
788.88	7.813
789.19	12.698
789.49	0.000
789.80	-2.041
790.11	9.091
790.41	9.091
790.72	4.348
791.03	12.500
791.33	13.750
791.64	2.500
791.95	13.953
792.25	7.447
792.56	15.730
792.87	20.548
793.17	2.899
793.48	2.667
793.79	0.000
794.09	11.250
794.40	13.208
794.70	9.709
795.01	-3.252
795.32	6.838
795.62	9.524
795.93	2.941
796.23	6.604
796.54	3.125
796.85	17.647
797.15	11.268
797.46	34.722
797.76	16.667
798.07	0.000
798.37	1.316
798.68	12.121
798.99	4.938
799.29	10.000
799.60	2.899
799.90	13.333
800.21	9.836
800.51	10.769
800.82	5.085
801.12	20.290
801.43	14.754
801.73	7.937
802.04	8.000
802.34	-4.478
802.65	3.846
802.95	0.000
803.26	3.846
803.56	-1.961
803.87	-15.217
804.17	10.667
804.48	4.762
804.78	1.852
805.09	26.087
805.39	6.667
805.70	11.111
806.00	0.000
806.30	4.225
806.61	7.143
806.91	-2.778
807.22	9.211
807.52	13.333
807.83	-12.727
808.13	9.722
808.43	0.000
808.74	8.955
809.04	1.695
809.35	5.769
809.65	0.000
809.95	-24.324
810.26	-18.182
810.56	4.110
810.86	-4.762
811.17	-10.000
811.47	-8.163
811.77	-10.526
812.08	-13.636
812.38	7.547
812.69	-17.500
812.99	-3.030
813.29	-7.895
813.59	-31.429
813.90	-13.636
814.20	-23.077
814.50	0.000
814.81	15.094
815.11	-25.532
815.41	13.559
815.72	11.905
816.02	23.529
816.32	6.250
816.62	-31.707
816.93	5.405
817.23	-17.143
817.53	27.083
817.84	-4.348
818.14	0.000
818.44	-15.789
818.74	10.870
819.04	-22.500
819.35	-16.216
819.65	17.647
819.95	8.333
820.25	11.905
820.56	20.000
820.86	-13.793
821.16	22.500
821.46	34.043
821.76	-5.000
822.07	13.953
822.37	-27.027
822.67	-25.000
822.97	19.048
823.27	-39.286
823.57	-24.000
823.88	-59.259
824.18	-17.857
824.48	-14.706
824.78	-3.226
825.08	-21.739
825.38	-45.455
825.69	-58.333
825.99	-5.263
826.29	-13.889
826.59	-26.667
826.89	-28.571
827.19	21.739
827.49	2.500
827.79	17.143
828.09	-10.714
828.39	21.212
828.70	37.838
829.00	-14.286
829.30	19.048
829.60	3.333
829.90	6.250
830.20	-10.526
830.50	-11.111
830.80	-30.435
831.10	4.545
831.40	15.152
831.70	19.355
832.00	-19.048
832.30	-57.143
832.60	-83.333
832.90	-20.690
833.20	-40.000
833.50	12.121
833.80	14.815
834.10	23.077
834.40	-3.125
834.70	-111.111
835.00	-21.053
835.30	50.000
835.60	40.000
835.90	-19.355
836.20	-4.545
836.50	25.000
836.80	-50.000
837.10	-3.571
837.40	-233.333
837.70	0.000
838.00	-45.455
838.30	4.348
838.60	-23.077
838.90	4.545
839.19	25.000
839.49	13.333
839.79	0.000
840.09	-33.333
840.39	-10.714
840.69	25.000
840.99	-38.462
841.29	-78.947
841.59	-120.000
841.88	0.000
842.18	20.000
842.48	-37.500
842.78	13.333
843.08	18.519
843.38	-130.000
843.68	4.348
843.97	0.000
844.27	-33.333
844.57	-10.000
844.87	11.111
845.17	-9.524
845.47	13.333
845.76	-38.095
846.06	11.765
846.36	-20.000
846.66	-85.714
846.96	20.000
847.25	-125.000
847.55	0.000
847.85	25.000
848.15	-22.727
848.44	-600.000
848.74	30.000
849.04	37.037
849.34	-81.818
849.63	-216.667
849.93	-200.000
850.23	-5.556
850.53	100.000
850.82	0.000
851.12	-111.111
851.42	-26.667
851.71	-11.538
852.01	0.000
852.31	-225.000
852.61	-45.455
852.90	10.000
853.20	10.526
853.50	-100.000
853.79	-4.348
854.09	0.000
854.39	15.789
854.68	-20.833
854.98	0.000
855.28	34.615
855.57	-10.000
855.87	0.000
856.17	-18.519
856.46	7.143
856.76	-46.667
857.05	11.111
857.35	24.000
857.65	-22.222
857.94	-46.154
858.24	58.621
858.53	44.444
858.83	11.111
859.13	18.182
859.42	-13.043
859.72	50.000
860.01	-400.000
860.31	32.000
860.60	4.762
860.90	-300.000
861.20	6.667
861.49	-500.000
861.79	-86.667
862.08	50.000
862.38	53.333
862.67	-200.000
862.97	-216.667
863.26	-58.333
863.56	44.444
863.85	-366.667
864.15	72.222
864.44	-90.000
864.74	7.143
865.03	-0.000
865.33	-460.000
865.62	83.333
865.92	41.667
866.21	-116.667
866.51	31.250
866.80	-81.818
867.10	-300.000
867.39	75.000
867.69	0.000
867.98	0.000
868.27	-33.333
868.57	13.333
868.86	-27.778
869.16	-15.385
869.45	6.667
869.75	-1700.000
870.04	0.000
870.33	-100.000
870.63	14.286
870.92	300.000
871.22	-120.000
871.51	-100.000
871.80	66.667
872.10	200.000
>>>>>End Processed Spectral Data<<<<<
