SpectraSuite Data File
++++++++++++++++++++++++++++++++++++
Date: Fri May 15 21:09:21 PDT 2015
User: schluterlab
Dark Spectrum Present: Yes
Reference Spectrum Present: Yes
Number of Sampled Component Spectra: 1
Spectrometers: USB2E3373
Integration Time (usec): 3000 (USB2E3373)
Spectra Averaged: 3 (USB2E3373)
Boxcar Smoothing: 0 (USB2E3373)
Correct for Electrical Dark: No (USB2E3373)
Strobe/Lamp Enabled: No (USB2E3373)
Correct for Detector Non-linearity: No (USB2E3373)
Correct for Stray Light: No (USB2E3373)
Number of Pixels in Processed Spectrum: 2048
>>>>>Begin Processed Spectral Data<<<<<
178.53	0.000
178.91	0.000
179.29	25.000
179.67	-650.000
180.04	-14.286
180.42	-75.000
180.80	-700.000
181.18	233.333
181.56	150.000
181.94	-350.000
182.31	400.000
182.69	-160.000
183.07	0.000
183.45	-80.000
183.83	150.000
184.20	-72.727
184.58	244.444
184.96	-100.000
185.34	300.000
185.72	200.000
186.09	169.231
186.47	-1300.000
186.85	216.667
187.23	155.556
187.61	600.000
187.98	66.667
188.36	-44.444
188.74	-366.667
189.12	-41.176
189.49	22.222
189.87	0.000
190.25	64.286
190.63	350.000
191.00	-100.000
191.38	-10.526
191.76	-250.000
192.14	150.000
192.51	-200.000
192.89	-22.222
193.27	-100.000
193.65	250.000
194.02	218.182
194.40	-60.000
194.78	-175.000
195.15	-66.667
195.53	12.500
195.91	250.000
196.29	-50.000
196.66	23.077
197.04	171.429
197.42	-55.556
197.79	-133.333
198.17	-115.385
198.55	1300.000
198.92	-233.333
199.30	-600.000
199.68	-160.000
200.05	-233.333
200.43	0.000
200.81	-300.000
201.18	-233.333
201.56	600.000
201.94	-350.000
202.31	66.667
202.69	-380.000
203.07	350.000
203.44	500.000
203.82	0.000
204.19	14.286
204.57	-366.667
204.95	212.500
205.32	50.000
205.70	-85.714
206.08	-125.000
206.45	200.000
206.83	57.143
207.20	-171.429
207.58	400.000
207.96	-533.333
208.33	-150.000
208.71	-175.000
209.08	-316.667
209.46	-500.000
209.84	-180.000
210.21	-1400.000
210.59	57.143
210.96	0.000
211.34	-25.000
211.71	0.000
212.09	-28.571
212.46	-2400.000
212.84	0.000
213.22	-50.000
213.59	550.000
213.97	46.154
214.34	9.091
214.72	-33.333
215.09	325.000
215.47	0.000
215.84	-27.273
216.22	-133.333
216.59	75.000
216.97	50.000
217.34	-300.000
217.72	-200.000
218.09	-162.500
218.47	187.500
218.84	100.000
219.22	-77.778
219.59	-240.000
219.97	233.333
220.34	475.000
220.72	-71.429
221.09	-100.000
221.47	-150.000
221.84	-100.000
222.22	-750.000
222.59	27.273
222.97	-16.667
223.34	-200.000
223.72	-121.429
224.09	33.333
224.46	10.714
224.84	733.333
225.21	-10.000
225.59	20.000
225.96	-400.000
226.34	475.000
226.71	-42.857
227.08	-150.000
227.46	-62.500
227.83	0.000
228.21	-122.222
228.58	-54.545
228.95	-125.000
229.33	20.000
229.70	25.000
230.08	-112.500
230.45	-100.000
230.82	42.857
231.20	-60.000
231.57	64.286
231.95	-42.857
232.32	-40.000
232.69	0.000
233.07	-100.000
233.44	80.000
233.81	-70.000
234.19	33.333
234.56	-5.882
234.93	300.000
235.31	-175.000
235.68	-240.000
236.05	-92.308
236.43	-10.000
236.80	-29.412
237.17	3.125
237.55	10.000
237.92	-14.815
238.29	11.111
238.67	-6.667
239.04	-5.882
239.41	-24.390
239.79	0.000
240.16	26.829
240.53	-2.632
240.91	6.522
241.28	4.762
241.65	3.571
242.02	12.329
242.40	-3.333
242.77	3.390
243.14	1.515
243.51	10.000
243.89	9.195
244.26	2.299
244.63	8.333
245.00	10.309
245.38	1.031
245.75	0.000
246.12	2.586
246.49	5.785
246.87	9.615
247.24	1.681
247.61	2.632
247.98	6.504
248.36	11.250
248.73	6.579
249.10	9.091
249.47	8.861
249.84	13.072
250.22	12.941
250.59	2.614
250.96	15.023
251.33	3.488
251.70	6.471
252.08	14.721
252.45	11.881
252.82	11.558
253.19	13.825
253.56	4.673
253.94	11.712
254.31	12.174
254.68	10.965
255.05	10.236
255.42	15.721
255.79	14.672
256.16	14.786
256.54	14.179
256.91	9.886
257.28	8.922
257.65	10.861
258.02	7.092
258.39	16.835
258.76	9.158
259.14	13.289
259.51	11.327
259.88	10.997
260.25	12.745
260.62	13.194
260.99	8.136
261.36	7.192
261.73	14.241
262.10	8.815
262.47	11.043
262.85	10.658
263.22	13.231
263.59	14.953
263.96	13.354
264.33	13.030
264.70	12.202
265.07	10.714
265.44	13.031
265.81	12.147
266.18	12.022
266.55	12.853
266.92	12.694
267.29	13.316
267.66	12.020
268.03	15.183
268.40	15.666
268.77	12.834
269.14	14.628
269.51	14.396
269.88	10.723
270.25	10.204
270.62	9.024
270.99	9.463
271.36	11.247
271.73	13.146
272.10	10.949
272.47	10.875
272.84	9.653
273.21	12.065
273.58	13.012
273.95	14.188
274.32	10.624
274.69	8.371
275.06	15.848
275.43	12.018
275.80	13.245
276.17	11.034
276.54	13.062
276.91	11.623
277.28	8.734
277.65	11.157
278.02	11.489
278.39	11.379
278.76	13.417
279.13	8.506
279.50	11.765
279.87	11.447
280.23	8.172
280.60	12.281
280.97	11.515
281.34	11.731
281.71	11.499
282.08	11.861
282.45	11.546
282.82	9.846
283.19	11.799
283.56	15.222
283.92	10.816
284.29	12.692
284.66	9.496
285.03	10.216
285.40	11.342
285.77	10.018
286.14	11.011
286.51	14.022
286.87	9.506
287.24	7.551
287.61	11.287
287.98	12.807
288.35	10.399
288.72	12.434
289.08	11.111
289.45	10.721
289.82	10.664
290.19	11.433
290.56	9.091
290.93	9.428
291.29	11.094
291.66	12.441
292.03	10.048
292.40	9.355
292.77	10.686
293.13	8.929
293.50	9.256
293.87	9.771
294.24	11.283
294.60	9.687
294.97	11.012
295.34	8.896
295.71	10.283
296.08	8.670
296.44	6.401
296.81	8.194
297.18	9.420
297.55	9.621
297.91	8.493
298.28	10.158
298.65	6.649
299.02	9.569
299.38	4.788
299.75	8.690
300.12	8.508
300.48	8.696
300.85	9.632
301.22	8.182
301.59	8.289
301.95	10.253
302.32	9.079
302.69	7.338
303.05	7.797
303.42	8.219
303.79	8.879
304.15	8.005
304.52	7.610
304.89	7.485
305.25	8.232
305.62	7.235
305.99	6.667
306.35	8.092
306.72	7.424
307.09	6.613
307.45	7.807
307.82	7.639
308.19	8.479
308.55	7.525
308.92	9.259
309.29	7.598
309.65	8.181
310.02	7.591
310.38	8.233
310.75	7.322
311.12	7.643
311.48	7.211
311.85	6.597
312.22	7.595
312.58	8.386
312.95	5.977
313.31	6.936
313.68	6.597
314.05	7.245
314.41	7.216
314.78	8.041
315.14	8.530
315.51	7.350
315.87	7.684
316.24	8.493
316.61	8.169
316.97	9.028
317.34	8.887
317.70	8.413
318.07	7.404
318.43	8.137
318.80	7.102
319.16	8.008
319.53	8.452
319.89	7.382
320.26	7.186
320.62	8.826
320.99	7.203
321.35	7.503
321.72	7.892
322.08	8.056
322.45	7.817
322.81	9.430
323.18	6.771
323.54	8.012
323.91	7.790
324.27	8.203
324.64	8.427
325.00	9.580
325.37	10.285
325.73	6.800
326.10	8.629
326.46	8.700
326.83	8.574
327.19	9.067
327.56	8.514
327.92	9.331
328.29	8.750
328.65	8.113
329.01	9.099
329.38	8.940
329.74	8.593
330.11	8.248
330.47	9.555
330.84	7.019
331.20	9.886
331.56	7.685
331.93	9.589
332.29	8.616
332.66	8.778
333.02	8.271
333.38	8.066
333.75	9.707
334.11	7.968
334.48	8.976
334.84	8.791
335.20	7.868
335.57	8.069
335.93	9.304
336.29	8.195
336.66	9.083
337.02	8.736
337.38	7.870
337.75	8.909
338.11	8.386
338.47	9.398
338.84	8.688
339.20	8.592
339.56	8.440
339.93	10.027
340.29	8.440
340.65	10.036
341.02	8.245
341.38	9.469
341.74	7.332
342.11	7.192
342.47	8.897
342.83	8.737
343.20	8.711
343.56	9.043
343.92	9.212
344.28	10.077
344.65	8.031
345.01	8.384
345.37	9.083
345.73	8.201
346.10	9.318
346.46	9.924
346.82	8.592
347.19	7.980
347.55	8.521
347.91	8.981
348.27	8.731
348.63	8.092
349.00	8.039
349.36	8.313
349.72	8.292
350.08	8.525
350.45	9.178
350.81	7.724
351.17	8.306
351.53	9.469
351.89	8.258
352.26	7.520
352.62	8.548
352.98	8.193
353.34	8.293
353.70	7.929
354.07	8.306
354.43	8.006
354.79	7.927
355.15	9.762
355.51	8.861
355.87	7.686
356.24	8.238
356.60	7.518
356.96	7.857
357.32	8.387
357.68	8.131
358.04	7.593
358.40	7.235
358.77	9.011
359.13	6.966
359.49	7.550
359.85	8.034
360.21	8.293
360.57	7.345
360.93	7.716
361.29	7.100
361.66	7.994
362.02	8.485
362.38	8.302
362.74	7.721
363.10	7.148
363.46	7.858
363.82	8.941
364.18	8.339
364.54	7.353
364.90	8.100
365.26	6.987
365.62	8.832
365.98	8.284
366.35	8.667
366.71	7.539
367.07	8.055
367.43	7.261
367.79	7.491
368.15	7.538
368.51	8.084
368.87	6.820
369.23	7.581
369.59	7.216
369.95	7.918
370.31	8.092
370.67	7.537
371.03	7.394
371.39	7.732
371.75	8.278
372.11	7.775
372.47	8.062
372.83	7.523
373.19	7.989
373.55	6.859
373.91	7.559
374.27	7.512
374.63	8.112
374.99	7.447
375.35	7.939
375.71	7.552
376.07	8.146
376.42	7.755
376.78	8.322
377.14	8.328
377.50	8.367
377.86	7.831
378.22	7.913
378.58	7.179
378.94	7.372
379.30	8.110
379.66	7.962
380.02	7.971
380.38	6.330
380.74	7.720
381.09	7.730
381.45	7.462
381.81	7.279
382.17	7.360
382.53	7.058
382.89	6.842
383.25	7.405
383.61	7.927
383.97	6.667
384.32	7.630
384.68	7.307
385.04	7.782
385.40	7.281
385.76	7.925
386.12	8.603
386.48	8.174
386.83	6.531
387.19	7.875
387.55	8.281
387.91	7.335
388.27	7.998
388.62	7.489
388.98	7.980
389.34	8.182
389.70	8.328
390.06	7.678
390.42	7.124
390.77	7.587
391.13	6.557
391.49	7.180
391.85	7.732
392.20	7.031
392.56	6.866
392.92	7.692
393.28	7.311
393.64	7.207
393.99	8.213
394.35	6.009
394.71	7.088
395.07	7.165
395.42	7.225
395.78	7.166
396.14	8.008
396.50	7.419
396.85	7.920
397.21	7.581
397.57	6.959
397.92	8.089
398.28	7.644
398.64	6.807
399.00	7.731
399.35	6.659
399.71	8.099
400.07	8.102
400.42	7.466
400.78	8.022
401.14	8.106
401.49	8.219
401.85	7.313
402.21	7.229
402.57	7.188
402.92	6.964
403.28	7.769
403.63	7.503
403.99	6.250
404.35	7.683
404.70	6.726
405.06	7.403
405.42	7.458
405.77	6.856
406.13	7.392
406.49	7.105
406.84	7.090
407.20	7.405
407.55	6.825
407.91	7.019
408.27	7.138
408.62	8.677
408.98	7.332
409.34	7.621
409.69	7.494
410.05	6.466
410.40	8.210
410.76	7.901
411.11	8.000
411.47	7.166
411.83	6.780
412.18	6.306
412.54	7.990
412.89	7.697
413.25	7.581
413.60	7.329
413.96	6.748
414.31	8.171
414.67	7.697
415.03	7.723
415.38	7.115
415.74	7.883
416.09	8.622
416.45	8.103
416.80	7.733
417.16	7.390
417.51	7.595
417.87	7.562
418.22	7.383
418.58	7.559
418.93	8.527
419.29	7.554
419.64	6.805
420.00	8.501
420.35	7.284
420.71	8.141
421.06	7.121
421.42	7.572
421.77	8.035
422.12	7.889
422.48	7.634
422.83	7.599
423.19	7.619
423.54	7.643
423.90	7.126
424.25	7.865
424.61	7.711
424.96	7.259
425.31	8.839
425.67	8.627
426.02	8.009
426.38	7.514
426.73	8.111
427.09	8.671
427.44	8.882
427.79	8.073
428.15	8.495
428.50	7.268
428.85	7.555
429.21	8.149
429.56	7.332
429.92	7.499
430.27	8.120
430.62	7.318
430.98	8.068
431.33	8.465
431.68	7.640
432.04	6.764
432.39	7.530
432.74	7.216
433.10	8.218
433.45	8.303
433.80	7.661
434.16	7.812
434.51	7.742
434.86	7.840
435.22	7.684
435.57	7.923
435.92	8.623
436.28	8.587
436.63	8.043
436.98	7.822
437.34	7.804
437.69	8.169
438.04	7.635
438.39	7.147
438.75	7.529
439.10	7.414
439.45	8.034
439.81	7.523
440.16	7.720
440.51	8.418
440.86	8.580
441.22	7.975
441.57	8.278
441.92	8.814
442.27	8.259
442.63	9.208
442.98	7.869
443.33	8.459
443.68	8.647
444.03	8.395
444.39	8.460
444.74	9.086
445.09	7.962
445.44	8.433
445.79	9.386
446.15	8.260
446.50	7.987
446.85	8.236
447.20	7.456
447.55	8.594
447.91	8.235
448.26	8.822
448.61	8.290
448.96	8.778
449.31	7.977
449.66	8.014
450.02	8.272
450.37	7.943
450.72	7.789
451.07	8.987
451.42	8.677
451.77	8.318
452.12	7.715
452.47	7.791
452.83	8.539
453.18	7.970
453.53	8.344
453.88	8.682
454.23	8.666
454.58	9.320
454.93	9.085
455.28	8.063
455.63	8.308
455.98	8.659
456.34	8.940
456.69	7.814
457.04	9.263
457.39	9.295
457.74	8.525
458.09	8.064
458.44	8.192
458.79	8.571
459.14	8.753
459.49	9.075
459.84	9.081
460.19	9.102
460.54	8.130
460.89	8.977
461.24	8.075
461.59	8.848
461.94	7.987
462.29	9.409
462.64	9.037
462.99	8.666
463.34	8.345
463.69	8.559
464.04	8.717
464.39	8.793
464.74	8.528
465.09	8.359
465.44	8.829
465.79	9.354
466.14	9.065
466.49	8.396
466.84	9.221
467.19	8.949
467.54	8.940
467.89	8.718
468.24	8.151
468.59	9.524
468.94	8.254
469.29	9.508
469.64	9.911
469.99	8.479
470.34	7.235
470.68	7.979
471.03	9.413
471.38	7.917
471.73	8.683
472.08	8.684
472.43	8.523
472.78	8.705
473.13	9.456
473.48	9.121
473.83	8.344
474.17	8.938
474.52	9.062
474.87	9.030
475.22	8.420
475.57	7.849
475.92	8.777
476.27	9.371
476.61	9.491
476.96	8.477
477.31	8.978
477.66	7.865
478.01	8.478
478.36	9.096
478.70	8.864
479.05	9.835
479.40	9.115
479.75	8.238
480.10	8.397
480.45	8.600
480.79	9.013
481.14	8.760
481.49	8.818
481.84	8.687
482.19	8.700
482.53	8.777
482.88	8.305
483.23	8.349
483.58	9.292
483.92	8.470
484.27	8.797
484.62	8.382
484.97	8.458
485.31	8.382
485.66	8.221
486.01	8.682
486.36	8.513
486.70	8.901
487.05	8.957
487.40	8.919
487.75	9.211
488.09	9.147
488.44	8.631
488.79	8.666
489.13	9.014
489.48	8.080
489.83	8.430
490.17	8.270
490.52	8.961
490.87	8.977
491.22	8.883
491.56	8.444
491.91	8.843
492.26	8.848
492.60	8.589
492.95	9.297
493.30	8.940
493.64	8.841
493.99	8.599
494.34	8.738
494.68	9.048
495.03	8.127
495.37	8.636
495.72	8.834
496.07	8.634
496.41	8.679
496.76	8.383
497.11	8.197
497.45	9.547
497.80	8.930
498.14	8.693
498.49	8.786
498.84	8.782
499.18	9.237
499.53	9.325
499.87	8.268
500.22	8.952
500.56	8.422
500.91	8.635
501.26	8.057
501.60	8.116
501.95	8.734
502.29	8.910
502.64	9.218
502.98	8.831
503.33	8.646
503.67	8.482
504.02	8.553
504.36	8.758
504.71	8.182
505.06	8.757
505.40	8.325
505.75	8.144
506.09	8.819
506.44	8.624
506.78	9.235
507.13	8.842
507.47	8.303
507.82	8.280
508.16	8.294
508.51	9.182
508.85	8.687
509.19	8.462
509.54	9.008
509.88	8.738
510.23	8.714
510.57	8.926
510.92	8.049
511.26	8.783
511.61	8.911
511.95	9.096
512.30	8.758
512.64	9.516
512.98	8.366
513.33	9.233
513.67	8.812
514.02	9.439
514.36	9.486
514.70	9.557
515.05	9.812
515.39	9.386
515.74	9.521
516.08	8.966
516.42	9.600
516.77	9.362
517.11	8.427
517.46	9.635
517.80	9.714
518.14	8.145
518.49	9.315
518.83	8.566
519.17	8.551
519.52	9.177
519.86	8.223
520.20	8.384
520.55	8.693
520.89	8.908
521.23	9.500
521.58	10.284
521.92	8.974
522.26	9.044
522.61	9.156
522.95	9.338
523.29	9.085
523.64	9.339
523.98	9.397
524.32	8.247
524.66	9.539
525.01	9.091
525.35	9.592
525.69	8.148
526.04	8.862
526.38	10.636
526.72	9.026
527.06	9.533
527.41	9.565
527.75	8.311
528.09	9.502
528.43	9.858
528.78	8.845
529.12	9.742
529.46	8.577
529.80	9.626
530.15	9.769
530.49	9.495
530.83	9.302
531.17	9.469
531.51	9.576
531.86	8.702
532.20	8.490
532.54	9.666
532.88	9.446
533.22	9.543
533.57	9.567
533.91	8.943
534.25	10.156
534.59	9.622
534.93	8.874
535.27	9.454
535.62	8.296
535.96	10.111
536.30	9.103
536.64	8.959
536.98	9.547
537.32	9.531
537.66	10.168
538.01	9.301
538.35	8.738
538.69	9.720
539.03	9.023
539.37	9.690
539.71	9.134
540.05	9.029
540.39	9.695
540.73	8.996
541.07	10.083
541.42	10.551
541.76	9.635
542.10	9.842
542.44	9.590
542.78	8.465
543.12	9.272
543.46	8.693
543.80	8.536
544.14	8.945
544.48	9.194
544.82	9.433
545.16	9.904
545.50	9.146
545.84	9.844
546.18	9.362
546.52	9.950
546.86	8.986
547.20	9.299
547.54	8.975
547.88	8.832
548.22	9.270
548.56	8.443
548.90	9.771
549.24	9.504
549.58	10.085
549.92	8.435
550.26	9.377
550.60	9.888
550.94	9.485
551.28	9.428
551.62	10.077
551.96	8.647
552.30	9.576
552.64	9.520
552.98	9.212
553.32	9.486
553.66	9.216
554.00	8.905
554.34	9.453
554.68	9.513
555.02	10.640
555.36	8.227
555.69	8.571
556.03	9.279
556.37	9.324
556.71	9.747
557.05	9.172
557.39	8.327
557.73	8.471
558.07	10.709
558.41	9.265
558.75	9.587
559.08	8.983
559.42	9.048
559.76	8.967
560.10	8.869
560.44	9.233
560.78	9.510
561.12	8.815
561.45	10.190
561.79	9.384
562.13	9.368
562.47	8.633
562.81	8.429
563.15	10.367
563.48	9.123
563.82	9.677
564.16	9.401
564.50	9.865
564.84	9.505
565.17	9.457
565.51	10.656
565.85	9.945
566.19	9.350
566.52	10.188
566.86	10.154
567.20	9.589
567.54	9.246
567.88	9.607
568.21	10.407
568.55	8.804
568.89	10.010
569.23	9.677
569.56	9.588
569.90	9.622
570.24	9.341
570.57	9.855
570.91	9.620
571.25	9.207
571.59	9.312
571.92	9.126
572.26	9.028
572.60	9.178
572.93	9.413
573.27	9.216
573.61	9.189
573.95	9.394
574.28	9.269
574.62	9.077
574.96	9.100
575.29	9.213
575.63	9.018
575.97	8.729
576.30	8.856
576.64	9.113
576.98	9.266
577.31	8.970
577.65	8.968
577.98	9.489
578.32	9.197
578.66	8.876
578.99	9.242
579.33	8.818
579.67	9.185
580.00	9.291
580.34	8.905
580.67	8.754
581.01	9.294
581.35	9.109
581.68	8.975
582.02	8.882
582.35	9.006
582.69	9.077
583.02	9.079
583.36	9.297
583.70	9.372
584.03	9.369
584.37	9.373
584.70	9.203
585.04	9.223
585.37	8.919
585.71	8.788
586.04	8.926
586.38	8.909
586.72	9.469
587.05	9.561
587.39	9.086
587.72	9.459
588.06	9.244
588.39	9.371
588.73	9.615
589.06	9.491
589.40	9.437
589.73	9.785
590.07	9.328
590.40	9.830
590.73	9.679
591.07	9.457
591.40	9.261
591.74	9.729
592.07	9.230
592.41	10.247
592.74	9.598
593.08	9.221
593.41	9.061
593.75	9.257
594.08	8.994
594.41	9.389
594.75	8.664
595.08	9.383
595.42	8.649
595.75	9.050
596.09	8.913
596.42	9.591
596.75	9.902
597.09	9.339
597.42	9.892
597.75	9.345
598.09	9.507
598.42	9.792
598.76	8.880
599.09	8.934
599.42	9.435
599.76	9.029
600.09	9.163
600.42	9.477
600.76	9.064
601.09	9.504
601.42	8.892
601.76	8.932
602.09	9.158
602.42	8.846
602.76	9.380
603.09	9.385
603.42	9.615
603.76	8.952
604.09	9.235
604.42	9.306
604.76	9.168
605.09	9.324
605.42	10.023
605.75	9.151
606.09	8.960
606.42	9.299
606.75	9.307
607.09	9.978
607.42	8.906
607.75	9.236
608.08	8.580
608.42	9.548
608.75	9.494
609.08	9.965
609.41	8.934
609.75	9.627
610.08	9.636
610.41	8.841
610.74	9.361
611.07	8.889
611.41	9.393
611.74	9.915
612.07	8.887
612.40	9.519
612.73	9.379
613.07	9.055
613.40	10.175
613.73	8.618
614.06	9.293
614.39	8.911
614.72	9.412
615.06	8.827
615.39	8.952
615.72	9.311
616.05	9.609
616.38	8.718
616.71	8.440
617.05	9.203
617.38	9.365
617.71	9.245
618.04	10.032
618.37	10.025
618.70	9.175
619.03	9.236
619.36	8.828
619.69	9.174
620.03	9.131
620.36	9.800
620.69	9.493
621.02	9.709
621.35	10.539
621.68	9.949
622.01	9.333
622.34	9.737
622.67	10.410
623.00	10.490
623.33	9.527
623.66	9.349
623.99	10.363
624.32	9.506
624.65	9.023
624.99	9.180
625.32	9.022
625.65	10.919
625.98	10.878
626.31	8.396
626.64	9.619
626.97	9.948
627.30	9.982
627.63	10.139
627.96	9.704
628.29	11.101
628.62	10.423
628.95	10.621
629.28	9.778
629.61	9.272
629.94	11.046
630.26	9.091
630.59	9.573
630.92	9.641
631.25	10.154
631.58	10.132
631.91	8.333
632.24	8.601
632.57	10.682
632.90	8.304
633.23	11.412
633.56	8.816
633.89	9.001
634.22	10.864
634.55	9.149
634.88	8.685
635.20	9.615
635.53	9.867
635.86	9.103
636.19	9.961
636.52	8.929
636.85	8.189
637.18	10.189
637.51	10.314
637.83	10.118
638.16	10.914
638.49	8.174
638.82	12.895
639.15	9.362
639.48	9.491
639.81	10.600
640.13	9.091
640.46	9.184
640.79	9.867
641.12	10.044
641.45	8.258
641.77	10.963
642.10	10.585
642.43	9.807
642.76	10.561
643.09	10.016
643.41	10.032
643.74	10.214
644.07	12.315
644.40	11.824
644.73	10.333
645.05	11.074
645.38	9.524
645.71	9.752
646.04	10.233
646.36	11.348
646.69	11.151
647.02	10.775
647.35	9.515
647.67	11.335
648.00	10.634
648.33	11.263
648.66	10.169
648.98	9.715
649.31	6.942
649.64	10.832
649.96	8.914
650.29	11.414
650.62	8.034
650.94	7.778
651.27	8.380
651.60	10.450
651.92	10.140
652.25	9.059
652.58	9.500
652.90	11.149
653.23	9.244
653.56	7.276
653.88	9.107
654.21	10.858
654.54	8.659
654.86	10.696
655.19	9.649
655.52	10.139
655.84	8.730
656.17	9.802
656.49	13.080
656.82	13.995
657.15	10.999
657.47	8.262
657.80	6.092
658.13	6.052
658.45	8.832
658.78	9.220
659.10	9.203
659.43	8.969
659.75	9.077
660.08	8.552
660.41	10.010
660.73	10.497
661.06	10.919
661.38	9.198
661.71	8.008
662.03	10.300
662.36	9.890
662.68	10.841
663.01	11.135
663.33	6.265
663.66	6.977
663.98	6.977
664.31	8.955
664.63	8.065
664.96	6.957
665.28	7.947
665.61	10.606
665.93	9.348
666.26	10.629
666.58	6.264
666.91	8.706
667.23	11.557
667.56	10.900
667.88	7.674
668.21	8.115
668.53	9.220
668.86	12.028
669.18	8.726
669.50	9.201
669.83	11.163
670.15	8.392
670.48	8.373
670.80	10.829
671.13	9.843
671.45	5.479
671.77	11.803
672.10	9.109
672.42	8.614
672.75	11.723
673.07	12.522
673.39	11.376
673.72	6.903
674.04	10.208
674.37	9.958
674.69	11.135
675.01	11.556
675.34	9.685
675.66	9.259
675.98	10.643
676.31	10.780
676.63	9.501
676.95	8.182
677.28	11.529
677.60	11.807
677.92	8.257
678.25	10.066
678.57	9.307
678.89	8.403
679.22	9.620
679.54	10.442
679.86	9.344
680.18	7.184
680.51	8.523
680.83	6.561
681.15	10.800
681.48	10.861
681.80	11.364
682.12	7.258
682.44	9.623
682.77	10.155
683.09	6.865
683.41	7.727
683.73	9.677
684.06	9.956
684.38	8.172
684.70	7.190
685.02	7.054
685.34	8.893
685.67	8.630
685.99	10.850
686.31	10.796
686.63	11.503
686.96	6.274
687.28	5.859
687.60	9.125
687.92	10.909
688.24	9.476
688.56	8.952
688.89	8.482
689.21	11.111
689.53	7.425
689.85	8.372
690.17	8.929
690.49	9.929
690.82	6.068
691.14	8.095
691.46	10.047
691.78	7.658
692.10	9.677
692.42	7.143
692.74	10.043
693.06	7.432
693.39	6.561
693.71	10.407
694.03	8.314
694.35	10.047
694.67	9.848
694.99	10.705
695.31	9.399
695.63	9.500
695.95	8.081
696.27	9.585
696.59	10.556
696.91	7.283
697.23	10.797
697.56	7.426
697.88	10.323
698.20	10.706
698.52	10.118
698.84	3.589
699.16	6.000
699.48	9.273
699.80	10.670
700.12	8.086
700.44	8.123
700.76	8.721
701.08	10.303
701.40	8.735
701.72	9.259
702.04	9.241
702.36	7.692
702.68	9.309
703.00	7.273
703.32	9.677
703.64	6.215
703.96	10.725
704.28	9.509
704.60	10.159
704.91	7.256
705.23	11.960
705.55	11.307
705.87	6.498
706.19	8.519
706.51	13.402
706.83	9.646
707.15	3.427
707.47	10.644
707.79	8.333
708.11	10.000
708.43	8.000
708.74	11.628
709.06	11.268
709.38	8.257
709.70	9.763
710.02	10.191
710.34	13.622
710.66	8.333
710.98	4.967
711.29	8.525
711.61	8.475
711.93	9.772
712.25	14.777
712.57	11.355
712.89	10.075
713.20	9.689
713.52	9.756
713.84	6.826
714.16	11.340
714.48	6.774
714.80	10.577
715.11	6.079
715.43	10.345
715.75	8.333
716.07	7.641
716.39	8.389
716.70	6.642
717.02	7.252
717.34	6.478
717.66	5.752
717.97	6.957
718.29	7.950
718.61	11.024
718.93	8.527
719.24	10.646
719.56	6.426
719.88	9.966
720.20	10.227
720.51	6.130
720.83	10.811
721.15	6.723
721.46	11.694
721.78	6.719
722.10	6.691
722.42	1.245
722.73	6.531
723.05	15.510
723.37	11.864
723.68	8.559
724.00	5.128
724.32	8.444
724.63	9.091
724.95	10.044
725.27	11.521
725.58	13.136
725.90	5.952
726.22	8.494
726.53	13.220
726.85	9.363
727.16	11.321
727.48	5.263
727.80	6.478
728.11	8.475
728.43	8.235
728.74	2.823
729.06	6.400
729.38	12.406
729.69	8.367
730.01	3.846
730.32	8.582
730.64	11.307
730.96	5.660
731.27	9.333
731.59	5.085
731.90	7.325
732.22	10.410
732.53	10.963
732.85	14.184
733.16	8.081
733.48	5.396
733.80	5.435
734.11	9.831
734.43	8.591
734.74	9.091
735.06	6.840
735.37	9.366
735.69	10.101
736.00	9.059
736.32	8.725
736.63	12.324
736.95	13.652
737.26	8.185
737.58	6.711
737.89	8.791
738.21	6.015
738.52	8.642
738.83	4.803
739.15	6.114
739.46	9.449
739.78	6.593
740.09	8.170
740.41	8.696
740.72	4.724
741.04	10.931
741.35	5.106
741.66	4.265
741.98	7.653
742.29	9.406
742.61	9.948
742.92	1.422
743.23	6.019
743.55	9.050
743.86	7.177
744.18	6.699
744.49	8.511
744.80	9.783
745.12	12.834
745.43	3.415
745.74	12.500
746.06	4.878
746.37	7.853
746.68	9.953
747.00	4.255
747.31	13.930
747.62	9.223
747.94	6.699
748.25	6.931
748.56	7.650
748.88	2.094
749.19	10.106
749.50	8.867
749.82	5.660
750.13	5.046
750.44	9.774
750.75	11.567
751.07	12.044
751.38	8.046
751.69	5.490
752.01	7.752
752.32	3.586
752.63	7.510
752.94	6.034
753.26	17.155
753.57	4.525
753.88	10.177
754.19	2.500
754.51	8.678
754.82	8.097
755.13	14.583
755.44	7.661
755.75	14.844
756.07	6.226
756.38	6.038
756.69	4.981
757.00	9.000
757.31	9.804
757.63	7.012
757.94	9.167
758.25	6.027
758.56	6.649
758.87	7.365
759.18	7.477
759.50	9.455
759.81	9.030
760.12	9.032
760.43	8.182
760.74	8.951
761.05	9.231
761.36	7.955
761.67	11.515
761.99	10.544
762.30	4.364
762.61	10.672
762.92	7.240
763.23	4.955
763.54	2.804
763.85	4.237
764.16	2.490
764.47	7.258
764.78	5.495
765.10	11.448
765.41	8.202
765.72	8.571
766.03	6.767
766.34	8.029
766.65	11.952
766.96	9.091
767.27	9.043
767.58	5.747
767.89	2.128
768.20	6.250
768.51	5.495
768.82	2.463
769.13	3.226
769.44	6.438
769.75	3.653
770.06	9.483
770.37	6.250
770.68	9.137
770.99	8.145
771.30	12.745
771.61	4.977
771.92	14.655
772.23	10.345
772.54	11.828
772.85	4.938
773.16	12.360
773.47	8.497
773.78	8.497
774.09	11.976
774.39	6.667
774.70	10.828
775.01	11.724
775.32	5.000
775.63	-0.826
775.94	6.870
776.25	6.299
776.56	-0.833
776.87	3.846
777.18	0.855
777.48	6.034
777.79	3.478
778.10	2.857
778.41	11.712
778.72	7.143
779.03	2.256
779.34	12.057
779.65	12.329
779.95	2.055
780.26	5.517
780.57	3.252
780.88	12.598
781.19	0.862
781.50	10.078
781.80	4.734
782.11	4.403
782.42	3.846
782.73	-1.439
783.04	6.667
783.34	3.472
783.65	-7.692
783.96	-5.738
784.27	16.552
784.57	8.943
784.88	10.156
785.19	16.000
785.50	5.000
785.81	17.241
786.11	-0.862
786.42	-9.709
786.73	10.000
787.04	0.000
787.34	4.464
787.65	7.619
787.96	-0.885
788.26	3.636
788.57	0.000
788.88	14.063
789.19	7.937
789.49	7.826
789.80	7.143
790.11	5.051
790.41	5.455
790.72	10.870
791.03	0.000
791.33	2.500
791.64	-3.750
791.95	22.093
792.25	14.894
792.56	12.360
792.87	-9.589
793.17	5.797
793.48	-10.667
793.79	-5.000
794.09	15.000
794.40	2.830
794.70	1.942
795.01	1.626
795.32	0.855
795.62	-0.952
795.93	4.902
796.23	2.830
796.54	0.000
796.85	2.941
797.15	12.676
797.46	8.333
797.76	-1.515
798.07	0.000
798.37	1.316
798.68	1.515
798.99	11.111
799.29	-1.429
799.60	-5.797
799.90	4.000
800.21	1.639
800.51	-3.077
800.82	-10.169
801.12	-10.145
801.43	8.197
801.73	14.286
802.04	18.000
802.34	4.478
802.65	25.000
802.95	-19.643
803.26	9.615
803.56	33.333
803.87	-13.043
804.17	10.667
804.48	14.286
804.78	11.111
805.09	-26.087
805.39	-6.667
805.70	12.963
806.00	-7.018
806.30	14.085
806.61	11.429
806.91	-19.444
807.22	19.737
807.52	20.000
807.83	-21.818
808.13	0.000
808.43	10.294
808.74	-4.478
809.04	-3.390
809.35	-1.923
809.65	-10.937
809.95	-29.730
810.26	-11.364
810.56	9.589
810.86	-19.048
811.17	2.000
811.47	2.041
811.77	-7.895
812.08	-4.545
812.38	-20.755
812.69	-32.500
812.99	-27.273
813.29	7.895
813.59	-42.857
813.90	0.000
814.20	-7.692
814.50	3.846
814.81	-9.434
815.11	-14.894
815.41	11.864
815.72	-4.762
816.02	25.490
816.32	-4.167
816.62	0.000
816.93	-16.216
817.23	-28.571
817.53	-8.333
817.84	-13.043
818.14	9.615
818.44	-10.526
818.74	13.043
819.04	-32.500
819.35	16.216
819.65	11.765
819.95	-13.889
820.25	-9.524
820.56	-17.500
820.86	-55.172
821.16	30.000
821.46	0.000
821.76	7.500
822.07	-13.953
822.37	-27.027
822.67	-25.000
822.97	11.905
823.27	-21.429
823.57	-16.000
823.88	-22.222
824.18	28.571
824.48	-11.765
824.78	3.226
825.08	-21.739
825.38	9.091
825.69	-41.667
825.99	0.000
826.29	-11.111
826.59	6.667
826.89	-38.095
827.19	15.217
827.49	-17.500
827.79	-8.571
828.09	-17.857
828.39	3.030
828.70	51.351
829.00	3.571
829.30	-33.333
829.60	-6.667
829.90	-3.125
830.20	-34.211
830.50	-59.259
830.80	-52.174
831.10	-40.909
831.40	3.030
831.70	41.935
832.00	0.000
832.30	4.762
832.60	-50.000
832.90	-10.345
833.20	-15.000
833.50	9.091
833.80	-11.111
834.10	-26.923
834.40	12.500
834.70	-66.667
835.00	-42.105
835.30	11.538
835.60	-53.333
835.90	-6.452
836.20	9.091
836.50	35.714
836.80	-23.077
837.10	-7.143
837.40	-166.667
837.70	-9.091
838.00	-236.364
838.30	-13.043
838.60	-61.538
838.90	-50.000
839.19	14.286
839.49	30.000
839.79	-15.385
840.09	-100.000
840.39	28.571
840.69	-17.857
840.99	-11.538
841.29	-42.105
841.59	-40.000
841.88	-118.182
842.18	40.000
842.48	-6.250
842.78	-53.333
843.08	7.407
843.38	-90.000
843.68	17.391
843.97	-53.333
844.27	-120.000
844.57	-15.000
844.87	0.000
845.17	-71.429
845.47	-46.667
845.76	-33.333
846.06	23.529
846.36	-40.000
846.66	-71.429
846.96	-40.000
847.25	-112.500
847.55	7.143
847.85	0.000
848.15	-4.545
848.44	-566.667
848.74	0.000
849.04	3.704
849.34	45.455
849.63	-316.667
849.93	-280.000
850.23	-5.556
850.53	0.000
850.82	-61.538
851.12	-111.111
851.42	-20.000
851.71	0.000
852.01	-78.571
852.31	-450.000
852.61	-172.727
852.90	-20.000
853.20	-15.789
853.50	-100.000
853.79	-30.435
854.09	50.000
854.39	-10.526
854.68	-25.000
854.98	19.355
855.28	7.692
855.57	0.000
855.87	0.000
856.17	22.222
856.46	-14.286
856.76	6.667
857.05	33.333
857.35	-12.000
857.65	-38.889
857.94	-115.385
858.24	3.448
858.53	22.222
858.83	-18.519
859.13	18.182
859.42	26.087
859.72	-275.000
860.01	-466.667
860.31	52.000
860.60	-4.762
860.90	-200.000
861.20	-73.333
861.49	-750.000
861.79	-20.000
862.08	-35.000
862.38	13.333
862.67	-180.000
862.97	-50.000
863.26	-83.333
863.56	5.556
863.85	-533.333
864.15	-11.111
864.44	-10.000
864.74	-7.143
865.03	550.000
865.33	-460.000
865.62	-83.333
865.92	-108.333
866.21	-183.333
866.51	-31.250
866.80	-72.727
867.10	-700.000
867.39	-33.333
867.69	0.000
867.98	0.000
868.27	-300.000
868.57	-46.667
868.86	22.222
869.16	15.385
869.45	26.667
869.75	-1300.000
870.04	0.000
870.33	-257.143
870.63	23.810
870.92	666.667
871.22	-260.000
871.51	-1100.000
871.80	44.444
872.10	433.333
>>>>>End Processed Spectral Data<<<<<
