SpectraSuite Data File
++++++++++++++++++++++++++++++++++++
Date: Fri May 15 21:04:14 PDT 2015
User: schluterlab
Dark Spectrum Present: Yes
Reference Spectrum Present: Yes
Number of Sampled Component Spectra: 1
Spectrometers: USB2E3373
Integration Time (usec): 3000 (USB2E3373)
Spectra Averaged: 3 (USB2E3373)
Boxcar Smoothing: 0 (USB2E3373)
Correct for Electrical Dark: No (USB2E3373)
Strobe/Lamp Enabled: No (USB2E3373)
Correct for Detector Non-linearity: No (USB2E3373)
Correct for Stray Light: No (USB2E3373)
Number of Pixels in Processed Spectrum: 2048
>>>>>Begin Processed Spectral Data<<<<<
178.53	0.000
178.91	0.000
179.29	-25.000
179.67	-200.000
180.04	-0.000
180.42	75.000
180.80	-100.000
181.18	433.333
181.56	550.000
181.94	300.000
182.31	1600.000
182.69	-200.000
183.07	-233.333
183.45	-140.000
183.83	383.333
184.20	-45.455
184.58	166.667
184.96	-25.000
185.34	366.667
185.72	-550.000
186.09	146.154
186.47	-1000.000
186.85	133.333
187.23	100.000
187.61	1200.000
187.98	-33.333
188.36	-55.556
188.74	-533.333
189.12	-47.059
189.49	-11.111
189.87	0.000
190.25	7.143
190.63	-100.000
191.00	-100.000
191.38	-31.579
191.76	-50.000
192.14	150.000
192.51	-600.000
192.89	-88.889
193.27	0.000
193.65	183.333
194.02	200.000
194.40	-80.000
194.78	-200.000
195.15	33.333
195.53	-87.500
195.91	400.000
196.29	-225.000
196.66	100.000
197.04	128.571
197.42	-77.778
197.79	-500.000
198.17	-76.923
198.55	1900.000
198.92	-33.333
199.30	-1500.000
199.68	-300.000
200.05	-400.000
200.43	0.000
200.81	-200.000
201.18	-233.333
201.56	1500.000
201.94	-300.000
202.31	100.000
202.69	-340.000
203.07	225.000
203.44	300.000
203.82	0.000
204.19	-7.143
204.57	-400.000
204.95	150.000
205.32	-90.000
205.70	-57.143
206.08	-25.000
206.45	188.889
206.83	50.000
207.20	-85.714
207.58	900.000
207.96	-233.333
208.33	-140.000
208.71	-175.000
209.08	-333.333
209.46	-1100.000
209.84	-160.000
210.21	-900.000
210.59	-100.000
210.96	16.667
211.34	0.000
211.71	20.000
212.09	-142.857
212.46	-900.000
212.84	0.000
213.22	-10.000
213.59	750.000
213.97	23.077
214.34	9.091
214.72	-200.000
215.09	425.000
215.47	-61.538
215.84	0.000
216.22	-300.000
216.59	-37.500
216.97	-300.000
217.34	-175.000
217.72	-220.000
218.09	-12.500
218.47	200.000
218.84	-1100.000
219.22	-155.556
219.59	-20.000
219.97	433.333
220.34	375.000
220.72	57.143
221.09	-275.000
221.47	300.000
221.84	-650.000
222.22	-1050.000
222.59	-27.273
222.97	-41.667
223.34	-166.667
223.72	-64.286
224.09	0.000
224.46	10.714
224.84	566.667
225.21	0.000
225.59	6.667
225.96	-500.000
226.34	425.000
226.71	0.000
227.08	-16.667
227.46	0.000
227.83	-700.000
228.21	-66.667
228.58	54.545
228.95	-75.000
229.33	180.000
229.70	-18.750
230.08	-200.000
230.45	-85.714
230.82	-128.571
231.20	-53.333
231.57	-42.857
231.95	-57.143
232.32	-50.000
232.69	0.000
233.07	-200.000
233.44	-100.000
233.81	-50.000
234.19	-33.333
234.56	-35.294
234.93	550.000
235.31	50.000
235.68	-260.000
236.05	-76.923
236.43	-35.000
236.80	41.176
237.17	-3.125
237.55	-45.000
237.92	-3.704
238.29	0.000
238.67	16.667
239.04	23.529
239.41	-19.512
239.79	6.667
240.16	31.707
240.53	-15.789
240.91	-2.174
241.28	4.762
241.65	33.929
242.02	15.068
242.40	36.667
242.77	27.119
243.14	9.091
243.51	22.500
243.89	34.483
244.26	25.287
244.63	7.143
245.00	25.773
245.38	27.835
245.75	21.348
246.12	18.966
246.49	24.793
246.87	27.885
247.24	14.286
247.61	16.667
247.98	18.699
248.36	19.375
248.73	18.421
249.10	23.377
249.47	26.582
249.84	25.490
250.22	25.294
250.59	20.915
250.96	28.169
251.33	23.256
251.70	27.059
252.08	23.858
252.45	23.267
252.82	24.121
253.19	23.963
253.56	23.832
253.94	22.072
254.31	26.957
254.68	28.947
255.05	26.772
255.42	28.384
255.79	28.571
256.16	26.459
256.54	29.104
256.91	26.236
257.28	27.138
257.65	26.966
258.02	24.823
258.39	26.263
258.76	28.571
259.14	22.924
259.51	30.421
259.88	26.804
260.25	27.451
260.62	32.292
260.99	24.068
261.36	27.740
261.73	27.215
262.10	27.356
262.47	24.540
262.85	29.154
263.22	26.154
263.59	28.037
263.96	29.814
264.33	26.970
264.70	26.488
265.07	25.893
265.44	28.045
265.81	23.729
266.18	29.781
266.55	26.992
266.92	28.756
267.29	25.326
267.66	27.877
268.03	27.749
268.40	24.543
268.77	27.005
269.14	29.736
269.51	27.763
269.88	24.938
270.25	25.000
270.62	25.610
270.99	25.831
271.36	24.450
271.73	27.465
272.10	26.034
272.47	27.896
272.84	26.238
273.21	27.146
273.58	26.747
273.95	28.146
274.32	26.328
274.69	27.149
275.06	29.241
275.43	26.984
275.80	24.724
276.17	26.437
276.54	23.983
276.91	28.289
277.28	23.362
277.65	25.826
278.02	25.532
278.39	26.477
278.76	28.302
279.13	26.349
279.50	27.521
279.87	28.726
280.23	25.591
280.60	27.290
280.97	28.283
281.34	22.500
281.71	28.747
282.08	25.358
282.45	27.397
282.82	26.448
283.19	25.145
283.56	28.131
283.92	24.288
284.29	24.615
284.66	25.194
285.03	25.933
285.40	24.197
285.77	25.132
286.14	24.368
286.51	27.675
286.87	25.046
287.24	25.230
287.61	25.220
287.98	24.035
288.35	25.823
288.72	25.219
289.08	25.868
289.45	23.199
289.82	24.825
290.19	24.744
290.56	21.269
290.93	23.064
291.29	23.421
291.66	23.937
292.03	21.850
292.40	24.032
292.77	23.445
293.13	21.266
293.50	22.003
293.87	22.748
294.24	22.257
294.60	23.994
294.97	22.321
295.34	19.479
295.71	21.013
296.08	19.880
296.44	18.350
296.81	20.556
297.18	21.594
297.55	23.171
297.91	19.726
298.28	21.504
298.65	19.946
299.02	18.598
299.38	18.194
299.75	19.448
300.12	17.670
300.48	18.445
300.85	20.786
301.22	18.182
301.59	20.132
301.95	20.000
302.32	20.233
302.69	19.776
303.05	18.317
303.42	19.178
303.79	19.860
304.15	19.474
304.52	18.787
304.89	18.012
305.25	18.039
305.62	17.153
305.99	18.246
306.35	17.457
306.72	17.548
307.09	17.902
307.45	18.485
307.82	16.898
308.19	19.048
308.55	17.339
308.92	18.954
309.29	17.542
309.65	17.438
310.02	17.712
310.38	18.332
310.75	19.891
311.12	18.515
311.48	18.876
311.85	20.524
312.22	16.983
312.58	18.790
312.95	17.503
313.31	17.909
313.68	18.220
314.05	17.449
314.41	17.423
314.78	17.216
315.14	17.986
315.51	17.702
315.87	17.623
316.24	17.998
316.61	17.618
316.97	18.353
317.34	16.699
317.70	17.591
318.07	16.538
318.43	18.137
318.80	17.045
319.16	19.141
319.53	18.329
319.89	17.323
320.26	17.004
320.62	18.756
320.99	17.745
321.35	17.575
321.72	18.172
322.08	18.026
322.45	15.635
322.81	17.583
323.18	16.977
323.54	17.375
323.91	16.943
324.27	16.797
324.64	17.416
325.00	18.248
325.37	19.008
325.73	16.772
326.10	16.985
326.46	19.013
326.83	18.460
327.19	18.657
327.56	17.637
327.92	18.398
328.29	16.607
328.65	18.491
329.01	17.739
329.38	17.419
329.74	16.714
330.11	17.702
330.47	16.419
330.84	17.500
331.20	19.106
331.56	16.667
331.93	18.082
332.29	18.057
332.66	17.014
333.02	18.309
333.38	16.040
333.75	15.659
334.11	16.652
334.48	17.588
334.84	17.949
335.20	16.651
335.57	16.138
335.93	18.248
336.29	17.219
336.66	16.440
337.02	16.822
337.38	16.481
337.75	17.091
338.11	17.493
338.47	18.157
338.84	17.190
339.20	15.814
339.56	16.330
339.93	16.831
340.29	17.248
340.65	17.294
341.02	16.755
341.38	15.221
341.74	16.696
342.11	15.945
342.47	16.548
342.83	18.599
343.20	16.551
343.56	16.609
343.92	17.272
344.28	16.652
344.65	15.889
345.01	16.508
345.37	15.980
345.73	17.490
346.10	16.480
346.46	17.410
346.82	16.448
347.19	15.960
347.55	15.873
347.91	16.828
348.27	16.572
348.63	16.269
349.00	15.505
349.36	16.209
349.72	16.501
350.08	15.656
350.45	16.999
350.81	15.449
351.17	15.147
351.53	17.224
351.89	15.029
352.26	16.080
352.62	16.129
352.98	16.707
353.34	15.862
353.70	16.586
354.07	15.887
354.43	16.413
354.79	16.598
355.15	16.349
355.51	16.377
355.87	16.181
356.24	13.948
356.60	15.602
356.96	16.746
357.32	15.655
357.68	15.012
358.04	15.994
358.40	14.711
358.77	16.587
359.13	16.093
359.49	14.715
359.85	15.913
360.21	15.789
360.57	14.690
360.93	15.734
361.29	14.426
361.66	15.439
362.02	15.455
362.38	16.070
362.74	15.140
363.10	15.877
363.46	16.234
363.82	16.754
364.18	15.351
364.54	14.779
364.90	14.910
365.26	15.575
365.62	16.715
365.98	15.762
366.35	16.315
366.71	16.334
367.07	14.514
367.43	14.809
367.79	15.336
368.15	15.363
368.51	16.169
368.87	14.716
369.23	14.440
369.59	16.035
369.95	16.056
370.31	15.824
370.67	15.224
371.03	15.907
371.39	15.171
371.75	15.531
372.11	15.763
372.47	15.754
372.83	14.762
373.19	15.906
373.55	14.874
373.91	14.759
374.27	15.734
374.63	16.009
374.99	15.887
375.35	15.669
375.71	16.364
376.07	15.028
376.42	16.259
376.78	14.966
377.14	14.963
377.50	15.339
377.86	15.194
378.22	14.933
378.58	14.679
378.94	15.123
379.30	14.972
379.66	15.047
380.02	15.267
380.38	15.155
380.74	15.560
381.09	16.074
381.45	14.679
381.81	15.299
382.17	15.038
382.53	14.866
382.89	14.689
383.25	14.997
383.61	15.915
383.97	14.667
384.32	14.822
384.68	14.737
385.04	14.645
385.40	15.308
385.76	15.975
386.12	15.201
386.48	15.326
386.83	15.029
387.19	15.446
387.55	16.123
387.91	15.098
388.27	15.201
388.62	15.230
388.98	14.549
389.34	15.365
389.70	15.911
390.06	14.663
390.42	15.285
390.77	14.912
391.13	14.439
391.49	15.201
391.85	14.230
392.20	14.815
392.56	15.321
392.92	15.032
393.28	15.566
393.64	15.255
393.99	16.050
394.35	14.611
394.71	15.006
395.07	14.645
395.42	14.754
395.78	14.788
396.14	14.943
396.50	15.599
396.85	14.295
397.21	14.599
397.57	14.169
397.92	14.739
398.28	14.598
398.64	14.036
399.00	14.560
399.35	13.883
399.71	14.474
400.07	14.148
400.42	14.810
400.78	14.329
401.14	15.366
401.49	15.247
401.85	14.564
402.21	14.940
402.57	14.625
402.92	14.053
403.28	14.912
403.63	14.817
403.99	14.541
404.35	14.991
404.70	14.643
405.06	13.925
405.42	13.860
405.77	14.236
406.13	14.377
406.49	14.506
406.84	14.670
407.20	15.111
407.55	13.844
407.91	14.840
408.27	14.022
408.62	15.015
408.98	13.986
409.34	15.180
409.69	13.760
410.05	14.717
410.40	14.568
410.76	14.958
411.11	13.937
411.47	15.911
411.83	13.999
412.18	14.157
412.54	14.919
412.89	13.793
413.25	14.862
413.60	14.783
413.96	14.294
414.31	14.939
414.67	14.304
415.03	13.848
415.38	14.295
415.74	14.723
416.09	15.219
416.45	14.517
416.80	14.078
417.16	14.019
417.51	15.256
417.87	13.950
418.22	14.184
418.58	13.846
418.93	15.549
419.29	13.316
419.64	14.971
420.00	14.106
420.35	14.328
420.71	14.763
421.06	13.935
421.42	14.904
421.77	15.029
422.12	14.472
422.48	14.618
422.83	14.501
423.19	15.181
423.54	14.168
423.90	14.664
424.25	14.409
424.61	15.361
424.96	14.692
425.31	15.020
425.67	14.495
426.02	15.371
426.38	15.091
426.73	14.225
427.09	15.316
427.44	15.706
427.79	15.793
428.15	15.291
428.50	14.597
428.85	14.128
429.21	15.393
429.56	14.933
429.92	15.254
430.27	15.338
430.62	14.794
430.98	14.331
431.33	15.352
431.68	14.704
432.04	14.701
432.39	14.261
432.74	14.311
433.10	15.460
433.45	14.217
433.80	13.755
434.16	14.460
434.51	15.215
434.86	14.692
435.22	14.975
435.57	13.787
435.92	14.431
436.28	14.729
436.63	15.003
436.98	14.426
437.34	14.277
437.69	15.325
438.04	14.701
438.39	14.722
438.75	15.118
439.10	14.092
439.45	14.729
439.81	15.107
440.16	14.549
440.51	15.582
440.86	16.254
441.22	14.932
441.57	14.625
441.92	14.743
442.27	14.523
442.63	15.418
442.98	15.336
443.33	14.747
443.68	14.695
444.03	14.953
444.39	14.560
444.74	15.663
445.09	14.978
445.44	13.903
445.79	15.059
446.15	14.648
446.50	15.031
446.85	15.250
447.20	14.911
447.55	16.071
447.91	14.664
448.26	15.026
448.61	15.486
448.96	15.491
449.31	14.566
449.66	14.866
450.02	15.345
450.37	15.056
450.72	15.063
451.07	15.063
451.42	15.793
451.77	14.587
452.12	14.533
452.47	15.003
452.83	15.135
453.18	14.738
453.53	15.171
453.88	15.543
454.23	15.919
454.58	15.302
454.93	15.915
455.28	14.603
455.63	15.623
455.98	15.274
456.34	14.304
456.69	14.549
457.04	15.186
457.39	15.188
457.74	14.329
458.09	15.068
458.44	15.331
458.79	15.070
459.14	16.190
459.49	15.582
459.84	15.849
460.19	15.595
460.54	15.709
460.89	15.852
461.24	15.155
461.59	16.330
461.94	14.780
462.29	15.199
462.64	15.681
462.99	14.827
463.34	15.508
463.69	15.637
464.04	16.465
464.39	15.525
464.74	15.644
465.09	15.159
465.44	16.042
465.79	14.796
466.14	15.450
466.49	15.526
466.84	15.526
467.19	15.582
467.54	15.198
467.89	15.666
468.24	16.606
468.59	15.302
468.94	14.921
469.29	15.672
469.64	16.131
469.99	17.029
470.34	14.949
470.68	15.958
471.03	16.277
471.38	15.121
471.73	15.826
472.08	14.993
472.43	15.168
472.78	14.736
473.13	16.463
473.48	16.156
473.83	15.318
474.17	16.775
474.52	15.699
474.87	15.818
475.22	16.290
475.57	15.359
475.92	16.292
476.27	15.774
476.61	16.840
476.96	15.951
477.31	16.171
477.66	15.393
478.01	15.778
478.36	15.359
478.70	16.096
479.05	16.209
479.40	15.633
479.75	15.537
480.10	15.207
480.45	15.750
480.79	16.566
481.14	16.342
481.49	15.320
481.84	15.782
482.19	15.716
482.53	15.779
482.88	15.752
483.23	16.219
483.58	15.613
483.92	15.295
484.27	15.998
484.62	15.867
484.97	15.713
485.31	15.571
485.66	14.777
486.01	15.282
486.36	15.240
486.70	15.730
487.05	15.189
487.40	15.460
487.75	15.014
488.09	14.988
488.44	15.475
488.79	15.502
489.13	15.425
489.48	15.648
489.83	16.323
490.17	15.461
490.52	15.612
490.87	15.965
491.22	16.523
491.56	15.465
491.91	15.583
492.26	16.043
492.60	16.027
492.95	17.118
493.30	15.291
493.64	15.815
493.99	15.894
494.34	15.825
494.68	16.238
495.03	15.718
495.37	16.585
495.72	16.355
496.07	15.951
496.41	16.698
496.76	15.845
497.11	16.022
497.45	16.277
497.80	16.751
498.14	16.195
498.49	16.303
498.84	16.218
499.18	16.767
499.53	16.419
499.87	15.710
500.22	16.024
500.56	16.490
500.91	16.365
501.26	15.769
501.60	15.839
501.95	15.915
502.29	15.787
502.64	16.409
502.98	16.478
503.33	15.562
503.67	16.386
504.02	16.129
504.36	16.774
504.71	16.566
505.06	16.860
505.40	16.041
505.75	15.567
506.09	16.472
506.44	17.762
506.78	16.378
507.13	16.598
507.47	15.666
507.82	16.453
508.16	16.482
508.51	16.999
508.85	16.797
509.19	16.126
509.54	17.212
509.88	16.775
510.23	16.407
510.57	16.355
510.92	16.045
511.26	16.803
511.61	16.942
511.95	17.151
512.30	16.408
512.64	16.528
512.98	16.676
513.33	17.348
513.67	17.169
514.02	17.735
514.36	17.143
514.70	17.366
515.05	17.156
515.39	17.119
515.74	18.084
516.08	17.274
516.42	18.021
516.77	17.613
517.11	16.677
517.46	17.594
517.80	17.998
518.14	17.636
518.49	17.849
518.83	17.558
519.17	16.677
519.52	16.696
519.86	17.647
520.20	17.801
520.55	17.699
520.89	18.381
521.23	17.923
521.58	18.927
521.92	18.205
522.26	18.022
522.61	18.312
522.95	18.079
523.29	18.806
523.64	18.615
523.98	18.017
524.32	17.912
524.66	18.694
525.01	17.857
525.35	18.471
525.69	17.441
526.04	16.601
526.38	18.418
526.72	17.005
527.06	16.602
527.41	18.931
527.75	18.164
528.09	18.007
528.43	18.163
528.78	17.624
529.12	18.258
529.46	16.959
529.80	18.429
530.15	18.482
530.49	17.104
530.83	18.331
531.17	18.200
531.51	18.194
531.86	17.267
532.20	17.467
532.54	18.584
532.88	18.480
533.22	18.212
533.57	18.742
533.91	17.559
534.25	18.424
534.59	18.153
534.93	17.873
535.27	17.386
535.62	17.952
535.96	19.113
536.30	18.338
536.64	19.228
536.98	18.118
537.32	18.279
537.66	19.004
538.01	18.881
538.35	17.753
538.69	18.775
539.03	17.977
539.37	17.362
539.71	17.723
540.05	17.651
540.39	18.560
540.73	17.992
541.07	18.094
541.42	18.280
541.76	18.238
542.10	17.137
542.44	17.790
542.78	17.343
543.12	17.582
543.46	18.846
543.80	17.557
544.14	17.089
544.48	18.254
544.82	18.319
545.16	18.579
545.50	18.625
545.84	18.697
546.18	17.730
546.52	18.601
546.86	17.901
547.20	18.312
547.54	17.032
547.88	17.799
548.22	17.554
548.56	17.744
548.90	17.790
549.24	17.631
549.58	17.278
549.92	17.155
550.26	18.168
550.60	18.216
550.94	18.297
551.28	18.315
551.62	18.538
551.96	17.970
552.30	18.056
552.64	18.759
552.98	18.003
553.32	18.759
553.66	17.925
554.00	18.613
554.34	18.464
554.68	18.658
555.02	18.080
555.36	17.502
555.69	17.363
556.03	17.844
556.37	17.295
556.71	18.989
557.05	18.046
557.39	17.175
557.73	18.216
558.07	19.834
558.41	18.070
558.75	18.394
559.08	18.519
559.42	18.492
559.76	18.255
560.10	18.043
560.44	18.541
560.78	18.182
561.12	18.759
561.45	17.920
561.79	18.627
562.13	18.240
562.47	17.410
562.81	17.939
563.15	17.772
563.48	18.883
563.82	19.218
564.16	18.454
564.50	18.176
564.84	17.604
565.17	17.773
565.51	18.374
565.85	19.204
566.19	17.838
566.52	17.627
566.86	18.380
567.20	18.555
567.54	18.796
567.88	18.278
568.21	18.156
568.55	17.554
568.89	17.454
569.23	18.296
569.56	17.426
569.90	17.093
570.24	17.529
570.57	17.236
570.91	16.940
571.25	16.343
571.59	16.755
571.92	16.770
572.26	16.365
572.60	16.527
572.93	16.724
573.27	16.959
573.61	16.617
573.95	17.094
574.28	16.128
574.62	16.273
574.96	16.480
575.29	16.179
575.63	15.937
575.97	15.722
576.30	15.997
576.64	16.159
576.98	16.963
577.31	16.196
577.65	16.674
577.98	16.674
578.32	16.058
578.66	16.097
578.99	16.004
579.33	16.038
579.67	15.872
580.00	16.506
580.34	16.169
580.67	15.900
581.01	16.402
581.35	15.956
581.68	16.394
582.02	16.168
582.35	16.360
582.69	16.108
583.02	16.193
583.36	16.182
583.70	16.121
584.03	16.375
584.37	16.347
584.70	16.181
585.04	15.803
585.37	15.848
585.71	15.922
586.04	16.011
586.38	16.031
586.72	16.356
587.05	16.522
587.39	16.131
587.72	16.730
588.06	16.108
588.39	16.491
588.73	16.331
589.06	16.536
589.40	16.661
589.73	16.502
590.07	16.465
590.40	16.873
590.73	17.628
591.07	16.921
591.40	16.785
591.74	16.878
592.07	17.161
592.41	16.740
592.74	16.886
593.08	16.591
593.41	16.409
593.75	16.814
594.08	16.066
594.41	16.412
594.75	15.802
595.08	16.534
595.42	16.526
595.75	16.898
596.09	16.849
596.42	16.825
596.75	17.007
597.09	17.267
597.42	16.305
597.75	16.445
598.09	16.659
598.42	16.697
598.76	16.645
599.09	16.707
599.42	16.105
599.76	16.667
600.09	16.365
600.42	16.376
600.76	16.048
601.09	16.145
601.42	16.020
601.76	16.514
602.09	16.460
602.42	16.681
602.76	17.233
603.09	16.653
603.42	17.266
603.76	15.887
604.09	15.958
604.42	16.624
604.76	16.733
605.09	17.276
605.42	17.336
605.75	16.813
606.09	16.221
606.42	16.639
606.75	16.667
607.09	17.670
607.42	16.571
607.75	16.785
608.08	16.217
608.42	16.766
608.75	17.012
609.08	17.389
609.41	16.802
609.75	16.179
610.08	17.224
610.41	16.715
610.74	17.114
611.07	17.209
611.41	17.333
611.74	17.111
612.07	17.024
612.40	16.794
612.73	16.893
613.07	16.535
613.40	17.396
613.73	16.844
614.06	16.917
614.39	17.541
614.72	17.479
615.06	16.927
615.39	16.703
615.72	16.469
616.05	17.318
616.38	17.037
616.71	17.125
617.05	17.233
617.38	16.656
617.71	17.107
618.04	17.143
618.37	17.339
618.70	18.020
619.03	17.847
619.36	17.149
619.69	17.817
620.03	18.335
620.36	17.454
620.69	17.345
621.02	17.584
621.35	18.174
621.68	17.772
622.01	18.250
622.34	17.558
622.67	18.691
623.00	17.381
623.33	18.216
623.66	17.726
623.99	18.079
624.32	17.567
624.65	16.391
624.99	18.510
625.32	17.286
625.65	18.303
625.98	18.453
626.31	17.290
626.64	19.064
626.97	18.761
627.30	18.476
627.63	17.764
627.96	17.610
628.29	16.651
628.62	19.371
628.95	19.138
629.28	17.843
629.61	17.946
629.94	19.648
630.26	19.466
630.59	20.708
630.92	19.179
631.25	17.231
631.58	19.163
631.91	18.531
632.24	17.087
632.57	18.182
632.90	19.573
633.23	19.647
633.56	18.262
633.89	18.002
634.22	20.000
634.55	18.933
634.88	18.135
635.20	17.949
635.53	20.000
635.86	19.636
636.19	17.076
636.52	19.643
636.85	18.859
637.18	17.610
637.51	18.365
637.83	18.660
638.16	20.873
638.49	17.166
638.82	20.789
639.15	17.368
639.48	18.707
639.81	18.131
640.13	20.779
640.46	19.971
640.79	18.557
641.12	20.532
641.45	20.270
641.77	21.481
642.10	19.431
642.43	19.775
642.76	20.462
643.09	18.578
643.41	19.741
643.74	21.087
644.07	18.227
644.40	21.622
644.73	20.490
645.05	20.973
645.38	19.753
645.71	20.035
646.04	20.826
646.36	20.390
646.69	22.662
647.02	19.282
647.35	21.828
647.67	20.110
648.00	21.828
648.33	18.430
648.66	20.508
648.98	18.258
649.31	18.182
649.64	18.210
649.96	19.611
650.29	18.228
650.62	18.632
650.94	20.000
651.27	16.201
651.60	20.000
651.92	23.601
652.25	19.183
652.58	19.167
652.90	20.583
653.23	18.487
653.56	18.443
653.88	17.869
654.21	15.412
654.54	19.185
654.86	20.374
655.19	19.298
655.52	18.576
655.84	16.736
656.17	18.334
656.49	24.582
656.82	24.813
657.15	18.429
657.47	13.670
657.80	10.080
658.13	9.717
658.45	15.317
658.78	14.236
659.10	13.945
659.43	14.539
659.75	15.590
660.08	15.379
660.41	16.956
660.73	16.851
661.06	20.971
661.38	18.004
661.71	16.427
662.03	21.888
662.36	21.978
662.68	17.257
663.01	21.397
663.33	16.009
663.66	19.535
663.98	18.372
664.31	17.910
664.63	17.051
664.96	18.913
665.28	18.322
665.61	17.532
665.93	20.435
666.26	20.174
666.58	17.897
666.91	21.647
667.23	19.340
667.56	18.246
667.88	18.705
668.21	19.809
668.53	23.168
668.86	20.047
669.18	19.575
669.50	18.160
669.83	19.302
670.15	18.881
670.48	17.225
670.80	20.737
671.13	17.450
671.45	19.863
671.77	19.528
672.10	20.396
672.42	19.288
672.75	20.604
673.07	22.361
673.39	19.266
673.72	16.765
674.04	16.250
674.37	21.822
674.69	17.773
675.01	20.222
675.34	20.946
675.66	20.833
675.98	19.290
676.31	20.183
676.63	20.665
676.95	18.864
677.28	21.412
677.60	23.614
677.92	16.284
678.25	20.350
678.57	18.615
678.89	18.697
679.22	21.477
679.54	20.281
679.86	17.296
680.18	22.136
680.51	18.371
680.83	17.296
681.15	18.000
681.48	21.107
681.80	19.008
682.12	16.129
682.44	18.410
682.77	19.647
683.09	21.739
683.41	19.545
683.73	17.512
684.06	17.478
684.38	17.634
684.70	20.479
685.02	18.257
685.34	17.391
685.67	19.887
685.99	19.711
686.31	18.053
686.63	17.996
686.96	16.350
687.28	15.152
687.60	15.589
687.92	18.182
688.24	17.742
688.56	17.686
688.89	18.527
689.21	19.111
689.53	16.473
689.85	18.140
690.17	20.536
690.49	17.730
690.82	19.903
691.14	17.143
691.46	19.626
691.78	16.892
692.10	19.140
692.42	17.965
692.74	16.880
693.06	17.342
693.39	18.100
693.71	17.421
694.03	16.628
694.35	19.626
694.67	18.939
694.99	13.838
695.31	20.366
695.63	17.750
695.95	19.697
696.27	16.062
696.59	23.333
696.91	22.689
697.23	17.995
697.56	16.832
697.88	19.785
698.20	19.362
698.52	16.471
698.84	16.029
699.16	17.250
699.48	18.546
699.80	19.107
700.12	18.329
700.44	21.008
700.76	18.023
701.08	17.576
701.40	18.072
701.72	21.296
702.04	21.122
702.36	22.408
702.68	17.718
703.00	16.061
703.32	13.783
703.64	18.644
703.96	18.261
704.28	19.939
704.60	18.095
704.91	16.404
705.23	18.605
705.55	19.435
705.87	20.939
706.19	16.667
706.51	17.869
706.83	20.900
707.15	13.707
707.47	18.768
707.79	16.927
708.11	17.000
708.43	21.250
708.74	19.121
709.06	22.817
709.38	16.820
709.70	17.751
710.02	20.064
710.34	16.718
710.66	15.385
710.98	16.225
711.29	16.066
711.61	17.627
711.93	17.590
712.25	17.869
712.57	21.978
712.89	19.403
713.20	17.647
713.52	21.951
713.84	18.430
714.16	19.931
714.48	14.516
714.80	19.231
715.11	17.021
715.43	15.361
715.75	16.000
716.07	16.279
716.39	15.101
716.70	16.605
717.02	17.557
717.34	22.672
717.66	20.796
717.97	15.652
718.29	22.176
718.61	14.961
718.93	19.767
719.24	22.814
719.56	21.687
719.88	23.368
720.20	18.939
720.51	17.625
720.83	20.077
721.15	18.908
721.46	16.129
721.78	15.810
722.10	14.498
722.42	11.203
722.73	16.735
723.05	23.673
723.37	25.000
723.68	22.523
724.00	19.231
724.32	14.222
724.63	14.091
724.95	13.100
725.27	18.433
725.58	18.220
725.90	13.095
726.22	18.919
726.53	20.000
726.85	17.228
727.16	18.491
727.48	12.955
727.80	17.004
728.11	14.407
728.43	20.000
728.74	11.290
729.06	15.600
729.38	25.188
729.69	22.311
730.01	11.538
730.32	17.910
730.64	20.495
730.96	24.151
731.27	16.667
731.59	20.000
731.90	15.924
732.22	19.558
732.53	16.611
732.85	17.376
733.16	19.865
733.48	14.388
733.80	16.304
734.11	18.644
734.43	14.089
734.74	20.303
735.06	14.332
735.37	20.544
735.69	15.825
736.00	16.376
736.32	15.772
736.63	17.254
736.95	17.747
737.26	17.082
737.58	20.134
737.89	16.484
738.21	17.293
738.52	17.284
738.83	16.157
739.15	15.284
739.46	18.110
739.78	13.187
740.09	16.013
740.41	18.841
740.72	15.748
741.04	16.194
741.35	18.723
741.66	21.801
741.98	20.408
742.29	17.327
742.61	18.848
742.92	15.640
743.23	11.574
743.55	17.647
743.86	14.833
744.18	14.354
744.49	17.021
744.80	19.022
745.12	19.251
745.43	11.707
745.74	21.875
746.06	20.976
746.37	18.325
746.68	19.431
747.00	14.362
747.31	21.393
747.62	14.563
747.94	16.268
748.25	14.356
748.56	16.940
748.88	13.089
749.19	21.809
749.50	15.764
749.82	16.038
750.13	14.220
750.44	19.173
750.75	19.403
751.07	19.343
751.38	14.176
751.69	12.157
752.01	19.380
752.32	14.741
752.63	16.996
752.94	13.793
753.26	20.921
753.57	13.575
753.88	19.469
754.19	16.667
754.51	12.810
754.82	12.551
755.13	22.500
755.44	16.935
755.75	21.094
756.07	20.233
756.38	18.491
756.69	14.943
757.00	18.333
757.31	16.667
757.63	17.378
757.94	14.444
758.25	15.616
758.56	15.426
758.87	16.997
759.18	16.822
759.50	18.545
759.81	18.060
760.12	14.194
760.43	19.091
760.74	18.827
761.05	15.692
761.36	16.761
761.67	15.152
761.99	17.007
762.30	14.545
762.61	17.391
762.92	18.100
763.23	14.865
763.54	14.486
763.85	19.068
764.16	17.842
764.47	19.758
764.78	15.018
765.10	18.519
765.41	14.196
765.72	16.825
766.03	11.278
766.34	16.423
766.65	21.514
766.96	17.677
767.27	17.553
767.58	10.920
767.89	14.184
768.20	14.205
768.51	12.637
768.82	14.778
769.13	17.512
769.44	14.163
769.75	11.416
770.06	20.259
770.37	16.827
770.68	14.213
770.99	19.457
771.30	21.078
771.61	15.385
771.92	18.103
772.23	20.690
772.54	18.817
772.85	12.963
773.16	21.910
773.47	24.837
773.78	20.915
774.09	17.964
774.39	13.333
774.70	12.739
775.01	22.759
775.32	11.429
775.63	11.570
775.94	12.977
776.25	18.110
776.56	15.833
776.87	4.808
777.18	13.675
777.48	8.621
777.79	21.739
778.10	0.952
778.41	17.117
778.72	16.667
779.03	19.549
779.34	11.348
779.65	15.753
779.95	14.384
780.26	11.724
780.57	8.130
780.88	18.110
781.19	11.207
781.50	13.953
781.80	11.834
782.11	12.579
782.42	22.308
782.73	12.950
783.04	10.370
783.34	9.722
783.65	5.983
783.96	9.016
784.27	27.586
784.57	13.821
784.88	13.281
785.19	18.000
785.50	17.000
785.81	14.655
786.11	8.621
786.42	-4.854
786.73	17.273
787.04	20.408
787.34	18.750
787.65	18.095
787.96	15.044
788.26	17.273
788.57	5.128
788.88	21.094
789.19	11.111
789.49	17.391
789.80	11.224
790.11	15.152
790.41	5.455
790.72	9.783
791.03	4.545
791.33	17.500
791.64	1.250
791.95	0.000
792.25	10.638
792.56	23.596
792.87	4.110
793.17	8.696
793.48	0.000
793.79	12.500
794.09	28.750
794.40	8.491
794.70	5.825
795.01	13.821
795.32	11.111
795.62	11.429
795.93	8.824
796.23	15.094
796.54	12.500
796.85	20.588
797.15	12.676
797.46	6.944
797.76	25.758
798.07	8.140
798.37	-5.263
798.68	-3.030
798.99	12.346
799.29	7.143
799.60	17.391
799.90	20.000
800.21	16.393
800.51	4.615
800.82	13.559
801.12	20.290
801.43	6.557
801.73	15.873
802.04	6.000
802.34	11.940
802.65	5.769
802.95	3.571
803.26	17.308
803.56	11.765
803.87	-8.696
804.17	2.667
804.48	17.460
804.78	9.259
805.09	-4.348
805.39	0.000
805.70	14.815
806.00	1.754
806.30	21.127
806.61	7.143
806.91	6.944
807.22	10.526
807.52	9.333
807.83	-20.000
808.13	20.833
808.43	11.765
808.74	5.970
809.04	-1.695
809.35	9.615
809.65	3.125
809.95	-35.135
810.26	-15.909
810.56	5.479
810.86	-2.381
811.17	34.000
811.47	14.286
811.77	2.632
812.08	-2.273
812.38	1.887
812.69	-2.500
812.99	-15.152
813.29	18.421
813.59	-28.571
813.90	9.091
814.20	-12.821
814.50	13.462
814.81	16.981
815.11	-2.128
815.41	30.508
815.72	2.381
816.02	19.608
816.32	2.083
816.62	-12.195
816.93	16.216
817.23	20.000
817.53	22.917
817.84	-17.391
818.14	21.154
818.44	-23.684
818.74	4.348
819.04	-15.000
819.35	10.811
819.65	2.941
819.95	2.778
820.25	-7.143
820.56	35.000
820.86	-44.828
821.16	37.500
821.46	6.383
821.76	27.500
822.07	-11.628
822.37	-43.243
822.67	-12.500
822.97	9.524
823.27	-46.429
823.57	-56.000
823.88	-55.556
824.18	7.143
824.48	-14.706
824.78	12.903
825.08	-13.043
825.38	3.030
825.69	-54.167
825.99	-5.263
826.29	-19.444
826.59	-13.333
826.89	-38.095
827.19	2.174
827.49	-35.000
827.79	-11.429
828.09	-7.143
828.39	30.303
828.70	37.838
829.00	-25.000
829.30	14.286
829.60	-10.000
829.90	9.375
830.20	13.158
830.50	-37.037
830.80	-52.174
831.10	-45.455
831.40	24.242
831.70	-3.226
832.00	23.810
832.30	-9.524
832.60	-108.333
832.90	-20.690
833.20	-25.000
833.50	-21.212
833.80	0.000
834.10	26.923
834.40	12.500
834.70	-66.667
835.00	0.000
835.30	26.923
835.60	40.000
835.90	0.000
836.20	22.727
836.50	-3.571
836.80	-19.231
837.10	-28.571
837.40	-433.333
837.70	13.636
838.00	-109.091
838.30	-21.739
838.60	-53.846
838.90	-45.455
839.19	-28.571
839.49	3.333
839.79	-23.077
840.09	-100.000
840.39	25.000
840.69	-17.857
840.99	-38.462
841.29	-89.474
841.59	-180.000
841.88	-45.455
842.18	30.000
842.48	37.500
842.78	-46.667
843.08	-7.407
843.38	-130.000
843.68	21.739
843.97	13.333
844.27	-73.333
844.57	0.000
844.87	27.778
845.17	-52.381
845.47	26.667
845.76	-33.333
846.06	-58.824
846.36	-70.000
846.66	-14.286
846.96	-33.333
847.25	-125.000
847.55	-14.286
847.85	-100.000
848.15	-77.273
848.44	-466.667
848.74	-45.000
849.04	14.815
849.34	-9.091
849.63	-283.333
849.93	-200.000
850.23	-55.556
850.53	50.000
850.82	-69.231
851.12	-77.778
851.42	-6.667
851.71	-15.385
852.01	-21.429
852.31	-50.000
852.61	-63.636
852.90	-25.000
853.20	-10.526
853.50	-66.667
853.79	-43.478
854.09	12.500
854.39	-26.316
854.68	-29.167
854.98	-9.677
855.28	19.231
855.57	-35.000
855.87	33.333
856.17	14.815
856.46	-7.143
856.76	-33.333
857.05	66.667
857.35	32.000
857.65	5.556
857.94	-7.692
858.24	10.345
858.53	16.667
858.83	22.222
859.13	0.000
859.42	-13.043
859.72	-200.000
860.01	-233.333
860.31	-16.000
860.60	0.000
860.90	-333.333
861.20	-46.667
861.49	-250.000
861.79	-86.667
862.08	10.000
862.38	73.333
862.67	-240.000
862.97	-133.333
863.26	0.000
863.56	11.111
863.85	-566.667
864.15	-38.889
864.44	30.000
864.74	64.286
865.03	425.000
865.33	-360.000
865.62	-16.667
865.92	-58.333
866.21	-50.000
866.51	43.750
866.80	-81.818
867.10	-650.000
867.39	66.667
867.69	0.000
867.98	-15.385
868.27	-300.000
868.57	-33.333
868.86	-55.556
869.16	-61.538
869.45	-26.667
869.75	-800.000
870.04	0.000
870.33	-57.143
870.63	9.524
870.92	433.333
871.22	-340.000
871.51	-1500.000
871.80	66.667
872.10	733.333
>>>>>End Processed Spectral Data<<<<<
