SpectraSuite Data File
++++++++++++++++++++++++++++++++++++
Date: Fri May 15 20:48:07 PDT 2015
User: schluterlab
Dark Spectrum Present: Yes
Reference Spectrum Present: Yes
Number of Sampled Component Spectra: 1
Spectrometers: USB2E3373
Integration Time (usec): 3000 (USB2E3373)
Spectra Averaged: 3 (USB2E3373)
Boxcar Smoothing: 0 (USB2E3373)
Correct for Electrical Dark: No (USB2E3373)
Strobe/Lamp Enabled: No (USB2E3373)
Correct for Detector Non-linearity: No (USB2E3373)
Correct for Stray Light: No (USB2E3373)
Number of Pixels in Processed Spectrum: 2048
>>>>>Begin Processed Spectral Data<<<<<
178.53	0.000
178.91	0.000
179.29	75.000
179.67	-600.000
180.04	42.857
180.42	25.000
180.80	-1000.000
181.18	200.000
181.56	250.000
181.94	-100.000
182.31	1700.000
182.69	-100.000
183.07	-133.333
183.45	-80.000
183.83	133.333
184.20	27.273
184.58	177.778
184.96	25.000
185.34	333.333
185.72	-200.000
186.09	107.692
186.47	-1100.000
186.85	166.667
187.23	133.333
187.61	-300.000
187.98	-433.333
188.36	-11.111
188.74	-366.667
189.12	-17.647
189.49	11.111
189.87	0.000
190.25	14.286
190.63	100.000
191.00	-366.667
191.38	10.526
191.76	200.000
192.14	200.000
192.51	-550.000
192.89	-111.111
193.27	-242.857
193.65	166.667
194.02	236.364
194.40	30.000
194.78	-112.500
195.15	-66.667
195.53	-150.000
195.91	75.000
196.29	-325.000
196.66	130.769
197.04	14.286
197.42	-88.889
197.79	-533.333
198.17	-176.923
198.55	1100.000
198.92	-100.000
199.30	-500.000
199.68	-200.000
200.05	-433.333
200.43	0.000
200.81	-166.667
201.18	-166.667
201.56	900.000
201.94	-600.000
202.31	166.667
202.69	-140.000
203.07	350.000
203.44	-400.000
203.82	0.000
204.19	21.429
204.57	-233.333
204.95	175.000
205.32	-90.000
205.70	-42.857
206.08	-100.000
206.45	200.000
206.83	-14.286
207.20	-242.857
207.58	300.000
207.96	-100.000
208.33	-120.000
208.71	-150.000
209.08	-133.333
209.46	-200.000
209.84	-240.000
210.21	-2500.000
210.59	-157.143
210.96	-100.000
211.34	-350.000
211.71	0.000
212.09	-171.429
212.46	-2100.000
212.84	0.000
213.22	-40.000
213.59	550.000
213.97	30.769
214.34	36.364
214.72	-216.667
215.09	350.000
215.47	-30.769
215.84	-36.364
216.22	0.000
216.59	-162.500
216.97	200.000
217.34	-200.000
217.72	-180.000
218.09	50.000
218.47	150.000
218.84	200.000
219.22	-111.111
219.59	0.000
219.97	400.000
220.34	150.000
220.72	14.286
221.09	-375.000
221.47	-450.000
221.84	-750.000
222.22	-1000.000
222.59	-63.636
222.97	-50.000
223.34	-300.000
223.72	-42.857
224.09	-28.571
224.46	21.429
224.84	800.000
225.21	-120.000
225.59	0.000
225.96	-850.000
226.34	400.000
226.71	-114.286
227.08	-33.333
227.46	-50.000
227.83	-750.000
228.21	-55.556
228.58	-90.909
228.95	-162.500
229.33	200.000
229.70	-31.250
230.08	-137.500
230.45	-157.143
230.82	0.000
231.20	-13.333
231.57	35.714
231.95	-114.286
232.32	-120.000
232.69	0.000
233.07	-266.667
233.44	-240.000
233.81	-30.000
234.19	-66.667
234.56	-70.588
234.93	1250.000
235.31	-300.000
235.68	-240.000
236.05	-84.615
236.43	-15.000
236.80	-41.176
237.17	9.375
237.55	-40.000
237.92	-37.037
238.29	-11.111
238.67	3.333
239.04	-23.529
239.41	-46.341
239.79	-23.333
240.16	2.439
240.53	-28.947
240.91	0.000
241.28	-9.524
241.65	5.357
242.02	10.959
242.40	-6.667
242.77	-20.339
243.14	-16.667
243.51	-3.750
243.89	8.046
244.26	-12.644
244.63	-3.571
245.00	4.124
245.38	-2.062
245.75	-16.854
246.12	-6.897
246.49	-4.132
246.87	-7.692
247.24	-9.244
247.61	-15.789
247.98	-5.691
248.36	2.500
248.73	4.605
249.10	-4.545
249.47	3.797
249.84	-11.111
250.22	1.176
250.59	-1.307
250.96	5.164
251.33	-2.907
251.70	-2.941
252.08	-3.046
252.45	-0.990
252.82	-5.025
253.19	1.382
253.56	1.402
253.94	0.450
254.31	2.174
254.68	4.825
255.05	-0.394
255.42	1.310
255.79	3.089
256.16	-1.946
256.54	0.000
256.91	2.662
257.28	-0.743
257.65	-2.247
258.02	-0.355
258.39	1.347
258.76	1.832
259.14	2.990
259.51	1.618
259.88	0.687
260.25	-2.614
260.62	1.389
260.99	0.000
261.36	0.000
261.73	1.899
262.10	2.736
262.47	-2.761
262.85	-3.762
263.22	2.462
263.59	-1.246
263.96	1.242
264.33	1.818
264.70	-1.488
265.07	-4.167
265.44	1.700
265.81	-0.565
266.18	3.552
266.55	4.884
266.92	0.000
267.29	3.916
267.66	1.023
268.03	0.785
268.40	3.133
268.77	2.406
269.14	1.918
269.51	4.370
269.88	1.247
270.25	1.020
270.62	0.976
270.99	-1.279
271.36	-2.200
271.73	3.286
272.10	2.190
272.47	3.073
272.84	2.723
273.21	3.016
273.58	3.614
273.95	0.686
274.32	0.693
274.69	1.131
275.06	2.232
275.43	2.041
275.80	0.442
276.17	-1.149
276.54	2.998
276.91	1.316
277.28	-1.310
277.65	2.479
278.02	2.340
278.39	-0.219
278.76	2.725
279.13	-0.830
279.50	0.210
279.87	0.432
280.23	1.505
280.60	3.314
280.97	2.828
281.34	1.923
281.71	1.848
282.08	0.613
282.45	2.153
282.82	-1.351
283.19	2.708
283.56	1.156
283.92	0.949
284.29	1.154
284.66	0.388
285.03	-0.196
285.40	0.756
285.77	1.582
286.14	1.083
286.51	1.661
286.87	0.731
287.24	-0.184
287.61	-0.705
287.98	3.509
288.35	0.520
288.72	2.277
289.08	1.562
289.45	0.879
289.82	1.573
290.19	0.853
290.56	0.000
290.93	1.178
291.29	2.773
291.66	2.362
292.03	2.552
292.40	1.452
292.77	1.754
293.13	-1.786
293.50	0.910
293.87	3.359
294.24	2.164
294.60	1.937
294.97	2.530
295.34	-0.153
295.71	2.385
296.08	1.196
296.44	0.000
296.81	2.361
297.18	0.435
297.55	2.981
297.91	0.822
298.28	1.715
298.65	0.950
299.02	2.965
299.38	-0.684
299.75	1.241
300.12	1.440
300.48	0.659
300.85	2.408
301.22	0.649
301.59	0.000
301.95	2.785
302.32	2.853
302.69	1.990
303.05	0.124
303.42	2.989
303.79	1.519
304.15	1.553
304.52	0.713
304.89	1.053
305.25	0.726
305.62	1.517
305.99	0.468
306.35	1.272
306.72	-0.225
307.09	1.254
307.45	1.952
307.82	0.347
308.19	2.904
308.55	1.418
308.92	2.723
309.29	-0.223
309.65	1.399
310.02	1.540
310.38	0.988
310.75	1.421
311.12	1.292
311.48	1.485
311.85	2.513
312.22	1.793
312.58	2.017
312.95	1.174
313.31	0.621
313.68	1.361
314.05	2.347
314.41	1.340
314.78	2.784
315.14	2.775
315.51	2.692
315.87	2.049
316.24	3.842
316.61	3.248
316.97	4.167
317.34	3.809
317.70	3.920
318.07	3.077
318.43	3.824
318.80	3.504
319.16	4.492
319.53	6.933
319.89	4.626
320.26	5.668
320.62	6.419
320.99	5.219
321.35	5.242
321.72	7.892
322.08	8.056
322.45	6.701
322.81	8.939
323.18	7.262
323.54	8.880
323.91	8.471
324.27	9.473
324.64	11.423
325.00	11.040
325.37	12.213
325.73	10.879
326.10	12.716
326.46	13.363
326.83	13.561
327.19	14.385
327.56	15.030
327.92	15.757
328.29	15.000
328.65	16.226
329.01	16.912
329.38	16.959
329.74	15.958
330.11	17.702
330.47	17.811
330.84	18.846
331.20	20.913
331.56	18.519
331.93	19.452
332.29	20.165
332.66	19.729
333.02	20.725
333.38	20.990
333.75	20.971
334.11	20.770
334.48	21.850
334.84	21.154
335.20	21.958
335.57	21.578
335.93	22.042
336.29	22.468
336.66	21.980
337.02	22.026
337.38	21.481
337.75	22.455
338.11	22.182
338.47	23.084
338.84	23.475
339.20	22.578
339.56	22.569
339.93	22.381
340.29	22.294
340.65	24.283
341.02	23.138
341.38	22.832
341.74	22.703
342.11	22.964
342.47	24.110
342.83	23.356
343.20	22.474
343.56	24.348
343.92	22.675
344.28	24.509
344.65	23.402
345.01	22.213
345.37	23.633
345.73	24.686
346.10	23.986
346.46	23.633
346.82	22.831
347.19	21.862
347.55	23.893
347.91	25.081
348.27	23.767
348.63	24.191
349.00	23.052
349.36	24.356
349.72	24.793
350.08	23.934
350.45	24.501
350.81	23.837
351.17	23.534
351.53	24.408
351.89	22.461
352.26	23.280
352.62	24.274
352.98	23.775
353.34	23.269
353.70	24.191
354.07	23.790
354.43	23.539
354.79	23.865
355.15	23.889
355.51	24.130
355.87	23.382
356.24	23.817
356.60	24.171
356.96	24.286
357.32	24.042
357.68	24.472
358.04	23.910
358.40	23.392
358.77	24.721
359.13	24.660
359.49	22.881
359.85	22.855
360.21	24.163
360.57	23.183
360.93	24.130
361.29	22.659
361.66	24.373
362.02	23.939
362.38	24.067
362.74	23.921
363.10	24.680
363.46	24.463
363.82	24.793
364.18	22.509
364.54	22.721
364.90	24.014
365.26	24.163
365.62	26.204
365.98	23.460
366.35	24.690
366.71	24.982
367.07	24.311
367.43	22.789
367.79	24.170
368.15	23.187
368.51	23.015
368.87	23.905
369.23	23.177
369.59	23.834
369.95	23.607
370.31	24.711
370.67	23.955
371.03	23.077
371.39	23.122
371.75	23.150
372.11	23.181
372.47	23.521
372.83	23.350
373.19	24.465
373.55	22.671
373.91	24.118
374.27	24.451
374.63	24.192
374.99	23.475
375.35	23.329
375.71	23.986
376.07	23.876
376.42	23.401
376.78	24.497
377.14	23.629
377.50	23.705
377.86	23.427
378.22	22.974
378.58	22.949
378.94	22.810
379.30	23.893
379.66	23.824
380.02	23.789
380.38	23.433
380.74	22.561
381.09	22.761
381.45	22.569
381.81	23.381
382.17	23.858
382.53	23.798
382.89	23.603
383.25	23.833
383.61	25.000
383.97	23.175
384.32	23.077
384.68	24.087
385.04	22.549
385.40	22.589
385.76	23.711
386.12	23.739
386.48	24.010
386.83	22.828
387.19	24.176
387.55	23.400
387.91	23.655
388.27	22.833
388.62	22.341
388.98	23.389
389.34	22.861
389.70	23.058
390.06	21.271
390.42	22.085
390.77	22.564
391.13	22.383
391.49	22.962
391.85	22.612
392.20	22.348
392.56	21.869
392.92	21.844
393.28	22.170
393.64	21.682
393.99	23.009
394.35	21.758
394.71	22.414
395.07	21.999
395.42	21.676
395.78	22.215
396.14	22.257
396.50	22.575
396.85	20.798
397.21	21.805
397.57	21.567
397.92	22.289
398.28	21.092
398.64	20.783
399.00	20.767
399.35	20.993
399.71	22.171
400.07	21.342
400.42	22.215
400.78	22.045
401.14	21.597
401.49	21.739
401.85	20.475
402.21	20.542
402.57	21.312
402.92	21.079
403.28	21.805
403.63	21.248
403.99	20.281
404.35	21.174
404.70	20.179
405.06	20.799
405.42	19.950
405.77	20.221
406.13	19.849
406.49	19.775
406.84	19.315
407.20	20.590
407.55	20.283
407.91	20.388
408.27	19.630
408.62	20.123
408.98	19.470
409.34	19.765
409.69	19.832
410.05	19.273
410.40	19.506
410.76	19.723
411.11	19.688
411.47	20.579
411.83	19.397
412.18	19.498
412.54	18.290
412.89	17.980
413.25	19.615
413.60	18.944
413.96	18.957
414.31	19.207
414.67	19.885
415.03	18.908
415.38	18.016
415.74	19.479
416.09	19.007
416.45	19.311
416.80	18.440
417.16	18.577
417.51	18.254
417.87	18.449
418.22	18.459
418.58	17.793
418.93	19.310
419.29	17.734
419.64	17.369
420.00	19.395
420.35	17.910
420.71	18.469
421.06	17.618
421.42	17.668
421.77	17.919
422.12	17.877
422.48	18.029
422.83	18.387
423.19	18.567
423.54	17.637
423.90	17.727
424.25	18.140
424.61	18.605
424.96	18.409
425.31	19.064
425.67	18.369
426.02	18.728
426.38	17.095
426.73	18.402
427.09	18.734
427.44	17.647
427.79	18.798
428.15	18.629
428.50	18.050
428.85	17.015
429.21	17.883
429.56	18.544
429.92	18.285
430.27	17.093
430.62	16.884
430.98	17.516
431.33	18.665
431.68	17.216
432.04	17.999
432.39	16.543
432.74	16.536
433.10	18.046
433.45	16.965
433.80	17.528
434.16	16.842
434.51	17.742
434.86	17.305
435.22	16.938
435.57	16.781
435.92	17.066
436.28	17.174
436.63	17.570
436.98	16.280
437.34	16.757
437.69	17.174
438.04	16.980
438.39	16.982
438.75	17.001
439.10	17.204
439.45	17.894
439.81	16.820
440.16	16.568
440.51	17.433
440.86	17.825
441.22	18.100
441.57	16.391
441.92	17.629
442.27	17.295
442.63	17.880
442.98	17.519
443.33	16.639
443.68	16.658
444.03	16.890
444.39	17.216
444.74	17.559
445.09	17.205
445.44	16.752
445.79	16.813
446.15	16.850
446.50	16.473
446.85	17.163
447.20	17.101
447.55	17.634
447.91	16.526
448.26	16.904
448.61	16.465
448.96	17.785
449.31	16.647
449.66	17.422
450.02	16.885
450.37	16.538
450.72	16.896
451.07	16.709
451.42	16.854
451.77	16.757
452.12	15.909
452.47	16.484
452.83	16.313
453.18	16.572
453.53	17.067
453.88	17.001
454.23	16.165
454.58	16.751
454.93	17.397
455.28	15.746
455.63	16.119
455.98	16.717
456.34	16.475
456.69	16.582
457.04	15.879
457.39	15.796
457.74	16.566
458.09	16.421
458.44	15.565
458.79	15.686
459.14	16.648
459.49	15.881
459.84	16.469
460.19	15.716
460.54	15.954
460.89	16.193
461.24	16.149
461.59	16.865
461.94	14.906
462.29	16.828
462.64	16.412
462.99	15.843
463.34	15.994
463.69	15.766
464.04	17.010
464.39	15.646
464.74	15.890
465.09	16.157
465.44	15.349
465.79	14.853
466.14	15.450
466.49	14.779
466.84	16.062
467.19	15.207
467.54	15.262
467.89	15.919
468.24	15.389
468.59	14.794
468.94	15.238
469.29	15.410
469.64	15.448
469.99	15.907
470.34	14.334
470.68	15.287
471.03	16.136
471.38	14.551
471.73	15.056
472.08	15.672
472.43	13.758
472.78	14.599
473.13	15.238
473.48	15.049
473.83	14.570
474.17	15.220
474.52	15.252
474.87	15.455
475.22	15.009
475.57	14.737
475.92	14.975
476.27	15.250
476.61	15.683
476.96	14.724
477.31	15.143
477.66	14.551
478.01	14.486
478.36	14.325
478.70	15.334
479.05	15.110
479.40	15.262
479.75	14.077
480.10	15.310
480.45	14.500
480.79	14.904
481.14	14.857
481.49	13.941
481.84	14.865
482.19	14.312
482.53	14.484
482.88	14.320
483.23	14.012
483.58	14.575
483.92	14.763
484.27	13.810
484.62	14.657
484.97	14.055
485.31	13.548
485.66	13.675
486.01	13.475
486.36	13.237
486.70	13.766
487.05	13.916
487.40	14.012
487.75	14.169
488.09	14.091
488.44	13.755
488.79	14.083
489.13	14.423
489.48	14.322
489.83	14.350
490.17	13.843
490.52	13.995
490.87	13.697
491.22	13.658
491.56	13.567
491.91	13.862
492.26	13.952
492.60	14.155
492.95	13.970
493.30	13.337
493.64	13.261
493.99	13.816
494.34	13.835
494.68	13.857
495.03	13.041
495.37	13.150
495.72	13.428
496.07	13.317
496.41	12.736
496.76	13.174
497.11	13.600
497.45	14.033
497.80	13.673
498.14	13.562
498.49	13.763
498.84	12.924
499.18	13.253
499.53	13.046
499.87	12.840
500.22	12.710
500.56	13.868
500.91	13.755
501.26	12.803
501.60	13.281
501.95	13.246
502.29	13.608
502.64	13.562
502.98	13.271
503.33	12.632
503.67	13.205
504.02	13.099
504.36	13.459
504.71	12.576
505.06	13.689
505.40	13.147
505.75	13.093
506.09	12.874
506.44	13.963
506.78	12.806
507.13	13.547
507.47	12.898
507.82	12.286
508.16	13.207
508.51	13.326
508.85	13.082
509.19	12.347
509.54	12.922
509.88	12.729
510.23	13.179
510.57	13.843
510.92	12.260
511.26	12.711
511.61	12.871
511.95	13.151
512.30	12.417
512.64	12.966
512.98	12.016
513.33	12.983
513.67	11.882
514.02	13.444
514.36	13.371
514.70	13.753
515.05	12.985
515.39	12.810
515.74	13.593
516.08	12.672
516.42	13.251
516.77	13.692
517.11	13.294
517.46	12.926
517.80	12.336
518.14	12.737
518.49	13.522
518.83	13.183
519.17	12.068
519.52	12.966
519.86	12.125
520.20	12.211
520.55	12.258
520.89	13.551
521.23	12.350
521.58	13.628
521.92	12.500
522.26	12.687
522.61	11.429
522.95	12.715
523.29	13.278
523.64	12.706
523.98	12.573
524.32	11.082
524.66	12.804
525.01	12.792
525.35	12.962
525.69	11.987
526.04	11.971
526.38	13.878
526.72	11.315
527.06	12.646
527.41	12.401
527.75	11.461
528.09	12.625
528.43	13.032
528.78	12.013
529.12	12.839
529.46	12.801
529.80	12.856
530.15	12.805
530.49	11.987
530.83	12.175
531.17	11.619
531.51	12.654
531.86	11.897
532.20	11.413
532.54	11.981
532.88	13.415
533.22	11.694
533.57	11.533
533.91	11.945
534.25	12.891
534.59	11.867
534.93	11.580
535.27	11.231
535.62	10.758
535.96	12.655
536.30	12.071
536.64	12.267
536.98	10.523
537.32	12.376
537.66	12.623
538.01	12.098
538.35	11.997
538.69	11.252
539.03	10.800
539.37	12.180
539.71	11.725
540.05	12.152
540.39	12.188
540.73	11.576
541.07	12.017
541.42	12.567
541.76	12.044
542.10	12.801
542.44	11.188
542.78	10.392
543.12	12.294
543.46	11.335
543.80	11.103
544.14	11.348
544.48	11.925
544.82	11.073
545.16	12.637
545.50	12.483
545.84	12.252
546.18	11.773
546.52	12.401
546.86	11.718
547.20	11.087
547.54	10.883
547.88	12.024
548.22	10.454
548.56	11.214
548.90	11.995
549.24	11.570
549.58	11.283
549.92	11.008
550.26	10.989
550.60	11.970
550.94	10.904
551.28	11.360
551.62	12.154
551.96	10.526
552.30	10.234
552.64	11.001
552.98	10.830
553.32	10.628
553.66	10.450
554.00	10.438
554.34	11.521
554.68	10.472
555.02	11.682
555.36	10.396
555.69	10.842
556.03	11.278
556.37	10.534
556.71	11.047
557.05	10.291
557.39	10.335
557.73	10.720
558.07	10.784
558.41	10.873
558.75	10.522
559.08	10.402
559.42	11.746
559.76	10.568
560.10	10.321
560.44	10.648
560.78	11.538
561.12	10.508
561.45	11.174
561.79	10.154
562.13	10.930
562.47	10.288
562.81	10.807
563.15	10.437
563.48	10.679
563.82	11.325
564.16	10.655
564.50	10.743
564.84	10.241
565.17	10.664
565.51	10.861
565.85	10.014
566.19	10.676
566.52	10.925
566.86	11.054
567.20	10.461
567.54	10.036
567.88	10.193
568.21	10.407
568.55	9.565
568.89	10.216
569.23	9.918
569.56	10.070
569.90	10.394
570.24	9.974
570.57	9.891
570.91	9.934
571.25	9.503
571.59	9.841
571.92	9.570
572.26	9.209
572.60	9.736
572.93	9.664
573.27	9.937
573.61	9.666
573.95	9.694
574.28	9.349
574.62	9.128
574.96	9.499
575.29	9.667
575.63	8.836
575.97	9.162
576.30	9.390
576.64	9.351
576.98	9.730
577.31	9.388
577.65	9.312
577.98	9.658
578.32	9.135
578.66	9.048
578.99	9.382
579.33	9.093
579.67	9.336
580.00	9.544
580.34	9.254
580.67	9.174
581.01	9.246
581.35	9.324
581.68	9.250
582.02	9.121
582.35	9.062
582.69	9.272
583.02	8.866
583.36	9.274
583.70	9.605
584.03	9.286
584.37	9.768
584.70	9.231
585.04	9.275
585.37	9.165
585.71	9.059
586.04	9.304
586.38	9.256
586.72	9.383
587.05	9.705
587.39	9.477
587.72	9.404
588.06	9.244
588.39	9.228
588.73	9.127
589.06	9.980
589.40	9.506
589.73	9.748
590.07	9.479
590.40	9.598
590.73	9.185
591.07	9.288
591.40	9.795
591.74	9.864
592.07	9.833
592.41	9.231
592.74	9.518
593.08	8.942
593.41	9.160
593.75	8.734
594.08	8.926
594.41	8.843
594.75	9.733
595.08	9.535
595.42	9.275
595.75	9.613
596.09	8.522
596.42	9.219
596.75	9.236
597.09	9.203
597.42	9.666
597.75	9.253
598.09	9.733
598.42	8.935
598.76	8.923
599.09	9.455
599.42	8.678
599.76	8.804
600.09	8.899
600.42	9.249
600.76	9.287
601.09	8.588
601.42	8.852
601.76	8.773
602.09	8.457
602.42	9.646
602.76	8.829
603.09	9.385
603.42	9.490
603.76	8.790
604.09	8.870
604.42	9.264
604.76	9.257
605.09	9.735
605.42	9.752
605.75	8.888
606.09	8.790
606.42	9.133
606.75	9.177
607.09	9.275
607.42	9.083
607.75	8.703
608.08	8.715
608.42	8.862
608.75	9.398
609.08	9.367
609.41	9.340
609.75	9.476
610.08	8.887
610.41	8.309
610.74	9.118
611.07	8.837
611.41	8.459
611.74	9.435
612.07	8.994
612.40	9.245
612.73	9.435
613.07	8.661
613.40	9.081
613.73	8.842
614.06	9.683
614.39	8.686
614.72	9.076
615.06	8.547
615.39	9.007
615.72	9.042
616.05	9.162
616.38	8.376
616.71	8.685
617.05	8.709
617.38	9.491
617.71	9.308
618.04	9.270
618.37	9.773
618.70	8.977
619.03	9.653
619.36	8.611
619.69	9.629
620.03	9.788
620.36	9.800
620.69	8.994
621.02	9.251
621.35	9.544
621.68	8.929
622.01	9.167
622.34	9.258
622.67	9.937
623.00	9.954
623.33	9.223
623.66	8.901
623.99	9.455
624.32	10.418
624.65	8.271
624.99	9.105
625.32	8.946
625.65	10.448
625.98	9.992
626.31	8.229
626.64	9.272
626.97	9.686
627.30	9.632
627.63	10.399
627.96	8.625
628.29	9.158
628.62	8.653
628.95	9.719
629.28	9.173
629.61	8.674
629.94	9.775
630.26	9.289
630.59	9.157
630.92	8.923
631.25	9.744
631.58	8.811
631.91	8.772
632.24	9.289
632.57	10.341
632.90	8.304
633.23	9.882
633.56	9.950
633.89	10.111
634.22	9.506
634.55	8.132
634.88	9.834
635.20	8.205
635.53	9.467
635.86	8.713
636.19	11.772
636.52	8.801
636.85	7.072
637.18	8.679
637.51	9.434
637.83	9.724
638.16	10.778
638.49	8.311
638.82	10.263
639.15	9.634
639.48	8.803
639.81	8.787
640.13	9.957
640.46	10.496
640.79	9.131
641.12	9.749
641.45	8.859
641.77	9.778
642.10	9.479
642.43	9.486
642.76	10.726
643.09	11.309
643.41	9.385
643.74	9.390
644.07	8.374
644.40	11.318
644.73	10.333
645.05	11.242
645.38	9.877
645.71	7.801
646.04	10.952
646.36	8.688
646.69	11.691
647.02	9.263
647.35	9.328
647.67	10.420
648.00	10.261
648.33	10.068
648.66	7.797
648.98	7.705
649.31	7.769
649.64	8.006
649.96	7.455
650.29	11.244
650.62	9.231
650.94	7.593
651.27	10.801
651.60	8.649
651.92	10.490
652.25	8.881
652.58	9.833
652.90	10.635
653.23	9.076
653.56	7.953
653.88	9.966
654.21	7.180
654.54	8.489
654.86	7.980
655.19	9.211
655.52	9.985
655.84	7.945
656.17	8.465
656.49	11.349
656.82	11.874
657.15	9.065
657.47	6.924
657.80	5.164
658.13	5.070
658.45	7.977
658.78	8.105
659.10	8.165
659.43	8.463
659.75	8.387
660.08	7.517
660.41	9.397
660.73	9.254
661.06	7.972
661.38	8.806
661.71	6.366
662.03	10.944
662.36	8.791
662.68	10.841
663.01	7.424
663.33	6.265
663.66	8.837
663.98	8.140
664.31	10.448
664.63	8.525
664.96	5.870
665.28	10.155
665.61	10.173
665.93	11.522
666.26	9.978
666.58	8.054
666.91	8.235
667.23	9.198
667.56	9.005
667.88	10.072
668.21	11.456
668.53	11.584
668.86	9.434
669.18	6.132
669.50	7.506
669.83	7.907
670.15	10.956
670.48	9.091
670.80	8.525
671.13	8.725
671.45	7.763
671.77	9.657
672.10	8.713
672.42	11.236
672.75	10.302
673.07	10.197
673.39	9.541
673.72	4.536
674.04	7.917
674.37	8.263
674.69	7.066
675.01	12.000
675.34	9.009
675.66	12.500
675.98	8.647
676.31	9.404
676.63	4.038
676.95	8.409
677.28	11.059
677.60	9.639
677.92	9.174
678.25	9.190
678.57	8.874
678.89	6.933
679.22	5.369
679.54	9.237
679.86	5.765
680.18	7.961
680.51	7.008
680.83	7.157
681.15	8.000
681.48	10.451
681.80	9.091
682.12	8.669
682.44	7.531
682.77	7.947
683.09	8.696
683.41	5.455
683.73	6.912
684.06	11.062
684.38	5.806
684.70	8.932
685.02	6.224
685.34	7.312
685.67	5.816
685.99	8.318
686.31	8.673
686.63	6.122
686.96	8.365
687.28	4.242
687.60	9.125
687.92	8.687
688.24	8.065
688.56	8.079
688.89	7.812
689.21	9.778
689.53	7.889
689.85	6.279
690.17	6.920
690.49	9.456
690.82	9.466
691.14	5.714
691.46	6.542
691.78	9.459
692.10	8.817
692.42	7.576
692.74	9.829
693.06	8.559
693.39	5.656
693.71	6.787
694.03	5.081
694.35	6.776
694.67	9.848
694.99	6.266
695.31	8.877
695.63	8.750
695.95	6.818
696.27	7.254
696.59	9.444
696.91	7.843
697.23	7.969
697.56	7.921
697.88	8.387
698.20	7.517
698.52	6.824
698.84	4.545
699.16	7.750
699.48	9.273
699.80	7.940
700.12	4.582
700.44	8.123
700.76	4.651
701.08	2.424
701.40	5.120
701.72	8.333
702.04	9.241
702.36	6.020
702.68	9.009
703.00	7.879
703.32	9.384
703.64	3.955
703.96	7.536
704.28	6.135
704.60	7.937
704.91	2.839
705.23	5.980
705.55	7.067
705.87	5.054
706.19	3.704
706.51	5.842
706.83	9.968
707.15	5.296
707.47	2.801
707.79	3.385
708.11	9.000
708.43	9.250
708.74	10.594
709.06	6.761
709.38	8.869
709.70	7.396
710.02	8.599
710.34	10.217
710.66	4.167
710.98	3.311
711.29	8.197
711.61	5.085
711.93	6.515
712.25	12.715
712.57	9.158
712.89	4.478
713.20	8.651
713.52	8.362
713.84	6.826
714.16	8.935
714.48	2.581
714.80	8.013
715.11	8.815
715.43	5.956
715.75	2.000
716.07	3.987
716.39	7.718
716.70	4.797
717.02	3.053
717.34	6.478
717.66	4.867
717.97	6.522
718.29	2.510
718.61	9.843
718.93	7.364
719.24	5.703
719.56	12.450
719.88	5.155
720.20	6.061
720.51	3.448
720.83	6.950
721.15	7.143
721.46	2.823
721.78	2.372
722.10	8.550
722.42	4.564
722.73	5.714
723.05	9.388
723.37	7.203
723.68	9.009
724.00	7.692
724.32	2.667
724.63	1.364
724.95	9.607
725.27	8.295
725.58	5.932
725.90	3.175
726.22	5.792
726.53	8.136
726.85	6.742
727.16	10.566
727.48	0.405
727.80	6.073
728.11	0.847
728.43	7.059
728.74	0.806
729.06	7.600
729.38	13.534
729.69	7.171
730.01	1.923
730.32	8.582
730.64	8.127
730.96	7.925
731.27	5.667
731.59	5.424
731.90	7.325
732.22	9.148
732.53	6.645
732.85	5.674
733.16	13.805
733.48	2.158
733.80	2.536
734.11	4.068
734.43	7.560
734.74	5.758
735.06	3.909
735.37	8.459
735.69	7.071
736.00	2.439
736.32	6.376
736.63	4.225
736.95	5.119
737.26	4.270
737.58	5.705
737.89	2.930
738.21	8.271
738.52	4.115
738.83	4.367
739.15	3.057
739.46	6.299
739.78	4.396
740.09	8.170
740.41	6.884
740.72	2.362
741.04	4.858
741.35	3.830
741.66	3.791
741.98	5.102
742.29	5.446
742.61	1.047
742.92	3.318
743.23	-0.926
743.55	4.072
743.86	1.435
744.18	8.134
744.49	5.851
744.80	6.522
745.12	8.556
745.43	-0.488
745.74	4.167
746.06	1.463
746.37	2.094
746.68	4.739
747.00	3.723
747.31	10.448
747.62	4.369
747.94	4.785
748.25	4.950
748.56	2.732
748.88	7.330
749.19	9.043
749.50	5.419
749.82	0.943
750.13	1.835
750.44	9.023
750.75	7.836
751.07	8.029
751.38	3.831
751.69	1.961
752.01	9.302
752.32	3.586
752.63	2.767
752.94	9.052
753.26	11.297
753.57	5.882
753.88	-1.327
754.19	0.417
754.51	1.653
754.82	-3.644
755.13	9.167
755.44	5.645
755.75	7.031
756.07	0.000
756.38	3.774
756.69	0.000
757.00	4.333
757.31	5.882
757.63	6.402
757.94	6.389
758.25	3.562
758.56	6.649
758.87	5.382
759.18	6.854
759.50	5.455
759.81	10.368
760.12	5.161
760.43	5.152
760.74	8.025
761.05	5.846
761.36	6.250
761.67	5.152
761.99	9.184
762.30	3.636
762.61	4.348
762.92	6.335
763.23	5.405
763.54	-1.402
763.85	5.085
764.16	4.149
764.47	4.032
764.78	5.128
765.10	9.428
765.41	4.101
765.72	5.079
766.03	1.128
766.34	6.934
766.65	13.147
766.96	4.545
767.27	3.723
767.58	7.471
767.89	-5.674
768.20	-0.568
768.51	1.099
768.82	5.419
769.13	0.922
769.44	4.721
769.75	-2.740
770.06	6.034
770.37	4.327
770.68	-1.015
770.99	6.787
771.30	8.333
771.61	2.715
771.92	9.052
772.23	11.330
772.54	4.301
772.85	3.704
773.16	2.809
773.47	9.804
773.78	1.961
774.09	-1.198
774.39	-2.667
774.70	8.280
775.01	8.276
775.32	8.571
775.63	3.306
775.94	3.817
776.25	-1.575
776.56	5.833
776.87	-0.962
777.18	1.709
777.48	-2.586
777.79	-8.696
778.10	-10.476
778.41	-4.505
778.72	3.968
779.03	6.015
779.34	3.546
779.65	6.164
779.95	2.740
780.26	2.759
780.57	-11.382
780.88	-0.787
781.19	2.586
781.50	-0.775
781.80	1.775
782.11	-3.145
782.42	4.615
782.73	-0.719
783.04	6.667
783.34	-0.694
783.65	-19.658
783.96	-0.820
784.27	7.586
784.57	-7.317
784.88	3.906
785.19	1.000
785.50	18.000
785.81	8.621
786.11	5.172
786.42	4.854
786.73	10.000
787.04	-10.204
787.34	0.893
787.65	-0.952
787.96	0.885
788.26	9.091
788.57	-6.838
788.88	5.469
789.19	-3.968
789.49	-5.217
789.80	-10.204
790.11	-8.081
790.41	2.727
790.72	11.957
791.03	1.136
791.33	5.000
791.64	-7.500
791.95	-10.465
792.25	-2.128
792.56	2.247
792.87	10.959
793.17	-7.246
793.48	-4.000
793.79	-3.750
794.09	12.500
794.40	7.547
794.70	-0.971
795.01	-4.878
795.32	-5.128
795.62	-3.810
795.93	-4.902
796.23	8.491
796.54	7.292
796.85	5.882
797.15	0.000
797.46	-4.167
797.76	0.000
798.07	1.163
798.37	1.316
798.68	-9.091
798.99	4.938
799.29	7.143
799.60	0.000
799.90	6.667
800.21	6.557
800.51	-7.692
800.82	-1.695
801.12	-10.145
801.43	9.836
801.73	7.937
802.04	0.000
802.34	-7.463
802.65	-3.846
802.95	-32.143
803.26	-1.923
803.56	5.882
803.87	-26.087
804.17	6.667
804.48	6.349
804.78	-3.704
805.09	-8.696
805.39	-17.778
805.70	3.704
806.00	-17.544
806.30	2.817
806.61	-1.429
806.91	-4.167
807.22	7.895
807.52	12.000
807.83	-9.091
808.13	6.944
808.43	10.294
808.74	-2.985
809.04	0.000
809.35	-15.385
809.65	-7.812
809.95	-29.730
810.26	-18.182
810.56	1.370
810.86	-2.381
811.17	6.000
811.47	12.245
811.77	-23.684
812.08	2.273
812.38	-11.321
812.69	-5.000
812.99	-24.242
813.29	-23.684
813.59	-51.429
813.90	0.000
814.20	-35.897
814.50	-11.538
814.81	-7.547
815.11	-36.170
815.41	28.814
815.72	-11.905
816.02	7.843
816.32	-10.417
816.62	0.000
816.93	-21.622
817.23	-20.000
817.53	6.250
817.84	-36.957
818.14	-3.846
818.44	-34.211
818.74	-4.348
819.04	-35.000
819.35	-2.703
819.65	-26.471
819.95	0.000
820.25	-11.905
820.56	12.500
820.86	-41.379
821.16	20.000
821.46	-17.021
821.76	-17.500
822.07	4.651
822.37	-43.243
822.67	6.250
822.97	-7.143
823.27	-42.857
823.57	-40.000
823.88	-33.333
824.18	3.571
824.48	0.000
824.78	-19.355
825.08	-30.435
825.38	-30.303
825.69	-54.167
825.99	-18.421
826.29	-25.000
826.59	-26.667
826.89	-66.667
827.19	4.348
827.49	0.000
827.79	14.286
828.09	-21.429
828.39	-30.303
828.70	2.703
829.00	-53.571
829.30	-47.619
829.60	-10.000
829.90	-15.625
830.20	-28.947
830.50	-7.407
830.80	-8.696
831.10	-81.818
831.40	24.242
831.70	3.226
832.00	-85.714
832.30	-28.571
832.60	-116.667
832.90	-24.138
833.20	-60.000
833.50	-21.212
833.80	-29.630
834.10	-7.692
834.40	-6.250
834.70	-44.444
835.00	-52.632
835.30	-7.692
835.60	-26.667
835.90	0.000
836.20	-40.909
836.50	0.000
836.80	-69.231
837.10	-10.714
837.40	-433.333
837.70	9.091
838.00	-190.909
838.30	-4.348
838.60	-46.154
838.90	-4.545
839.19	-14.286
839.49	6.667
839.79	-38.462
840.09	-133.333
840.39	35.714
840.69	-3.571
840.99	-42.308
841.29	-94.737
841.59	-160.000
841.88	-63.636
842.18	-90.000
842.48	-12.500
842.78	-20.000
843.08	-11.111
843.38	-220.000
843.68	-47.826
843.97	-20.000
844.27	-106.667
844.57	-25.000
844.87	-5.556
845.17	-61.905
845.47	-60.000
845.76	-33.333
846.06	-11.765
846.36	-100.000
846.66	-42.857
846.96	-73.333
847.25	-225.000
847.55	-7.143
847.85	-12.500
848.15	-72.727
848.44	-566.667
848.74	-30.000
849.04	3.704
849.34	-36.364
849.63	-150.000
849.93	-280.000
850.23	-44.444
850.53	-20.000
850.82	-69.231
851.12	-66.667
851.42	-66.667
851.71	-30.769
852.01	-21.429
852.31	-500.000
852.61	-45.455
852.90	-30.000
853.20	36.842
853.50	-75.000
853.79	-8.696
854.09	16.667
854.39	10.526
854.68	-20.833
854.98	-6.452
855.28	-19.231
855.57	-25.000
855.87	-11.111
856.17	3.704
856.46	-57.143
856.76	-86.667
857.05	22.222
857.35	-8.000
857.65	-22.222
857.94	-23.077
858.24	6.897
858.53	5.556
858.83	7.407
859.13	-27.273
859.42	-8.696
859.72	-325.000
860.01	-800.000
860.31	4.000
860.60	-38.095
860.90	-433.333
861.20	-100.000
861.49	-450.000
861.79	-46.667
862.08	-5.000
862.38	13.333
862.67	-380.000
862.97	-83.333
863.26	-50.000
863.56	-5.556
863.85	-600.000
864.15	16.667
864.44	-110.000
864.74	21.429
865.03	500.000
865.33	-220.000
865.62	-83.333
865.92	-33.333
866.21	-233.333
866.51	-6.250
866.80	-145.455
867.10	-700.000
867.39	-50.000
867.69	0.000
867.98	-53.846
868.27	-400.000
868.57	-33.333
868.86	-11.111
869.16	-76.923
869.45	13.333
869.75	-2500.000
870.04	0.000
870.33	-128.571
870.63	-9.524
870.92	266.667
871.22	-200.000
871.51	-800.000
871.80	-11.111
872.10	433.333
>>>>>End Processed Spectral Data<<<<<
