SpectraSuite Data File
++++++++++++++++++++++++++++++++++++
Date: Fri May 15 20:39:14 PDT 2015
User: schluterlab
Dark Spectrum Present: Yes
Reference Spectrum Present: Yes
Number of Sampled Component Spectra: 1
Spectrometers: USB2E3373
Integration Time (usec): 3000 (USB2E3373)
Spectra Averaged: 3 (USB2E3373)
Boxcar Smoothing: 0 (USB2E3373)
Correct for Electrical Dark: No (USB2E3373)
Strobe/Lamp Enabled: No (USB2E3373)
Correct for Detector Non-linearity: No (USB2E3373)
Correct for Stray Light: No (USB2E3373)
Number of Pixels in Processed Spectrum: 2048
>>>>>Begin Processed Spectral Data<<<<<
178.53	0.000
178.91	0.000
179.29	-12.500
179.67	-400.000
180.04	85.714
180.42	-75.000
180.80	-500.000
181.18	-133.333
181.56	250.000
181.94	300.000
182.31	300.000
182.69	-20.000
183.07	-166.667
183.45	-120.000
183.83	100.000
184.20	9.091
184.58	44.444
184.96	-175.000
185.34	66.667
185.72	-100.000
186.09	46.154
186.47	-900.000
186.85	200.000
187.23	111.111
187.61	-0.000
187.98	-233.333
188.36	133.333
188.74	-433.333
189.12	58.824
189.49	44.444
189.87	0.000
190.25	107.143
190.63	-50.000
191.00	-166.667
191.38	52.632
191.76	550.000
192.14	-50.000
192.51	300.000
192.89	55.556
193.27	-42.857
193.65	150.000
194.02	145.455
194.40	-30.000
194.78	-12.500
195.15	-33.333
195.53	-75.000
195.91	275.000
196.29	-125.000
196.66	46.154
197.04	100.000
197.42	100.000
197.79	-500.000
198.17	-84.615
198.55	1700.000
198.92	-333.333
199.30	-100.000
199.68	-40.000
200.05	133.333
200.43	0.000
200.81	-233.333
201.18	-33.333
201.56	300.000
201.94	-350.000
202.31	-66.667
202.69	-200.000
203.07	25.000
203.44	-100.000
203.82	0.000
204.19	21.429
204.57	-400.000
204.95	187.500
205.32	50.000
205.70	0.000
206.08	-25.000
206.45	55.556
206.83	14.286
207.20	-14.286
207.58	-100.000
207.96	200.000
208.33	-60.000
208.71	-100.000
209.08	-83.333
209.46	-700.000
209.84	-260.000
210.21	-800.000
210.59	114.286
210.96	33.333
211.34	25.000
211.71	0.000
212.09	-42.857
212.46	-1700.000
212.84	0.000
213.22	70.000
213.59	400.000
213.97	115.385
214.34	100.000
214.72	-100.000
215.09	275.000
215.47	-7.692
215.84	63.636
216.22	-233.333
216.59	-112.500
216.97	150.000
217.34	-25.000
217.72	-280.000
218.09	75.000
218.47	137.500
218.84	-400.000
219.22	-55.556
219.59	-40.000
219.97	-33.333
220.34	450.000
220.72	85.714
221.09	-25.000
221.47	-200.000
221.84	-300.000
222.22	-600.000
222.59	18.182
222.97	25.000
223.34	66.667
223.72	-57.143
224.09	19.048
224.46	7.143
224.84	333.333
225.21	-60.000
225.59	-6.667
225.96	-50.000
226.34	250.000
226.71	14.286
227.08	0.000
227.46	37.500
227.83	-150.000
228.21	44.444
228.58	45.455
228.95	-62.500
229.33	30.000
229.70	-12.500
230.08	-62.500
230.45	28.571
230.82	57.143
231.20	66.667
231.57	85.714
231.95	0.000
232.32	-50.000
232.69	64.286
233.07	166.667
233.44	-100.000
233.81	0.000
234.19	33.333
234.56	11.765
234.93	450.000
235.31	125.000
235.68	-160.000
236.05	-38.462
236.43	10.000
236.80	100.000
237.17	46.875
237.55	35.000
237.92	18.519
238.29	55.556
238.67	46.667
239.04	41.176
239.41	29.268
239.79	60.000
240.16	60.976
240.53	18.421
240.91	30.435
241.28	44.444
241.65	39.286
242.02	52.055
242.40	55.000
242.77	55.932
243.14	34.848
243.51	55.000
243.89	60.920
244.26	47.126
244.63	55.952
245.00	52.577
245.38	49.485
245.75	44.944
246.12	33.621
246.49	46.281
246.87	50.962
247.24	51.261
247.61	44.737
247.98	53.659
248.36	44.375
248.73	43.421
249.10	40.260
249.47	49.367
249.84	49.020
250.22	53.529
250.59	53.595
250.96	50.704
251.33	52.907
251.70	55.294
252.08	53.807
252.45	51.485
252.82	48.241
253.19	53.917
253.56	46.262
253.94	51.351
254.31	53.043
254.68	54.825
255.05	48.819
255.42	54.585
255.79	50.193
256.16	50.584
256.54	52.612
256.91	49.049
257.28	48.699
257.65	48.689
258.02	51.418
258.39	48.822
258.76	47.985
259.14	51.163
259.51	50.809
259.88	49.828
260.25	52.614
260.62	54.167
260.99	50.508
261.36	49.658
261.73	50.633
262.10	50.456
262.47	54.908
262.85	50.470
263.22	53.846
263.59	50.779
263.96	49.689
264.33	50.000
264.70	50.000
265.07	51.488
265.44	57.224
265.81	53.390
266.18	55.191
266.55	52.442
266.92	54.404
267.29	54.047
267.66	51.407
268.03	53.927
268.40	51.697
268.77	55.882
269.14	49.161
269.51	54.499
269.88	50.374
270.25	50.510
270.62	48.780
270.99	48.593
271.36	51.345
271.73	51.408
272.10	51.825
272.47	49.645
272.84	51.238
273.21	46.172
273.58	52.771
273.95	49.657
274.32	49.423
274.69	47.964
275.06	51.786
275.43	50.567
275.80	50.552
276.17	51.034
276.54	49.036
276.91	50.000
277.28	48.908
277.65	48.760
278.02	49.149
278.39	48.796
278.76	50.943
279.13	44.191
279.50	50.630
279.87	48.380
280.23	50.323
280.60	47.368
280.97	52.525
281.34	48.269
281.71	50.719
282.08	50.102
282.45	44.423
282.82	45.753
283.19	47.002
283.56	46.821
283.92	49.526
284.29	47.692
284.66	45.736
285.03	47.151
285.40	46.503
285.77	45.870
286.14	47.292
286.51	49.077
286.87	47.715
287.24	46.593
287.61	44.092
287.98	47.544
288.35	46.794
288.72	48.511
289.08	43.924
289.45	45.870
289.82	46.154
290.19	45.563
290.56	44.597
290.93	42.761
291.29	41.140
291.66	41.102
292.03	40.829
292.40	42.419
292.77	40.191
293.13	37.175
293.50	38.543
293.87	38.779
294.24	38.485
294.60	40.686
294.97	39.881
295.34	39.110
295.71	37.556
296.08	38.864
296.44	35.562
296.81	38.056
297.18	37.101
297.55	38.753
297.91	36.986
298.28	36.807
298.65	35.550
299.02	36.658
299.38	33.105
299.75	35.448
300.12	36.780
300.48	35.968
300.85	35.108
301.22	34.935
301.59	34.211
301.95	35.190
302.32	34.630
302.69	36.692
303.05	34.530
303.42	33.624
303.79	35.047
304.15	33.572
304.52	33.532
304.89	33.099
305.25	32.930
305.62	32.905
305.99	32.632
306.35	33.179
306.72	31.159
307.09	32.953
307.45	34.558
307.82	31.829
308.19	32.753
308.55	31.298
308.92	33.333
309.29	31.732
309.65	30.678
310.02	31.683
310.38	32.272
310.75	31.913
311.12	31.862
311.48	31.071
311.85	30.785
312.22	31.118
312.58	32.590
312.95	29.883
313.31	30.952
313.68	30.366
314.05	32.143
314.41	30.515
314.78	31.443
315.14	31.655
315.51	31.159
315.87	31.865
316.24	32.963
316.61	29.626
316.97	30.853
317.34	30.371
317.70	31.071
318.07	30.577
318.43	29.412
318.80	29.167
319.16	32.520
319.53	31.054
319.89	30.413
320.26	30.263
320.62	31.595
320.99	30.271
321.35	30.113
321.72	31.464
322.08	29.909
322.45	31.472
322.81	30.452
323.18	30.226
323.54	29.247
323.91	29.503
324.27	29.785
324.64	29.213
325.00	29.015
325.37	32.231
325.73	29.646
326.10	29.609
326.46	30.493
326.83	31.409
327.19	31.125
327.56	29.540
327.92	30.810
328.29	29.643
328.65	30.000
329.01	29.688
329.38	30.138
329.74	29.273
330.11	30.491
330.47	28.757
330.84	30.192
331.20	32.129
331.56	29.444
331.93	28.858
332.29	29.789
332.66	28.416
333.02	29.461
333.38	29.331
333.75	30.220
334.11	28.111
334.48	30.281
334.84	30.220
335.20	29.369
335.57	27.289
335.93	28.184
336.29	29.098
336.66	28.792
337.02	28.717
337.38	29.815
337.75	30.000
338.11	29.396
338.47	28.285
338.84	27.634
339.20	28.976
339.56	29.083
339.93	28.469
340.29	29.725
340.65	29.211
341.02	27.128
341.38	28.850
341.74	28.092
342.11	27.643
342.47	28.737
342.83	28.201
343.20	26.481
343.56	28.174
343.92	27.901
344.28	28.523
344.65	27.116
345.01	27.139
345.37	28.680
345.73	27.364
346.10	28.214
346.46	27.586
346.82	27.823
347.19	27.764
347.55	27.235
347.91	27.184
348.27	27.890
348.63	27.513
349.00	28.220
349.36	27.265
349.72	28.856
350.08	27.131
350.45	27.374
350.81	27.824
351.17	26.873
351.53	27.347
351.89	26.920
352.26	26.400
352.62	28.145
352.98	26.506
353.34	26.329
353.70	26.861
354.07	25.161
354.43	26.581
354.79	27.333
355.15	27.381
355.51	27.294
355.87	27.427
356.24	26.591
356.60	26.597
356.96	27.619
357.32	26.198
357.68	26.036
358.04	26.979
358.40	25.965
358.77	27.113
359.13	27.062
359.49	26.502
359.85	26.365
360.21	27.512
360.57	25.784
360.93	27.005
361.29	25.906
361.66	27.116
362.02	27.121
362.38	26.504
362.74	26.192
363.10	26.411
363.46	27.205
363.82	26.221
364.18	25.092
364.54	25.588
364.90	25.376
365.26	25.764
365.62	25.693
365.98	26.540
366.35	27.094
366.71	27.051
367.07	26.052
367.43	26.096
367.79	25.300
368.15	26.202
368.51	26.074
368.87	25.413
369.23	24.043
369.59	25.073
369.95	26.760
370.31	27.384
370.67	25.299
371.03	24.944
371.39	24.508
371.75	25.275
372.11	25.678
372.47	25.518
372.83	25.479
373.19	25.036
373.55	24.260
373.91	25.054
374.27	25.726
374.63	25.485
374.99	24.326
375.35	25.070
375.71	24.685
376.07	25.351
376.42	25.714
376.78	26.309
377.14	24.509
377.50	25.166
377.86	25.502
378.22	24.569
378.58	24.808
378.94	24.512
379.30	25.577
379.66	25.266
380.02	24.709
380.38	24.102
380.74	24.357
381.09	26.258
381.45	23.914
381.81	25.231
382.17	24.810
382.53	24.485
382.89	24.922
383.25	24.829
383.61	25.366
383.97	24.825
384.32	24.203
384.68	25.201
385.04	23.039
385.40	24.082
385.76	25.535
386.12	24.968
386.48	25.223
386.83	24.604
387.19	24.542
387.55	24.843
387.91	25.000
388.27	24.359
388.62	23.159
388.98	24.125
389.34	25.297
389.70	24.860
390.06	24.858
390.42	25.453
390.77	24.657
391.13	24.590
391.49	24.580
391.85	25.471
392.20	23.729
392.56	23.840
392.92	24.486
393.28	23.880
393.64	25.405
393.99	25.517
394.35	23.909
394.71	25.032
395.07	24.136
395.42	23.983
395.78	25.081
396.14	24.716
396.50	24.604
396.85	24.211
397.21	25.000
397.57	24.326
397.92	23.787
398.28	25.000
398.64	23.554
399.00	23.928
399.35	23.025
399.71	23.262
400.07	23.579
400.42	23.929
400.78	25.352
401.14	23.412
401.49	23.585
401.85	23.705
402.21	23.373
402.57	24.312
402.92	23.777
403.28	23.622
403.63	23.329
403.99	24.107
404.35	24.610
404.70	23.274
405.06	23.325
405.42	23.493
405.77	24.056
406.13	23.399
406.49	24.393
406.84	23.044
407.20	24.383
407.55	24.340
407.91	23.195
408.27	23.709
408.62	24.369
408.98	24.584
409.34	24.597
409.69	22.868
410.05	23.584
410.40	23.148
410.76	24.125
411.11	22.688
411.47	23.208
411.83	23.038
412.18	24.131
412.54	23.596
412.89	23.276
413.25	24.007
413.60	24.161
413.96	23.804
414.31	24.085
414.67	24.118
415.03	23.768
415.38	23.433
415.74	23.518
416.09	23.841
416.45	23.093
416.80	23.728
417.16	24.033
417.51	23.651
417.87	23.924
418.22	23.834
418.58	23.211
418.93	24.138
419.29	23.175
419.64	22.878
420.00	24.559
420.35	23.522
420.71	24.180
421.06	23.818
421.42	23.918
421.77	23.584
422.12	24.064
422.48	24.039
422.83	23.492
423.19	23.589
423.54	23.045
423.90	23.675
424.25	23.479
424.61	24.235
424.96	23.403
425.31	23.686
425.67	24.002
426.02	24.205
426.38	24.483
426.73	23.245
427.09	24.430
427.44	23.000
427.79	24.337
428.15	24.515
428.50	22.956
428.85	22.666
429.21	23.769
429.56	24.690
429.92	23.729
430.27	23.158
430.62	23.157
430.98	23.992
431.33	24.290
431.68	23.548
432.04	24.651
432.39	23.217
432.74	23.091
433.10	24.310
433.45	22.760
433.80	22.983
434.16	23.380
434.51	24.032
434.86	23.693
435.22	23.724
435.57	24.828
435.92	23.832
436.28	22.660
436.63	24.016
436.98	23.233
437.34	23.714
437.69	24.150
438.04	23.590
438.39	23.274
438.75	23.315
439.10	23.486
439.45	23.250
439.81	23.547
440.16	24.584
440.51	24.478
440.86	24.773
441.22	24.265
441.57	23.841
441.92	24.397
442.27	24.279
442.63	25.161
442.98	23.550
443.33	24.374
443.68	23.926
444.03	25.335
444.39	23.561
444.74	24.526
445.09	25.223
445.44	24.217
445.79	24.600
446.15	23.623
446.50	24.182
446.85	24.070
447.20	23.514
447.55	25.056
447.91	24.196
448.26	23.392
448.61	24.007
448.96	24.269
449.31	23.642
449.66	24.506
450.02	24.701
450.37	23.889
450.72	23.998
451.07	24.367
451.42	23.533
451.77	24.051
452.12	24.103
452.47	23.374
452.83	23.027
453.18	24.225
453.53	24.716
453.88	24.833
454.23	24.462
454.58	25.315
454.93	23.454
455.28	23.175
455.63	24.613
455.98	24.775
456.34	24.393
456.69	25.222
457.04	25.520
457.39	24.301
457.74	24.305
458.09	24.367
458.44	24.283
458.79	24.538
459.14	24.199
459.49	23.642
459.84	25.155
460.19	24.211
460.54	24.389
460.89	25.114
461.24	24.348
461.59	24.347
461.94	24.088
462.29	24.729
462.64	24.518
462.99	25.118
463.34	24.200
463.69	24.646
464.04	25.121
464.39	25.227
464.74	24.847
465.09	25.390
465.44	24.812
465.79	23.810
466.14	25.143
466.49	24.324
466.84	25.045
467.19	24.030
467.54	24.585
467.89	24.510
468.24	24.027
468.59	24.889
468.94	25.016
469.29	24.787
469.64	24.539
469.99	25.718
470.34	23.276
470.68	25.280
471.03	24.841
471.38	25.464
471.73	25.630
472.08	25.034
472.43	23.423
472.78	24.743
473.13	24.898
473.48	24.169
473.83	23.786
474.17	24.806
474.52	24.059
474.87	25.030
475.22	24.161
475.57	24.958
475.92	25.123
476.27	25.204
476.61	24.537
476.96	24.038
477.31	24.932
477.66	24.101
478.01	24.088
478.36	24.074
478.70	24.959
479.05	25.330
479.40	25.013
479.75	24.818
480.10	24.782
480.45	25.150
480.79	25.730
481.14	24.641
481.49	24.138
481.84	24.710
482.19	23.948
482.53	25.132
482.88	24.057
483.23	24.856
483.58	24.434
483.92	24.589
484.27	23.974
484.62	24.204
484.97	24.005
485.31	23.844
485.66	23.724
486.01	24.239
486.36	24.520
486.70	24.847
487.05	24.905
487.40	24.612
487.75	24.704
488.09	24.598
488.44	24.553
488.79	25.028
489.13	25.401
489.48	24.925
489.83	24.439
490.17	24.315
490.52	24.573
490.87	23.461
491.22	24.976
491.56	23.909
491.91	24.379
492.26	25.328
492.60	24.712
492.95	25.529
493.30	24.426
493.64	24.607
493.99	24.010
494.34	24.272
494.68	24.571
495.03	23.650
495.37	24.779
495.72	24.634
496.07	24.098
496.41	25.142
496.76	24.735
497.11	24.499
497.45	25.203
497.80	24.773
498.14	24.739
498.49	23.819
498.84	24.701
499.18	24.498
499.53	25.347
499.87	23.979
500.22	24.283
500.56	24.054
500.91	24.849
501.26	24.815
501.60	24.742
501.95	25.667
502.29	25.036
502.64	25.145
502.98	24.371
503.33	23.535
503.67	24.867
504.02	25.318
504.36	25.383
504.71	23.535
505.06	23.956
505.40	24.518
505.75	24.897
506.09	24.126
506.44	24.743
506.78	25.051
507.13	25.336
507.47	24.230
507.82	25.000
508.16	24.459
508.51	23.977
508.85	25.222
509.19	24.534
509.54	23.914
509.88	24.326
510.23	24.529
510.57	25.494
510.92	23.507
511.26	23.895
511.61	25.083
511.95	24.603
512.30	24.778
512.64	24.318
512.98	23.526
513.33	24.678
513.67	23.707
514.02	25.515
514.36	25.543
514.70	25.583
515.05	25.558
515.39	24.793
515.74	25.808
516.08	24.985
516.42	24.735
516.77	24.985
517.11	25.223
517.46	25.015
517.80	25.864
518.14	25.536
518.49	25.421
518.83	24.241
519.17	24.803
519.52	24.334
519.86	24.430
520.20	25.395
520.55	24.078
520.89	24.153
521.23	25.522
521.58	25.741
521.92	25.128
522.26	24.463
522.61	24.805
522.95	26.225
523.29	25.222
523.64	25.540
523.98	26.636
524.32	24.098
524.66	26.248
525.01	25.390
525.35	25.275
525.69	25.118
526.04	24.735
526.38	26.135
526.72	24.460
527.06	24.773
527.41	25.660
527.75	24.933
528.09	25.714
528.43	25.793
528.78	24.950
529.12	25.613
529.46	25.016
529.80	25.079
530.15	25.941
530.49	24.983
530.83	25.992
531.17	25.185
531.51	25.787
531.86	24.949
532.20	23.939
532.54	25.596
532.88	25.120
533.22	25.403
533.57	25.688
533.91	25.587
534.25	26.237
534.59	24.952
534.93	25.362
535.27	24.810
535.62	24.498
535.96	25.962
536.30	26.781
536.64	25.706
536.98	24.808
537.32	26.387
537.66	25.456
538.01	25.315
538.35	24.688
538.69	25.699
539.03	24.675
539.37	25.101
539.71	26.040
540.05	25.119
540.39	25.762
540.73	26.220
541.07	25.414
541.42	26.478
541.76	25.877
542.10	25.327
542.44	24.322
542.78	24.432
543.12	24.245
543.46	25.591
543.80	24.774
544.14	23.965
544.48	24.983
544.82	25.290
545.16	26.981
545.50	25.768
545.84	26.062
546.18	25.887
546.52	25.523
546.86	25.665
547.20	25.751
547.54	24.806
547.88	25.543
548.22	24.458
548.56	24.934
548.90	25.337
549.24	24.931
549.58	25.317
549.92	25.661
550.26	24.542
550.60	26.617
550.94	25.168
551.28	25.734
551.62	26.000
551.96	26.015
552.30	26.170
552.64	24.471
552.98	25.457
553.32	25.250
553.66	24.601
554.00	25.620
554.34	26.366
554.68	24.410
555.02	24.554
555.36	24.981
555.69	25.641
556.03	25.268
556.37	25.480
556.71	25.848
557.05	26.473
557.39	25.576
557.73	25.337
558.07	25.943
558.41	25.727
558.75	25.955
559.08	25.296
559.42	24.921
559.76	26.581
560.10	24.847
560.44	24.795
560.78	24.965
561.12	25.035
561.45	26.283
561.79	25.980
562.13	25.976
562.47	25.755
562.81	25.720
563.15	26.375
563.48	25.248
563.82	27.385
564.16	25.487
564.50	24.662
564.84	25.435
565.17	25.084
565.51	26.025
565.85	25.789
566.19	25.995
566.52	26.676
566.86	25.900
567.20	25.529
567.54	25.852
567.88	26.186
568.21	26.357
568.55	25.054
568.89	25.873
569.23	25.614
569.56	25.482
569.90	25.741
570.24	25.195
570.57	26.691
570.91	26.490
571.25	25.222
571.59	25.226
571.92	25.452
572.26	25.151
572.60	25.519
572.93	25.416
573.27	25.329
573.61	25.149
573.95	25.560
574.28	25.344
574.62	24.841
574.96	25.031
575.29	24.962
575.63	24.566
575.97	24.858
576.30	25.471
576.64	24.662
576.98	25.380
577.31	25.436
577.65	25.023
577.98	25.402
578.32	24.797
578.66	24.866
578.99	24.731
579.33	24.756
579.67	25.107
580.00	25.013
580.34	25.348
580.67	24.555
581.01	25.312
581.35	25.000
581.68	25.448
582.02	25.344
582.35	25.107
582.69	25.438
583.02	25.144
583.36	25.053
583.70	26.116
584.03	25.771
584.37	25.805
584.70	25.907
585.04	24.793
585.37	25.135
585.71	25.105
586.04	24.887
586.38	24.940
586.72	25.395
587.05	25.708
587.39	25.552
587.72	25.560
588.06	25.685
588.39	25.520
588.73	25.672
589.06	26.256
589.40	25.994
589.73	26.177
590.07	25.944
590.40	25.929
590.73	26.318
591.07	25.954
591.40	25.735
591.74	26.018
592.07	26.623
592.41	26.325
592.74	24.970
593.08	25.148
593.41	25.568
593.75	25.352
594.08	25.060
594.41	25.691
594.75	26.336
595.08	25.918
595.42	26.205
595.75	25.573
596.09	26.505
596.42	26.209
596.75	25.755
597.09	25.786
597.42	26.332
597.75	25.653
598.09	25.260
598.42	25.587
598.76	25.783
599.09	25.641
599.42	25.237
599.76	25.395
600.09	25.264
600.42	25.625
600.76	25.557
601.09	25.687
601.42	25.108
601.76	25.804
602.09	25.083
602.42	26.369
602.76	26.146
603.09	25.498
603.42	26.589
603.76	25.121
604.09	25.840
604.42	26.607
604.76	26.658
605.09	25.868
605.42	25.508
605.75	25.175
606.09	26.200
606.42	25.980
606.75	26.104
607.09	25.538
607.42	25.786
607.75	26.243
608.08	25.382
608.42	25.582
608.75	25.880
609.08	25.660
609.41	26.142
609.75	26.310
610.08	26.161
610.41	25.024
610.74	25.451
611.07	26.925
611.41	26.518
611.74	26.333
612.07	25.910
612.40	26.039
612.73	25.819
613.07	25.478
613.40	26.860
613.73	25.686
614.06	26.099
614.39	26.170
614.72	26.106
615.06	26.201
615.39	24.563
615.72	25.727
616.05	26.536
616.38	24.729
616.71	26.483
617.05	25.880
617.38	26.587
617.71	26.038
618.04	26.667
618.37	27.238
618.70	26.733
619.03	26.181
619.36	26.411
619.69	26.611
620.03	26.443
620.36	26.466
620.69	25.839
621.02	25.994
621.35	26.058
621.68	26.361
622.01	26.750
622.34	26.496
622.67	26.025
623.00	27.029
623.33	26.448
623.66	25.879
623.99	25.719
624.32	27.148
624.65	25.865
624.99	26.712
625.32	26.080
625.65	26.394
625.98	26.189
626.31	26.683
626.64	26.863
626.97	27.051
627.30	25.394
627.63	26.776
627.96	27.134
628.29	26.272
628.62	26.450
628.95	27.255
629.28	26.613
629.61	27.318
629.94	27.859
630.26	26.482
630.59	27.055
630.92	26.359
631.25	26.051
631.58	27.423
631.91	25.329
632.24	26.491
632.57	26.818
632.90	27.046
633.23	26.941
633.56	26.952
633.89	27.127
634.22	27.284
634.55	26.429
634.88	26.948
635.20	26.154
635.53	27.467
635.86	24.967
636.19	28.461
636.52	27.168
636.85	25.558
637.18	25.912
637.51	27.170
637.83	24.310
638.16	28.377
638.49	26.022
638.82	27.237
639.15	26.730
639.48	29.298
639.81	27.336
640.13	28.139
640.46	26.968
640.79	27.688
641.12	26.736
641.45	27.628
641.77	27.556
642.10	27.172
642.43	27.492
642.76	26.568
643.09	27.948
643.41	26.375
643.74	26.853
644.07	28.900
644.40	27.703
644.73	28.021
645.05	25.168
645.38	28.924
645.71	27.128
646.04	27.828
646.36	27.482
646.69	29.676
647.02	30.246
647.35	28.918
647.67	27.239
648.00	27.799
648.33	28.498
648.66	28.136
648.98	24.121
649.31	29.256
649.64	26.531
649.96	25.932
650.29	27.087
650.62	26.325
650.94	27.407
651.27	27.188
651.60	26.667
651.92	27.972
652.25	26.288
652.58	26.667
652.90	29.331
653.23	25.882
653.56	23.350
653.88	26.289
654.21	27.496
654.54	27.334
654.86	30.051
655.19	26.608
655.52	27.709
655.84	25.497
656.17	28.800
656.49	39.734
656.82	41.158
657.15	32.223
657.47	23.524
657.80	18.064
658.13	17.564
658.45	26.795
658.78	26.544
659.10	26.459
659.43	25.750
659.75	25.999
660.08	25.517
660.41	25.536
660.73	26.243
661.06	27.036
661.38	24.853
661.71	24.230
662.03	29.185
662.36	27.033
662.68	25.885
663.01	28.384
663.33	27.146
663.66	25.116
663.98	25.581
664.31	27.505
664.63	26.728
664.96	26.087
665.28	26.711
665.61	26.840
665.93	26.304
666.26	29.284
666.58	25.503
666.91	27.059
667.23	25.000
667.56	28.199
667.88	28.537
668.21	27.924
668.53	31.678
668.86	26.651
669.18	23.585
669.50	24.455
669.83	26.977
670.15	25.641
670.48	28.708
670.80	26.267
671.13	26.398
671.45	21.233
671.77	25.966
672.10	28.713
672.42	29.026
672.75	30.373
673.07	28.623
673.39	27.890
673.72	23.669
674.04	25.625
674.37	26.271
674.69	28.480
675.01	26.222
675.34	30.180
675.66	30.324
675.98	28.160
676.31	27.064
676.63	24.466
676.95	24.318
677.28	28.471
677.60	29.639
677.92	28.899
678.25	26.477
678.57	25.541
678.89	23.109
679.22	30.425
679.54	27.711
679.86	25.646
680.18	29.126
680.51	26.894
680.83	25.050
681.15	27.200
681.48	29.303
681.80	26.860
682.12	27.218
682.44	25.523
682.77	27.373
683.09	26.773
683.41	24.773
683.73	27.650
684.06	26.327
684.38	24.731
684.70	26.580
685.02	25.519
685.34	25.889
685.67	24.765
685.99	25.678
686.31	27.080
686.63	26.531
686.96	24.525
687.28	25.859
687.60	26.046
687.92	29.293
688.24	28.427
688.56	25.764
688.89	29.687
689.21	27.333
689.53	25.522
689.85	27.907
690.17	25.446
690.49	26.241
690.82	27.913
691.14	27.857
691.46	28.271
691.78	25.450
692.10	26.882
692.42	26.840
692.74	26.496
693.06	27.252
693.39	24.887
693.71	25.339
694.03	26.328
694.35	27.336
694.67	28.788
694.99	26.110
695.31	24.543
695.63	29.250
695.95	23.737
696.27	25.389
696.59	28.333
696.91	25.770
697.23	25.450
697.56	24.257
697.88	26.882
698.20	27.107
698.52	26.824
698.84	23.684
699.16	26.250
699.48	28.070
699.80	26.303
700.12	26.954
700.44	24.930
700.76	25.581
701.08	23.636
701.40	27.108
701.72	31.173
702.04	32.013
702.36	25.418
702.68	28.228
703.00	30.606
703.32	23.460
703.64	25.141
703.96	27.536
704.28	25.767
704.60	26.984
704.91	23.028
705.23	24.252
705.55	29.682
705.87	27.437
706.19	27.407
706.51	24.742
706.83	28.617
707.15	24.299
707.47	24.930
707.79	25.781
708.11	27.750
708.43	25.000
708.74	27.390
709.06	23.662
709.38	26.300
709.70	27.811
710.02	31.529
710.34	30.341
710.66	25.962
710.98	29.470
711.29	24.918
711.61	26.441
711.93	28.990
712.25	29.553
712.57	26.740
712.89	26.866
713.20	25.260
713.52	26.132
713.84	23.891
714.16	28.522
714.48	27.742
714.80	30.128
715.11	23.100
715.43	24.138
715.75	25.667
716.07	22.924
716.39	27.181
716.70	21.033
717.02	24.046
717.34	27.935
717.66	21.681
717.97	26.957
718.29	23.013
718.61	27.165
718.93	27.907
719.24	23.954
719.56	26.104
719.88	24.399
720.20	29.545
720.51	25.287
720.83	31.274
721.15	26.891
721.46	29.839
721.78	22.134
722.10	27.881
722.42	16.598
722.73	26.122
723.05	27.347
723.37	27.119
723.68	29.730
724.00	26.496
724.32	23.111
724.63	28.182
724.95	29.694
725.27	25.806
725.58	25.847
725.90	25.397
726.22	22.008
726.53	28.136
726.85	24.719
727.16	30.566
727.48	21.457
727.80	25.911
728.11	24.576
728.43	25.098
728.74	20.161
729.06	25.600
729.38	29.699
729.69	24.303
730.01	20.769
730.32	26.493
730.64	26.855
730.96	30.189
731.27	23.333
731.59	24.068
731.90	24.204
732.22	26.498
732.53	28.239
732.85	27.305
733.16	28.283
733.48	26.259
733.80	25.725
734.11	22.712
734.43	27.491
734.74	28.485
735.06	23.453
735.37	27.492
735.69	27.609
736.00	25.087
736.32	25.839
736.63	25.704
736.95	25.256
737.26	22.420
737.58	26.174
737.89	28.571
738.21	20.677
738.52	21.811
738.83	26.201
739.15	25.328
739.46	27.953
739.78	23.443
740.09	21.569
740.41	27.536
740.72	21.654
741.04	25.911
741.35	22.979
741.66	27.962
741.98	17.857
742.29	25.743
742.61	28.796
742.92	17.536
743.23	19.444
743.55	28.959
743.86	25.359
744.18	32.057
744.49	21.809
744.80	27.174
745.12	22.995
745.43	25.854
745.74	28.125
746.06	27.805
746.37	31.937
746.68	27.488
747.00	25.532
747.31	27.861
747.62	25.243
747.94	28.230
748.25	24.257
748.56	27.322
748.88	24.084
749.19	26.596
749.50	22.167
749.82	24.528
750.13	28.440
750.44	30.075
750.75	24.254
751.07	29.927
751.38	26.437
751.69	20.000
752.01	24.806
752.32	27.092
752.63	28.063
752.94	22.414
753.26	26.778
753.57	23.529
753.88	25.221
754.19	22.083
754.51	21.074
754.82	25.506
755.13	29.583
755.44	26.613
755.75	26.172
756.07	27.626
756.38	25.283
756.69	22.605
757.00	22.000
757.31	26.144
757.63	23.171
757.94	24.167
758.25	20.000
758.56	26.330
758.87	24.079
759.18	24.611
759.50	24.727
759.81	28.428
760.12	29.355
760.43	23.333
760.74	28.704
761.05	23.692
761.36	23.011
761.67	30.303
761.99	28.571
762.30	19.273
762.61	27.668
762.92	24.434
763.23	22.973
763.54	21.495
763.85	24.576
764.16	21.992
764.47	22.581
764.78	25.275
765.10	28.956
765.41	27.760
765.72	22.222
766.03	21.805
766.34	29.562
766.65	24.303
766.96	30.303
767.27	27.660
767.58	22.989
767.89	26.950
768.20	27.841
768.51	25.824
768.82	24.631
769.13	25.806
769.44	19.313
769.75	21.005
770.06	30.172
770.37	21.154
770.68	18.274
770.99	19.457
771.30	26.961
771.61	27.602
771.92	25.862
772.23	28.571
772.54	23.656
772.85	25.926
773.16	30.337
773.47	26.144
773.78	26.144
774.09	37.126
774.39	21.333
774.70	21.656
775.01	27.586
775.32	34.286
775.63	14.876
775.94	19.084
776.25	20.472
776.56	20.000
776.87	9.615
777.18	19.658
777.48	25.000
777.79	15.652
778.10	16.190
778.41	24.324
778.72	19.048
779.03	30.827
779.34	26.950
779.65	31.507
779.95	28.082
780.26	26.207
780.57	18.699
780.88	29.134
781.19	19.828
781.50	23.256
781.80	23.077
782.11	15.723
782.42	18.462
782.73	20.863
783.04	24.444
783.34	22.222
783.65	6.838
783.96	26.230
784.27	23.448
784.57	18.699
784.88	16.406
785.19	22.000
785.50	32.000
785.81	24.138
786.11	22.414
786.42	21.359
786.73	32.727
787.04	12.245
787.34	14.286
787.65	20.952
787.96	13.274
788.26	28.182
788.57	25.641
788.88	32.031
789.19	25.397
789.49	31.304
789.80	14.286
790.11	27.273
790.41	19.091
790.72	23.913
791.03	26.136
791.33	26.250
791.64	26.250
791.95	15.116
792.25	28.723
792.56	29.213
792.87	17.808
793.17	27.536
793.48	12.000
793.79	26.250
794.09	32.500
794.40	22.642
794.70	24.272
795.01	15.447
795.32	23.077
795.62	23.810
795.93	21.569
796.23	31.132
796.54	22.917
796.85	20.588
797.15	25.352
797.46	25.000
797.76	25.758
798.07	18.605
798.37	22.368
798.68	21.212
798.99	22.222
799.29	25.714
799.60	17.391
799.90	20.000
800.21	44.262
800.51	24.615
800.82	30.508
801.12	18.841
801.43	29.508
801.73	14.286
802.04	6.000
802.34	13.433
802.65	21.154
802.95	21.429
803.26	15.385
803.56	35.294
803.87	0.000
804.17	17.333
804.48	38.095
804.78	18.519
805.09	15.217
805.39	20.000
805.70	9.259
806.00	5.263
806.30	16.901
806.61	31.429
806.91	2.778
807.22	26.316
807.52	32.000
807.83	23.636
808.13	30.556
808.43	19.118
808.74	17.910
809.04	33.898
809.35	34.615
809.65	15.625
809.95	-2.703
810.26	13.636
810.56	19.178
810.86	21.429
811.17	14.000
811.47	16.327
811.77	26.316
812.08	-2.273
812.38	18.868
812.69	20.000
812.99	9.091
813.29	39.474
813.59	-31.429
813.90	34.091
814.20	-5.128
814.50	38.462
814.81	24.528
815.11	0.000
815.41	35.593
815.72	23.810
816.02	31.373
816.32	8.333
816.62	31.707
816.93	5.405
817.23	11.429
817.53	16.667
817.84	28.261
818.14	32.692
818.44	5.263
818.74	26.087
819.04	-30.000
819.35	21.622
819.65	17.647
819.95	8.333
820.25	9.524
820.56	37.500
820.86	-31.034
821.16	27.500
821.46	40.426
821.76	30.000
822.07	16.279
822.37	-16.216
822.67	-6.250
822.97	23.810
823.27	-7.143
823.57	-12.000
823.88	14.815
824.18	7.143
824.48	11.765
824.78	22.581
825.08	43.478
825.38	27.273
825.69	-33.333
825.99	7.895
826.29	11.111
826.59	20.000
826.89	-19.048
827.19	8.696
827.49	15.000
827.79	20.000
828.09	0.000
828.39	33.333
828.70	37.838
829.00	0.000
829.30	-38.095
829.60	6.667
829.90	0.000
830.20	10.526
830.50	14.815
830.80	-30.435
831.10	22.727
831.40	45.455
831.70	22.581
832.00	52.381
832.30	-57.143
832.60	-66.667
832.90	6.897
833.20	-45.000
833.50	15.152
833.80	7.407
834.10	19.231
834.40	-3.125
834.70	-77.778
835.00	15.789
835.30	84.615
835.60	60.000
835.90	32.258
836.20	27.273
836.50	14.286
836.80	-15.385
837.10	17.857
837.40	-233.333
837.70	22.727
838.00	-9.091
838.30	21.739
838.60	-15.385
838.90	31.818
839.19	21.429
839.49	43.333
839.79	-23.077
840.09	-83.333
840.39	64.286
840.69	-10.714
840.99	-11.538
841.29	-68.421
841.59	-10.000
841.88	-18.182
842.18	-80.000
842.48	50.000
842.78	-46.667
843.08	-7.407
843.38	-30.000
843.68	8.696
843.97	13.333
844.27	20.000
844.57	40.000
844.87	22.222
845.17	0.000
845.47	46.667
845.76	-52.381
846.06	-35.294
846.36	10.000
846.66	0.000
846.96	0.000
847.25	-37.500
847.55	57.143
847.85	-25.000
848.15	9.091
848.44	-166.667
848.74	50.000
849.04	22.222
849.34	63.636
849.63	-300.000
849.93	-280.000
850.23	5.556
850.53	80.000
850.82	-69.231
851.12	-11.111
851.42	-26.667
851.71	-11.538
852.01	-50.000
852.31	50.000
852.61	-81.818
852.90	-5.000
853.20	42.105
853.50	-91.667
853.79	34.783
854.09	0.000
854.39	-15.789
854.68	-16.667
854.98	12.903
855.28	30.769
855.57	10.000
855.87	16.667
856.17	29.630
856.46	-64.286
856.76	0.000
857.05	11.111
857.35	-12.000
857.65	-16.667
857.94	15.385
858.24	51.724
858.53	0.000
858.83	14.815
859.13	18.182
859.42	4.348
859.72	75.000
860.01	-133.333
860.31	4.000
860.60	-14.286
860.90	66.667
861.20	-20.000
861.49	-50.000
861.79	6.667
862.08	-15.000
862.38	60.000
862.67	-20.000
862.97	66.667
863.26	-8.333
863.56	55.556
863.85	-600.000
864.15	38.889
864.44	10.000
864.74	-50.000
865.03	175.000
865.33	-80.000
865.62	133.333
865.92	58.333
866.21	-200.000
866.51	56.250
866.80	-90.909
867.10	-350.000
867.39	33.333
867.69	0.000
867.98	23.077
868.27	-366.667
868.57	-40.000
868.86	22.222
869.16	-23.077
869.45	6.667
869.75	-500.000
870.04	0.000
870.33	-14.286
870.63	0.000
870.92	333.333
871.22	-180.000
871.51	-1100.000
871.80	-66.667
872.10	66.667
>>>>>End Processed Spectral Data<<<<<
