SpectraSuite Data File
++++++++++++++++++++++++++++++++++++
Date: Fri May 15 20:35:12 PDT 2015
User: schluterlab
Dark Spectrum Present: Yes
Reference Spectrum Present: Yes
Number of Sampled Component Spectra: 1
Spectrometers: USB2E3373
Integration Time (usec): 3000 (USB2E3373)
Spectra Averaged: 3 (USB2E3373)
Boxcar Smoothing: 0 (USB2E3373)
Correct for Electrical Dark: No (USB2E3373)
Strobe/Lamp Enabled: No (USB2E3373)
Correct for Detector Non-linearity: No (USB2E3373)
Correct for Stray Light: No (USB2E3373)
Number of Pixels in Processed Spectrum: 2048
>>>>>Begin Processed Spectral Data<<<<<
178.53	0.000
178.91	0.000
179.29	-100.000
179.67	-450.000
180.04	71.429
180.42	-100.000
180.80	-200.000
181.18	233.333
181.56	200.000
181.94	-400.000
182.31	100.000
182.69	20.000
183.07	-366.667
183.45	-180.000
183.83	166.667
184.20	-72.727
184.58	222.222
184.96	100.000
185.34	200.000
185.72	-300.000
186.09	69.231
186.47	-1200.000
186.85	216.667
187.23	144.444
187.61	300.000
187.98	-333.333
188.36	-100.000
188.74	-233.333
189.12	0.000
189.49	16.667
189.87	0.000
190.25	85.714
190.63	-100.000
191.00	-333.333
191.38	-21.053
191.76	50.000
192.14	225.000
192.51	-50.000
192.89	-111.111
193.27	-142.857
193.65	166.667
194.02	127.273
194.40	10.000
194.78	-212.500
195.15	-83.333
195.53	-137.500
195.91	450.000
196.29	-300.000
196.66	138.462
197.04	142.857
197.42	22.222
197.79	-500.000
198.17	-161.538
198.55	2000.000
198.92	-466.667
199.30	-300.000
199.68	-120.000
200.05	-233.333
200.43	0.000
200.81	-133.333
201.18	-233.333
201.56	800.000
201.94	-250.000
202.31	-66.667
202.69	-140.000
203.07	100.000
203.44	100.000
203.82	0.000
204.19	28.571
204.57	-333.333
204.95	87.500
205.32	-80.000
205.70	-14.286
206.08	-175.000
206.45	166.667
206.83	35.714
207.20	-157.143
207.58	-400.000
207.96	-166.667
208.33	-80.000
208.71	-100.000
209.08	-100.000
209.46	-700.000
209.84	-140.000
210.21	-800.000
210.59	57.143
210.96	-83.333
211.34	0.000
211.71	-53.333
212.09	-100.000
212.46	-2300.000
212.84	0.000
213.22	0.000
213.59	950.000
213.97	-15.385
214.34	27.273
214.72	0.000
215.09	750.000
215.47	7.692
215.84	-9.091
216.22	-100.000
216.59	-125.000
216.97	100.000
217.34	-25.000
217.72	-40.000
218.09	-150.000
218.47	87.500
218.84	-1000.000
219.22	-55.556
219.59	-260.000
219.97	400.000
220.34	250.000
220.72	-85.714
221.09	-100.000
221.47	-100.000
221.84	-600.000
222.22	-1150.000
222.59	27.273
222.97	8.333
223.34	-100.000
223.72	-92.857
224.09	-28.571
224.46	25.000
224.84	700.000
225.21	-50.000
225.59	33.333
225.96	-150.000
226.34	450.000
226.71	-185.714
227.08	-100.000
227.46	-12.500
227.83	-750.000
228.21	-33.333
228.58	54.545
228.95	-75.000
229.33	110.000
229.70	43.750
230.08	-162.500
230.45	-85.714
230.82	-42.857
231.20	-33.333
231.57	28.571
231.95	-57.143
232.32	-40.000
232.69	50.000
233.07	100.000
233.44	-60.000
233.81	-10.000
234.19	-11.111
234.56	-5.882
234.93	150.000
235.31	0.000
235.68	-20.000
236.05	-69.231
236.43	-20.000
236.80	17.647
237.17	43.750
237.55	25.000
237.92	7.407
238.29	27.778
238.67	33.333
239.04	29.412
239.41	19.512
239.79	50.000
240.16	46.341
240.53	42.105
240.91	28.261
241.28	52.381
241.65	50.000
242.02	42.466
242.40	41.667
242.77	42.373
243.14	43.939
243.51	57.500
243.89	59.770
244.26	55.172
244.63	52.381
245.00	53.608
245.38	58.763
245.75	41.573
246.12	38.793
246.49	45.455
246.87	56.731
247.24	46.218
247.61	54.386
247.98	51.220
248.36	51.875
248.73	48.684
249.10	48.701
249.47	52.532
249.84	54.248
250.22	52.353
250.59	51.634
250.96	51.174
251.33	59.302
251.70	64.118
252.08	55.330
252.45	47.030
252.82	58.794
253.19	60.829
253.56	52.804
253.94	54.054
254.31	50.870
254.68	62.719
255.05	53.937
255.42	53.712
255.79	55.212
256.16	52.140
256.54	58.582
256.91	50.951
257.28	52.416
257.65	52.434
258.02	50.355
258.39	56.902
258.76	58.974
259.14	54.817
259.51	54.045
259.88	50.515
260.25	53.922
260.62	57.292
260.99	53.898
261.36	52.055
261.73	56.646
262.10	55.015
262.47	56.748
262.85	57.994
263.22	59.385
263.59	54.517
263.96	56.832
264.33	55.455
264.70	55.952
265.07	55.060
265.44	56.657
265.81	55.650
266.18	56.284
266.55	57.841
266.92	59.585
267.29	56.397
267.66	57.545
268.03	57.853
268.40	52.480
268.77	58.021
269.14	52.278
269.51	57.069
269.88	52.868
270.25	55.357
270.62	52.683
270.99	54.476
271.36	51.100
271.73	56.338
272.10	54.988
272.47	56.974
272.84	56.188
273.21	54.524
273.58	55.904
273.95	53.776
274.32	52.887
274.69	50.452
275.06	56.473
275.43	48.299
275.80	55.629
276.17	51.954
276.54	52.891
276.91	55.702
277.28	53.275
277.65	48.967
278.02	47.660
278.39	53.611
278.76	54.088
279.13	49.585
279.50	54.412
279.87	51.836
280.23	51.828
280.60	48.928
280.97	52.323
281.34	49.038
281.71	54.415
282.08	52.965
282.45	49.902
282.82	53.089
283.19	52.224
283.56	51.638
283.92	50.095
284.29	50.000
284.66	49.225
285.03	51.473
285.40	48.960
285.77	49.033
286.14	48.556
286.51	50.923
286.87	49.543
287.24	50.460
287.61	49.030
287.98	46.842
288.35	47.660
288.72	49.037
289.08	47.917
289.45	48.330
289.82	45.804
290.19	45.051
290.56	45.969
290.93	45.118
291.29	43.451
291.66	46.142
292.03	42.584
292.40	43.387
292.77	43.062
293.13	41.883
293.50	40.819
293.87	40.763
294.24	41.113
294.60	41.431
294.97	42.113
295.34	41.564
295.71	40.686
296.08	39.013
296.44	38.691
296.81	39.722
297.18	39.130
297.55	39.702
297.91	40.411
298.28	38.654
298.65	38.806
299.02	37.736
299.38	36.115
299.75	37.793
300.12	38.351
300.48	37.418
300.85	35.488
301.22	37.143
301.59	36.842
301.95	36.709
302.32	39.040
302.69	37.811
303.05	35.644
303.42	34.994
303.79	36.098
304.15	35.484
304.52	35.077
304.89	35.205
305.25	34.746
305.62	35.239
305.99	34.035
306.35	35.260
306.72	34.196
307.09	33.295
307.45	33.180
307.82	34.144
308.19	35.889
308.55	33.697
308.92	36.166
309.29	35.196
309.65	33.800
310.02	33.883
310.38	31.943
310.75	33.552
311.12	33.800
311.48	34.571
311.85	32.356
312.22	33.650
312.58	33.758
312.95	33.511
313.31	33.333
313.68	32.984
314.05	32.959
314.41	33.093
314.78	33.918
315.14	33.710
315.51	33.437
315.87	33.504
316.24	34.378
316.61	33.858
316.97	33.433
317.34	31.738
317.70	30.784
318.07	31.538
318.43	32.157
318.80	32.008
319.16	33.008
319.53	31.909
319.89	32.579
320.26	33.300
320.62	33.099
320.99	31.628
321.35	31.655
321.72	32.710
322.08	32.830
322.45	32.690
322.81	33.595
323.18	33.268
323.54	31.950
323.91	32.132
324.27	31.348
324.64	32.303
325.00	31.113
325.37	32.048
325.73	29.284
326.10	30.790
326.46	32.197
326.83	32.021
327.19	31.997
327.56	32.580
327.92	32.306
328.29	32.857
328.65	31.887
329.01	31.801
329.38	33.088
329.74	32.861
330.11	32.159
330.47	32.004
330.84	31.442
331.20	32.605
331.56	31.944
331.93	31.142
332.29	32.447
332.66	31.041
333.02	31.877
333.38	31.347
333.75	32.326
334.11	31.244
334.48	31.097
334.84	32.784
335.20	30.741
335.57	29.737
335.93	29.810
336.29	30.571
336.66	30.790
337.02	30.669
337.38	29.630
337.75	29.636
338.11	30.658
338.47	31.478
338.84	30.591
339.20	30.256
339.56	30.917
339.93	29.991
340.29	31.468
340.65	31.093
341.02	29.433
341.38	28.584
341.74	30.124
342.11	29.463
342.47	30.961
342.83	31.747
343.20	29.965
343.56	30.000
343.92	30.558
344.28	29.974
344.65	30.138
345.01	29.213
345.37	29.689
345.73	29.623
346.10	30.026
346.46	28.595
346.82	28.969
347.19	28.845
347.55	29.073
347.91	28.883
348.27	29.103
348.63	28.876
349.00	28.712
349.36	29.842
349.72	29.353
350.08	29.754
350.45	29.449
350.81	28.322
351.17	27.362
351.53	28.327
351.89	27.993
352.26	27.680
352.62	29.919
352.98	28.594
353.34	27.456
353.70	29.126
354.07	28.629
354.43	28.503
354.79	27.581
355.15	28.492
355.51	29.272
355.87	29.126
356.24	27.651
356.60	27.486
356.96	28.651
357.32	27.556
357.68	27.287
358.04	27.464
358.40	28.537
358.77	28.309
359.13	28.183
359.49	28.351
359.85	27.613
360.21	28.309
360.57	26.779
360.93	28.971
361.29	26.133
361.66	28.762
362.02	27.879
362.38	27.647
362.74	26.798
363.10	27.163
363.46	26.761
363.82	28.775
364.18	27.749
364.54	27.721
364.90	27.097
365.26	26.638
365.62	28.394
365.98	27.639
366.35	27.895
366.71	28.677
367.07	26.996
367.43	27.103
367.79	27.420
368.15	26.920
368.51	27.458
368.87	27.495
369.23	26.570
369.59	27.041
369.95	27.566
370.31	26.228
370.67	27.388
371.03	26.736
371.39	27.061
371.75	26.740
372.11	26.391
372.47	26.923
372.83	26.473
373.19	27.104
373.55	25.343
373.91	25.990
374.27	27.427
374.63	27.064
374.99	26.383
375.35	25.348
375.71	26.014
376.07	26.053
376.42	26.735
376.78	25.436
377.14	26.269
377.50	25.830
377.86	25.368
378.22	25.973
378.58	26.282
378.94	26.591
379.30	26.700
379.66	26.771
380.02	25.322
380.38	25.137
380.74	25.135
381.09	25.767
381.45	25.505
381.81	25.478
382.17	25.127
382.53	25.984
382.89	26.679
383.25	25.762
383.61	25.549
383.97	24.889
384.32	25.328
384.68	25.573
385.04	25.551
385.40	24.393
385.76	26.101
386.12	25.809
386.48	25.543
386.83	25.238
387.19	25.702
387.55	26.851
387.91	24.817
388.27	25.275
388.62	25.677
388.98	24.923
389.34	25.859
389.70	26.041
390.06	25.551
390.42	24.676
390.77	25.376
391.13	24.275
391.49	25.485
391.85	25.601
392.20	25.235
392.56	24.031
392.92	25.073
393.28	25.000
393.64	25.165
393.99	26.082
394.35	24.541
394.71	24.777
395.07	25.330
395.42	25.137
395.78	25.472
396.14	24.275
396.50	24.160
396.85	24.855
397.21	24.185
397.57	25.266
397.92	25.524
398.28	25.057
398.64	25.241
399.00	25.621
399.35	23.928
399.71	24.296
400.07	25.574
400.42	24.969
400.78	25.168
401.14	24.319
401.49	24.836
401.85	24.863
402.21	25.361
402.57	24.625
402.92	24.216
403.28	24.875
403.63	25.347
403.99	26.339
404.35	25.671
404.70	23.393
405.06	24.442
405.42	24.487
405.77	24.346
406.13	24.854
406.49	24.630
406.84	24.389
407.20	25.226
407.55	24.340
407.91	24.131
408.27	24.092
408.62	24.738
408.98	24.892
409.34	25.093
409.69	23.966
410.05	23.768
410.40	23.827
410.76	25.271
411.11	24.500
411.47	24.589
411.83	23.792
412.18	24.260
412.54	24.719
412.89	23.645
413.25	24.188
413.60	24.783
413.96	23.926
414.31	23.659
414.67	23.156
415.03	25.366
415.38	23.433
415.74	24.104
416.09	24.428
416.45	24.510
416.80	24.587
417.16	24.862
417.51	25.117
417.87	24.707
418.22	24.352
418.58	23.880
418.93	24.514
419.29	23.111
419.64	23.396
420.00	24.685
420.35	24.299
420.71	24.970
421.06	23.818
421.42	24.038
421.77	24.624
422.12	24.007
422.48	24.093
422.83	24.362
423.19	23.646
423.54	23.633
423.90	23.852
424.25	24.512
424.61	24.051
424.96	24.216
425.31	24.957
425.67	24.354
426.02	24.087
426.38	24.859
426.73	23.850
427.09	24.367
427.44	25.471
427.79	23.748
428.15	24.393
428.50	24.349
428.85	22.850
429.21	24.109
429.56	23.827
429.92	24.191
430.27	24.060
430.62	23.680
430.98	24.469
431.33	25.184
431.68	24.490
432.04	24.036
432.39	23.388
432.74	23.572
433.10	24.885
433.45	23.656
433.80	23.099
434.16	23.767
434.51	23.978
434.86	25.145
435.22	23.836
435.57	23.706
435.92	24.671
436.28	23.137
436.63	24.643
436.98	23.638
437.34	23.835
437.69	25.403
438.04	22.165
438.39	23.519
438.75	24.165
439.10	23.939
439.45	24.163
439.81	23.976
440.16	24.228
440.51	23.940
440.86	24.834
441.22	23.756
441.57	23.400
441.92	25.079
442.27	24.778
442.63	24.732
442.98	24.239
443.33	23.706
443.68	23.714
444.03	24.342
444.39	24.643
444.74	24.972
445.09	24.555
445.44	24.672
445.79	25.064
446.15	23.293
446.50	23.350
446.85	24.761
447.20	23.879
447.55	24.498
447.91	23.971
448.26	24.189
448.61	24.698
448.96	24.555
449.31	24.220
449.66	23.751
450.02	23.845
450.37	24.126
450.72	23.769
451.07	24.494
451.42	23.596
451.77	24.292
452.12	23.624
452.47	22.988
452.83	24.146
453.18	23.782
453.53	24.526
453.88	23.801
454.23	23.725
454.58	24.496
454.93	24.549
455.28	22.159
455.63	23.993
455.98	23.211
456.34	23.180
456.69	24.015
457.04	23.693
457.39	22.965
457.74	22.914
458.09	23.484
458.44	22.937
458.79	23.193
459.14	24.199
459.49	24.060
459.84	24.140
460.19	23.968
460.54	25.000
460.89	23.409
461.24	23.789
461.59	24.703
461.94	23.585
462.29	23.824
462.64	23.920
462.99	23.426
463.34	23.435
463.69	22.329
464.04	23.305
464.39	23.226
464.74	23.313
465.09	23.768
465.44	23.774
465.79	23.583
466.14	25.086
466.49	22.772
466.84	23.795
467.19	24.218
467.54	24.074
467.89	23.121
468.24	23.236
468.59	23.175
468.94	22.794
469.29	24.066
469.64	23.787
469.99	23.686
470.34	20.751
470.68	23.714
471.03	23.001
471.38	22.325
471.73	22.409
472.08	22.320
472.43	21.946
472.78	22.344
473.13	21.973
473.48	23.062
473.83	23.724
474.17	22.992
474.52	23.676
474.87	23.758
475.22	23.124
475.57	22.360
475.92	22.874
476.27	23.283
476.61	23.495
476.96	22.588
477.31	23.797
477.66	22.640
478.01	22.740
478.36	23.203
478.70	23.817
479.05	24.286
479.40	23.317
479.75	22.315
480.10	22.069
480.45	22.750
480.79	23.867
481.14	22.695
481.49	22.266
481.84	22.732
482.19	22.685
482.53	23.357
482.88	22.625
483.23	22.025
483.58	22.311
483.92	22.894
484.27	22.334
484.62	23.039
484.97	22.803
485.31	23.121
485.66	22.569
486.01	23.453
486.36	23.702
486.70	24.721
487.05	24.615
487.40	25.284
487.75	24.845
488.09	24.938
488.44	23.796
488.79	24.841
489.13	23.638
489.48	22.745
489.83	22.691
490.17	22.157
490.52	22.356
490.87	22.027
491.22	22.970
491.56	23.102
491.91	22.036
492.26	22.314
492.60	22.553
492.95	22.332
493.30	21.202
493.64	22.642
493.99	22.802
494.34	21.505
494.68	22.381
495.03	21.655
495.37	22.375
495.72	22.362
496.07	22.537
496.41	22.311
496.76	22.156
497.11	21.705
497.45	22.387
497.80	22.250
498.14	21.858
498.49	23.007
498.84	22.405
499.18	22.590
499.53	22.817
499.87	21.936
500.22	22.453
500.56	21.836
500.91	22.339
501.26	21.700
501.60	22.577
501.95	22.222
502.29	22.373
502.64	23.263
502.98	22.792
503.33	21.422
503.67	22.651
504.02	22.630
504.36	21.969
504.71	21.263
505.06	21.792
505.40	21.269
505.75	21.701
506.09	21.997
506.44	21.663
506.78	22.449
507.13	21.923
507.47	21.097
507.82	20.299
508.16	21.078
508.51	22.036
508.85	21.873
509.19	22.086
509.54	22.145
509.88	21.359
510.23	21.840
510.57	21.539
510.92	21.322
511.26	20.567
511.61	22.112
511.95	21.753
512.30	21.674
512.64	22.037
512.98	21.224
513.33	21.712
513.67	21.035
514.02	22.025
514.36	22.229
514.70	21.620
515.05	22.327
515.39	21.429
515.74	22.275
516.08	21.458
516.42	21.555
516.77	21.065
517.11	20.831
517.46	21.424
517.80	21.156
518.14	21.188
518.49	21.575
518.83	21.021
519.17	20.558
519.52	20.663
519.86	20.288
520.20	21.021
520.55	20.013
520.89	20.765
521.23	20.266
521.58	21.703
521.92	21.154
522.26	21.080
522.61	19.870
522.95	20.993
523.29	20.457
523.64	20.712
523.98	20.933
524.32	20.296
524.66	20.423
525.01	20.195
525.35	21.192
525.69	20.673
526.04	20.238
526.38	22.309
526.72	19.948
527.06	20.298
527.41	20.580
527.75	19.839
528.09	20.332
528.43	21.269
528.78	19.274
529.12	21.032
529.46	20.403
529.80	20.709
530.15	21.452
530.49	20.471
530.83	21.341
531.17	20.349
531.51	20.588
531.86	20.326
532.20	21.016
532.54	21.171
532.88	20.876
533.22	19.892
533.57	20.904
533.91	21.084
534.25	21.549
534.59	21.360
534.93	21.208
535.27	20.431
535.62	21.063
535.96	21.461
536.30	21.570
536.64	20.951
536.98	20.070
537.32	21.622
537.66	20.687
538.01	21.259
538.35	20.874
538.69	21.105
539.03	21.189
539.37	21.602
539.71	21.132
540.05	20.502
540.39	21.884
540.73	21.757
541.07	21.685
541.42	22.513
541.76	22.161
542.10	21.198
542.44	22.029
542.78	19.821
543.12	20.673
543.46	21.905
543.80	21.582
544.14	20.227
544.48	20.653
544.82	21.736
545.16	21.585
545.50	21.696
545.84	21.530
546.18	21.418
546.52	20.981
546.86	20.776
547.20	21.459
547.54	21.060
547.88	21.739
548.22	21.105
548.56	21.504
548.90	21.968
549.24	21.488
549.58	21.157
549.92	20.157
550.26	20.879
550.60	20.818
550.94	21.285
551.28	20.402
551.62	21.538
551.96	21.128
552.30	21.126
552.64	19.535
552.98	21.027
553.32	20.328
553.66	20.464
554.00	18.832
554.34	21.123
554.68	20.354
555.02	20.461
555.36	21.092
555.69	20.733
556.03	20.842
556.37	20.214
556.71	21.661
557.05	21.402
557.39	19.405
557.73	21.364
558.07	21.342
558.41	20.980
558.75	20.733
559.08	21.198
559.42	19.524
559.76	21.537
560.10	20.719
560.44	20.700
560.78	21.608
561.12	21.580
561.45	20.590
561.79	21.499
562.13	21.221
562.47	19.856
562.81	21.686
563.15	22.073
563.48	21.429
563.82	21.277
564.16	22.493
564.50	20.946
564.84	22.624
565.17	20.523
565.51	21.926
565.85	22.634
566.19	21.552
566.52	22.453
566.86	23.008
567.20	21.606
567.54	22.506
567.88	22.320
568.21	23.643
568.55	22.609
568.89	23.717
569.23	23.736
569.56	23.161
569.90	23.914
570.24	23.483
570.57	24.255
570.91	24.817
571.25	24.005
571.59	24.260
571.92	23.674
572.26	23.883
572.60	24.341
572.93	24.474
573.27	23.950
573.61	24.344
573.95	24.276
574.28	24.470
574.62	24.434
574.96	24.508
575.29	24.533
575.63	24.410
575.97	24.695
576.30	24.656
576.64	23.762
576.98	24.968
577.31	24.994
577.65	24.931
577.98	25.148
578.32	24.588
578.66	24.801
578.99	25.175
579.33	25.106
579.67	24.830
580.00	24.658
580.34	24.950
580.67	25.321
581.01	25.384
581.35	25.022
581.68	24.818
582.02	24.995
582.35	24.903
582.69	25.691
583.02	25.187
583.36	25.929
583.70	26.168
584.03	25.688
584.37	25.974
584.70	24.835
585.04	24.197
585.37	24.570
585.71	24.759
586.04	24.937
586.38	24.567
586.72	26.055
587.05	25.217
587.39	25.552
587.72	25.396
588.06	25.076
588.39	24.779
588.73	25.153
589.06	25.212
589.40	25.372
589.73	25.666
590.07	25.264
590.40	24.961
590.73	25.288
591.07	24.512
591.40	24.711
591.74	24.253
592.07	24.026
592.41	24.647
592.74	24.213
593.08	23.786
593.41	23.954
593.75	24.403
594.08	24.202
594.41	24.854
594.75	24.122
595.08	24.782
595.42	24.144
595.75	24.596
596.09	24.785
596.42	25.052
596.75	24.956
597.09	23.690
597.42	24.119
597.75	24.691
598.09	23.450
598.42	23.691
598.76	23.252
599.09	23.678
599.42	24.138
599.76	24.643
600.09	24.170
600.42	24.223
600.76	23.514
601.09	23.931
601.42	24.011
601.76	24.772
602.09	23.927
602.42	24.684
602.76	24.363
603.09	24.003
603.42	24.666
603.76	23.911
604.09	24.261
604.42	24.281
604.76	25.100
605.09	24.497
605.42	24.515
605.75	23.949
606.09	24.246
606.42	24.520
606.75	24.156
607.09	23.868
607.42	23.438
607.75	23.801
608.08	24.124
608.42	24.029
608.75	24.434
609.08	23.667
609.41	23.706
609.75	24.194
610.08	23.065
610.41	23.333
610.74	23.403
611.07	24.031
611.41	24.754
611.74	24.041
612.07	23.180
612.40	23.687
612.73	23.898
613.07	23.566
613.40	23.523
613.73	22.832
614.06	23.706
614.39	23.012
614.72	23.081
615.06	23.352
615.39	22.926
615.72	22.766
616.05	24.190
616.38	22.450
616.71	23.180
617.05	24.212
617.38	23.193
617.71	22.956
618.04	23.810
618.37	24.905
618.70	23.630
619.03	23.681
619.36	22.938
619.69	23.806
620.03	22.498
620.36	22.389
620.69	22.698
621.02	22.554
621.35	23.154
621.68	22.789
622.01	21.083
622.34	22.506
622.67	22.713
623.00	22.282
623.33	22.104
623.66	22.289
623.99	22.239
624.32	22.281
624.65	22.030
624.99	21.520
625.32	21.607
625.65	23.488
625.98	21.918
626.31	21.446
626.64	22.704
626.97	21.728
627.30	21.191
627.63	21.837
627.96	21.833
628.29	21.924
628.62	22.812
628.95	21.443
629.28	20.968
629.61	20.538
629.94	21.408
630.26	20.850
630.59	21.124
630.92	20.410
631.25	20.923
631.58	20.595
631.91	19.627
632.24	19.151
632.57	20.909
632.90	18.624
633.23	19.882
633.56	20.151
633.89	19.852
634.22	20.123
634.55	18.551
634.88	20.179
635.20	21.026
635.53	18.933
635.86	18.986
636.19	19.922
636.52	19.515
636.85	19.107
637.18	19.497
637.51	19.874
637.83	20.368
638.16	20.464
638.49	19.482
638.82	21.974
639.15	18.996
639.48	20.908
639.81	19.247
640.13	20.058
640.46	20.554
640.79	19.440
641.12	18.316
641.45	17.868
641.77	21.037
642.10	19.589
642.43	19.293
642.76	19.142
643.09	19.386
643.41	16.505
643.74	18.781
644.07	17.406
644.40	17.568
644.73	17.863
645.05	18.792
645.38	17.460
645.71	17.908
646.04	19.031
646.36	17.908
646.69	18.165
647.02	19.471
647.35	19.963
647.67	18.282
648.00	18.470
648.33	20.990
648.66	18.136
648.98	16.248
649.31	18.512
649.64	19.466
649.96	17.180
650.29	20.102
650.62	18.462
650.94	19.259
651.27	16.574
651.60	20.901
651.92	21.503
652.25	17.584
652.58	19.833
652.90	22.813
653.23	17.479
653.56	17.766
653.88	18.041
654.21	16.637
654.54	19.355
654.86	20.374
655.19	18.129
655.52	23.297
655.84	23.356
656.17	26.765
656.49	37.850
656.82	41.508
657.15	33.288
657.47	25.245
657.80	18.780
658.13	19.001
658.45	30.117
658.78	30.307
659.10	30.499
659.43	29.946
659.75	29.403
660.08	27.655
660.41	24.821
660.73	21.961
661.06	20.971
661.38	18.982
661.71	16.222
662.03	17.167
662.36	18.242
662.68	19.027
663.01	19.214
663.33	16.937
663.66	15.814
663.98	15.814
664.31	16.844
664.63	15.899
664.96	14.348
665.28	14.349
665.61	17.965
665.93	17.391
666.26	18.872
666.58	15.660
666.91	16.000
667.23	19.811
667.56	16.351
667.88	16.547
668.21	15.752
668.53	18.440
668.86	17.217
669.18	14.151
669.50	15.012
669.83	16.512
670.15	14.685
670.48	16.268
670.80	18.203
671.13	16.555
671.45	16.210
671.77	19.099
672.10	16.832
672.42	19.288
672.75	19.538
673.07	20.572
673.39	21.468
673.72	17.949
674.04	18.958
674.37	16.525
674.69	16.274
675.01	18.000
675.34	18.694
675.66	14.583
675.98	17.517
676.31	19.495
676.63	16.865
676.95	17.727
677.28	17.647
677.60	17.831
677.92	18.119
678.25	20.131
678.57	16.017
678.89	18.277
679.22	17.673
679.54	19.076
679.86	18.489
680.18	18.058
680.51	19.886
680.83	17.495
681.15	19.200
681.48	20.082
681.80	18.802
682.12	16.734
682.44	15.900
682.77	16.336
683.09	18.078
683.41	18.182
683.73	17.972
684.06	16.150
684.38	16.129
684.70	17.865
685.02	17.220
685.34	17.391
685.67	19.700
685.99	16.998
686.31	20.177
686.63	17.996
686.96	17.490
687.28	18.788
687.60	18.061
687.92	20.808
688.24	19.153
688.56	19.432
688.89	19.420
689.21	20.222
689.53	18.794
689.85	19.535
690.17	18.304
690.49	17.494
690.82	18.932
691.14	15.714
691.46	20.794
691.78	17.342
692.10	19.785
692.42	19.264
692.74	20.513
693.06	17.117
693.39	16.516
693.71	17.873
694.03	18.014
694.35	17.757
694.67	18.939
694.99	17.493
695.31	19.321
695.63	18.500
695.95	16.414
696.27	18.653
696.59	17.222
696.91	17.087
697.23	14.910
697.56	18.069
697.88	20.215
698.20	19.134
698.52	18.824
698.84	14.833
699.16	18.000
699.48	19.048
699.80	17.122
700.12	16.442
700.44	23.529
700.76	15.116
701.08	11.818
701.40	17.771
701.72	17.901
702.04	13.531
702.36	16.054
702.68	15.015
703.00	15.455
703.32	15.249
703.64	16.667
703.96	17.971
704.28	17.791
704.60	17.460
704.91	16.088
705.23	12.292
705.55	20.141
705.87	19.495
706.19	14.444
706.51	15.120
706.83	17.042
707.15	14.953
707.47	19.048
707.79	15.365
708.11	20.500
708.43	20.250
708.74	18.346
709.06	18.592
709.38	23.853
709.70	19.822
710.02	17.516
710.34	20.433
710.66	16.026
710.98	15.563
711.29	17.705
711.61	14.237
711.93	18.893
712.25	20.619
712.57	17.582
712.89	13.806
713.20	18.685
713.52	16.028
713.84	14.676
714.16	17.526
714.48	16.129
714.80	17.949
715.11	17.021
715.43	16.301
715.75	16.667
716.07	17.608
716.39	17.450
716.70	14.022
717.02	16.794
717.34	16.194
717.66	13.717
717.97	18.696
718.29	9.623
718.61	20.079
718.93	16.667
719.24	16.350
719.56	21.687
719.88	18.900
720.20	18.561
720.51	14.176
720.83	17.761
721.15	17.227
721.46	15.726
721.78	13.439
722.10	16.729
722.42	12.863
722.73	13.469
723.05	17.959
723.37	16.525
723.68	19.820
724.00	15.812
724.32	11.111
724.63	14.091
724.95	13.974
725.27	17.972
725.58	18.220
725.90	17.460
726.22	16.216
726.53	15.932
726.85	19.476
727.16	21.887
727.48	11.741
727.80	18.219
728.11	13.983
728.43	17.255
728.74	16.129
729.06	14.400
729.38	23.308
729.69	19.920
730.01	13.846
730.32	18.657
730.64	17.668
730.96	23.396
731.27	14.667
731.59	16.610
731.90	21.338
732.22	19.243
732.53	24.585
732.85	17.730
733.16	23.569
733.48	19.065
733.80	18.116
734.11	16.271
734.43	18.557
734.74	18.182
735.06	13.355
735.37	23.565
735.69	19.529
736.00	18.467
736.32	18.456
736.63	16.549
736.95	17.065
737.26	16.014
737.58	15.101
737.89	20.147
738.21	19.173
738.52	20.165
738.83	19.651
739.15	16.594
739.46	18.504
739.78	11.722
740.09	21.569
740.41	21.014
740.72	13.386
741.04	21.053
741.35	11.489
741.66	13.270
741.98	17.857
742.29	12.376
742.61	20.942
742.92	3.791
743.23	14.352
743.55	19.005
743.86	20.096
744.18	10.526
744.49	14.894
744.80	12.500
745.12	14.439
745.43	13.171
745.74	16.146
746.06	18.537
746.37	19.895
746.68	18.483
747.00	7.979
747.31	19.900
747.62	10.680
747.94	14.833
748.25	15.347
748.56	15.847
748.88	18.848
749.19	18.617
749.50	19.212
749.82	9.906
750.13	17.431
750.44	17.669
750.75	22.015
751.07	22.993
751.38	19.923
751.69	13.725
752.01	20.543
752.32	15.936
752.63	18.182
752.94	15.086
753.26	24.268
753.57	19.457
753.88	14.602
754.19	17.500
754.51	13.636
754.82	13.360
755.13	22.917
755.44	22.984
755.75	20.703
756.07	19.844
756.38	14.340
756.69	16.475
757.00	19.667
757.31	19.935
757.63	18.902
757.94	21.111
758.25	17.260
758.56	19.149
758.87	17.847
759.18	17.445
759.50	19.273
759.81	22.742
760.12	20.323
760.43	17.273
760.74	23.765
761.05	20.000
761.36	19.318
761.67	21.212
761.99	20.408
762.30	15.273
762.61	19.763
762.92	20.814
763.23	18.018
763.54	14.019
763.85	25.000
764.16	22.822
764.47	13.306
764.78	18.681
765.10	21.212
765.41	21.136
765.72	21.587
766.03	13.910
766.34	17.153
766.65	19.920
766.96	20.202
767.27	22.340
767.58	10.920
767.89	14.184
768.20	12.500
768.51	14.286
768.82	18.719
769.13	14.747
769.44	18.455
769.75	16.895
770.06	22.414
770.37	17.788
770.68	14.721
770.99	14.932
771.30	19.118
771.61	22.624
771.92	19.397
772.23	23.153
772.54	13.978
772.85	19.136
773.16	23.596
773.47	24.837
773.78	14.379
774.09	11.377
774.39	15.333
774.70	15.924
775.01	17.241
775.32	15.714
775.63	6.612
775.94	9.160
776.25	17.323
776.56	11.667
776.87	13.462
777.18	15.385
777.48	11.207
777.79	13.913
778.10	7.619
778.41	19.820
778.72	9.524
779.03	25.564
779.34	21.986
779.65	17.123
779.95	13.014
780.26	17.931
780.57	17.073
780.88	22.047
781.19	12.931
781.50	24.031
781.80	10.059
782.11	9.434
782.42	18.462
782.73	19.424
783.04	10.370
783.34	13.889
783.65	5.128
783.96	26.230
784.27	16.552
784.57	18.699
784.88	22.656
785.19	27.000
785.50	16.000
785.81	9.483
786.11	18.103
786.42	9.709
786.73	24.545
787.04	11.224
787.34	14.286
787.65	15.238
787.96	10.619
788.26	11.818
788.57	6.838
788.88	20.312
789.19	16.667
789.49	7.826
789.80	4.082
790.11	10.101
790.41	4.545
790.72	10.870
791.03	14.773
791.33	18.750
791.64	18.750
791.95	8.140
792.25	11.702
792.56	17.978
792.87	8.219
793.17	14.493
793.48	0.000
793.79	5.000
794.09	18.750
794.40	4.717
794.70	10.680
795.01	13.821
795.32	13.675
795.62	15.238
795.93	19.608
796.23	14.151
796.54	15.625
796.85	14.706
797.15	14.085
797.46	13.889
797.76	15.152
798.07	9.302
798.37	3.947
798.68	16.667
798.99	19.753
799.29	18.571
799.60	8.696
799.90	25.333
800.21	16.393
800.51	12.308
800.82	10.169
801.12	13.043
801.43	13.115
801.73	22.222
802.04	6.000
802.34	5.970
802.65	17.308
802.95	1.786
803.26	11.538
803.56	9.804
803.87	-15.217
804.17	17.333
804.48	38.095
804.78	-3.704
805.09	10.870
805.39	-15.556
805.70	1.852
806.00	-14.035
806.30	7.042
806.61	5.714
806.91	-4.167
807.22	23.684
807.52	20.000
807.83	-10.909
808.13	16.667
808.43	29.412
808.74	7.463
809.04	22.034
809.35	13.462
809.65	6.250
809.95	-56.757
810.26	-6.818
810.56	0.000
810.86	4.762
811.17	20.000
811.47	22.449
811.77	-15.789
812.08	15.909
812.38	7.547
812.69	-12.500
812.99	-9.091
813.29	-13.158
813.59	-17.143
813.90	15.909
814.20	-20.513
814.50	5.769
814.81	15.094
815.11	-6.383
815.41	20.339
815.72	2.381
816.02	13.725
816.32	-16.667
816.62	-17.073
816.93	-8.108
817.23	-11.429
817.53	12.500
817.84	-21.739
818.14	-9.615
818.44	-21.053
818.74	13.043
819.04	-12.500
819.35	8.108
819.65	11.765
819.95	-19.444
820.25	2.381
820.56	17.500
820.86	-27.586
821.16	42.500
821.46	17.021
821.76	35.000
822.07	-2.326
822.37	-24.324
822.67	-9.375
822.97	7.143
823.27	-10.714
823.57	-4.000
823.88	-37.037
824.18	-3.571
824.48	-2.941
824.78	12.903
825.08	-17.391
825.38	15.152
825.69	-41.667
825.99	13.158
826.29	0.000
826.59	-66.667
826.89	-4.762
827.19	34.783
827.49	-15.000
827.79	2.857
828.09	7.143
828.39	39.394
828.70	29.730
829.00	-7.143
829.30	4.762
829.60	-10.000
829.90	3.125
830.20	-10.526
830.50	-29.630
830.80	-13.043
831.10	-18.182
831.40	15.152
831.70	16.129
832.00	0.000
832.30	-38.095
832.60	-41.667
832.90	-13.793
833.20	-60.000
833.50	18.182
833.80	7.407
834.10	15.385
834.40	18.750
834.70	44.444
835.00	0.000
835.30	23.077
835.60	-6.667
835.90	-3.226
836.20	31.818
836.50	17.857
836.80	-15.385
837.10	-32.143
837.40	-466.667
837.70	-59.091
838.00	-154.545
838.30	-4.348
838.60	-23.077
838.90	9.091
839.19	0.000
839.49	40.000
839.79	38.462
840.09	-108.333
840.39	21.429
840.69	-10.714
840.99	-46.154
841.29	-26.316
841.59	-30.000
841.88	-72.727
842.18	-50.000
842.48	-62.500
842.78	13.333
843.08	-7.407
843.38	-100.000
843.68	8.696
843.97	-20.000
844.27	-60.000
844.57	-25.000
844.87	-11.111
845.17	-52.381
845.47	40.000
845.76	-52.381
846.06	-5.882
846.36	-40.000
846.66	-128.571
846.96	40.000
847.25	-275.000
847.55	7.143
847.85	-162.500
848.15	-45.455
848.44	-566.667
848.74	-20.000
849.04	14.815
849.34	0.000
849.63	-350.000
849.93	-240.000
850.23	-11.111
850.53	100.000
850.82	-38.462
851.12	-66.667
851.42	-40.000
851.71	-53.846
852.01	-50.000
852.31	-25.000
852.61	-163.636
852.90	-30.000
853.20	-47.368
853.50	-75.000
853.79	17.391
854.09	37.500
854.39	-15.789
854.68	-12.500
854.98	29.032
855.28	7.692
855.57	15.000
855.87	11.111
856.17	-3.704
856.46	28.571
856.76	-40.000
857.05	-66.667
857.35	20.000
857.65	-5.556
857.94	-38.462
858.24	-48.276
858.53	11.111
858.83	33.333
859.13	-13.636
859.42	4.348
859.72	-50.000
860.01	-333.333
860.31	-32.000
860.60	0.000
860.90	-466.667
861.20	-53.333
861.49	-600.000
861.79	-66.667
862.08	-10.000
862.38	-26.667
862.67	-180.000
862.97	-200.000
863.26	-50.000
863.56	61.111
863.85	-433.333
864.15	-11.111
864.44	-40.000
864.74	50.000
865.03	125.000
865.33	-400.000
865.62	-133.333
865.92	-66.667
866.21	-116.667
866.51	-6.250
866.80	-181.818
867.10	-750.000
867.39	83.333
867.69	0.000
867.98	23.077
868.27	-233.333
868.57	66.667
868.86	22.222
869.16	-100.000
869.45	13.333
869.75	-1300.000
870.04	0.000
870.33	-114.286
870.63	23.810
870.92	466.667
871.22	-280.000
871.51	-600.000
871.80	66.667
872.10	500.000
>>>>>End Processed Spectral Data<<<<<
