SpectraSuite Data File
++++++++++++++++++++++++++++++++++++
Date: Fri May 15 21:08:36 PDT 2015
User: schluterlab
Dark Spectrum Present: Yes
Reference Spectrum Present: Yes
Number of Sampled Component Spectra: 1
Spectrometers: USB2E3373
Integration Time (usec): 3000 (USB2E3373)
Spectra Averaged: 3 (USB2E3373)
Boxcar Smoothing: 0 (USB2E3373)
Correct for Electrical Dark: No (USB2E3373)
Strobe/Lamp Enabled: No (USB2E3373)
Correct for Detector Non-linearity: No (USB2E3373)
Correct for Stray Light: No (USB2E3373)
Number of Pixels in Processed Spectrum: 2048
>>>>>Begin Processed Spectral Data<<<<<
178.53	0.000
178.91	0.000
179.29	-12.500
179.67	-50.000
180.04	-28.571
180.42	0.000
180.80	-300.000
181.18	100.000
181.56	400.000
181.94	50.000
182.31	1100.000
182.69	20.000
183.07	-266.667
183.45	-200.000
183.83	283.333
184.20	0.000
184.58	133.333
184.96	-225.000
185.34	133.333
185.72	-150.000
186.09	169.231
186.47	-1100.000
186.85	183.333
187.23	111.111
187.61	500.000
187.98	-66.667
188.36	-100.000
188.74	-66.667
189.12	-5.882
189.49	5.556
189.87	0.000
190.25	78.571
190.63	0.000
191.00	-533.333
191.38	10.526
191.76	100.000
192.14	-175.000
192.51	250.000
192.89	0.000
193.27	-57.143
193.65	116.667
194.02	172.727
194.40	-90.000
194.78	-25.000
195.15	-16.667
195.53	-100.000
195.91	150.000
196.29	-375.000
196.66	123.077
197.04	42.857
197.42	-33.333
197.79	-200.000
198.17	-61.538
198.55	1300.000
198.92	-366.667
199.30	200.000
199.68	-120.000
200.05	-266.667
200.43	0.000
200.81	-233.333
201.18	100.000
201.56	1100.000
201.94	-250.000
202.31	33.333
202.69	-40.000
203.07	100.000
203.44	300.000
203.82	0.000
204.19	35.714
204.57	-466.667
204.95	175.000
205.32	-20.000
205.70	100.000
206.08	125.000
206.45	177.778
206.83	71.429
207.20	-114.286
207.58	1000.000
207.96	-133.333
208.33	-30.000
208.71	-75.000
209.08	-266.667
209.46	0.000
209.84	0.000
210.21	-300.000
210.59	128.571
210.96	-166.667
211.34	-275.000
211.71	6.667
212.09	-42.857
212.46	-1400.000
212.84	0.000
213.22	0.000
213.59	400.000
213.97	46.154
214.34	9.091
214.72	-116.667
215.09	325.000
215.47	-30.769
215.84	-9.091
216.22	-333.333
216.59	-150.000
216.97	300.000
217.34	-50.000
217.72	-200.000
218.09	-37.500
218.47	112.500
218.84	200.000
219.22	-122.222
219.59	-100.000
219.97	433.333
220.34	275.000
220.72	-57.143
221.09	-25.000
221.47	-150.000
221.84	-550.000
222.22	-700.000
222.59	-81.818
222.97	0.000
223.34	-233.333
223.72	-50.000
224.09	-23.810
224.46	17.857
224.84	500.000
225.21	50.000
225.59	6.667
225.96	-100.000
226.34	225.000
226.71	-185.714
227.08	-133.333
227.46	-75.000
227.83	-600.000
228.21	-88.889
228.58	-90.909
228.95	-125.000
229.33	70.000
229.70	-12.500
230.08	0.000
230.45	-28.571
230.82	57.143
231.20	-40.000
231.57	-14.286
231.95	71.429
232.32	-60.000
232.69	50.000
233.07	-66.667
233.44	-20.000
233.81	-30.000
234.19	-11.111
234.56	-41.176
234.93	350.000
235.31	125.000
235.68	-220.000
236.05	-53.846
236.43	-30.000
236.80	11.765
237.17	28.125
237.55	-40.000
237.92	11.111
238.29	5.556
238.67	13.333
239.04	17.647
239.41	-34.146
239.79	-20.000
240.16	17.073
240.53	2.632
240.91	-2.174
241.28	4.762
241.65	17.857
242.02	17.808
242.40	13.333
242.77	10.169
243.14	10.606
243.51	-2.500
243.89	22.989
244.26	18.391
244.63	10.714
245.00	13.402
245.38	20.619
245.75	-1.124
246.12	6.897
246.49	9.917
246.87	20.192
247.24	3.361
247.61	7.895
247.98	15.447
248.36	5.000
248.73	17.105
249.10	11.039
249.47	15.190
249.84	11.111
250.22	13.529
250.59	17.647
250.96	13.615
251.33	12.791
251.70	11.176
252.08	14.721
252.45	16.337
252.82	15.075
253.19	17.512
253.56	11.215
253.94	11.712
254.31	15.652
254.68	18.860
255.05	17.717
255.42	17.904
255.79	13.900
256.16	17.510
256.54	16.045
256.91	16.730
257.28	15.242
257.65	13.858
258.02	13.121
258.39	17.508
258.76	17.582
259.14	18.605
259.51	16.181
259.88	12.027
260.25	19.608
260.62	13.542
260.99	14.576
261.36	11.644
261.73	14.873
262.10	16.109
262.47	15.644
262.85	17.555
263.22	16.308
263.59	18.069
263.96	17.391
264.33	17.576
264.70	13.690
265.07	14.881
265.44	16.997
265.81	17.514
266.18	16.940
266.55	16.710
266.92	14.508
267.29	15.666
267.66	16.368
268.03	14.921
268.40	13.316
268.77	16.845
269.14	15.588
269.51	15.167
269.88	15.960
270.25	15.816
270.62	16.098
270.99	14.578
271.36	14.181
271.73	14.789
272.10	18.005
272.47	15.366
272.84	15.842
273.21	15.081
273.58	16.145
273.95	15.561
274.32	12.933
274.69	12.896
275.06	16.741
275.43	14.966
275.80	16.556
276.17	13.333
276.54	13.919
276.91	15.789
277.28	16.376
277.65	15.083
278.02	15.106
278.39	14.004
278.76	13.836
279.13	15.768
279.50	16.176
279.87	14.687
280.23	13.763
280.60	15.595
280.97	14.141
281.34	15.962
281.71	15.811
282.08	14.315
282.45	14.677
282.82	13.320
283.19	14.120
283.56	14.836
283.92	12.524
284.29	13.462
284.66	12.597
285.03	15.128
285.40	13.800
285.77	13.005
286.14	17.329
286.51	16.605
286.87	13.528
287.24	13.812
287.61	15.344
287.98	14.386
288.35	14.038
288.72	15.587
289.08	13.715
289.45	12.830
289.82	14.336
290.19	14.676
290.56	11.835
290.93	13.468
291.29	13.097
291.66	14.016
292.03	12.600
292.40	13.387
292.77	11.962
293.13	9.740
293.50	11.836
293.87	12.214
294.24	14.219
294.60	14.158
294.97	12.202
295.34	11.656
295.71	11.773
296.08	12.108
296.44	10.384
296.81	12.500
297.18	13.913
297.55	14.363
297.91	11.781
298.28	14.380
298.65	11.669
299.02	13.073
299.38	10.123
299.75	13.379
300.12	11.780
300.48	13.175
300.85	12.041
301.22	11.558
301.59	12.237
301.95	12.911
302.32	13.230
302.69	12.438
303.05	12.995
303.42	12.329
303.79	12.500
304.15	12.186
304.52	11.653
304.89	11.930
305.25	10.896
305.62	10.618
305.99	11.930
306.35	11.908
306.72	12.148
307.09	10.604
307.45	11.940
307.82	11.921
308.19	13.124
308.55	11.778
308.92	13.725
309.29	12.961
309.65	12.702
310.02	11.991
310.38	11.965
310.75	13.333
311.12	13.025
311.48	12.831
311.85	12.984
312.22	12.342
312.58	13.057
312.95	12.593
313.31	13.147
313.68	13.298
314.05	13.980
314.41	15.155
314.78	15.052
315.14	14.286
315.51	15.217
315.87	14.857
316.24	16.077
316.61	15.748
316.97	13.889
317.34	15.820
317.70	16.157
318.07	15.288
318.43	15.980
318.80	15.720
319.16	16.504
319.53	16.904
319.89	17.028
320.26	16.296
320.62	17.854
320.99	15.971
321.35	17.472
321.72	17.549
322.08	18.429
322.45	18.173
322.81	19.253
323.18	18.646
323.54	18.919
323.91	18.403
324.27	20.215
324.64	19.850
325.00	20.529
325.37	21.212
325.73	18.767
326.10	20.708
326.46	21.704
326.83	20.560
327.19	20.750
327.56	20.678
327.92	21.655
328.29	22.054
328.65	21.604
329.01	22.151
329.38	22.581
329.74	21.152
330.11	21.687
330.47	22.542
330.84	20.096
331.20	23.574
331.56	21.204
331.93	23.379
332.29	24.198
332.66	21.900
333.02	21.561
333.38	22.090
333.75	22.253
334.11	21.934
334.48	22.756
334.84	22.527
335.20	22.415
335.57	21.668
335.93	22.674
336.29	22.560
336.66	21.526
337.02	21.097
337.38	21.389
337.75	23.000
338.11	23.264
338.47	23.905
338.84	22.366
339.20	22.669
339.56	23.303
339.93	23.187
340.29	22.385
340.65	22.670
341.02	22.518
341.38	22.832
341.74	22.261
342.11	22.444
342.47	22.687
342.83	23.010
343.20	22.300
343.56	22.261
343.92	22.586
344.28	21.264
344.65	21.244
345.01	24.201
345.37	22.792
345.73	23.431
346.10	23.037
346.46	24.138
346.82	22.668
347.19	22.195
347.55	23.726
347.91	23.301
348.27	21.665
348.63	23.595
349.00	22.724
349.36	22.693
349.72	23.549
350.08	24.098
350.45	23.943
350.81	22.010
351.17	22.638
351.53	23.347
351.89	23.617
352.26	22.800
352.62	23.226
352.98	23.534
353.34	22.947
353.70	23.463
354.07	23.226
354.43	23.779
354.79	23.782
355.15	23.730
355.51	23.655
355.87	23.301
356.24	22.838
356.60	22.555
356.96	22.857
357.32	23.482
357.68	23.847
358.04	23.586
358.40	23.875
358.77	24.561
359.13	23.539
359.49	23.190
359.85	23.245
360.21	23.764
360.57	24.101
360.93	25.038
361.29	22.961
361.66	24.060
362.02	24.545
362.38	25.362
362.74	24.073
363.10	24.906
363.46	24.388
363.82	24.793
364.18	24.280
364.54	25.000
364.90	24.444
365.26	24.600
365.62	25.109
365.98	25.147
366.35	25.929
366.71	25.795
367.07	25.254
367.43	25.018
367.79	25.795
368.15	25.197
368.51	25.127
368.87	25.485
369.23	24.910
369.59	24.708
369.95	27.346
370.31	26.228
370.67	25.896
371.03	24.795
371.39	25.018
371.75	26.740
372.11	26.748
372.47	26.479
372.83	25.834
373.19	26.676
373.55	25.704
373.91	25.558
374.27	26.081
374.63	26.561
374.99	25.816
375.35	27.019
375.71	27.902
376.07	27.247
376.42	27.619
376.78	25.906
377.14	27.691
377.50	27.490
377.86	27.175
378.22	28.207
378.58	28.013
378.94	27.662
379.30	28.447
379.66	28.589
380.02	27.897
380.38	27.876
380.74	27.887
381.09	27.853
381.45	27.951
381.81	28.254
382.17	27.411
382.53	28.545
382.89	28.500
383.25	28.127
383.61	28.537
383.97	28.762
384.32	28.580
384.68	29.288
385.04	28.554
385.40	28.811
385.76	29.057
386.12	29.690
386.48	30.460
386.83	29.740
387.19	29.182
387.55	29.925
387.91	29.095
388.27	28.816
388.62	30.522
388.98	29.711
389.34	30.481
389.70	30.329
390.06	29.767
390.42	29.793
390.77	30.020
391.13	29.697
391.49	30.207
391.85	30.149
392.20	29.190
392.56	31.341
392.92	29.947
393.28	31.073
393.64	30.511
393.99	31.034
394.35	30.740
394.71	31.609
395.07	30.170
395.42	30.844
395.78	31.466
396.14	30.328
396.50	31.325
396.85	30.844
397.21	30.388
397.57	30.094
397.92	30.377
398.28	31.954
398.64	31.024
399.00	31.490
399.35	31.095
399.71	31.074
400.07	31.016
400.42	31.395
400.78	31.476
401.14	31.155
401.49	31.745
401.85	30.774
402.21	30.964
402.57	30.875
402.92	30.991
403.28	31.642
403.63	32.156
403.99	31.441
404.35	30.981
404.70	31.310
405.06	30.787
405.42	30.951
405.77	30.912
406.13	31.607
406.49	31.380
406.84	32.029
407.20	31.367
407.55	30.779
407.91	31.083
408.27	31.676
408.62	31.323
408.98	31.238
409.34	31.289
409.69	30.426
410.05	31.034
410.40	30.864
410.76	30.820
411.11	31.625
411.47	31.032
411.83	30.195
412.18	30.438
412.54	31.398
412.89	29.557
413.25	31.107
413.60	30.870
413.96	30.000
414.31	30.915
414.67	30.276
415.03	30.226
415.38	29.961
415.74	30.749
416.09	31.156
416.45	32.951
416.80	29.610
417.16	31.492
417.51	30.180
417.87	30.378
418.22	30.699
418.58	31.371
418.93	31.160
419.29	30.282
419.64	30.071
420.00	32.053
420.35	30.985
420.71	31.835
421.06	30.632
421.42	30.709
421.77	31.445
422.12	30.704
422.48	30.915
422.83	30.336
423.19	30.530
423.54	29.277
423.90	30.389
424.25	30.597
424.61	31.457
424.96	31.591
425.31	31.369
425.67	31.221
426.02	31.390
426.38	31.058
426.73	31.961
427.09	31.456
427.44	31.529
427.79	30.407
428.15	31.189
428.50	30.830
428.85	29.361
429.21	30.334
429.56	30.943
429.92	30.406
430.27	29.875
430.62	29.848
430.98	30.626
431.33	31.388
431.68	29.880
432.04	29.625
432.39	30.006
432.74	29.705
433.10	30.345
433.45	29.450
433.80	29.309
434.16	29.363
434.51	30.161
434.86	30.952
435.22	30.454
435.57	30.443
435.92	30.419
436.28	29.815
436.63	29.892
436.98	29.258
437.34	30.974
437.69	31.067
438.04	30.028
438.39	29.322
438.75	29.508
439.10	30.504
439.45	30.554
439.81	29.969
440.16	30.344
440.51	29.791
440.86	30.997
441.22	29.977
441.57	29.691
441.92	30.955
442.27	30.765
442.63	30.728
442.98	29.868
443.33	29.939
443.68	29.761
444.03	29.707
444.39	29.513
444.74	29.320
445.09	30.178
445.44	29.402
445.79	29.964
446.15	29.130
446.50	28.952
446.85	29.862
447.20	28.936
447.55	29.520
447.91	29.836
448.26	29.596
448.61	30.167
448.96	30.522
449.31	29.538
449.66	29.326
450.02	29.949
450.37	30.231
450.72	28.981
451.07	29.937
451.42	29.213
451.77	29.355
452.12	28.529
452.47	29.169
452.83	29.093
453.18	28.590
453.53	28.698
453.88	29.205
454.23	29.379
454.58	28.463
454.93	30.219
455.28	28.381
455.63	29.634
455.98	29.284
456.34	28.352
456.69	28.717
457.04	29.679
457.39	28.797
457.74	28.960
458.09	28.134
458.44	27.853
458.79	27.675
459.14	28.375
459.49	28.836
459.84	29.554
460.19	27.913
460.54	28.301
460.89	29.205
461.24	29.193
461.59	29.157
461.94	27.862
462.29	29.493
462.64	29.568
462.99	28.639
463.34	28.373
463.69	27.864
464.04	27.724
464.39	27.774
464.74	27.239
465.09	28.634
465.44	27.871
465.79	27.551
466.14	27.309
466.49	27.487
466.84	28.673
467.19	28.536
467.54	28.352
467.89	27.543
468.24	28.589
468.59	28.952
468.94	28.571
469.29	28.000
469.64	29.392
469.99	29.713
470.34	27.509
470.68	28.710
471.03	28.379
471.38	28.959
471.73	28.291
472.08	27.883
472.43	27.584
472.78	28.924
473.13	28.231
473.48	28.534
473.83	28.020
474.17	28.238
474.52	27.569
474.87	28.000
475.22	28.493
475.57	27.837
475.92	27.263
476.27	29.278
476.61	28.009
476.96	26.715
477.31	28.340
477.66	27.978
478.01	26.895
478.36	27.451
478.70	27.787
479.05	28.571
479.40	27.928
479.75	27.424
480.10	27.547
480.45	26.650
480.79	28.097
481.14	27.613
481.49	26.700
481.84	27.510
482.19	26.660
482.53	26.667
482.88	27.208
483.23	27.063
483.58	27.500
483.92	27.009
484.27	26.527
484.62	26.670
484.97	26.368
485.31	25.542
485.66	24.987
486.01	24.946
486.36	24.887
486.70	25.171
487.05	25.017
487.40	24.871
487.75	24.958
488.09	25.155
488.44	25.206
488.79	25.514
489.13	26.042
489.48	25.780
489.83	26.188
490.17	26.067
490.52	25.912
490.87	25.821
491.22	26.695
491.56	25.427
491.91	25.956
492.26	26.641
492.60	25.720
492.95	26.365
493.30	25.598
493.64	26.130
493.99	26.667
494.34	25.874
494.68	26.429
495.03	25.353
495.37	26.693
495.72	25.442
496.07	25.854
496.41	26.745
496.76	25.933
497.11	25.058
497.45	26.062
497.80	26.640
498.14	25.633
498.49	25.038
498.84	26.148
499.18	25.653
499.53	25.496
499.87	25.486
500.22	26.508
500.56	26.021
500.91	25.753
501.26	24.666
501.60	25.234
501.95	25.376
502.29	24.794
502.64	25.338
502.98	26.098
503.33	24.496
503.67	25.253
504.02	26.442
504.36	25.383
504.71	25.101
505.06	24.660
505.40	25.279
505.75	26.134
506.09	25.697
506.44	26.540
506.78	25.969
507.13	25.853
507.47	25.587
507.82	25.053
508.16	25.568
508.51	25.341
508.85	25.536
509.19	24.481
509.54	25.469
509.88	25.405
510.23	25.767
510.57	25.334
510.92	24.467
511.26	25.914
511.61	25.633
511.95	25.644
512.30	26.386
512.64	27.101
512.98	25.154
513.33	27.029
513.67	25.128
514.02	26.316
514.36	26.171
514.70	26.340
515.05	26.851
515.39	26.505
515.74	26.766
516.08	26.181
516.42	26.031
516.77	26.799
517.11	26.291
517.46	26.451
517.80	26.639
518.14	26.271
518.49	25.841
518.83	26.428
519.17	25.955
519.52	24.985
519.86	25.330
520.20	27.157
520.55	26.141
520.89	25.910
521.23	26.536
521.58	25.994
521.92	25.962
522.26	26.480
522.61	25.909
522.95	27.086
523.29	26.938
523.64	27.001
523.98	26.831
524.32	26.031
524.66	25.608
525.01	26.494
525.35	26.960
525.69	26.869
526.04	25.661
526.38	26.913
526.72	25.507
527.06	27.302
527.41	26.385
527.75	25.938
528.09	26.113
528.43	26.941
528.78	24.752
529.12	26.387
529.46	25.536
529.80	25.459
530.15	26.469
530.49	26.061
530.83	25.650
531.17	25.789
531.51	26.471
531.86	25.221
532.20	25.678
532.54	25.732
532.88	26.352
533.22	26.008
533.57	26.147
533.91	24.543
534.25	25.781
534.59	26.106
534.93	24.984
535.27	24.429
535.62	24.627
535.96	25.636
536.30	25.264
536.64	25.982
536.98	24.042
537.32	24.609
537.66	26.718
538.01	24.825
538.35	24.411
538.69	25.433
539.03	25.017
539.37	25.101
539.71	24.267
540.05	24.711
540.39	24.792
540.73	24.407
541.07	25.207
541.42	25.605
541.76	25.533
542.10	25.258
542.44	24.600
542.78	22.505
543.12	23.214
543.46	24.478
543.80	24.011
544.14	22.964
544.48	23.984
544.82	25.632
545.16	25.273
545.50	24.166
545.84	24.150
546.18	24.894
546.52	25.018
546.86	24.659
547.20	24.750
547.54	24.523
547.88	24.185
548.22	23.340
548.56	23.417
548.90	23.787
549.24	23.691
549.58	23.202
549.92	23.016
550.26	23.443
550.60	23.271
550.94	23.824
551.28	24.034
551.62	24.846
551.96	22.932
552.30	24.050
552.64	23.554
552.98	24.262
553.32	22.753
553.66	23.512
554.00	23.723
554.34	24.077
554.68	23.673
555.02	24.256
555.36	23.934
555.69	22.711
556.03	22.984
556.37	23.203
556.71	23.105
557.05	23.415
557.39	22.454
557.73	24.513
558.07	23.906
558.41	23.890
558.75	24.630
559.08	23.877
559.42	23.571
559.76	22.898
560.10	23.318
560.44	23.455
560.78	22.797
561.12	22.003
561.45	23.893
561.79	21.919
562.13	22.924
562.47	23.022
562.81	22.622
563.15	23.061
563.48	22.914
563.82	23.267
564.16	21.588
564.50	21.622
564.84	22.691
565.17	22.334
565.51	23.292
565.85	22.565
566.19	23.143
566.52	23.190
566.86	22.622
567.20	21.606
567.54	21.715
567.88	21.675
568.21	22.568
568.55	21.467
568.89	21.920
569.23	20.896
569.56	20.534
569.90	20.341
570.24	19.576
570.57	20.727
570.91	20.460
571.25	19.895
571.59	19.371
571.92	19.170
572.26	19.233
572.60	19.349
572.93	19.454
573.27	19.404
573.61	19.541
573.95	18.979
574.28	18.829
574.62	18.739
574.96	18.350
575.29	18.980
575.63	18.580
575.97	17.972
576.30	18.189
576.64	18.199
576.98	18.662
577.31	18.973
577.65	18.670
577.98	18.428
578.32	18.352
578.66	18.117
578.99	18.133
579.33	18.336
579.67	18.092
580.00	18.203
580.34	18.607
580.67	18.571
581.01	18.276
581.35	17.980
581.68	17.989
582.02	17.930
582.35	17.883
582.69	18.095
583.02	17.945
583.36	18.122
583.70	18.614
584.03	18.098
584.37	18.379
584.70	17.912
585.04	17.876
585.37	18.280
585.71	18.070
586.04	17.852
586.38	17.498
586.72	18.766
587.05	18.515
587.39	18.507
587.72	18.671
588.06	18.655
588.39	17.887
588.73	18.346
589.06	18.624
589.40	18.942
589.73	18.620
590.07	19.109
590.40	19.543
590.73	18.863
591.07	19.042
591.40	19.323
591.74	19.729
592.07	20.037
592.41	19.832
592.74	19.036
593.08	18.128
593.41	18.254
593.75	18.090
594.08	17.885
594.41	18.377
594.75	17.977
595.08	18.426
595.42	17.777
595.75	18.626
596.09	18.765
596.42	18.520
596.75	19.449
597.09	18.405
597.42	18.609
597.75	19.056
598.09	18.062
598.42	18.502
598.76	17.889
599.09	18.309
599.42	18.302
599.76	18.284
600.09	18.816
600.42	18.575
600.76	17.385
601.09	18.053
601.42	18.057
601.76	17.944
602.09	18.317
602.42	18.492
602.76	18.633
603.09	18.480
603.42	18.311
603.76	17.944
604.09	18.226
604.42	18.570
604.76	18.959
605.09	19.333
605.42	17.743
605.75	17.776
606.09	18.386
606.42	17.598
606.75	18.355
607.09	18.593
607.42	17.767
607.75	17.096
608.08	17.925
608.42	18.319
608.75	19.277
609.08	18.535
609.41	19.239
609.75	18.145
610.08	18.173
610.41	17.681
610.74	18.137
611.07	18.450
611.41	19.201
611.74	18.817
612.07	18.041
612.40	18.490
612.73	18.814
613.07	18.391
613.40	18.490
613.73	17.683
614.06	19.533
614.39	18.500
614.72	19.272
615.06	18.547
615.39	18.723
615.72	18.461
616.05	18.492
616.38	17.892
616.71	18.471
617.05	18.159
617.38	19.233
617.71	18.679
618.04	18.095
618.37	19.861
618.70	19.802
619.03	20.417
619.36	19.175
619.69	19.788
620.03	21.183
620.36	19.528
620.69	19.629
621.02	19.343
621.35	20.498
621.68	19.983
622.01	19.917
622.34	20.271
622.67	19.716
623.00	19.832
623.33	20.046
623.66	19.297
623.99	19.743
624.32	20.076
624.65	19.098
624.99	19.564
625.32	18.726
625.65	20.581
625.98	20.548
626.31	19.368
626.64	19.931
626.97	21.379
627.30	20.841
627.63	21.404
627.96	20.305
628.29	20.537
628.62	21.534
628.95	19.539
629.28	20.464
629.61	19.442
629.94	20.821
630.26	20.356
630.59	20.499
630.92	21.333
631.25	21.641
631.58	22.687
631.91	20.614
632.24	20.642
632.57	20.795
632.90	20.759
633.23	21.647
633.56	20.781
633.89	21.825
634.22	21.852
634.55	20.712
634.88	22.095
635.20	21.923
635.53	21.333
635.86	20.676
636.19	22.898
636.52	22.449
636.85	20.347
637.18	21.635
637.51	21.887
637.83	22.076
638.16	22.237
638.49	22.207
638.82	21.974
639.15	21.167
639.48	23.109
639.81	22.594
640.13	23.521
640.46	22.303
640.79	20.913
641.12	20.679
641.45	22.372
641.77	21.333
642.10	22.591
642.43	21.543
642.76	22.112
643.09	23.425
643.41	22.654
643.74	23.723
644.07	22.660
644.40	26.351
644.73	21.891
645.05	22.987
645.38	22.399
645.71	23.582
646.04	24.237
646.36	21.809
646.69	25.899
647.02	23.251
647.35	21.455
647.67	23.949
648.00	23.694
648.33	23.549
648.66	22.373
648.98	19.933
649.31	19.669
649.64	19.623
649.96	20.097
650.29	23.680
650.62	24.615
650.94	21.111
651.27	20.112
651.60	23.604
651.92	20.804
652.25	20.782
652.58	22.167
652.90	21.784
653.23	22.185
653.56	21.997
653.88	20.447
654.21	19.440
654.54	21.732
654.86	21.392
655.19	19.591
655.52	19.505
655.84	15.273
656.17	17.083
656.49	22.510
656.82	23.135
657.15	17.441
657.47	13.082
657.80	9.518
658.13	9.559
658.45	14.522
658.78	14.608
659.10	14.198
659.43	14.864
659.75	15.047
660.08	16.000
660.41	17.978
660.73	19.751
661.06	20.451
661.38	18.787
661.71	18.891
662.03	24.893
662.36	23.736
662.68	23.673
663.01	25.328
663.33	22.970
663.66	21.860
663.98	20.930
664.31	23.454
664.63	20.507
664.96	18.913
665.28	21.634
665.61	21.861
665.93	21.522
666.26	22.343
666.58	19.463
666.91	23.059
667.23	24.528
667.56	23.223
667.88	22.062
668.21	23.866
668.53	26.005
668.86	22.642
669.18	20.047
669.50	23.729
669.83	21.860
670.15	22.844
670.48	24.402
670.80	21.659
671.13	22.148
671.45	19.635
671.77	22.318
672.10	21.386
672.42	22.097
672.75	22.025
673.07	22.898
673.39	22.018
673.72	16.568
674.04	18.125
674.37	21.822
674.69	20.985
675.01	23.333
675.34	21.847
675.66	19.907
675.98	21.508
676.31	22.018
676.63	23.990
676.95	20.000
677.28	25.412
677.60	21.687
677.92	21.330
678.25	21.882
678.57	21.429
678.89	21.218
679.22	24.609
679.54	19.679
679.86	19.881
680.18	21.553
680.51	21.212
680.83	18.091
681.15	21.200
681.48	24.180
681.80	21.488
682.12	19.556
682.44	17.782
682.77	20.971
683.09	18.307
683.41	21.136
683.73	17.281
684.06	20.133
684.38	22.151
684.70	22.440
685.02	20.747
685.34	19.960
685.67	20.263
685.99	20.796
686.31	19.646
686.63	18.924
686.96	17.110
687.28	18.990
687.60	19.011
687.92	21.818
688.24	20.161
688.56	20.961
688.89	21.205
689.21	22.222
689.53	18.794
689.85	18.140
690.17	21.205
690.49	21.040
690.82	17.961
691.14	20.238
691.46	19.860
691.78	22.523
692.10	21.075
692.42	19.481
692.74	20.726
693.06	20.495
693.39	21.493
693.71	20.136
694.03	19.400
694.35	20.327
694.67	23.990
694.99	21.671
695.31	22.715
695.63	21.000
695.95	20.960
696.27	21.503
696.59	20.278
696.91	22.689
697.23	21.594
697.56	20.050
697.88	19.785
698.20	17.084
698.52	23.294
698.84	21.053
699.16	20.250
699.48	23.308
699.80	19.107
700.12	20.216
700.44	21.849
700.76	20.349
701.08	21.818
701.40	20.783
701.72	23.457
702.04	21.122
702.36	23.077
702.68	19.820
703.00	21.818
703.32	19.062
703.64	18.079
703.96	17.971
704.28	22.393
704.60	20.317
704.91	20.505
705.23	21.927
705.55	24.028
705.87	21.300
706.19	20.370
706.51	18.900
706.83	21.865
707.15	20.249
707.47	22.129
707.79	19.271
708.11	18.750
708.43	19.500
708.74	19.897
709.06	20.845
709.38	19.572
709.70	23.077
710.02	24.204
710.34	21.362
710.66	13.141
710.98	19.536
711.29	23.607
711.61	22.712
711.93	21.173
712.25	23.711
712.57	20.879
712.89	20.149
713.20	20.761
713.52	19.861
713.84	21.843
714.16	20.962
714.48	19.677
714.80	18.269
715.11	20.061
715.43	19.749
715.75	19.333
716.07	20.266
716.39	19.799
716.70	19.926
717.02	19.466
717.34	23.887
717.66	18.142
717.97	22.174
718.29	21.339
718.61	23.228
718.93	18.605
719.24	20.152
719.56	22.892
719.88	20.962
720.20	20.455
720.51	14.559
720.83	18.147
721.15	22.269
721.46	19.758
721.78	13.439
722.10	20.818
722.42	16.598
722.73	22.041
723.05	21.224
723.37	27.966
723.68	23.874
724.00	22.222
724.32	17.778
724.63	18.182
724.95	23.581
725.27	20.276
725.58	18.644
725.90	10.714
726.22	18.147
726.53	22.712
726.85	20.599
727.16	24.151
727.48	17.814
727.80	19.028
728.11	21.186
728.43	17.647
728.74	20.565
729.06	15.600
729.38	21.805
729.69	17.131
730.01	14.615
730.32	20.896
730.64	19.081
730.96	18.113
731.27	15.667
731.59	20.000
731.90	17.834
732.22	17.981
732.53	21.595
732.85	18.440
733.16	21.886
733.48	14.748
733.80	21.014
734.11	16.610
734.43	16.495
734.74	20.000
735.06	12.378
735.37	19.335
735.69	17.845
736.00	15.331
736.32	19.463
736.63	18.662
736.95	17.065
737.26	14.591
737.58	17.114
737.89	16.484
738.21	18.797
738.52	16.872
738.83	18.341
739.15	15.284
739.46	19.291
739.78	16.850
740.09	18.627
740.41	17.029
740.72	14.567
741.04	21.457
741.35	17.872
741.66	18.009
741.98	17.347
742.29	19.307
742.61	14.660
742.92	11.374
743.23	13.426
743.55	20.814
743.86	21.531
744.18	17.225
744.49	21.277
744.80	11.413
745.12	22.995
745.43	19.512
745.74	23.438
746.06	18.537
746.37	10.471
746.68	21.801
747.00	18.085
747.31	22.886
747.62	19.417
747.94	18.660
748.25	14.356
748.56	18.579
748.88	20.419
749.19	27.128
749.50	18.227
749.82	13.208
750.13	15.138
750.44	19.925
750.75	20.522
751.07	24.818
751.38	14.559
751.69	15.686
752.01	15.504
752.32	15.139
752.63	18.577
752.94	15.517
753.26	22.176
753.57	11.765
753.88	19.027
754.19	10.000
754.51	14.050
754.82	17.814
755.13	18.750
755.44	17.339
755.75	19.141
756.07	15.953
756.38	15.472
756.69	13.410
757.00	15.333
757.31	17.647
757.63	12.805
757.94	17.222
758.25	16.164
758.56	16.223
758.87	13.881
759.18	14.330
759.50	15.273
759.81	19.732
760.12	17.419
760.43	18.485
760.74	16.975
761.05	14.769
761.36	14.773
761.67	17.576
761.99	20.068
762.30	18.909
762.61	18.972
762.92	18.552
763.23	19.369
763.54	13.084
763.85	16.102
764.16	18.672
764.47	12.903
764.78	15.751
765.10	19.192
765.41	14.196
765.72	19.365
766.03	11.654
766.34	17.883
766.65	19.920
766.96	18.182
767.27	13.830
767.58	12.069
767.89	7.801
768.20	18.750
768.51	15.934
768.82	21.675
769.13	16.129
769.44	11.588
769.75	13.242
770.06	15.948
770.37	13.462
770.68	7.107
770.99	17.195
771.30	17.157
771.61	16.742
771.92	19.828
772.23	21.675
772.54	19.892
772.85	15.432
773.16	23.034
773.47	11.765
773.78	20.261
774.09	17.964
774.39	16.667
774.70	21.019
775.01	20.690
775.32	17.857
775.63	19.008
775.94	12.214
776.25	9.449
776.56	14.167
776.87	13.462
777.18	16.239
777.48	7.759
777.79	9.565
778.10	7.619
778.41	4.505
778.72	15.873
779.03	18.045
779.34	19.858
779.65	17.123
779.95	8.904
780.26	22.069
780.57	8.130
780.88	9.449
781.19	16.379
781.50	13.953
781.80	11.834
782.11	5.660
782.42	16.923
782.73	19.424
783.04	19.259
783.34	11.111
783.65	0.000
783.96	9.016
784.27	15.172
784.57	13.008
784.88	10.938
785.19	11.000
785.50	25.000
785.81	20.690
786.11	17.241
786.42	5.825
786.73	23.636
787.04	13.265
787.34	17.857
787.65	6.667
787.96	12.389
788.26	16.364
788.57	7.692
788.88	16.406
789.19	11.905
789.49	11.304
789.80	8.163
790.11	19.192
790.41	11.818
790.72	18.478
791.03	14.773
791.33	23.750
791.64	5.000
791.95	9.302
792.25	27.660
792.56	15.730
792.87	8.219
793.17	7.246
793.48	-1.333
793.79	5.000
794.09	17.500
794.40	9.434
794.70	15.534
795.01	11.382
795.32	14.530
795.62	7.619
795.93	9.804
796.23	13.208
796.54	4.167
796.85	23.529
797.15	4.225
797.46	11.111
797.76	16.667
798.07	13.953
798.37	9.211
798.68	13.636
798.99	16.049
799.29	15.714
799.60	4.348
799.90	20.000
800.21	18.033
800.51	-3.077
800.82	23.729
801.12	21.739
801.43	14.754
801.73	17.460
802.04	22.000
802.34	13.433
802.65	17.308
802.95	0.000
803.26	-3.846
803.56	23.529
803.87	-8.696
804.17	22.667
804.48	20.635
804.78	18.519
805.09	6.522
805.39	15.556
805.70	22.222
806.00	12.281
806.30	18.310
806.61	17.143
806.91	2.778
807.22	-1.316
807.52	18.667
807.83	-3.636
808.13	27.778
808.43	13.235
808.74	-4.478
809.04	15.254
809.35	5.769
809.65	4.687
809.95	-37.838
810.26	2.273
810.56	20.548
810.86	2.381
811.17	6.000
811.47	20.408
811.77	-2.632
812.08	-6.818
812.38	9.434
812.69	-7.500
812.99	0.000
813.29	10.526
813.59	-20.000
813.90	6.818
814.20	-17.949
814.50	5.769
814.81	20.755
815.11	-8.511
815.41	30.508
815.72	-7.143
816.02	9.804
816.32	16.667
816.62	4.878
816.93	-16.216
817.23	-8.571
817.53	6.250
817.84	0.000
818.14	26.923
818.44	-18.421
818.74	23.913
819.04	-22.500
819.35	0.000
819.65	-11.765
819.95	8.333
820.25	19.048
820.56	45.000
820.86	-44.828
821.16	22.500
821.46	17.021
821.76	-2.500
822.07	23.256
822.37	-5.405
822.67	-21.875
822.97	4.762
823.27	-7.143
823.57	24.000
823.88	-29.630
824.18	10.714
824.48	-35.294
824.78	6.452
825.08	4.348
825.38	18.182
825.69	-45.833
825.99	13.158
826.29	-11.111
826.59	-13.333
826.89	-76.190
827.19	-4.348
827.49	20.000
827.79	8.571
828.09	17.857
828.39	-9.091
828.70	21.622
829.00	-3.571
829.30	-28.571
829.60	13.333
829.90	-6.250
830.20	2.632
830.50	14.815
830.80	-52.174
831.10	-31.818
831.40	27.273
831.70	19.355
832.00	9.524
832.30	-19.048
832.60	-16.667
832.90	3.448
833.20	-55.000
833.50	27.273
833.80	-3.704
834.10	-7.692
834.40	15.625
834.70	-144.444
835.00	0.000
835.30	57.692
835.60	33.333
835.90	-9.677
836.20	18.182
836.50	14.286
836.80	-38.462
837.10	3.571
837.40	-66.667
837.70	0.000
838.00	-63.636
838.30	17.391
838.60	-69.231
838.90	-50.000
839.19	-17.857
839.49	0.000
839.79	-7.692
840.09	-116.667
840.39	17.857
840.69	-3.571
840.99	-15.385
841.29	-5.263
841.59	-20.000
841.88	-36.364
842.18	60.000
842.48	6.250
842.78	-93.333
843.08	0.000
843.38	0.000
843.68	0.000
843.97	0.000
844.27	6.667
844.57	-15.000
844.87	-5.556
845.17	-4.762
845.47	13.333
845.76	-42.857
846.06	-11.765
846.36	-30.000
846.66	-42.857
846.96	-13.333
847.25	-162.500
847.55	14.286
847.85	-100.000
848.15	0.000
848.44	-466.667
848.74	5.000
849.04	25.926
849.34	-90.909
849.63	-316.667
849.93	-280.000
850.23	-5.556
850.53	30.000
850.82	-92.308
851.12	-33.333
851.42	-13.333
851.71	-26.923
852.01	21.429
852.31	-125.000
852.61	-9.091
852.90	-45.000
853.20	21.053
853.50	-83.333
853.79	4.348
854.09	33.333
854.39	31.579
854.68	-12.500
854.98	16.129
855.28	-3.846
855.57	25.000
855.87	16.667
856.17	44.444
856.46	28.571
856.76	-46.667
857.05	22.222
857.35	28.000
857.65	22.222
857.94	0.000
858.24	31.034
858.53	-11.111
858.83	25.926
859.13	4.545
859.42	34.783
859.72	-175.000
860.01	-500.000
860.31	48.000
860.60	23.810
860.90	66.667
861.20	-66.667
861.49	-700.000
861.79	-60.000
862.08	-25.000
862.38	60.000
862.67	-320.000
862.97	0.000
863.26	-50.000
863.56	55.556
863.85	-366.667
864.15	27.778
864.44	-60.000
864.74	85.714
865.03	225.000
865.33	-160.000
865.62	-33.333
865.92	-108.333
866.21	-150.000
866.51	-18.750
866.80	-36.364
867.10	-550.000
867.39	-83.333
867.69	0.000
867.98	23.077
868.27	-233.333
868.57	-33.333
868.86	27.778
869.16	-76.923
869.45	-33.333
869.75	-1200.000
870.04	0.000
870.33	-85.714
870.63	28.571
870.92	366.667
871.22	-180.000
871.51	-500.000
871.80	55.556
872.10	466.667
>>>>>End Processed Spectral Data<<<<<
