SpectraSuite Data File
++++++++++++++++++++++++++++++++++++
Date: Fri May 15 20:42:43 PDT 2015
User: schluterlab
Dark Spectrum Present: Yes
Reference Spectrum Present: Yes
Number of Sampled Component Spectra: 1
Spectrometers: USB2E3373
Integration Time (usec): 3000 (USB2E3373)
Spectra Averaged: 3 (USB2E3373)
Boxcar Smoothing: 0 (USB2E3373)
Correct for Electrical Dark: No (USB2E3373)
Strobe/Lamp Enabled: No (USB2E3373)
Correct for Detector Non-linearity: No (USB2E3373)
Correct for Stray Light: No (USB2E3373)
Number of Pixels in Processed Spectrum: 2048
>>>>>Begin Processed Spectral Data<<<<<
178.53	0.000
178.91	0.000
179.29	37.500
179.67	-350.000
180.04	-28.571
180.42	75.000
180.80	600.000
181.18	-133.333
181.56	650.000
181.94	-350.000
182.31	-100.000
182.69	-20.000
183.07	-100.000
183.45	20.000
183.83	233.333
184.20	-63.636
184.58	133.333
184.96	50.000
185.34	-33.333
185.72	200.000
186.09	46.154
186.47	-800.000
186.85	233.333
187.23	144.444
187.61	-700.000
187.98	-300.000
188.36	-11.111
188.74	-400.000
189.12	-23.529
189.49	38.889
189.87	0.000
190.25	21.429
190.63	-200.000
191.00	133.333
191.38	5.263
191.76	0.000
192.14	25.000
192.51	150.000
192.89	-55.556
193.27	0.000
193.65	316.667
194.02	190.909
194.40	30.000
194.78	-250.000
195.15	-33.333
195.53	-137.500
195.91	400.000
196.29	100.000
196.66	123.077
197.04	57.143
197.42	-77.778
197.79	-300.000
198.17	-76.923
198.55	1400.000
198.92	-300.000
199.30	-600.000
199.68	60.000
200.05	-300.000
200.43	0.000
200.81	-33.333
201.18	-100.000
201.56	1500.000
201.94	-700.000
202.31	-66.667
202.69	-380.000
203.07	-25.000
203.44	-600.000
203.82	0.000
204.19	-35.714
204.57	-366.667
204.95	75.000
205.32	-20.000
205.70	-42.857
206.08	-225.000
206.45	100.000
206.83	92.857
207.20	-42.857
207.58	1000.000
207.96	-266.667
208.33	-70.000
208.71	25.000
209.08	-133.333
209.46	-1200.000
209.84	-40.000
210.21	-500.000
210.59	14.286
210.96	-83.333
211.34	0.000
211.71	13.333
212.09	-228.571
212.46	-2200.000
212.84	0.000
213.22	60.000
213.59	550.000
213.97	15.385
214.34	63.636
214.72	66.667
215.09	200.000
215.47	-23.077
215.84	-45.455
216.22	-133.333
216.59	-12.500
216.97	0.000
217.34	-25.000
217.72	-360.000
218.09	87.500
218.47	150.000
218.84	-800.000
219.22	-77.778
219.59	-140.000
219.97	133.333
220.34	150.000
220.72	128.571
221.09	-125.000
221.47	-350.000
221.84	-550.000
222.22	-450.000
222.59	-27.273
222.97	41.667
223.34	-300.000
223.72	28.571
224.09	28.571
224.46	21.429
224.84	433.333
225.21	-10.000
225.59	20.000
225.96	-50.000
226.34	275.000
226.71	-185.714
227.08	-233.333
227.46	0.000
227.83	-200.000
228.21	-33.333
228.58	45.455
228.95	-62.500
229.33	80.000
229.70	12.500
230.08	37.500
230.45	-128.571
230.82	-14.286
231.20	-53.333
231.57	0.000
231.95	-128.571
232.32	-120.000
232.69	0.000
233.07	-166.667
233.44	-200.000
233.81	-160.000
234.19	44.444
234.56	-35.294
234.93	100.000
235.31	-275.000
235.68	-400.000
236.05	-23.077
236.43	-35.000
236.80	-11.765
237.17	18.750
237.55	-20.000
237.92	-40.741
238.29	-2.778
238.67	16.667
239.04	-8.824
239.41	-24.390
239.79	13.333
240.16	-4.878
240.53	-15.789
240.91	-6.522
241.28	-3.175
241.65	-3.571
242.02	21.918
242.40	8.333
242.77	-16.949
243.14	-15.152
243.51	15.000
243.89	18.391
244.26	-4.598
244.63	3.571
245.00	4.124
245.38	9.278
245.75	-7.865
246.12	-0.862
246.49	3.306
246.87	8.654
247.24	-0.840
247.61	0.877
247.98	9.756
248.36	-1.875
248.73	11.842
249.10	4.545
249.47	7.595
249.84	3.922
250.22	12.353
250.59	-0.654
250.96	16.901
251.33	5.814
251.70	14.118
252.08	7.614
252.45	4.950
252.82	11.055
253.19	6.912
253.56	4.206
253.94	6.306
254.31	8.696
254.68	11.404
255.05	8.268
255.42	6.550
255.79	12.741
256.16	6.615
256.54	6.343
256.91	5.703
257.28	6.320
257.65	6.742
258.02	7.801
258.39	9.764
258.76	9.158
259.14	6.977
259.51	5.178
259.88	7.216
260.25	3.922
260.62	8.681
260.99	3.390
261.36	2.740
261.73	6.013
262.10	8.511
262.47	8.282
262.85	6.270
263.22	4.615
263.59	6.854
263.96	7.453
264.33	8.182
264.70	5.655
265.07	5.952
265.44	7.932
265.81	6.780
266.18	6.831
266.55	7.455
266.92	5.699
267.29	6.789
267.66	8.951
268.03	8.639
268.40	5.483
268.77	7.487
269.14	6.235
269.51	6.170
269.88	8.479
270.25	4.337
270.62	7.317
270.99	4.348
271.36	3.912
271.73	8.685
272.10	2.676
272.47	5.201
272.84	7.178
273.21	8.817
273.58	7.952
273.95	6.636
274.32	4.157
274.69	3.846
275.06	10.268
275.43	4.762
275.80	7.506
276.17	3.218
276.54	6.210
276.91	5.921
277.28	6.114
277.65	7.231
278.02	6.170
278.39	3.939
278.76	8.176
279.13	3.734
279.50	6.303
279.87	7.775
280.23	2.581
280.60	8.382
280.97	9.091
281.34	4.808
281.71	8.830
282.08	6.135
282.45	4.305
282.82	5.792
283.19	6.383
283.56	6.744
283.92	4.364
284.29	4.808
284.66	6.395
285.03	6.876
285.40	7.372
285.77	5.097
286.14	6.137
286.51	7.196
286.87	5.667
287.24	4.788
287.61	8.289
287.98	6.316
288.35	7.452
288.72	7.180
289.08	5.035
289.45	7.909
289.82	5.245
290.19	6.655
290.56	5.832
290.93	5.556
291.29	6.934
291.66	7.244
292.03	6.380
292.40	5.484
292.77	4.306
293.13	3.084
293.50	5.766
293.87	7.634
294.24	5.873
294.60	6.259
294.97	6.548
295.34	4.448
295.71	7.452
296.08	5.979
296.44	3.983
296.81	4.861
297.18	5.942
297.55	7.995
297.91	5.068
298.28	6.992
298.65	5.427
299.02	5.256
299.38	3.694
299.75	5.379
300.12	5.890
300.48	4.480
300.85	6.844
301.22	4.026
301.59	5.395
301.95	6.456
302.32	6.485
302.69	4.726
303.05	5.941
303.42	5.604
303.79	7.009
304.15	6.332
304.52	4.994
304.89	5.029
305.25	5.085
305.62	5.251
305.99	4.444
306.35	4.855
306.72	5.737
307.09	4.561
307.45	4.822
307.82	6.134
308.19	7.085
308.55	5.125
308.92	6.427
309.29	4.469
309.65	6.136
310.02	5.721
310.38	6.037
310.75	5.683
311.12	6.351
311.48	6.151
311.85	5.026
312.22	5.907
312.58	5.626
312.95	6.190
313.31	5.901
313.68	5.969
314.05	5.816
314.41	5.979
314.78	6.082
315.14	7.194
315.51	6.936
315.87	5.840
316.24	8.291
316.61	7.776
316.97	8.234
317.34	7.227
317.70	7.457
318.07	7.115
318.43	7.157
318.80	8.239
319.16	8.203
319.53	8.927
319.89	8.366
320.26	9.312
320.62	8.826
320.99	8.455
321.35	8.839
321.72	9.657
322.08	9.869
322.45	9.949
322.81	9.234
323.18	10.010
323.54	10.907
323.91	10.127
324.27	11.914
324.64	11.517
325.00	11.953
325.37	12.213
325.73	10.607
326.10	11.353
326.46	13.453
326.83	12.511
327.19	12.642
327.56	12.250
327.92	12.324
328.29	12.411
328.65	12.830
329.01	12.868
329.38	12.535
329.74	12.559
330.11	12.882
330.47	13.265
330.84	12.115
331.20	14.829
331.56	12.778
331.93	14.795
332.29	13.199
332.66	14.932
333.02	12.732
333.38	12.832
333.75	13.919
334.11	13.071
334.48	14.869
334.84	14.469
335.20	13.998
335.57	13.237
335.93	13.550
336.29	13.904
336.66	12.807
337.02	13.011
337.38	12.963
337.75	13.636
338.11	13.706
338.47	14.142
338.84	13.771
339.20	13.437
339.56	14.679
339.93	13.787
340.29	14.128
340.65	13.620
341.02	13.741
341.38	13.894
341.74	13.163
342.11	13.172
342.47	14.057
342.83	14.014
343.20	13.676
343.56	14.435
343.92	14.438
344.28	14.518
344.65	12.522
345.01	12.446
345.37	14.130
345.73	14.226
346.10	13.374
346.46	14.886
346.82	13.175
347.19	13.383
347.55	13.701
347.91	14.078
348.27	14.470
348.63	13.714
349.00	12.633
349.36	14.381
349.72	13.847
350.08	13.197
350.45	13.887
350.81	12.708
351.17	13.274
351.53	14.776
351.89	12.386
352.26	13.680
352.62	13.145
352.98	13.494
353.34	12.238
353.70	13.673
354.07	13.871
354.43	13.771
354.79	13.708
355.15	13.254
355.51	14.241
355.87	14.482
356.24	13.785
356.60	13.581
356.96	13.651
357.32	13.578
357.68	12.979
358.04	13.974
358.40	13.746
358.77	12.998
359.13	14.331
359.49	12.866
359.85	13.573
360.21	14.035
360.57	12.701
360.93	13.540
361.29	12.311
361.66	13.950
362.02	14.394
362.38	14.166
362.74	13.399
363.10	14.447
363.46	14.159
363.82	15.026
364.18	13.653
364.54	13.456
364.90	13.477
365.26	14.338
365.62	14.161
365.98	13.930
366.35	13.911
366.71	14.560
367.07	13.643
367.43	13.587
367.79	14.134
368.15	14.142
368.51	14.057
368.87	13.209
369.23	13.791
369.59	13.921
369.95	14.370
370.31	14.090
370.67	13.060
371.03	13.069
371.39	13.786
371.75	14.139
372.11	14.408
372.47	14.497
372.83	14.549
373.19	15.050
373.55	14.152
373.91	12.887
374.27	14.458
374.63	14.358
374.99	13.262
375.35	14.694
375.71	13.566
376.07	13.834
376.42	14.218
376.78	14.631
377.14	13.879
377.50	14.874
377.86	14.391
378.22	14.614
378.58	14.103
378.94	13.611
379.30	14.036
379.66	14.922
380.02	13.795
380.38	13.755
380.74	13.585
381.09	14.969
381.45	14.067
381.81	14.065
382.17	14.213
382.53	13.804
382.89	14.250
383.25	14.872
383.61	14.024
383.97	14.222
384.32	14.196
384.68	13.746
385.04	13.174
385.40	13.441
385.76	14.780
386.12	13.907
386.48	14.943
386.83	14.268
387.19	14.347
387.55	14.366
387.91	14.181
388.27	13.614
388.62	14.160
388.98	14.119
389.34	14.366
389.70	14.916
390.06	13.468
390.42	14.313
390.77	13.865
391.13	14.250
391.49	14.489
391.85	14.165
392.20	13.434
392.56	13.223
392.92	13.858
393.28	14.505
393.64	13.874
393.99	14.859
394.35	13.030
394.71	15.326
395.07	14.331
395.42	13.843
395.78	13.811
396.14	14.187
396.50	14.268
396.85	14.424
397.21	14.035
397.57	13.793
397.92	13.841
398.28	14.368
398.64	13.133
399.00	13.544
399.35	13.600
399.71	13.038
400.07	14.208
400.42	13.280
400.78	13.717
401.14	13.854
401.49	13.818
401.85	13.041
402.21	13.494
402.57	13.625
402.92	12.547
403.28	13.283
403.63	13.745
403.99	12.883
404.35	12.992
404.70	12.857
405.06	12.280
405.42	13.114
405.77	12.377
406.13	12.864
406.49	12.197
406.84	12.653
407.20	13.004
407.55	12.041
407.91	12.567
408.27	12.683
408.62	12.677
408.98	12.816
409.34	12.206
409.69	11.822
410.05	11.823
410.40	12.778
410.76	13.390
411.11	12.687
411.47	13.544
411.83	12.116
412.18	12.420
412.54	12.110
412.89	11.330
413.25	12.335
413.60	12.298
413.96	11.902
414.31	12.500
414.67	11.738
415.03	11.784
415.38	11.945
415.74	11.987
416.09	12.671
416.45	12.424
416.80	12.161
417.16	12.776
417.51	12.258
417.87	11.278
418.22	12.370
418.58	11.906
418.93	12.351
419.29	10.948
419.64	12.832
420.00	13.098
420.35	11.881
420.71	12.637
421.06	13.198
421.42	12.800
421.77	12.023
422.12	11.464
422.48	12.182
422.83	12.645
423.19	12.472
423.54	11.229
423.90	12.426
424.25	11.998
424.61	12.791
424.96	12.718
425.31	12.536
425.67	11.913
426.02	12.309
426.38	13.024
426.73	13.015
427.09	13.291
427.44	12.588
427.79	12.964
428.15	13.107
428.50	12.841
428.85	11.916
429.21	12.224
429.56	12.722
429.92	12.532
430.27	12.431
430.62	12.284
430.98	12.473
431.33	12.513
431.68	12.768
432.04	13.583
432.39	12.721
432.74	12.447
433.10	13.448
433.45	12.605
433.80	12.014
434.16	12.632
434.51	12.957
434.86	13.066
435.22	12.731
435.57	12.664
435.92	13.054
436.28	12.821
436.63	12.493
436.98	12.399
437.34	12.644
437.69	13.178
438.04	13.276
438.39	12.584
438.75	12.325
439.10	12.903
439.45	13.147
439.81	12.232
440.16	13.242
440.51	13.433
440.86	14.562
441.22	13.857
441.57	13.245
441.92	14.166
442.27	14.080
442.63	14.133
442.98	14.647
443.33	13.411
443.68	13.422
444.03	13.810
444.39	13.674
444.74	14.381
445.09	13.753
445.44	13.846
445.79	14.440
446.15	13.436
446.50	13.977
446.85	13.709
447.20	14.077
447.55	14.565
447.91	14.157
448.26	14.115
448.61	14.335
448.96	14.917
449.31	14.855
449.66	14.808
450.02	14.546
450.37	15.471
450.72	14.490
451.07	15.063
451.42	14.295
451.77	14.828
452.12	13.218
452.47	15.003
452.83	14.252
453.18	14.042
453.53	14.665
453.88	14.936
454.23	14.628
454.58	14.987
454.93	15.464
455.28	14.857
455.63	14.817
455.98	14.973
456.34	14.623
456.69	14.994
457.04	15.060
457.39	14.338
457.74	15.478
458.09	14.950
458.44	14.862
458.79	14.398
459.14	14.760
459.49	15.284
459.84	15.454
460.19	15.655
460.54	14.731
460.89	15.455
461.24	14.658
461.59	14.905
461.94	15.220
462.29	15.380
462.64	15.681
462.99	15.301
463.34	14.743
463.69	14.736
464.04	15.133
464.39	14.979
464.74	14.540
465.09	14.972
465.44	14.887
465.79	14.796
466.14	15.393
466.49	14.606
466.84	15.110
467.19	15.457
467.54	15.326
467.89	14.845
468.24	14.477
468.59	15.683
468.94	14.540
469.29	15.607
469.64	15.106
469.99	15.277
470.34	12.969
470.68	14.989
471.03	15.640
471.38	14.265
471.73	15.126
472.08	14.858
472.43	13.960
472.78	14.531
473.13	14.762
473.48	14.853
473.83	14.259
474.17	14.508
474.52	14.167
474.87	15.697
475.22	15.253
475.57	13.947
475.92	15.469
476.27	14.726
476.61	14.988
476.96	14.724
477.31	15.251
477.66	14.607
478.01	14.711
478.36	14.325
478.70	15.117
479.05	14.780
479.40	14.944
479.75	14.025
480.10	14.542
480.45	15.050
480.79	14.955
481.14	14.908
481.49	14.975
481.84	14.382
482.19	14.500
482.53	14.820
482.88	14.702
483.23	14.731
483.58	14.481
483.92	14.618
484.27	14.448
484.62	14.433
484.97	14.469
485.31	13.837
485.66	13.810
486.01	14.103
486.36	14.054
486.70	14.270
487.05	14.385
487.40	13.961
487.75	13.803
488.09	14.030
488.44	14.546
488.79	14.083
489.13	14.744
489.48	14.365
489.83	14.439
490.17	14.427
490.52	13.857
490.87	13.466
491.22	13.945
491.56	13.520
491.91	14.054
492.26	14.293
492.60	14.443
492.95	15.248
493.30	13.727
493.64	14.096
493.99	14.300
494.34	13.495
494.68	13.381
495.03	13.771
495.37	13.592
495.72	13.781
496.07	14.098
496.41	13.302
496.76	13.680
497.11	13.321
497.45	14.129
497.80	14.228
498.14	14.655
498.49	13.103
498.84	13.423
499.18	13.604
499.53	13.839
499.87	13.521
500.22	13.155
500.56	13.111
500.91	13.303
501.26	13.149
501.60	13.428
501.95	13.440
502.29	13.414
502.64	14.575
502.98	13.370
503.33	12.776
503.67	13.590
504.02	13.196
504.36	13.904
504.71	13.939
505.06	13.236
505.40	14.061
505.75	13.711
506.09	13.127
506.44	14.168
506.78	13.673
507.13	14.840
507.47	13.003
507.82	13.408
508.16	12.995
508.51	13.903
508.85	13.448
509.19	13.145
509.54	14.316
509.88	13.808
510.23	13.878
510.57	14.057
510.92	12.420
511.26	13.639
511.61	13.806
511.95	13.753
512.30	13.359
512.64	13.968
512.98	13.363
513.33	13.151
513.67	13.928
514.02	13.387
514.36	14.343
514.70	13.462
515.05	13.984
515.39	13.695
515.74	14.371
516.08	13.389
516.42	14.193
516.77	14.102
517.11	14.065
517.46	13.525
517.80	14.541
518.14	13.656
518.49	13.341
518.83	13.548
519.17	14.251
519.52	13.973
519.86	13.806
520.20	14.034
520.55	13.321
520.89	14.178
521.23	13.616
521.58	14.006
521.92	14.487
522.26	14.249
522.61	13.701
522.95	14.040
523.29	14.422
523.64	14.168
523.98	13.999
524.32	13.209
524.66	13.444
525.01	13.636
525.35	14.193
525.69	12.929
526.04	12.765
526.38	14.981
526.72	13.931
527.06	14.137
527.41	14.050
527.75	13.204
528.09	13.488
528.43	13.842
528.78	13.861
529.12	14.387
529.46	14.295
529.80	13.996
530.15	13.795
530.49	13.401
530.83	13.953
531.17	12.827
531.51	13.680
531.86	13.256
532.20	12.596
532.54	13.683
532.88	13.963
533.22	13.038
533.57	13.696
533.91	13.120
534.25	13.346
534.59	13.342
534.93	13.531
535.27	12.754
535.62	12.897
535.96	13.829
536.30	13.720
536.64	13.439
536.98	12.265
537.32	14.083
537.66	13.955
538.01	12.867
538.35	13.662
538.69	13.848
539.03	12.782
539.37	13.863
539.71	13.974
540.05	13.238
540.39	12.535
540.73	13.040
541.07	13.398
541.42	13.306
541.76	13.833
542.10	13.283
542.44	13.204
542.78	12.388
543.12	13.049
543.46	13.700
543.80	13.255
544.14	12.483
544.48	14.191
544.82	13.534
545.16	14.003
545.50	13.952
545.84	13.385
546.18	13.404
546.52	13.482
546.86	13.444
547.20	12.876
547.54	12.367
547.88	14.198
548.22	12.952
548.56	13.588
548.90	13.544
549.24	11.983
549.58	13.752
549.92	12.866
550.26	12.674
550.60	13.160
550.94	13.368
551.28	12.983
551.62	13.385
551.96	13.459
552.30	12.865
552.64	12.764
552.98	12.236
553.32	12.696
553.66	12.554
554.00	13.066
554.34	12.777
554.68	12.389
555.02	12.798
555.36	13.014
555.69	12.015
556.03	12.491
556.37	12.242
556.71	12.635
557.05	13.050
557.39	13.234
557.73	12.669
558.07	13.273
558.41	12.557
558.75	13.484
559.08	13.160
559.42	13.254
559.76	12.490
560.10	13.609
560.44	12.211
560.78	12.587
561.12	12.835
561.45	13.001
561.79	13.235
562.13	11.568
562.47	12.230
562.81	13.329
563.15	12.976
563.48	12.518
563.82	13.727
564.16	11.630
564.50	12.770
564.84	12.316
565.17	12.609
565.51	12.705
565.85	13.237
566.19	12.268
566.52	12.668
566.86	12.982
567.20	12.204
567.54	12.409
567.88	12.478
568.21	12.500
568.55	11.304
568.89	13.193
569.23	12.181
569.56	12.741
569.90	12.343
570.24	11.723
570.57	12.582
570.91	12.583
571.25	12.068
571.59	11.585
571.92	11.793
572.26	11.745
572.60	12.124
572.93	12.080
573.27	11.755
573.61	12.023
573.95	11.824
574.28	11.441
574.62	11.467
574.96	11.643
575.29	11.206
575.63	11.246
575.97	11.629
576.30	11.639
576.64	11.338
576.98	11.892
577.31	12.042
577.65	11.606
577.98	11.686
578.32	11.512
578.66	11.283
578.99	11.628
579.33	11.366
579.67	11.658
580.00	11.291
580.34	11.617
580.67	11.523
581.01	11.912
581.35	11.671
581.68	11.277
582.02	11.231
582.35	11.123
582.69	11.492
583.02	11.621
583.36	11.616
583.70	12.098
584.03	12.149
584.37	12.055
584.70	11.648
585.04	11.088
585.37	11.523
585.71	11.627
586.04	11.548
586.38	11.363
586.72	12.253
587.05	11.467
587.39	11.854
587.72	12.192
588.06	12.206
588.39	11.763
588.73	11.813
589.06	12.100
589.40	12.306
589.73	11.975
590.07	12.009
590.40	11.920
590.73	12.479
591.07	11.959
591.40	11.754
591.74	12.036
592.07	12.755
592.41	12.367
592.74	11.390
593.08	11.526
593.41	11.960
593.75	11.744
594.08	11.432
594.41	11.499
594.75	11.756
595.08	12.032
595.42	11.851
595.75	12.129
596.09	11.845
596.42	11.988
596.75	12.167
597.09	12.346
597.42	11.698
597.75	11.498
598.09	12.087
598.42	11.597
598.76	11.283
599.09	11.378
599.42	11.633
599.76	11.813
600.09	11.538
600.42	11.865
600.76	11.441
601.09	11.641
601.42	11.594
601.76	11.711
602.09	11.304
602.42	11.752
602.76	11.503
603.09	11.711
603.42	11.789
603.76	11.169
604.09	11.665
604.42	11.802
604.76	12.283
605.09	12.706
605.42	11.919
605.75	12.434
606.09	11.253
606.42	11.718
606.75	11.212
607.09	12.000
607.42	10.855
607.75	11.190
608.08	11.815
608.42	11.741
608.75	11.470
609.08	11.011
609.41	11.320
609.75	12.349
610.08	11.882
610.41	11.159
610.74	11.507
611.07	11.835
611.41	11.884
611.74	12.420
612.07	11.296
612.40	12.035
612.73	11.638
613.07	11.305
613.40	11.324
613.73	10.520
614.06	11.797
614.39	11.562
614.72	11.261
615.06	11.788
615.39	12.118
615.72	10.388
616.05	11.788
616.38	11.225
616.71	10.826
617.05	11.489
617.38	11.628
617.71	11.447
618.04	11.873
618.37	12.421
618.70	11.353
619.03	13.264
619.36	10.781
619.69	12.206
620.03	11.760
620.36	10.801
620.69	12.277
621.02	10.856
621.35	12.033
621.68	11.650
622.01	12.417
622.34	11.732
622.67	11.514
623.00	11.792
623.33	11.738
623.66	11.294
623.99	11.422
624.32	12.243
624.65	9.925
624.99	12.566
625.32	10.614
625.65	13.040
625.98	12.490
626.31	11.305
626.64	12.305
626.97	12.565
627.30	11.996
627.63	11.958
627.96	12.848
628.29	10.546
628.62	12.094
628.95	11.623
629.28	11.190
629.61	12.064
629.94	12.317
630.26	11.561
630.59	12.695
630.92	12.923
631.25	11.897
631.58	11.674
631.91	11.404
632.24	11.239
632.57	12.614
632.90	12.930
633.23	12.706
633.56	10.831
633.89	10.727
634.22	11.728
634.55	13.342
634.88	11.877
635.20	12.051
635.53	12.400
635.86	12.094
636.19	12.160
636.52	11.480
636.85	11.166
637.18	11.572
637.51	12.956
637.83	11.170
638.16	12.824
638.49	10.627
638.82	14.079
639.15	12.347
639.48	11.142
639.81	11.437
640.13	11.688
640.46	11.079
640.79	11.046
641.12	11.965
641.45	11.261
641.77	12.889
642.10	12.322
642.43	11.254
642.76	14.191
643.09	12.439
643.41	12.945
643.74	11.532
644.07	13.793
644.40	14.020
644.73	11.559
645.05	11.409
645.38	11.287
645.71	10.816
646.04	12.388
646.36	11.525
646.69	14.928
647.02	12.287
647.35	11.940
647.67	12.797
648.00	14.366
648.33	13.481
648.66	11.356
648.98	8.208
649.31	10.248
649.64	11.303
649.96	9.562
650.29	11.925
650.62	11.795
650.94	11.667
651.27	12.849
651.60	12.793
651.92	11.189
652.25	12.789
652.58	11.667
652.90	11.664
653.23	9.916
653.56	11.337
653.88	12.543
654.21	8.231
654.54	9.847
654.86	11.375
655.19	12.427
655.52	11.533
655.84	9.838
656.17	10.755
656.49	14.666
656.82	15.630
657.15	11.928
657.47	9.045
657.80	6.766
658.13	6.675
658.45	10.483
658.78	10.938
659.10	10.382
659.43	11.175
659.75	10.311
660.08	10.552
660.41	10.623
660.73	12.983
661.06	12.132
661.38	10.763
661.71	10.883
662.03	13.305
662.36	12.088
662.68	10.177
663.01	12.227
663.33	8.121
663.66	7.442
663.98	10.698
664.31	12.793
664.63	8.525
664.96	12.174
665.28	10.375
665.61	11.688
665.93	13.478
666.26	11.063
666.58	7.830
666.91	10.353
667.23	12.736
667.56	11.374
667.88	13.429
668.21	10.501
668.53	9.693
668.86	12.028
669.18	12.264
669.50	10.896
669.83	10.233
670.15	12.587
670.48	9.809
670.80	12.442
671.13	11.409
671.45	11.872
671.77	11.373
672.10	13.663
672.42	11.798
672.75	11.012
673.07	13.596
673.39	11.560
673.72	10.059
674.04	12.708
674.37	11.229
674.69	11.991
675.01	11.333
675.34	10.360
675.66	10.417
675.98	15.078
676.31	8.945
676.63	10.214
676.95	11.591
677.28	11.765
677.60	9.880
677.92	11.468
678.25	12.035
678.57	11.688
678.89	9.664
679.22	9.620
679.54	12.249
679.86	8.946
680.18	11.262
680.51	12.500
680.83	8.748
681.15	9.600
681.48	11.680
681.80	11.157
682.12	9.073
682.44	9.414
682.77	9.934
683.09	9.840
683.41	11.591
683.73	12.673
684.06	13.938
684.38	9.677
684.70	13.072
685.02	8.506
685.34	9.881
685.67	9.193
685.99	10.488
686.31	11.858
686.63	12.245
686.96	8.555
687.28	9.091
687.60	8.745
687.92	14.141
688.24	10.685
688.56	10.917
688.89	8.705
689.21	12.444
689.53	8.121
689.85	8.372
690.17	12.054
690.49	9.220
690.82	9.223
691.14	10.238
691.46	10.280
691.78	11.712
692.10	10.323
692.42	10.823
692.74	11.752
693.06	8.784
693.39	7.240
693.71	9.729
694.03	11.085
694.35	9.813
694.67	10.859
694.99	10.183
695.31	10.183
695.63	13.250
695.95	7.828
696.27	8.290
696.59	13.611
696.91	9.244
697.23	9.769
697.56	5.693
697.88	12.043
698.20	9.795
698.52	9.412
698.84	11.005
699.16	10.250
699.48	8.271
699.80	10.670
700.12	10.512
700.44	13.725
700.76	8.721
701.08	7.879
701.40	9.337
701.72	14.198
702.04	12.871
702.36	6.689
702.68	7.808
703.00	10.909
703.32	9.091
703.64	9.605
703.96	11.014
704.28	11.963
704.60	9.206
704.91	7.256
705.23	9.635
705.55	13.074
705.87	8.664
706.19	8.519
706.51	10.309
706.83	13.505
707.15	7.477
707.47	9.804
707.79	10.156
708.11	11.250
708.43	12.000
708.74	7.752
709.06	12.676
709.38	9.480
709.70	10.651
710.02	8.599
710.34	13.622
710.66	7.051
710.98	6.954
711.29	12.787
711.61	10.169
711.93	12.052
712.25	11.684
712.57	8.791
712.89	10.448
713.20	10.035
713.52	10.801
713.84	12.287
714.16	7.560
714.48	8.065
714.80	8.974
715.11	10.030
715.43	5.643
715.75	6.667
716.07	7.309
716.39	8.054
716.70	8.856
717.02	6.870
717.34	15.789
717.66	9.735
717.97	6.087
718.29	7.950
718.61	9.449
718.93	8.527
719.24	9.886
719.56	11.245
719.88	13.402
720.20	11.364
720.51	9.962
720.83	9.653
721.15	12.185
721.46	11.290
721.78	7.510
722.10	8.550
722.42	6.639
722.73	8.571
723.05	11.429
723.37	15.254
723.68	10.811
724.00	14.957
724.32	9.778
724.63	1.818
724.95	11.790
725.27	9.677
725.58	7.203
725.90	8.333
726.22	8.880
726.53	13.220
726.85	7.865
727.16	11.321
727.48	10.121
727.80	7.287
728.11	7.203
728.43	8.627
728.74	4.032
729.06	7.600
729.38	10.150
729.69	5.179
730.01	8.846
730.32	14.925
730.64	12.367
730.96	7.547
731.27	9.667
731.59	7.119
731.90	10.510
732.22	11.356
732.53	12.292
732.85	9.220
733.16	14.815
733.48	4.676
733.80	6.159
734.11	10.508
734.43	7.904
734.74	10.303
735.06	8.143
735.37	11.782
735.69	11.448
736.00	8.362
736.32	8.389
736.63	8.451
736.95	12.287
737.26	9.253
737.58	7.383
737.89	9.158
738.21	9.398
738.52	9.877
738.83	8.734
739.15	5.677
739.46	11.417
739.78	5.495
740.09	9.150
740.41	12.681
740.72	4.724
741.04	11.741
741.35	11.064
741.66	7.109
741.98	10.204
742.29	6.931
742.61	14.660
742.92	6.161
743.23	6.019
743.55	7.692
743.86	9.569
744.18	11.483
744.49	5.851
744.80	7.609
745.12	10.160
745.43	6.341
745.74	8.333
746.06	10.732
746.37	5.759
746.68	15.166
747.00	7.447
747.31	14.925
747.62	10.194
747.94	9.091
748.25	5.941
748.56	12.568
748.88	10.471
749.19	14.362
749.50	10.345
749.82	4.717
750.13	3.670
750.44	10.902
750.75	11.567
751.07	14.234
751.38	13.793
751.69	6.275
752.01	10.853
752.32	5.179
752.63	7.115
752.94	5.603
753.26	15.900
753.57	9.050
753.88	9.292
754.19	7.083
754.51	5.785
754.82	4.858
755.13	11.250
755.44	9.274
755.75	10.547
756.07	8.949
756.38	7.170
756.69	8.046
757.00	9.333
757.31	7.190
757.63	9.146
757.94	9.167
758.25	6.849
758.56	7.447
758.87	7.365
759.18	8.723
759.50	5.455
759.81	9.365
760.12	8.387
760.43	8.788
760.74	8.333
761.05	6.154
761.36	6.250
761.67	10.303
761.99	10.884
762.30	10.545
762.61	12.648
762.92	8.597
763.23	9.910
763.54	10.280
763.85	9.322
764.16	6.224
764.47	3.629
764.78	7.326
765.10	12.458
765.41	3.155
765.72	11.429
766.03	3.008
766.34	10.584
766.65	11.554
766.96	5.051
767.27	5.319
767.58	9.195
767.89	2.128
768.20	9.091
768.51	4.945
768.82	8.374
769.13	5.530
769.44	10.300
769.75	2.740
770.06	13.362
770.37	3.365
770.68	6.091
770.99	11.312
771.30	6.863
771.61	5.882
771.92	12.069
772.23	9.852
772.54	9.140
772.85	3.704
773.16	15.730
773.47	13.725
773.78	18.301
774.09	8.982
774.39	6.667
774.70	11.465
775.01	13.103
775.32	15.000
775.63	3.306
775.94	9.924
776.25	11.811
776.56	10.833
776.87	0.962
777.18	11.111
777.48	17.241
777.79	6.087
778.10	-4.762
778.41	3.604
778.72	3.968
779.03	12.782
779.34	4.965
779.65	14.384
779.95	0.000
780.26	13.793
780.57	0.000
780.88	10.236
781.19	14.655
781.50	-1.550
781.80	11.243
782.11	3.145
782.42	10.000
782.73	1.439
783.04	12.593
783.34	-5.556
783.65	-0.855
783.96	4.918
784.27	6.897
784.57	1.626
784.88	12.500
785.19	5.000
785.50	8.000
785.81	22.414
786.11	-0.862
786.42	4.854
786.73	8.182
787.04	2.041
787.34	8.036
787.65	4.762
787.96	-4.425
788.26	14.545
788.57	3.419
788.88	17.188
789.19	6.349
789.49	6.087
789.80	-9.184
790.11	19.192
790.41	6.364
790.72	18.478
791.03	1.136
791.33	3.750
791.64	11.250
791.95	2.326
792.25	11.702
792.56	22.472
792.87	0.000
793.17	-1.449
793.48	-13.333
793.79	5.000
794.09	20.000
794.40	4.717
794.70	-4.854
795.01	8.130
795.32	0.855
795.62	6.667
795.93	3.922
796.23	8.491
796.54	14.583
796.85	5.882
797.15	18.310
797.46	8.333
797.76	6.061
798.07	12.791
798.37	0.000
798.68	1.515
798.99	7.407
799.29	1.429
799.60	-13.043
799.90	8.000
800.21	8.197
800.51	0.000
800.82	-10.169
801.12	-5.797
801.43	13.115
801.73	15.873
802.04	8.000
802.34	25.373
802.65	1.923
802.95	-5.357
803.26	-13.462
803.56	23.529
803.87	-13.043
804.17	17.333
804.48	25.397
804.78	-7.407
805.09	-8.696
805.39	-24.444
805.70	-5.556
806.00	1.754
806.30	1.408
806.61	10.000
806.91	-6.944
807.22	6.579
807.52	16.000
807.83	-10.909
808.13	2.778
808.43	10.294
808.74	5.970
809.04	-10.169
809.35	-3.846
809.65	-3.125
809.95	-35.135
810.26	-11.364
810.56	15.068
810.86	-38.095
811.17	0.000
811.47	24.490
811.77	-21.053
812.08	-9.091
812.38	7.547
812.69	-10.000
812.99	-36.364
813.29	2.632
813.59	-8.571
813.90	-13.636
814.20	-46.154
814.50	1.923
814.81	-11.321
815.11	-23.404
815.41	23.729
815.72	7.143
816.02	9.804
816.32	18.750
816.62	-14.634
816.93	-21.622
817.23	-28.571
817.53	2.083
817.84	4.348
818.14	7.692
818.44	-23.684
818.74	30.435
819.04	-27.500
819.35	-5.405
819.65	17.647
819.95	-22.222
820.25	-4.762
820.56	17.500
820.86	-62.069
821.16	12.500
821.46	14.894
821.76	10.000
822.07	-2.326
822.37	-2.703
822.67	0.000
822.97	19.048
823.27	-35.714
823.57	-4.000
823.88	-44.444
824.18	-14.286
824.48	17.647
824.78	-22.581
825.08	-21.739
825.38	-9.091
825.69	-37.500
825.99	-18.421
826.29	2.778
826.59	-20.000
826.89	-100.000
827.19	13.043
827.49	22.500
827.79	20.000
828.09	7.143
828.39	15.152
828.70	37.838
829.00	28.571
829.30	-61.905
829.60	16.667
829.90	18.750
830.20	-15.789
830.50	-29.630
830.80	-17.391
831.10	-9.091
831.40	36.364
831.70	3.226
832.00	19.048
832.30	-47.619
832.60	33.333
832.90	-34.483
833.20	5.000
833.50	24.242
833.80	3.704
834.10	-7.692
834.40	-6.250
834.70	-22.222
835.00	21.053
835.30	50.000
835.60	-80.000
835.90	-12.903
836.20	-27.273
836.50	7.143
836.80	-34.615
837.10	-3.571
837.40	-100.000
837.70	31.818
838.00	-100.000
838.30	4.348
838.60	-53.846
838.90	22.727
839.19	-7.143
839.49	3.333
839.79	-15.385
840.09	-75.000
840.39	25.000
840.69	-10.714
840.99	-19.231
841.29	-36.842
841.59	50.000
841.88	-45.455
842.18	0.000
842.48	31.250
842.78	20.000
843.08	25.926
843.38	-130.000
843.68	4.348
843.97	-33.333
844.27	-33.333
844.57	-5.000
844.87	-33.333
845.17	-4.762
845.47	-20.000
845.76	-33.333
846.06	-11.765
846.36	0.000
846.66	-57.143
846.96	60.000
847.25	-162.500
847.55	-7.143
847.85	-50.000
848.15	22.727
848.44	-333.333
848.74	10.000
849.04	18.519
849.34	-27.273
849.63	116.667
849.93	-260.000
850.23	-38.889
850.53	10.000
850.82	-53.846
851.12	-44.444
851.42	-66.667
851.71	-34.615
852.01	21.429
852.31	-150.000
852.61	-63.636
852.90	-10.000
853.20	0.000
853.50	-25.000
853.79	-4.348
854.09	50.000
854.39	-42.105
854.68	-50.000
854.98	6.452
855.28	15.385
855.57	-10.000
855.87	5.556
856.17	59.259
856.46	-57.143
856.76	0.000
857.05	-44.444
857.35	-8.000
857.65	16.667
857.94	-130.769
858.24	31.034
858.53	27.778
858.83	59.259
859.13	31.818
859.42	-21.739
859.72	-50.000
860.01	-366.667
860.31	4.000
860.60	14.286
860.90	-233.333
861.20	-40.000
861.49	150.000
861.79	-60.000
862.08	5.000
862.38	73.333
862.67	-100.000
862.97	-83.333
863.26	50.000
863.56	55.556
863.85	-233.333
864.15	-22.222
864.44	-40.000
864.74	14.286
865.03	275.000
865.33	-80.000
865.62	-100.000
865.92	-100.000
866.21	-83.333
866.51	6.250
866.80	-27.273
867.10	-100.000
867.39	83.333
867.69	0.000
867.98	23.077
868.27	-266.667
868.57	-20.000
868.86	-11.111
869.16	-53.846
869.45	53.333
869.75	-900.000
870.04	0.000
870.33	-100.000
870.63	28.571
870.92	300.000
871.22	-100.000
871.51	-600.000
871.80	-100.000
872.10	266.667
>>>>>End Processed Spectral Data<<<<<
