SpectraSuite Data File
++++++++++++++++++++++++++++++++++++
Date: Fri May 15 20:49:30 PDT 2015
User: schluterlab
Dark Spectrum Present: Yes
Reference Spectrum Present: Yes
Number of Sampled Component Spectra: 1
Spectrometers: USB2E3373
Integration Time (usec): 3000 (USB2E3373)
Spectra Averaged: 3 (USB2E3373)
Boxcar Smoothing: 0 (USB2E3373)
Correct for Electrical Dark: No (USB2E3373)
Strobe/Lamp Enabled: No (USB2E3373)
Correct for Detector Non-linearity: No (USB2E3373)
Correct for Stray Light: No (USB2E3373)
Number of Pixels in Processed Spectrum: 2048
>>>>>Begin Processed Spectral Data<<<<<
178.53	0.000
178.91	0.000
179.29	0.000
179.67	-50.000
180.04	14.286
180.42	0.000
180.80	-800.000
181.18	233.333
181.56	300.000
181.94	-350.000
182.31	1000.000
182.69	120.000
183.07	-300.000
183.45	0.000
183.83	200.000
184.20	36.364
184.58	311.111
184.96	75.000
185.34	-100.000
185.72	-400.000
186.09	123.077
186.47	-1000.000
186.85	266.667
187.23	177.778
187.61	300.000
187.98	-233.333
188.36	55.556
188.74	-400.000
189.12	29.412
189.49	22.222
189.87	0.000
190.25	0.000
190.63	-300.000
191.00	-366.667
191.38	-10.526
191.76	0.000
192.14	175.000
192.51	-200.000
192.89	-22.222
193.27	-128.571
193.65	233.333
194.02	145.455
194.40	-70.000
194.78	-162.500
195.15	-50.000
195.53	-62.500
195.91	375.000
196.29	-325.000
196.66	100.000
197.04	257.143
197.42	-55.556
197.79	-366.667
198.17	-76.923
198.55	1400.000
198.92	-433.333
199.30	-300.000
199.68	-280.000
200.05	-366.667
200.43	0.000
200.81	-66.667
201.18	-500.000
201.56	1500.000
201.94	-1100.000
202.31	100.000
202.69	-120.000
203.07	150.000
203.44	-500.000
203.82	0.000
204.19	-14.286
204.57	-500.000
204.95	125.000
205.32	0.000
205.70	-114.286
206.08	-225.000
206.45	144.444
206.83	0.000
207.20	-157.143
207.58	800.000
207.96	-433.333
208.33	-110.000
208.71	-25.000
209.08	-100.000
209.46	-1900.000
209.84	-80.000
210.21	-800.000
210.59	0.000
210.96	0.000
211.34	-300.000
211.71	-6.667
212.09	-228.571
212.46	-1400.000
212.84	0.000
213.22	-30.000
213.59	750.000
213.97	0.000
214.34	9.091
214.72	-100.000
215.09	200.000
215.47	-38.462
215.84	-90.909
216.22	-66.667
216.59	-75.000
216.97	-450.000
217.34	25.000
217.72	-280.000
218.09	-25.000
218.47	187.500
218.84	-1200.000
219.22	-122.222
219.59	100.000
219.97	466.667
220.34	150.000
220.72	42.857
221.09	-100.000
221.47	-350.000
221.84	-650.000
222.22	-1150.000
222.59	27.273
222.97	-8.333
223.34	-233.333
223.72	-121.429
224.09	38.095
224.46	-14.286
224.84	600.000
225.21	-40.000
225.59	-13.333
225.96	-200.000
226.34	300.000
226.71	-85.714
227.08	-50.000
227.46	-25.000
227.83	-850.000
228.21	-77.778
228.58	-27.273
228.95	-87.500
229.33	70.000
229.70	-37.500
230.08	-137.500
230.45	-42.857
230.82	0.000
231.20	-33.333
231.57	-64.286
231.95	-57.143
232.32	-190.000
232.69	50.000
233.07	-333.333
233.44	-140.000
233.81	-140.000
234.19	-100.000
234.56	-47.059
234.93	500.000
235.31	-75.000
235.68	-220.000
236.05	-84.615
236.43	-60.000
236.80	-23.529
237.17	3.125
237.55	35.000
237.92	-14.815
238.29	-5.556
238.67	6.667
239.04	-2.941
239.41	-41.463
239.79	-23.333
240.16	26.829
240.53	5.263
240.91	8.696
241.28	1.587
241.65	12.500
242.02	17.808
242.40	5.000
242.77	22.034
243.14	27.273
243.51	22.500
243.89	19.540
244.26	5.747
244.63	5.952
245.00	11.340
245.38	14.433
245.75	2.247
246.12	2.586
246.49	9.917
246.87	25.000
247.24	16.807
247.61	4.386
247.98	9.756
248.36	20.000
248.73	11.184
249.10	11.039
249.47	14.557
249.84	9.804
250.22	13.529
250.59	15.686
250.96	17.371
251.33	12.791
251.70	15.882
252.08	13.706
252.45	17.327
252.82	17.588
253.19	17.051
253.56	8.879
253.94	18.018
254.31	8.696
254.68	16.667
255.05	12.205
255.42	14.410
255.79	14.672
256.16	16.732
256.54	19.776
256.91	15.970
257.28	16.729
257.65	12.360
258.02	15.603
258.39	16.162
258.76	17.582
259.14	17.608
259.51	15.858
259.88	20.275
260.25	16.013
260.62	18.750
260.99	13.220
261.36	13.356
261.73	18.038
262.10	16.109
262.47	16.871
262.85	14.420
263.22	17.231
263.59	14.019
263.96	18.012
264.33	17.576
264.70	15.774
265.07	15.476
265.44	19.547
265.81	16.949
266.18	17.760
266.55	19.280
266.92	18.394
267.29	18.799
267.66	17.136
268.03	16.230
268.40	15.927
268.77	18.984
269.14	16.067
269.51	17.738
269.88	17.706
270.25	14.796
270.62	14.634
270.99	16.113
271.36	17.604
271.73	19.718
272.10	18.491
272.47	19.622
272.84	17.822
273.21	19.722
273.58	17.590
273.95	16.705
274.32	15.473
274.69	12.896
275.06	19.196
275.43	16.780
275.80	19.205
276.17	18.621
276.54	18.415
276.91	18.640
277.28	18.122
277.65	19.215
278.02	16.383
278.39	14.880
278.76	15.723
279.13	13.071
279.50	16.807
279.87	15.983
280.23	14.624
280.60	15.595
280.97	16.364
281.34	15.769
281.71	17.454
282.08	15.337
282.45	15.851
282.82	13.900
283.19	15.861
283.56	15.800
283.92	15.560
284.29	15.962
284.66	16.473
285.03	16.110
285.40	15.123
285.77	13.884
286.14	16.426
286.51	18.450
286.87	15.356
287.24	16.575
287.61	16.402
287.98	18.947
288.35	13.865
288.72	16.988
289.08	15.104
289.45	15.641
289.82	14.860
290.19	13.652
290.56	12.521
290.93	14.478
291.29	13.867
291.66	15.118
292.03	14.354
292.40	13.226
292.77	13.238
293.13	13.149
293.50	12.443
293.87	13.435
294.24	12.674
294.60	12.817
294.97	15.327
295.34	14.417
295.71	11.028
296.08	12.556
296.44	12.376
296.81	12.500
297.18	14.203
297.55	15.176
297.91	12.603
298.28	14.116
298.65	13.840
299.02	13.342
299.38	10.670
299.75	14.069
300.12	12.173
300.48	10.277
300.85	12.294
301.22	11.688
301.59	11.842
301.95	11.772
302.32	12.970
302.69	11.940
303.05	10.891
303.42	13.200
303.79	10.981
304.15	13.978
304.52	11.058
304.89	11.111
305.25	11.743
305.62	9.568
305.99	11.813
306.35	12.254
306.72	10.574
307.09	11.288
307.45	11.022
307.82	9.491
308.19	11.266
308.55	10.251
308.92	10.784
309.29	10.615
309.65	10.872
310.02	11.661
310.38	11.087
310.75	11.038
311.12	11.302
311.48	10.710
311.85	10.576
312.22	10.549
312.58	10.828
312.95	9.925
313.31	9.524
313.68	10.157
314.05	11.122
314.41	11.443
314.78	11.443
315.14	11.305
315.51	11.077
315.87	10.656
316.24	11.628
316.61	10.827
316.97	12.401
317.34	11.426
317.70	9.751
318.07	10.096
318.43	10.980
318.80	10.985
319.16	12.109
319.53	12.251
319.89	9.744
320.26	11.032
320.62	11.635
320.99	9.186
321.35	10.894
321.72	11.734
322.08	12.487
322.45	12.081
322.81	11.198
323.18	11.187
323.54	9.942
323.91	10.321
324.27	11.328
324.64	11.423
325.00	11.679
325.37	12.580
325.73	10.245
326.10	10.990
326.46	11.390
326.83	12.423
327.19	11.247
327.56	12.424
327.92	12.500
328.29	10.714
328.65	10.472
329.01	11.305
329.38	12.074
329.74	11.898
330.11	11.399
330.47	10.853
330.84	10.096
331.20	12.452
331.56	9.907
331.93	11.050
332.29	11.366
332.66	11.131
333.02	11.524
333.38	10.999
333.75	13.004
334.11	11.191
334.48	12.421
334.84	11.172
335.20	11.253
335.57	11.786
335.93	11.021
336.29	11.326
336.66	11.081
337.02	11.152
337.38	11.204
337.75	11.727
338.11	12.624
338.47	11.314
338.84	10.813
339.20	12.157
339.56	12.110
339.93	11.996
340.29	11.193
340.65	11.290
341.02	11.082
341.38	11.593
341.74	11.131
342.11	11.005
342.47	10.854
342.83	11.332
343.20	10.627
343.56	11.913
343.92	10.452
344.28	12.724
344.65	10.708
345.01	9.767
345.37	11.775
345.73	12.385
346.10	11.389
346.46	11.606
346.82	10.802
347.19	11.139
347.55	11.195
347.91	11.570
348.27	10.671
348.63	10.988
349.00	11.157
349.36	10.723
349.72	10.945
350.08	11.066
350.45	11.572
350.81	11.213
351.17	10.505
351.53	12.000
351.89	11.065
352.26	9.840
352.62	10.081
352.98	10.683
353.34	10.225
353.70	12.055
354.07	10.968
354.43	9.768
354.79	10.570
355.15	11.270
355.51	10.839
355.87	10.113
356.24	9.706
356.60	9.943
356.96	10.873
357.32	11.102
357.68	10.242
358.04	9.855
358.40	10.370
358.77	10.606
359.13	9.848
359.49	10.324
359.85	10.530
360.21	9.569
360.57	11.247
360.93	11.649
361.29	9.139
361.66	10.423
362.02	10.682
362.38	10.434
362.74	9.917
363.10	11.061
363.46	10.230
363.82	11.044
364.18	10.406
364.54	10.588
364.90	9.749
365.26	9.753
365.62	10.438
365.98	10.777
366.35	10.561
366.71	10.865
367.07	9.869
367.43	10.712
367.79	9.753
368.15	10.337
368.51	10.051
368.87	9.835
369.23	8.736
369.59	10.860
369.95	10.630
370.31	10.043
370.67	9.328
371.03	9.485
371.39	9.701
371.75	10.549
372.11	10.984
372.47	10.059
372.83	10.149
373.19	10.913
373.55	9.170
373.91	10.295
374.27	11.127
374.63	9.620
374.99	9.858
375.35	9.540
375.71	9.441
376.07	9.761
376.42	10.204
376.78	10.134
377.14	9.140
377.50	9.695
377.86	10.174
378.22	9.892
378.58	9.423
378.94	10.019
379.30	10.168
379.66	10.345
380.02	10.055
380.38	9.191
380.74	9.814
381.09	9.816
381.45	9.786
381.81	9.439
382.17	9.581
382.53	8.932
382.89	9.793
383.25	9.770
383.61	10.488
383.97	8.254
384.32	9.756
384.68	8.793
385.04	8.517
385.40	9.023
385.76	9.874
386.12	9.508
386.48	9.259
386.83	9.131
387.19	9.524
387.55	9.473
387.91	9.597
388.27	9.402
388.62	9.880
388.98	10.068
389.34	9.681
389.70	9.136
390.06	9.566
390.42	8.938
390.77	9.876
391.13	9.269
391.49	9.056
391.85	8.967
392.20	9.856
392.56	9.536
392.92	9.513
393.28	8.962
393.64	9.129
393.99	10.219
394.35	9.361
394.71	10.217
395.07	9.428
395.42	9.715
395.78	8.795
396.14	8.764
396.50	9.956
396.85	10.367
397.21	9.524
397.57	9.404
397.92	8.928
398.28	9.943
398.64	9.337
399.00	10.102
399.35	8.747
399.71	9.190
400.07	9.129
400.42	9.731
400.78	9.369
401.14	9.498
401.49	9.708
401.85	9.019
402.21	9.639
402.57	9.500
402.92	9.159
403.28	10.025
403.63	8.890
403.99	8.929
404.35	9.119
404.70	8.274
405.06	9.636
405.42	9.260
405.77	8.890
406.13	9.604
406.49	8.526
406.84	8.863
407.20	9.512
407.55	8.371
407.91	8.356
408.27	8.413
408.62	9.354
408.98	9.119
409.34	9.542
409.69	8.786
410.05	9.298
410.40	8.889
410.76	9.891
411.11	9.250
411.47	9.073
411.83	9.102
412.18	9.653
412.54	9.613
412.89	8.190
413.25	8.905
413.60	8.696
413.96	9.448
414.31	9.329
414.67	8.467
415.03	8.988
415.38	8.355
415.74	9.186
416.09	9.406
416.45	10.331
416.80	9.650
417.16	9.530
417.51	8.661
417.87	9.518
418.22	9.326
418.58	8.361
418.93	9.969
419.29	8.899
419.64	9.008
420.00	9.509
420.35	9.612
420.71	9.478
421.06	9.331
421.42	9.255
421.77	9.711
422.12	9.308
422.48	9.637
422.83	10.325
423.19	10.045
423.54	9.230
423.90	9.600
424.25	9.013
424.61	9.608
424.96	9.466
425.31	9.936
425.67	9.448
426.02	9.894
426.38	9.393
426.73	9.685
427.09	9.177
427.44	9.529
427.79	9.841
428.15	10.680
428.50	9.207
428.85	9.705
429.21	9.564
429.56	9.542
429.92	9.913
430.27	9.373
430.62	8.730
430.98	9.342
431.33	9.727
431.68	9.053
432.04	9.335
432.39	8.557
432.74	9.260
433.10	10.402
433.45	8.901
433.80	9.286
434.16	8.753
434.51	9.409
434.86	9.466
435.22	9.759
435.57	8.546
435.92	9.521
436.28	9.362
436.63	9.013
436.98	9.618
437.34	8.227
437.69	9.422
438.04	9.231
438.39	8.552
438.75	8.804
439.10	9.394
439.45	9.434
439.81	8.746
440.16	9.442
440.51	10.269
440.86	9.668
441.22	10.068
441.57	9.658
441.92	9.549
442.27	9.756
442.63	10.707
442.98	10.626
443.33	9.071
443.68	9.549
444.03	9.389
444.39	9.739
444.74	10.033
445.09	10.134
445.44	9.060
445.79	10.057
446.15	9.031
446.50	9.207
446.85	9.989
447.20	9.489
447.55	9.933
447.91	9.701
448.26	10.131
448.61	10.305
448.96	10.212
449.31	9.827
449.66	9.117
450.02	9.983
450.37	9.366
450.72	9.507
451.07	10.063
451.42	9.363
451.77	10.609
452.12	10.167
452.47	9.466
452.83	9.835
453.18	10.310
453.53	10.240
453.88	9.897
454.23	10.080
454.58	9.887
454.93	9.858
455.28	9.333
455.63	9.733
455.98	9.982
456.34	10.536
456.69	10.102
457.04	10.901
457.39	9.417
457.74	10.036
458.09	9.535
458.44	9.713
458.79	9.524
459.14	10.412
459.49	10.448
459.84	10.265
460.19	9.830
460.54	9.963
460.89	9.602
461.24	10.186
461.59	9.382
461.94	10.314
462.29	10.314
462.64	10.166
462.99	10.156
463.34	9.736
463.69	9.266
464.04	10.775
464.39	9.642
464.74	10.552
465.09	9.669
465.44	10.040
465.79	9.977
466.14	10.262
466.49	8.856
466.84	10.589
467.19	9.825
467.54	10.473
467.89	10.171
468.24	9.732
468.59	10.603
468.94	9.714
469.29	10.230
469.64	10.868
469.99	10.792
470.34	8.874
470.68	10.216
471.03	10.474
471.38	10.556
471.73	10.924
472.08	9.634
472.43	9.664
472.78	10.212
473.13	11.156
473.48	10.489
473.83	10.772
474.17	10.233
474.52	10.402
474.87	10.606
475.22	9.457
475.57	9.656
475.92	10.203
476.27	10.827
476.61	10.127
476.96	10.318
477.31	10.654
477.66	10.562
478.01	10.331
478.36	10.730
478.70	10.495
479.05	11.264
479.40	10.440
479.75	10.792
480.10	10.701
480.45	10.700
480.79	10.775
481.14	10.297
481.49	9.310
481.84	10.521
482.19	10.150
482.53	10.600
482.88	9.881
483.23	10.269
483.58	10.849
483.92	10.455
484.27	9.799
484.62	10.399
484.97	10.158
485.31	9.899
485.66	9.430
486.01	9.723
486.36	9.598
486.70	10.198
487.05	10.520
487.40	10.160
487.75	10.338
488.09	10.167
488.44	10.729
488.79	10.497
489.13	11.018
489.48	11.287
489.83	10.314
490.17	10.652
490.52	10.485
490.87	10.458
491.22	10.936
491.56	10.674
491.91	11.042
492.26	10.598
492.60	11.180
492.95	11.363
493.30	10.699
493.64	11.100
493.99	10.290
494.34	10.437
494.68	11.048
495.03	10.316
495.37	10.648
495.72	10.904
496.07	10.927
496.41	10.519
496.76	10.272
497.11	9.828
497.45	11.217
497.80	11.201
498.14	10.730
498.49	11.275
498.84	10.778
499.18	11.044
499.53	11.062
499.87	10.457
500.22	10.979
500.56	10.590
500.91	11.195
501.26	10.430
501.60	11.166
501.95	10.771
502.29	10.751
502.64	10.666
502.98	10.903
503.33	10.519
503.67	10.747
504.02	11.290
504.36	11.084
504.71	9.747
505.06	10.518
505.40	10.863
505.75	10.825
506.09	11.252
506.44	11.550
506.78	11.429
507.13	11.531
507.47	11.227
507.82	10.256
508.16	10.090
508.51	11.490
508.85	11.251
509.19	10.271
509.54	10.885
509.88	10.895
510.23	11.350
510.57	10.583
510.92	10.714
511.26	10.857
511.61	11.166
511.95	11.233
512.30	10.865
512.64	10.963
512.98	11.061
513.33	11.752
513.67	10.574
514.02	12.071
514.36	11.600
514.70	11.364
515.05	11.516
515.39	11.393
515.74	11.976
516.08	11.417
516.42	12.250
516.77	12.756
517.11	11.929
517.46	12.208
517.80	11.502
518.14	11.880
518.49	11.538
518.83	11.118
519.17	11.583
519.52	10.894
519.86	11.164
520.20	11.057
520.55	11.007
520.89	12.296
521.23	11.716
521.58	12.871
521.92	12.308
522.26	11.711
522.61	12.273
522.95	12.252
523.29	12.008
523.64	12.325
523.98	12.508
524.32	10.889
524.66	11.844
525.01	11.883
525.35	11.277
525.69	11.650
526.04	11.971
526.38	12.322
526.72	11.838
527.06	11.479
527.41	12.335
527.75	12.399
528.09	11.628
528.43	13.167
528.78	11.287
529.12	11.742
529.46	11.891
529.80	11.780
530.15	12.871
530.49	11.785
530.83	12.585
531.17	12.021
531.51	12.175
531.86	11.761
532.20	11.482
532.54	11.777
532.88	12.183
533.22	12.164
533.57	11.796
533.91	10.770
534.25	12.174
534.59	10.776
534.93	11.265
535.27	12.056
535.62	11.601
535.96	11.872
536.30	12.335
536.64	11.854
536.98	11.707
537.32	12.162
537.66	12.973
538.01	11.399
538.35	11.304
538.69	12.184
539.03	11.415
539.37	12.180
539.71	12.134
540.05	11.337
540.39	11.842
540.73	12.204
541.07	12.293
541.42	12.231
541.76	12.870
542.10	11.838
542.44	12.022
542.78	11.012
543.12	12.637
543.46	13.074
543.80	12.006
544.14	11.682
544.48	12.991
544.82	11.893
545.16	12.295
545.50	12.817
545.84	13.244
546.18	12.553
546.52	11.752
546.86	12.581
547.20	12.089
547.54	11.025
547.88	12.364
548.22	11.703
548.56	12.005
548.90	12.466
549.24	11.433
549.58	12.553
549.92	11.437
550.26	12.747
550.60	11.970
550.94	12.248
551.28	12.133
551.62	12.846
551.96	11.880
552.30	11.623
552.64	11.848
552.98	12.518
553.32	12.054
553.66	10.740
554.00	11.825
554.34	11.300
554.68	11.578
555.02	12.574
555.36	12.341
555.69	11.062
556.03	11.563
556.37	11.388
556.71	11.264
557.05	12.677
557.39	11.673
557.73	12.894
558.07	12.217
558.41	12.098
558.75	12.315
559.08	11.820
559.42	12.460
559.76	12.330
560.10	11.621
560.44	11.988
560.78	12.517
561.12	12.200
561.45	11.665
561.79	12.325
562.13	12.207
562.47	11.871
562.81	11.960
563.15	11.777
563.48	12.023
563.82	12.011
564.16	11.769
564.50	11.892
564.84	12.316
565.17	11.536
565.51	11.954
565.85	11.866
566.19	12.003
566.52	12.399
566.86	12.404
567.20	11.270
567.54	11.436
567.88	11.599
568.21	12.048
568.55	10.978
568.89	11.653
569.23	11.411
569.56	11.121
569.90	11.571
570.24	11.425
570.57	10.618
570.91	11.223
571.25	10.326
571.59	11.180
571.92	10.430
572.26	10.779
572.60	10.574
572.93	11.359
573.27	11.191
573.61	10.561
573.95	10.814
574.28	11.070
574.62	10.272
574.96	10.571
575.29	10.424
575.63	10.365
575.97	10.680
576.30	10.458
576.64	10.437
576.98	10.502
577.31	10.322
577.65	10.688
577.98	10.566
578.32	10.365
578.66	10.423
578.99	10.856
579.33	10.692
579.67	10.522
580.00	10.684
580.34	11.020
580.67	10.460
581.01	10.567
581.35	10.379
581.68	10.254
582.02	10.075
582.35	10.529
582.69	10.051
583.02	10.724
583.36	10.977
583.70	11.241
584.03	11.037
584.37	11.858
584.70	10.962
585.04	10.466
585.37	10.516
585.71	10.787
586.04	10.666
586.38	10.189
586.72	10.617
587.05	10.861
587.39	10.707
587.72	11.099
588.06	11.099
588.39	10.709
588.73	10.836
589.06	11.122
589.40	11.199
589.73	11.464
590.07	11.216
590.40	11.494
590.73	11.697
591.07	11.366
591.40	11.443
591.74	11.312
592.07	11.920
592.41	11.263
592.74	10.514
593.08	10.513
593.41	10.478
593.75	10.500
594.08	10.367
594.41	10.844
594.75	11.031
595.08	11.048
595.42	10.158
595.75	11.003
596.09	11.220
596.42	11.658
596.75	11.501
597.09	10.843
597.42	11.427
597.75	10.719
598.09	10.865
598.42	10.740
598.76	10.296
599.09	10.497
599.42	10.004
599.76	10.722
600.09	10.256
600.42	10.993
600.76	10.884
601.09	11.107
601.42	10.654
601.76	10.838
602.09	10.767
602.42	11.247
602.76	10.993
603.09	11.254
603.42	11.246
603.76	10.726
604.09	10.328
604.42	10.914
604.76	11.393
605.09	11.837
605.42	11.242
605.75	10.595
606.09	10.361
606.42	10.801
606.75	11.039
607.09	11.429
607.42	10.988
607.75	10.835
608.08	9.883
608.42	10.964
608.75	11.325
609.08	11.011
609.41	11.066
609.75	11.290
610.08	11.083
610.41	11.836
610.74	10.678
611.07	11.421
611.41	11.365
611.74	11.567
612.07	11.242
612.40	11.433
612.73	11.243
613.07	11.080
613.40	11.269
613.73	10.576
614.06	10.851
614.39	11.732
614.72	10.196
615.06	11.061
615.39	11.190
615.72	11.572
616.05	11.397
616.38	10.883
616.71	10.948
617.05	11.056
617.38	11.502
617.71	11.321
618.04	12.127
618.37	12.610
618.70	11.485
619.03	12.847
619.36	10.564
619.69	12.585
620.03	12.345
620.36	11.588
620.69	11.777
621.02	11.544
621.35	11.867
621.68	11.820
622.01	12.167
622.34	11.812
622.67	11.987
623.00	11.562
623.33	11.509
623.66	11.892
623.99	10.968
624.32	11.407
624.65	10.902
624.99	12.265
625.32	11.827
625.65	12.255
625.98	11.765
626.31	10.973
626.64	12.825
626.97	12.827
627.30	11.909
627.63	12.565
627.96	11.770
628.29	11.748
628.62	12.783
628.95	12.124
629.28	12.298
629.61	11.565
629.94	12.414
630.26	11.957
630.59	11.342
630.92	12.410
631.25	11.282
631.58	12.885
631.91	10.746
632.24	12.385
632.57	12.500
632.90	12.100
633.23	12.353
633.56	11.965
633.89	12.577
634.22	14.321
634.55	12.961
634.88	11.877
635.20	12.051
635.53	12.533
635.86	13.524
636.19	12.807
636.52	11.480
636.85	10.794
637.18	11.321
637.51	13.333
637.83	12.878
638.16	14.461
638.49	12.398
638.82	13.553
639.15	11.533
639.48	12.655
639.81	12.831
640.13	9.812
640.46	11.516
640.79	12.077
641.12	13.442
641.45	12.012
641.77	13.037
642.10	12.638
642.43	12.058
642.76	12.706
643.09	13.732
643.41	11.974
643.74	11.367
644.07	12.808
644.40	15.372
644.73	13.660
645.05	14.094
645.38	13.580
645.71	10.993
646.04	12.747
646.36	13.121
646.69	16.007
647.02	12.476
647.35	12.500
647.67	13.346
648.00	16.045
648.33	14.334
648.66	12.712
648.98	8.375
649.31	10.248
649.64	11.931
649.96	11.831
650.29	12.777
650.62	13.162
650.94	13.704
651.27	10.801
651.60	14.775
651.92	13.112
652.25	12.433
652.58	13.833
652.90	14.065
653.23	12.437
653.56	10.998
653.88	12.887
654.21	10.158
654.54	12.224
654.86	12.733
655.19	12.865
655.52	10.913
655.84	9.130
656.17	10.023
656.49	13.685
656.82	15.026
657.15	11.996
657.47	9.122
657.80	6.902
658.13	6.960
658.45	10.603
658.78	11.054
659.10	11.813
659.43	11.899
659.75	12.185
660.08	12.276
660.41	12.768
660.73	14.088
661.06	11.958
661.38	12.329
661.71	12.320
662.03	12.446
662.36	14.945
662.68	14.159
663.01	14.847
663.33	10.673
663.66	8.837
663.98	12.558
664.31	13.646
664.63	12.673
664.96	9.130
665.28	12.141
665.61	10.823
665.93	13.696
666.26	12.798
666.58	11.633
666.91	11.059
667.23	14.151
667.56	13.744
667.88	10.552
668.21	15.990
668.53	14.421
668.86	12.972
669.18	12.500
669.50	8.475
669.83	9.535
670.15	12.354
670.48	11.005
670.80	10.599
671.13	10.962
671.45	10.502
671.77	12.446
672.10	12.673
672.42	12.921
672.75	12.966
673.07	13.417
673.39	12.294
673.72	11.440
674.04	12.500
674.37	11.864
674.69	10.278
675.01	13.333
675.34	14.640
675.66	14.352
675.98	13.969
676.31	13.532
676.63	9.976
676.95	12.727
677.28	13.882
677.60	10.843
677.92	13.532
678.25	10.503
678.57	10.823
678.89	10.294
679.22	13.647
679.54	10.241
679.86	11.531
680.18	12.816
680.51	12.879
680.83	11.332
681.15	11.200
681.48	12.705
681.80	13.017
682.12	11.089
682.44	9.833
682.77	12.583
683.09	12.357
683.41	10.227
683.73	12.442
684.06	13.717
684.38	8.387
684.70	13.072
685.02	9.129
685.34	9.881
685.67	9.568
685.99	9.584
686.31	12.389
686.63	10.575
686.96	7.985
687.28	9.495
687.60	9.886
687.92	11.313
688.24	10.282
688.56	10.917
688.89	11.830
689.21	13.556
689.53	10.905
689.85	9.535
690.17	13.839
690.49	11.111
690.82	10.437
691.14	10.952
691.46	11.682
691.78	10.811
692.10	13.978
692.42	10.606
692.74	11.752
693.06	10.586
693.39	9.502
693.71	11.991
694.03	10.162
694.35	11.682
694.67	9.848
694.99	9.922
695.31	12.010
695.63	10.750
695.95	11.364
696.27	12.694
696.59	12.500
696.91	8.683
697.23	11.825
697.56	9.653
697.88	12.688
698.20	11.617
698.52	12.471
698.84	9.569
699.16	10.500
699.48	11.779
699.80	11.414
700.12	8.895
700.44	14.566
700.76	8.140
701.08	10.303
701.40	13.554
701.72	13.580
702.04	10.891
702.36	12.709
702.68	9.009
703.00	9.091
703.32	10.264
703.64	8.475
703.96	12.754
704.28	11.043
704.60	11.111
704.91	10.095
705.23	8.306
705.55	8.834
705.87	12.274
706.19	9.630
706.51	14.089
706.83	10.932
707.15	9.969
707.47	14.006
707.79	9.635
708.11	14.500
708.43	12.750
708.74	14.212
709.06	10.423
709.38	11.927
709.70	13.018
710.02	12.420
710.34	12.384
710.66	8.333
710.98	8.940
711.29	9.508
711.61	9.831
711.93	14.332
712.25	12.715
712.57	5.128
712.89	7.463
713.20	12.457
713.52	11.150
713.84	12.628
714.16	7.904
714.48	13.548
714.80	6.410
715.11	9.726
715.43	8.464
715.75	5.000
716.07	10.299
716.39	9.732
716.70	12.546
717.02	8.397
717.34	14.170
717.66	6.637
717.97	5.217
718.29	7.531
718.61	11.811
718.93	12.403
719.24	9.886
719.56	9.639
719.88	12.715
720.20	11.364
720.51	7.663
720.83	11.969
721.15	13.445
721.46	12.097
721.78	5.534
722.10	11.524
722.42	6.639
722.73	9.388
723.05	13.061
723.37	11.441
723.68	15.315
724.00	12.821
724.32	7.111
724.63	14.545
724.95	6.987
725.27	11.521
725.58	12.288
725.90	8.333
726.22	10.811
726.53	12.881
726.85	10.112
727.16	9.811
727.48	6.478
727.80	11.741
728.11	6.780
728.43	8.627
728.74	8.468
729.06	10.800
729.38	13.534
729.69	5.578
730.01	8.462
730.32	10.448
730.64	11.307
730.96	10.566
731.27	11.000
731.59	7.119
731.90	11.146
732.22	12.618
732.53	9.302
732.85	15.603
733.16	13.805
733.48	6.115
733.80	4.710
734.11	9.153
734.43	5.498
734.74	8.485
735.06	4.886
735.37	10.574
735.69	7.744
736.00	8.362
736.32	9.396
736.63	8.099
736.95	13.993
737.26	10.320
737.58	12.416
737.89	9.158
738.21	8.271
738.52	9.877
738.83	10.480
739.15	4.367
739.46	9.843
739.78	8.791
740.09	9.804
740.41	10.507
740.72	3.150
741.04	12.146
741.35	8.085
741.66	12.322
741.98	9.694
742.29	11.386
742.61	8.377
742.92	2.844
743.23	7.407
743.55	10.407
743.86	8.612
744.18	13.397
744.49	3.723
744.80	10.870
745.12	17.112
745.43	9.268
745.74	4.688
746.06	7.317
746.37	10.471
746.68	6.161
747.00	12.234
747.31	11.443
747.62	11.650
747.94	10.048
748.25	8.911
748.56	7.650
748.88	10.995
749.19	5.851
749.50	11.330
749.82	1.887
750.13	5.046
750.44	10.902
750.75	12.313
751.07	10.949
751.38	7.663
751.69	8.235
752.01	12.403
752.32	9.960
752.63	11.067
752.94	5.172
753.26	19.665
753.57	9.050
753.88	9.735
754.19	7.500
754.51	5.372
754.82	4.858
755.13	14.167
755.44	10.887
755.75	10.937
756.07	9.339
756.38	6.415
756.69	5.747
757.00	11.667
757.31	11.438
757.63	6.098
757.94	8.056
758.25	7.671
758.56	7.447
758.87	5.949
759.18	6.854
759.50	4.364
759.81	10.033
760.12	11.935
760.43	12.121
760.74	11.728
761.05	8.615
761.36	9.659
761.67	10.909
761.99	10.884
762.30	8.727
762.61	8.300
762.92	8.597
763.23	7.658
763.54	6.075
763.85	8.898
764.16	11.618
764.47	5.645
764.78	7.692
765.10	15.152
765.41	6.940
765.72	12.063
766.03	2.256
766.34	11.314
766.65	12.749
766.96	3.535
767.27	8.511
767.58	6.897
767.89	2.837
768.20	10.795
768.51	8.242
768.82	13.300
769.13	4.147
769.44	6.438
769.75	5.936
770.06	11.207
770.37	8.173
770.68	7.614
770.99	8.597
771.30	14.216
771.61	12.670
771.92	10.776
772.23	11.823
772.54	12.366
772.85	11.728
773.16	10.674
773.47	13.725
773.78	14.379
774.09	9.581
774.39	8.667
774.70	12.739
775.01	12.414
775.32	12.143
775.63	-0.826
775.94	7.634
776.25	3.150
776.56	3.333
776.87	-2.885
777.18	-0.855
777.48	11.207
777.79	2.609
778.10	-1.905
778.41	-0.901
778.72	6.349
779.03	3.759
779.34	15.603
779.65	2.055
779.95	6.164
780.26	15.172
780.57	1.626
780.88	7.087
781.19	6.034
781.50	0.775
781.80	9.467
782.11	-1.887
782.42	0.769
782.73	6.475
783.04	1.481
783.34	3.472
783.65	-10.256
783.96	11.475
784.27	8.966
784.57	-4.878
784.88	10.938
785.19	10.000
785.50	17.000
785.81	16.379
786.11	6.034
786.42	0.971
786.73	7.273
787.04	8.163
787.34	8.929
787.65	5.714
787.96	7.080
788.26	5.455
788.57	5.128
788.88	14.063
789.19	2.381
789.49	3.478
789.80	5.102
790.11	15.152
790.41	1.818
790.72	9.783
791.03	14.773
791.33	7.500
791.64	2.500
791.95	2.326
792.25	14.894
792.56	12.360
792.87	-1.370
793.17	-5.797
793.48	-12.000
793.79	6.250
794.09	18.750
794.40	4.717
794.70	1.942
795.01	-4.065
795.32	2.564
795.62	5.714
795.93	1.961
796.23	16.038
796.54	9.375
796.85	0.000
797.15	-4.225
797.46	5.556
797.76	4.545
798.07	-4.651
798.37	-10.526
798.68	4.545
798.99	4.938
799.29	18.571
799.60	-5.797
799.90	1.333
800.21	9.836
800.51	9.231
800.82	6.780
801.12	-1.449
801.43	13.115
801.73	4.762
802.04	-10.000
802.34	4.478
802.65	5.769
802.95	-7.143
803.26	9.615
803.56	1.961
803.87	-28.261
804.17	14.667
804.48	-1.587
804.78	-9.259
805.09	0.000
805.39	-17.778
805.70	11.111
806.00	-5.263
806.30	5.634
806.61	11.429
806.91	-18.056
807.22	3.947
807.52	18.667
807.83	-9.091
808.13	9.722
808.43	7.353
808.74	-2.985
809.04	-5.085
809.35	-5.769
809.65	-9.375
809.95	-32.432
810.26	-9.091
810.56	8.219
810.86	-23.810
811.17	8.000
811.47	30.612
811.77	-15.789
812.08	20.455
812.38	7.547
812.69	-2.500
812.99	-42.424
813.29	13.158
813.59	-28.571
813.90	-4.545
814.20	-38.462
814.50	13.462
814.81	3.774
815.11	-6.383
815.41	6.780
815.72	-4.762
816.02	19.608
816.32	-8.333
816.62	7.317
816.93	-32.432
817.23	-20.000
817.53	0.000
817.84	0.000
818.14	-1.923
818.44	-26.316
818.74	23.913
819.04	-27.500
819.35	13.514
819.65	-23.529
819.95	-11.111
820.25	2.381
820.56	20.000
820.86	-55.172
821.16	37.500
821.46	23.404
821.76	-5.000
822.07	-4.651
822.37	-24.324
822.67	-18.750
822.97	4.762
823.27	-14.286
823.57	-44.000
823.88	-40.741
824.18	7.143
824.48	2.941
824.78	16.129
825.08	-43.478
825.38	-21.212
825.69	-29.167
825.99	7.895
826.29	0.000
826.59	-13.333
826.89	-80.952
827.19	-4.348
827.49	-2.500
827.79	17.143
828.09	-32.143
828.39	27.273
828.70	8.108
829.00	-14.286
829.30	-52.381
829.60	-13.333
829.90	34.375
830.20	-23.684
830.50	-18.519
830.80	-43.478
831.10	-63.636
831.40	15.152
831.70	-25.806
832.00	-4.762
832.30	-61.905
832.60	-125.000
832.90	6.897
833.20	-60.000
833.50	12.121
833.80	-18.519
834.10	-23.077
834.40	3.125
834.70	-155.556
835.00	0.000
835.30	26.923
835.60	-40.000
835.90	16.129
836.20	9.091
836.50	25.000
836.80	-30.769
837.10	-7.143
837.40	-300.000
837.70	0.000
838.00	-163.636
838.30	-21.739
838.60	-61.538
838.90	-13.636
839.19	-17.857
839.49	-20.000
839.79	-84.615
840.09	-175.000
840.39	-3.571
840.69	-7.143
840.99	-30.769
841.29	-78.947
841.59	-60.000
841.88	-154.545
842.18	-70.000
842.48	-43.750
842.78	-93.333
843.08	-29.630
843.38	-170.000
843.68	21.739
843.97	-20.000
844.27	-66.667
844.57	10.000
844.87	11.111
845.17	-23.810
845.47	-26.667
845.76	-76.190
846.06	-17.647
846.36	-100.000
846.66	-64.286
846.96	-33.333
847.25	-350.000
847.55	-50.000
847.85	37.500
848.15	-40.909
848.44	-466.667
848.74	20.000
849.04	18.519
849.34	-63.636
849.63	-216.667
849.93	-120.000
850.23	-33.333
850.53	30.000
850.82	-38.462
851.12	-188.889
851.42	-13.333
851.71	-11.538
852.01	-21.429
852.31	-525.000
852.61	-100.000
852.90	-95.000
853.20	-47.368
853.50	-66.667
853.79	-17.391
854.09	33.333
854.39	-10.526
854.68	-33.333
854.98	-3.226
855.28	11.538
855.57	-25.000
855.87	-5.556
856.17	22.222
856.46	-14.286
856.76	-60.000
857.05	-55.556
857.35	8.000
857.65	-16.667
857.94	-84.615
858.24	37.931
858.53	16.667
858.83	-7.407
859.13	-31.818
859.42	-8.696
859.72	-125.000
860.01	-466.667
860.31	8.000
860.60	-14.286
860.90	-666.667
861.20	-86.667
861.49	-750.000
861.79	-93.333
862.08	-50.000
862.38	0.000
862.67	-220.000
862.97	-250.000
863.26	-75.000
863.56	-22.222
863.85	-600.000
864.15	-44.444
864.44	-70.000
864.74	21.429
865.03	275.000
865.33	-140.000
865.62	16.667
865.92	-75.000
866.21	-250.000
866.51	-25.000
866.80	-109.091
867.10	-950.000
867.39	0.000
867.69	0.000
867.98	7.692
868.27	-266.667
868.57	-60.000
868.86	5.556
869.16	-69.231
869.45	-53.333
869.75	-1400.000
870.04	0.000
870.33	-114.286
870.63	-9.524
870.92	333.333
871.22	-240.000
871.51	-1600.000
871.80	100.000
872.10	500.000
>>>>>End Processed Spectral Data<<<<<
