SpectraSuite Data File
++++++++++++++++++++++++++++++++++++
Date: Fri May 15 20:45:19 PDT 2015
User: schluterlab
Dark Spectrum Present: Yes
Reference Spectrum Present: Yes
Number of Sampled Component Spectra: 1
Spectrometers: USB2E3373
Integration Time (usec): 3000 (USB2E3373)
Spectra Averaged: 3 (USB2E3373)
Boxcar Smoothing: 0 (USB2E3373)
Correct for Electrical Dark: No (USB2E3373)
Strobe/Lamp Enabled: No (USB2E3373)
Correct for Detector Non-linearity: No (USB2E3373)
Correct for Stray Light: No (USB2E3373)
Number of Pixels in Processed Spectrum: 2048
>>>>>Begin Processed Spectral Data<<<<<
178.53	0.000
178.91	0.000
179.29	137.500
179.67	-400.000
180.04	42.857
180.42	100.000
180.80	0.000
181.18	166.667
181.56	150.000
181.94	-550.000
182.31	100.000
182.69	-80.000
183.07	-233.333
183.45	-120.000
183.83	166.667
184.20	-54.545
184.58	144.444
184.96	-75.000
185.34	-66.667
185.72	-650.000
186.09	146.154
186.47	-1300.000
186.85	-33.333
187.23	122.222
187.61	-600.000
187.98	200.000
188.36	-11.111
188.74	-400.000
189.12	35.294
189.49	11.111
189.87	0.000
190.25	-14.286
190.63	350.000
191.00	-66.667
191.38	10.526
191.76	200.000
192.14	175.000
192.51	-300.000
192.89	-33.333
193.27	-257.143
193.65	100.000
194.02	72.727
194.40	-40.000
194.78	-212.500
195.15	-66.667
195.53	-75.000
195.91	325.000
196.29	-225.000
196.66	69.231
197.04	142.857
197.42	-66.667
197.79	-233.333
198.17	-76.923
198.55	1100.000
198.92	-233.333
199.30	-100.000
199.68	-220.000
200.05	-333.333
200.43	0.000
200.81	-233.333
201.18	-133.333
201.56	1200.000
201.94	300.000
202.31	466.667
202.69	-220.000
203.07	400.000
203.44	1100.000
203.82	0.000
204.19	64.286
204.57	-166.667
204.95	162.500
205.32	40.000
205.70	0.000
206.08	-175.000
206.45	222.222
206.83	64.286
207.20	-142.857
207.58	400.000
207.96	-233.333
208.33	-160.000
208.71	-50.000
209.08	-150.000
209.46	100.000
209.84	-140.000
210.21	-2200.000
210.59	-114.286
210.96	-266.667
211.34	-25.000
211.71	-60.000
212.09	-71.429
212.46	-1200.000
212.84	0.000
213.22	-20.000
213.59	350.000
213.97	7.692
214.34	45.455
214.72	-200.000
215.09	600.000
215.47	7.692
215.84	-109.091
216.22	-466.667
216.59	-87.500
216.97	-150.000
217.34	-350.000
217.72	-60.000
218.09	175.000
218.47	125.000
218.84	-800.000
219.22	-100.000
219.59	-120.000
219.97	233.333
220.34	450.000
220.72	-57.143
221.09	-225.000
221.47	-100.000
221.84	-450.000
222.22	-600.000
222.59	72.727
222.97	33.333
223.34	-100.000
223.72	-14.286
224.09	4.762
224.46	7.143
224.84	400.000
225.21	-30.000
225.59	13.333
225.96	-450.000
226.34	225.000
226.71	-128.571
227.08	-100.000
227.46	-25.000
227.83	-550.000
228.21	-11.111
228.58	18.182
228.95	-125.000
229.33	70.000
229.70	-12.500
230.08	-125.000
230.45	-57.143
230.82	28.571
231.20	-66.667
231.57	42.857
231.95	42.857
232.32	-120.000
232.69	50.000
233.07	33.333
233.44	-100.000
233.81	-110.000
234.19	66.667
234.56	5.882
234.93	500.000
235.31	25.000
235.68	-360.000
236.05	-92.308
236.43	-30.000
236.80	-41.176
237.17	-18.750
237.55	-30.000
237.92	-11.111
238.29	30.556
238.67	-10.000
239.04	5.882
239.41	-2.439
239.79	3.333
240.16	14.634
240.53	-7.895
240.91	-13.043
241.28	15.873
241.65	16.071
242.02	19.178
242.40	21.667
242.77	16.949
243.14	7.576
243.51	20.000
243.89	26.437
244.26	19.540
244.63	14.286
245.00	7.216
245.38	20.619
245.75	12.360
246.12	5.172
246.49	14.876
246.87	19.231
247.24	10.924
247.61	13.158
247.98	19.512
248.36	10.000
248.73	17.763
249.10	11.688
249.47	18.987
249.84	18.301
250.22	7.059
250.59	15.033
250.96	21.127
251.33	10.465
251.70	13.529
252.08	20.305
252.45	15.842
252.82	18.090
253.19	19.355
253.56	11.215
253.94	18.018
254.31	20.870
254.68	16.667
255.05	14.961
255.42	24.454
255.79	20.077
256.16	18.677
256.54	19.030
256.91	20.532
257.28	18.587
257.65	17.978
258.02	15.603
258.39	16.835
258.76	19.414
259.14	18.605
259.51	16.505
259.88	20.619
260.25	22.876
260.62	20.486
260.99	18.644
261.36	18.151
261.73	16.772
262.10	17.021
262.47	16.258
262.85	15.674
263.22	16.923
263.59	21.495
263.96	18.634
264.33	17.576
264.70	18.750
265.07	15.774
265.44	18.414
265.81	18.362
266.18	16.120
266.55	18.509
266.92	19.948
267.29	20.366
267.66	17.647
268.03	18.586
268.40	18.799
268.77	18.717
269.14	17.746
269.51	18.252
269.88	13.466
270.25	15.561
270.62	17.805
270.99	13.299
271.36	15.648
271.73	16.432
272.10	17.032
272.47	16.312
272.84	18.564
273.21	17.865
273.58	16.867
273.95	14.645
274.32	18.014
274.69	14.253
275.06	17.187
275.43	16.100
275.80	17.660
276.17	18.391
276.54	16.488
276.91	15.789
277.28	16.594
277.65	15.909
278.02	16.170
278.39	17.287
278.76	17.820
279.13	12.033
279.50	18.908
279.87	19.222
280.23	15.269
280.60	17.154
280.97	17.576
281.34	13.846
281.71	18.070
282.08	13.497
282.45	15.460
282.82	16.602
283.19	16.054
283.56	16.570
283.92	15.370
284.29	14.038
284.66	16.085
285.03	14.931
285.40	15.879
285.77	14.587
286.14	13.899
286.51	16.605
286.87	15.722
287.24	15.101
287.61	15.344
287.98	15.614
288.35	15.425
288.72	17.688
289.08	16.493
289.45	15.993
289.82	16.084
290.19	12.969
290.56	14.751
290.93	15.657
291.29	14.946
291.66	15.433
292.03	15.311
292.40	15.323
292.77	14.354
293.13	12.013
293.50	12.898
293.87	15.573
294.24	14.219
294.60	15.350
294.97	16.964
295.34	13.957
295.71	14.605
296.08	13.004
296.44	14.794
296.81	13.472
297.18	15.652
297.55	14.770
297.91	15.205
298.28	15.172
298.65	13.704
299.02	14.555
299.38	11.765
299.75	13.517
300.12	12.435
300.48	12.253
300.85	15.336
301.22	12.727
301.59	13.947
301.95	13.291
302.32	14.008
302.69	13.682
303.05	13.119
303.42	13.823
303.79	15.070
304.15	14.934
304.52	11.772
304.89	13.099
305.25	13.438
305.62	12.719
305.99	13.801
306.35	11.561
306.72	12.148
307.09	13.227
307.45	15.155
307.82	14.236
308.19	13.589
308.55	13.522
308.92	14.924
309.29	13.855
309.65	13.348
310.02	14.741
310.38	14.709
310.75	13.880
311.12	14.316
311.48	13.892
311.85	14.031
312.22	14.557
312.58	13.482
312.95	13.447
313.31	13.561
313.68	14.869
314.05	14.184
314.41	14.433
314.78	14.845
315.14	16.752
315.51	16.563
315.87	15.471
316.24	15.976
316.61	16.437
316.97	15.179
317.34	14.453
317.70	15.201
318.07	15.192
318.43	15.784
318.80	15.057
319.16	17.383
319.53	18.329
319.89	16.732
320.26	17.510
320.62	17.553
320.99	16.388
321.35	17.883
321.72	18.588
322.08	17.422
322.45	18.477
322.81	19.352
323.18	18.449
323.54	19.208
323.91	18.208
324.27	19.043
324.64	18.352
325.00	18.613
325.37	19.559
325.73	18.404
326.10	17.984
326.46	20.090
326.83	19.948
327.19	20.227
327.56	20.504
327.92	20.335
328.29	19.375
328.65	19.340
329.01	20.037
329.38	20.553
329.74	18.508
330.11	19.741
330.47	19.481
330.84	19.615
331.20	21.103
331.56	18.889
331.93	20.274
332.29	20.623
332.66	19.638
333.02	20.725
333.38	20.348
333.75	20.421
334.11	19.338
334.48	19.674
334.84	18.681
335.20	18.481
335.57	18.948
335.93	19.512
336.29	20.626
336.66	18.801
337.02	19.517
337.38	18.519
337.75	19.818
338.11	19.206
338.47	19.434
338.84	20.148
339.20	19.196
339.56	19.174
339.93	19.964
340.29	20.367
340.65	19.982
341.02	19.504
341.38	19.027
341.74	17.933
342.11	17.938
342.47	19.128
342.83	19.118
343.20	17.683
343.56	18.435
343.92	19.663
344.28	19.983
344.65	19.171
345.01	17.805
345.37	17.998
345.73	19.247
346.10	18.464
346.46	19.680
346.82	17.430
347.19	17.706
347.55	18.881
347.91	18.851
348.27	17.866
348.63	18.654
349.00	18.130
349.36	17.872
349.72	19.735
350.08	19.590
350.45	19.314
350.81	18.272
351.17	17.427
351.53	18.939
351.89	17.919
352.26	17.360
352.62	19.032
352.98	17.590
353.34	17.955
353.70	19.337
354.07	18.226
354.43	19.055
354.79	17.836
355.15	17.857
355.51	18.196
355.87	18.932
356.24	17.700
356.60	18.593
356.96	18.571
357.32	17.093
357.68	17.514
358.04	17.044
358.40	17.524
358.77	18.900
359.13	16.894
359.49	17.565
359.85	18.331
360.21	18.022
360.57	17.904
360.93	18.608
361.29	16.994
361.66	17.712
362.02	17.727
362.38	18.660
362.74	16.957
363.10	18.736
363.46	18.013
363.82	19.159
364.18	18.672
364.54	17.353
364.90	18.280
365.26	18.049
365.62	18.321
365.98	18.622
366.35	18.718
366.71	18.995
367.07	17.707
367.43	17.182
367.79	17.102
368.15	18.378
368.51	18.572
368.87	17.588
369.23	16.823
369.59	17.711
369.95	18.475
370.31	17.630
370.67	18.060
371.03	18.671
371.39	17.651
371.75	18.242
372.11	17.832
372.47	17.899
372.83	19.375
373.19	18.616
373.55	17.834
373.91	17.855
374.27	18.072
374.63	18.378
374.99	17.943
375.35	18.384
375.71	18.462
376.07	19.171
376.42	18.776
376.78	18.054
377.14	17.671
377.50	18.526
377.86	19.009
378.22	18.698
378.58	19.038
378.94	18.652
379.30	17.842
379.66	19.060
380.02	19.129
380.38	18.016
380.74	18.372
381.09	19.080
381.45	18.532
381.81	18.507
382.17	19.099
382.53	19.300
382.89	18.267
383.25	19.104
383.61	19.817
383.97	19.111
384.32	18.949
384.68	18.700
385.04	17.831
385.40	19.104
385.76	19.057
386.12	19.017
386.48	19.221
386.83	19.404
387.19	19.170
387.55	19.762
387.91	19.315
388.27	19.414
388.62	19.509
388.98	19.214
389.34	18.364
389.70	19.267
390.06	18.754
390.42	19.365
390.77	20.209
391.13	19.798
391.49	20.116
391.85	19.558
392.20	19.837
392.56	19.199
392.92	19.965
393.28	19.458
393.64	19.700
393.99	20.627
394.35	19.608
394.71	20.434
395.07	19.610
395.42	19.004
395.78	19.805
396.14	18.916
396.50	19.784
396.85	19.961
397.21	19.361
397.57	19.687
397.92	20.072
398.28	19.598
398.64	19.096
399.00	19.865
399.35	19.526
399.71	20.735
400.07	20.556
400.42	19.829
400.78	20.024
401.14	20.145
401.49	20.727
401.85	19.988
402.21	20.301
402.57	19.938
402.92	20.452
403.28	20.865
403.63	21.122
403.99	19.579
404.35	20.800
404.70	19.702
405.06	20.094
405.42	20.385
405.77	19.930
406.13	20.780
406.49	21.314
406.84	20.293
407.20	20.710
407.55	20.734
407.91	20.053
408.27	20.459
408.62	21.662
408.98	20.209
409.34	20.446
409.69	20.090
410.05	19.089
410.40	21.235
410.76	20.567
411.11	20.250
411.47	20.579
411.83	20.590
412.18	20.785
412.54	20.225
412.89	20.135
413.25	22.142
413.60	20.683
413.96	20.061
414.31	21.220
414.67	20.847
415.03	19.774
415.38	20.366
415.74	21.824
416.09	21.620
416.45	21.202
416.80	21.018
417.16	22.376
417.51	21.386
417.87	20.991
418.22	22.021
418.58	20.736
418.93	21.129
419.29	19.590
419.64	20.350
420.00	22.103
420.35	21.015
420.71	21.689
421.06	21.793
421.42	21.334
421.77	21.272
422.12	21.112
422.48	21.278
422.83	21.346
423.19	21.614
423.54	20.752
423.90	21.614
424.25	21.642
424.61	21.665
424.96	21.603
425.31	22.357
425.67	21.479
426.02	22.320
426.38	21.478
426.73	21.005
427.09	22.911
427.44	23.000
427.79	22.451
428.15	21.541
428.50	22.168
428.85	21.069
429.21	21.788
429.56	22.911
429.92	22.291
430.27	21.454
430.62	22.269
430.98	21.921
431.33	22.292
431.68	21.716
432.04	22.191
432.39	22.191
432.74	22.309
433.10	23.218
433.45	22.043
433.80	21.474
434.16	22.327
434.51	22.312
434.86	23.055
435.22	21.985
435.57	23.456
435.92	22.455
436.28	21.646
436.63	22.419
436.98	21.727
437.34	22.202
437.69	23.256
438.04	22.792
438.39	22.175
438.75	23.558
439.10	23.260
439.45	23.007
439.81	22.691
440.16	23.753
440.51	23.164
440.86	24.773
441.22	23.190
441.57	23.234
441.92	24.554
442.27	23.891
442.63	23.822
442.98	23.837
443.33	22.927
443.68	23.342
444.03	25.385
444.39	23.709
444.74	24.470
445.09	23.831
445.44	23.704
445.79	24.807
446.15	24.339
446.50	24.182
446.85	24.283
447.20	23.983
447.55	25.279
447.91	24.760
448.26	24.587
448.61	24.237
448.96	24.900
449.31	24.509
449.66	23.635
450.02	25.214
450.37	25.489
450.72	24.170
451.07	25.696
451.42	24.469
451.77	25.136
452.12	24.043
452.47	24.469
452.83	24.617
453.18	24.984
453.53	24.905
453.88	24.894
454.23	24.462
454.58	26.134
454.93	24.936
455.28	24.444
455.63	25.170
455.98	25.917
456.34	25.160
456.69	25.476
457.04	24.764
457.39	24.605
457.74	25.091
458.09	25.132
458.44	24.342
458.79	26.275
459.14	26.087
459.49	25.433
459.84	25.324
460.19	24.393
460.54	25.856
460.89	25.000
461.24	26.335
461.59	25.416
461.94	24.969
462.29	27.081
462.64	26.113
462.99	25.999
463.34	24.409
463.69	25.290
464.04	26.695
464.39	25.955
464.74	26.012
465.09	26.388
465.44	25.736
465.79	25.510
466.14	26.625
466.49	25.474
466.84	26.829
467.19	26.846
467.54	27.075
467.89	26.279
468.24	26.703
468.59	28.000
468.94	25.270
469.29	27.279
469.64	26.316
469.99	27.961
470.34	26.826
470.68	26.622
471.03	27.884
471.38	26.890
471.73	27.451
472.08	27.951
472.43	27.383
472.78	26.868
473.13	28.435
473.48	26.906
473.83	27.522
474.17	28.174
474.52	27.250
474.87	28.000
475.22	27.761
475.57	28.063
475.92	28.415
476.27	27.648
476.61	28.414
476.96	26.994
477.31	27.637
477.66	27.303
478.01	27.513
478.36	28.105
478.70	28.222
479.05	28.407
479.40	27.928
479.75	27.685
480.10	27.906
480.45	27.350
480.79	28.449
481.14	28.945
481.49	27.931
481.84	27.703
482.19	28.391
482.53	28.537
482.88	28.687
483.23	28.167
483.58	28.538
483.92	27.638
484.27	27.985
484.62	28.463
484.97	27.488
485.31	27.421
485.66	25.685
486.01	26.046
486.36	25.722
486.70	26.505
487.05	26.848
487.40	26.448
487.75	27.296
488.09	27.503
488.44	27.682
488.79	28.353
489.13	27.885
489.48	28.003
489.83	28.520
490.17	28.584
490.52	28.360
490.87	28.366
491.22	27.794
491.56	27.799
491.91	28.203
492.26	28.537
492.60	28.599
492.95	29.169
493.30	27.943
493.64	29.175
493.99	29.662
494.34	29.078
494.68	28.190
495.03	27.981
495.37	28.803
495.72	29.127
496.07	29.024
496.41	27.877
496.76	29.802
497.11	28.412
497.45	29.785
497.80	29.465
498.14	28.763
498.49	28.644
498.84	28.493
499.18	29.920
499.53	29.812
499.87	29.523
500.22	28.586
500.56	29.753
500.91	29.719
501.26	29.263
501.60	29.661
501.95	28.336
502.29	29.782
502.64	29.681
502.98	30.587
503.33	29.299
503.67	29.108
504.02	30.254
504.36	29.589
504.71	30.303
505.06	29.592
505.40	30.355
505.75	31.649
506.09	30.715
506.44	30.287
506.78	30.765
507.13	30.352
507.47	30.235
507.82	30.128
508.16	31.273
508.51	32.004
508.85	31.502
509.19	30.282
509.54	30.992
509.88	31.284
510.23	31.415
510.57	31.480
510.92	31.023
511.26	31.751
511.61	32.178
511.95	32.219
512.30	32.650
512.64	32.109
512.98	33.015
513.33	33.240
513.67	33.201
514.02	33.238
514.36	33.371
514.70	34.091
515.05	33.314
515.39	34.120
515.74	34.371
516.08	32.995
516.42	35.100
516.77	34.348
517.11	35.193
517.46	34.590
517.80	35.578
518.14	34.599
518.49	34.796
518.83	34.751
519.17	33.050
519.52	33.748
519.86	33.854
520.20	34.933
520.55	34.897
520.89	34.881
521.23	36.099
521.58	35.457
521.92	35.513
522.26	35.914
522.61	35.325
522.95	36.755
523.29	35.832
523.64	36.023
523.98	36.099
524.32	35.889
524.66	36.300
525.01	36.299
525.35	36.682
525.69	35.892
526.04	36.111
526.38	36.706
526.72	35.906
527.06	34.825
527.41	36.609
527.75	35.322
528.09	36.346
528.43	36.799
528.78	35.578
529.12	37.097
529.46	36.712
529.80	36.669
530.15	36.568
530.49	36.970
530.83	36.936
531.17	37.139
531.51	36.594
531.86	36.574
532.20	35.978
532.54	36.011
532.88	37.509
533.22	35.551
533.57	36.501
533.91	36.488
534.25	36.654
534.59	35.279
534.93	35.368
535.27	35.660
535.62	36.034
535.96	35.943
536.30	36.675
536.64	36.113
536.98	36.237
537.32	36.486
537.66	37.868
538.01	36.503
538.35	37.240
538.69	36.019
539.03	36.295
539.37	35.868
539.71	36.810
540.05	35.031
540.39	36.911
540.73	36.262
541.07	37.707
541.42	36.895
541.76	35.719
542.10	35.650
542.44	36.484
542.78	34.893
543.12	35.920
543.46	36.370
543.80	36.294
544.14	35.113
544.48	36.309
544.82	35.338
545.16	37.295
545.50	36.315
545.84	36.756
546.18	37.234
546.52	35.689
546.86	36.161
547.20	36.838
547.54	35.124
547.88	36.209
548.22	34.385
548.56	35.092
548.90	36.253
549.24	36.157
549.58	36.107
549.92	35.525
550.26	36.410
550.60	36.134
550.94	37.341
551.28	36.631
551.62	37.077
551.96	37.895
552.30	35.892
552.64	36.037
552.98	36.146
553.32	36.662
553.66	35.776
554.00	36.642
554.34	37.075
554.68	36.136
555.02	36.905
555.36	36.948
555.69	35.824
556.03	35.546
556.37	35.872
556.71	35.957
557.05	36.391
557.39	35.242
557.73	35.607
558.07	37.481
558.41	36.447
558.75	36.477
559.08	36.328
559.42	36.825
559.76	35.388
560.10	35.933
560.44	35.592
560.78	35.455
561.12	36.107
561.45	35.980
561.79	36.485
562.13	35.273
562.47	36.331
562.81	35.951
563.15	36.037
563.48	34.795
563.82	35.484
564.16	36.908
564.50	35.203
564.84	34.940
565.17	35.010
565.51	35.929
565.85	35.597
566.19	34.615
566.52	36.193
566.86	35.797
567.20	34.371
567.54	34.915
567.88	34.622
568.21	34.842
568.55	33.804
568.89	34.240
569.23	34.088
569.56	33.450
569.90	32.481
570.24	32.750
570.57	32.909
570.91	32.381
571.25	31.075
571.59	31.143
571.92	31.111
572.26	31.280
572.60	31.442
572.93	31.754
573.27	30.940
573.61	31.802
573.95	30.994
574.28	31.303
574.62	30.435
574.96	30.765
575.29	30.313
575.63	30.008
575.97	30.306
576.30	31.009
576.64	30.596
576.98	31.017
577.31	30.573
577.65	30.573
577.98	29.987
578.32	29.447
578.66	30.045
578.99	29.878
579.33	29.878
579.67	30.356
580.00	30.532
580.34	30.498
580.67	30.366
581.01	30.908
581.35	29.587
581.68	29.581
582.02	29.473
582.35	29.916
582.69	29.782
583.02	30.015
583.36	30.234
583.70	30.815
584.03	31.193
584.37	31.282
584.70	30.549
585.04	30.570
585.37	29.631
585.71	29.894
586.04	30.408
586.38	30.035
586.72	30.732
587.05	31.080
587.39	31.339
587.72	30.755
588.06	30.003
588.39	30.675
588.73	30.647
589.06	31.181
589.40	31.075
589.73	31.727
590.07	32.100
590.40	31.269
590.73	32.949
591.07	31.722
591.40	32.324
591.74	32.081
592.07	32.468
592.41	32.200
592.74	30.625
593.08	29.689
593.41	30.148
593.75	29.997
594.08	30.484
594.41	30.459
594.75	30.916
595.08	31.366
595.42	31.358
595.75	31.281
596.09	31.001
596.42	31.129
596.75	32.105
597.09	31.526
597.42	31.752
597.75	31.837
598.09	31.462
598.42	30.686
598.76	31.060
599.09	29.768
599.42	29.632
599.76	30.888
600.09	30.468
600.42	30.743
600.76	29.866
601.09	30.458
601.42	30.317
601.76	30.528
602.09	30.611
602.42	31.297
602.76	31.367
603.09	31.188
603.42	31.564
603.76	30.161
604.09	30.660
604.42	31.091
604.76	31.108
605.09	30.530
605.42	31.106
605.75	30.342
606.09	30.531
606.42	30.651
606.75	30.433
607.09	30.857
607.42	30.660
607.75	30.018
608.08	31.087
608.42	31.019
608.75	31.855
609.08	32.387
609.41	32.487
609.75	30.796
610.08	31.852
610.41	31.159
610.74	31.497
611.07	31.731
611.41	31.811
611.74	31.770
612.07	31.103
612.40	32.385
612.73	32.090
613.07	30.427
613.40	32.932
613.73	31.226
614.06	31.720
614.39	31.810
614.72	31.485
615.06	31.285
615.39	31.004
615.72	29.978
616.05	30.447
616.38	31.510
616.71	31.498
617.05	33.169
617.38	32.181
617.71	32.390
618.04	32.190
618.37	32.976
618.70	32.343
619.03	32.986
619.36	32.055
619.69	34.268
620.03	34.478
620.36	32.618
620.69	33.833
621.02	33.028
621.35	34.108
621.68	33.333
622.01	34.583
622.34	32.721
622.67	33.754
623.00	33.997
623.33	32.927
623.66	32.236
623.99	32.980
624.32	33.308
624.65	31.880
624.99	33.258
625.32	32.525
625.65	34.250
625.98	33.360
626.31	32.835
626.64	34.229
626.97	34.468
627.30	34.676
627.63	34.662
627.96	33.872
628.29	34.320
628.62	34.808
628.95	34.369
629.28	34.173
629.61	33.898
629.94	34.702
630.26	35.079
630.59	35.796
630.92	36.000
631.25	33.641
631.58	34.802
631.91	35.088
632.24	35.092
632.57	37.273
632.90	35.587
633.23	33.647
633.56	37.909
633.89	36.621
634.22	37.778
634.55	35.959
634.88	37.292
635.20	33.718
635.53	36.000
635.86	35.371
636.19	37.646
636.52	35.714
636.85	34.243
637.18	35.723
637.51	34.340
637.83	36.531
638.16	37.517
638.49	35.286
638.82	35.526
639.15	36.092
639.48	36.726
639.81	36.262
640.13	36.941
640.46	37.318
640.79	35.641
641.12	36.780
641.45	35.586
641.77	36.593
642.10	38.863
642.43	37.460
642.76	35.809
643.09	38.288
643.41	36.084
643.74	36.738
644.07	39.409
644.40	39.527
644.73	37.128
645.05	39.094
645.38	37.037
645.71	36.170
646.04	36.984
646.36	38.830
646.69	38.849
647.02	40.643
647.35	38.806
647.67	40.585
648.00	37.313
648.33	38.567
648.66	35.763
648.98	35.846
649.31	33.223
649.64	35.008
649.96	34.198
650.29	37.138
650.62	35.726
650.94	36.111
651.27	35.940
651.60	37.838
651.92	38.636
652.25	34.813
652.58	35.333
652.90	34.991
653.23	35.294
653.56	35.702
653.88	36.426
654.21	35.552
654.54	35.314
654.86	35.144
655.19	34.649
655.52	31.579
655.84	25.727
656.17	27.608
656.49	37.142
656.82	39.225
657.15	30.860
657.47	23.371
657.80	17.502
658.13	17.554
658.45	27.830
658.78	28.147
659.10	28.563
659.43	28.969
659.75	29.600
660.08	30.552
660.41	32.176
660.73	33.840
661.06	35.702
661.38	34.247
661.71	34.702
662.03	39.700
662.36	38.901
662.68	35.619
663.01	38.428
663.33	37.123
663.66	37.209
663.98	35.814
664.31	38.166
664.63	35.945
664.96	34.348
665.28	32.671
665.61	36.147
665.93	36.739
666.26	39.262
666.58	38.031
666.91	37.647
667.23	39.151
667.56	39.573
667.88	39.089
668.21	38.902
668.53	40.189
668.86	39.858
669.18	36.085
669.50	31.235
669.83	40.000
670.15	36.597
670.48	37.321
670.80	39.401
671.13	35.794
671.45	30.822
671.77	36.695
672.10	35.446
672.42	33.708
672.75	31.972
673.07	37.388
673.39	33.578
673.72	32.347
674.04	32.500
674.37	36.017
674.69	34.261
675.01	37.778
675.34	34.910
675.66	35.880
675.98	37.916
676.31	37.156
676.63	35.154
676.95	35.909
677.28	36.235
677.60	35.904
677.92	33.716
678.25	36.105
678.57	34.848
678.89	32.983
679.22	33.557
679.54	33.534
679.86	35.189
680.18	33.010
680.51	32.386
680.83	30.616
681.15	30.400
681.48	36.270
681.80	37.190
682.12	30.645
682.44	32.845
682.77	33.333
683.09	35.927
683.41	35.227
683.73	38.018
684.06	34.071
684.38	32.258
684.70	33.551
685.02	32.780
685.34	31.621
685.67	31.144
685.99	32.369
686.31	32.389
686.63	31.911
686.96	29.658
687.28	30.505
687.60	30.228
687.92	34.747
688.24	31.653
688.56	33.843
688.89	34.821
689.21	33.333
689.53	31.323
689.85	32.791
690.17	31.027
690.49	32.624
690.82	33.252
691.14	30.714
691.46	34.346
691.78	30.856
692.10	33.763
692.42	32.035
692.74	34.402
693.06	34.009
693.39	31.448
693.71	28.959
694.03	33.487
694.35	35.981
694.67	35.859
694.99	32.637
695.31	35.248
695.63	33.500
695.95	33.081
696.27	31.865
696.59	34.167
696.91	32.493
697.23	30.334
697.56	33.416
697.88	32.473
698.20	29.613
698.52	32.471
698.84	29.665
699.16	30.500
699.48	31.830
699.80	30.025
700.12	32.615
700.44	31.373
700.76	31.395
701.08	30.909
701.40	32.229
701.72	39.815
702.04	38.284
702.36	35.786
702.68	32.132
703.00	33.939
703.32	31.085
703.64	30.226
703.96	31.304
704.28	31.902
704.60	33.333
704.91	31.861
705.23	37.874
705.55	38.869
705.87	39.350
706.19	32.222
706.51	34.021
706.83	30.225
707.15	30.530
707.47	35.014
707.79	27.344
708.11	34.000
708.43	31.000
708.74	32.300
709.06	32.394
709.38	31.804
709.70	34.024
710.02	31.847
710.34	34.056
710.66	29.487
710.98	29.139
711.29	34.426
711.61	34.237
711.93	34.528
712.25	35.395
712.57	34.432
712.89	28.358
713.20	33.218
713.52	31.010
713.84	28.669
714.16	32.302
714.48	30.323
714.80	32.372
715.11	29.787
715.43	28.840
715.75	30.333
716.07	30.233
716.39	30.872
716.70	29.151
717.02	27.863
717.34	31.984
717.66	28.319
717.97	31.304
718.29	32.636
718.61	34.252
718.93	28.682
719.24	34.221
719.56	34.137
719.88	32.990
720.20	33.712
720.51	32.184
720.83	34.363
721.15	29.412
721.46	31.048
721.78	24.111
722.10	25.279
722.42	26.141
722.73	28.571
723.05	35.102
723.37	36.864
723.68	35.135
724.00	30.769
724.32	35.111
724.63	29.545
724.95	35.808
725.27	30.876
725.58	35.169
725.90	30.556
726.22	27.799
726.53	31.525
726.85	31.086
727.16	34.340
727.48	27.935
727.80	33.198
728.11	31.780
728.43	29.020
728.74	27.419
729.06	28.800
729.38	30.827
729.69	27.888
730.01	25.769
730.32	35.075
730.64	28.622
730.96	29.434
731.27	29.667
731.59	31.525
731.90	24.204
732.22	32.808
732.53	27.575
732.85	31.206
733.16	29.293
733.48	27.698
733.80	27.536
734.11	26.102
734.43	27.491
734.74	28.788
735.06	26.059
735.37	30.816
735.69	28.620
736.00	25.436
736.32	27.517
736.63	28.873
736.95	30.034
737.26	29.181
737.58	27.517
737.89	28.938
738.21	27.068
738.52	34.979
738.83	28.821
739.15	29.258
739.46	31.102
739.78	29.670
740.09	26.797
740.41	29.710
740.72	25.197
741.04	27.530
741.35	25.957
741.66	31.280
741.98	31.122
742.29	28.218
742.61	33.508
742.92	23.223
743.23	20.370
743.55	27.602
743.86	26.794
744.18	28.230
744.49	23.404
744.80	27.717
745.12	37.433
745.43	28.780
745.74	28.125
746.06	30.244
746.37	28.272
746.68	26.066
747.00	29.787
747.31	31.343
747.62	26.214
747.94	33.014
748.25	27.723
748.56	30.055
748.88	27.225
749.19	34.043
749.50	30.049
749.82	23.585
750.13	27.523
750.44	31.579
750.75	29.478
751.07	31.387
751.38	27.203
751.69	29.804
752.01	27.907
752.32	23.904
752.63	25.296
752.94	28.017
753.26	34.310
753.57	29.864
753.88	28.319
754.19	27.917
754.51	23.967
754.82	20.648
755.13	34.167
755.44	28.629
755.75	31.250
756.07	31.907
756.38	23.774
756.69	25.670
757.00	26.000
757.31	25.817
757.63	25.305
757.94	24.167
758.25	21.096
758.56	25.266
758.87	24.079
759.18	21.184
759.50	25.091
759.81	28.094
760.12	24.839
760.43	23.636
760.74	24.383
761.05	24.000
761.36	24.432
761.67	28.182
761.99	33.333
762.30	25.455
762.61	30.830
762.92	20.814
763.23	26.577
763.54	25.701
763.85	28.390
764.16	25.311
764.47	22.177
764.78	27.473
765.10	25.589
765.41	22.713
765.72	28.571
766.03	25.940
766.34	26.642
766.65	29.084
766.96	29.798
767.27	25.000
767.58	25.862
767.89	33.333
768.20	28.409
768.51	24.725
768.82	27.094
769.13	22.120
769.44	23.605
769.75	21.461
770.06	25.000
770.37	27.404
770.68	23.350
770.99	21.719
771.30	25.490
771.61	25.339
771.92	22.845
772.23	28.079
772.54	31.720
772.85	25.926
773.16	25.281
773.47	32.026
773.78	28.105
774.09	22.754
774.39	23.333
774.70	28.025
775.01	31.724
775.32	28.571
775.63	21.488
775.94	29.008
776.25	28.346
776.56	30.000
776.87	25.962
777.18	20.513
777.48	28.448
777.79	21.739
778.10	21.905
778.41	27.027
778.72	26.984
779.03	22.556
779.34	29.078
779.65	24.658
779.95	15.068
780.26	27.586
780.57	11.382
780.88	25.984
781.19	21.552
781.50	24.806
781.80	21.893
782.11	18.868
782.42	24.615
782.73	18.705
783.04	20.741
783.34	20.833
783.65	12.821
783.96	24.590
784.27	26.207
784.57	14.634
784.88	15.625
785.19	37.000
785.50	28.000
785.81	27.586
786.11	22.414
786.42	14.563
786.73	24.545
787.04	18.367
787.34	20.536
787.65	28.571
787.96	23.009
788.26	38.182
788.57	27.350
788.88	23.438
789.19	30.952
789.49	23.478
789.80	41.837
790.11	29.293
790.41	19.091
790.72	36.957
791.03	12.500
791.33	25.000
791.64	22.500
791.95	20.930
792.25	21.277
792.56	17.978
792.87	35.616
793.17	21.739
793.48	-8.000
793.79	16.250
794.09	30.000
794.40	16.038
794.70	17.476
795.01	23.577
795.32	22.222
795.62	23.810
795.93	13.725
796.23	24.528
796.54	36.458
796.85	17.647
797.15	7.042
797.46	34.722
797.76	36.364
798.07	30.233
798.37	2.632
798.68	19.697
798.99	27.160
799.29	28.571
799.60	4.348
799.90	34.667
800.21	34.426
800.51	12.308
800.82	35.593
801.12	11.594
801.43	26.230
801.73	36.508
802.04	20.000
802.34	19.403
802.65	28.846
802.95	23.214
803.26	21.154
803.56	29.412
803.87	15.217
804.17	29.333
804.48	46.032
804.78	27.778
805.09	13.043
805.39	-2.222
805.70	18.519
806.00	-8.772
806.30	14.085
806.61	15.714
806.91	13.889
807.22	31.579
807.52	32.000
807.83	9.091
808.13	12.500
808.43	26.471
808.74	22.388
809.04	18.644
809.35	30.769
809.65	3.125
809.95	2.703
810.26	15.909
810.56	24.658
810.86	14.286
811.17	12.000
811.47	22.449
811.77	15.789
812.08	15.909
812.38	15.094
812.69	15.000
812.99	-3.030
813.29	15.789
813.59	8.571
813.90	47.727
814.20	15.385
814.50	17.308
814.81	18.868
815.11	6.383
815.41	25.424
815.72	9.524
816.02	33.333
816.32	35.417
816.62	19.512
816.93	24.324
817.23	-11.429
817.53	27.083
817.84	23.913
818.14	25.000
818.44	-13.158
818.74	43.478
819.04	-12.500
819.35	18.919
819.65	23.529
819.95	2.778
820.25	0.000
820.56	37.500
820.86	-44.828
821.16	50.000
821.46	19.149
821.76	10.000
822.07	18.605
822.37	0.000
822.67	12.500
822.97	35.714
823.27	-14.286
823.57	4.000
823.88	-18.519
824.18	17.857
824.48	17.647
824.78	3.226
825.08	34.783
825.38	39.394
825.69	-45.833
825.99	21.053
826.29	2.778
826.59	26.667
826.89	-57.143
827.19	26.087
827.49	-10.000
827.79	28.571
828.09	10.714
828.39	9.091
828.70	45.946
829.00	-21.429
829.30	-14.286
829.60	13.333
829.90	6.250
830.20	18.421
830.50	7.407
830.80	-13.043
831.10	-9.091
831.40	33.333
831.70	29.032
832.00	52.381
832.30	-19.048
832.60	-16.667
832.90	10.345
833.20	-65.000
833.50	24.242
833.80	40.741
834.10	38.462
834.40	12.500
834.70	0.000
835.00	10.526
835.30	50.000
835.60	0.000
835.90	9.677
836.20	22.727
836.50	7.143
836.80	-26.923
837.10	14.286
837.40	-466.667
837.70	4.545
838.00	-127.273
838.30	4.348
838.60	23.077
838.90	9.091
839.19	50.000
839.49	10.000
839.79	0.000
840.09	-50.000
840.39	42.857
840.69	-3.571
840.99	23.077
841.29	-94.737
841.59	-150.000
841.88	-18.182
842.18	-50.000
842.48	18.750
842.78	20.000
843.08	33.333
843.38	-50.000
843.68	8.696
843.97	13.333
844.27	-6.667
844.57	0.000
844.87	22.222
845.17	-9.524
845.47	13.333
845.76	9.524
846.06	-11.765
846.36	70.000
846.66	-21.429
846.96	20.000
847.25	-112.500
847.55	-21.429
847.85	12.500
848.15	0.000
848.44	-500.000
848.74	35.000
849.04	59.259
849.34	63.636
849.63	-233.333
849.93	-360.000
850.23	-16.667
850.53	50.000
850.82	-53.846
851.12	-22.222
851.42	40.000
851.71	19.231
852.01	-50.000
852.31	-75.000
852.61	-36.364
852.90	-35.000
853.20	31.579
853.50	-16.667
853.79	21.739
854.09	29.167
854.39	-73.684
854.68	4.167
854.98	9.677
855.28	15.385
855.57	5.000
855.87	22.222
856.17	18.519
856.46	7.143
856.76	-53.333
857.05	33.333
857.35	24.000
857.65	-50.000
857.94	-23.077
858.24	24.138
858.53	11.111
858.83	11.111
859.13	-31.818
859.42	-8.696
859.72	50.000
860.01	-366.667
860.31	24.000
860.60	4.762
860.90	-333.333
861.20	-80.000
861.49	-850.000
861.79	-73.333
862.08	-20.000
862.38	6.667
862.67	-120.000
862.97	83.333
863.26	58.333
863.56	5.556
863.85	-366.667
864.15	27.778
864.44	-40.000
864.74	28.571
865.03	450.000
865.33	140.000
865.62	-100.000
865.92	-41.667
866.21	-50.000
866.51	0.000
866.80	54.545
867.10	-50.000
867.39	-25.000
867.69	0.000
867.98	-53.846
868.27	-233.333
868.57	13.333
868.86	-16.667
869.16	-38.462
869.45	13.333
869.75	-600.000
870.04	0.000
870.33	-157.143
870.63	38.095
870.92	533.333
871.22	-260.000
871.51	-800.000
871.80	77.778
872.10	400.000
>>>>>End Processed Spectral Data<<<<<
