SpectraSuite Data File
++++++++++++++++++++++++++++++++++++
Date: Fri May 15 20:37:49 PDT 2015
User: schluterlab
Dark Spectrum Present: Yes
Reference Spectrum Present: Yes
Number of Sampled Component Spectra: 1
Spectrometers: USB2E3373
Integration Time (usec): 3000 (USB2E3373)
Spectra Averaged: 3 (USB2E3373)
Boxcar Smoothing: 0 (USB2E3373)
Correct for Electrical Dark: No (USB2E3373)
Strobe/Lamp Enabled: No (USB2E3373)
Correct for Detector Non-linearity: No (USB2E3373)
Correct for Stray Light: No (USB2E3373)
Number of Pixels in Processed Spectrum: 2048
>>>>>Begin Processed Spectral Data<<<<<
178.53	0.000
178.91	0.000
179.29	12.500
179.67	-350.000
180.04	-28.571
180.42	125.000
180.80	-300.000
181.18	266.667
181.56	150.000
181.94	-200.000
182.31	900.000
182.69	160.000
183.07	-200.000
183.45	-120.000
183.83	83.333
184.20	-18.182
184.58	88.889
184.96	-200.000
185.34	300.000
185.72	-550.000
186.09	53.846
186.47	-1000.000
186.85	316.667
187.23	77.778
187.61	100.000
187.98	-533.333
188.36	-88.889
188.74	-200.000
189.12	-17.647
189.49	44.444
189.87	0.000
190.25	42.857
190.63	50.000
191.00	-600.000
191.38	-52.632
191.76	150.000
192.14	50.000
192.51	250.000
192.89	33.333
193.27	-114.286
193.65	183.333
194.02	136.364
194.40	30.000
194.78	-125.000
195.15	-16.667
195.53	-137.500
195.91	275.000
196.29	-100.000
196.66	107.692
197.04	271.429
197.42	100.000
197.79	-33.333
198.17	-123.077
198.55	1300.000
198.92	-200.000
199.30	-400.000
199.68	-40.000
200.05	33.333
200.43	0.000
200.81	-266.667
201.18	-66.667
201.56	900.000
201.94	0.000
202.31	166.667
202.69	-120.000
203.07	275.000
203.44	0.000
203.82	0.000
204.19	0.000
204.57	-66.667
204.95	12.500
205.32	50.000
205.70	14.286
206.08	-175.000
206.45	166.667
206.83	128.571
207.20	-128.571
207.58	200.000
207.96	-66.667
208.33	-80.000
208.71	-150.000
209.08	-133.333
209.46	-600.000
209.84	-40.000
210.21	-800.000
210.59	-71.429
210.96	-133.333
211.34	-75.000
211.71	-6.667
212.09	-42.857
212.46	-700.000
212.84	0.000
213.22	40.000
213.59	200.000
213.97	38.462
214.34	45.455
214.72	0.000
215.09	450.000
215.47	-7.692
215.84	-81.818
216.22	-33.333
216.59	-37.500
216.97	-100.000
217.34	0.000
217.72	-340.000
218.09	12.500
218.47	37.500
218.84	-1200.000
219.22	11.111
219.59	-180.000
219.97	66.667
220.34	125.000
220.72	85.714
221.09	-350.000
221.47	50.000
221.84	-200.000
222.22	-1150.000
222.59	9.091
222.97	-33.333
223.34	-233.333
223.72	14.286
224.09	-52.381
224.46	0.000
224.84	466.667
225.21	20.000
225.59	0.000
225.96	-100.000
226.34	125.000
226.71	28.571
227.08	-116.667
227.46	87.500
227.83	-400.000
228.21	44.444
228.58	-9.091
228.95	-150.000
229.33	80.000
229.70	31.250
230.08	-12.500
230.45	-42.857
230.82	28.571
231.20	-33.333
231.57	42.857
231.95	-57.143
232.32	-120.000
232.69	78.571
233.07	100.000
233.44	-220.000
233.81	10.000
234.19	44.444
234.56	-29.412
234.93	-200.000
235.31	100.000
235.68	-80.000
236.05	53.846
236.43	-10.000
236.80	47.059
237.17	28.125
237.55	40.000
237.92	22.222
238.29	33.333
238.67	26.667
239.04	38.235
239.41	12.195
239.79	23.333
240.16	63.415
240.53	52.632
240.91	32.609
241.28	22.222
241.65	50.000
242.02	39.726
242.40	55.000
242.77	59.322
243.14	43.939
243.51	57.500
243.89	68.966
244.26	65.517
244.63	54.762
245.00	48.454
245.38	54.639
245.75	57.303
246.12	44.828
246.49	56.198
246.87	56.731
247.24	47.899
247.61	58.772
247.98	64.228
248.36	51.875
248.73	59.211
249.10	50.649
249.47	53.165
249.84	58.824
250.22	55.294
250.59	56.209
250.96	52.582
251.33	54.651
251.70	67.059
252.08	58.376
252.45	57.921
252.82	62.312
253.19	62.212
253.56	57.944
253.94	60.360
254.31	58.261
254.68	62.719
255.05	59.843
255.42	58.079
255.79	59.073
256.16	58.366
256.54	58.209
256.91	58.555
257.28	57.249
257.65	56.180
258.02	58.511
258.39	57.912
258.76	58.608
259.14	62.791
259.51	57.929
259.88	59.794
260.25	61.111
260.62	63.194
260.99	58.305
261.36	58.219
261.73	63.924
262.10	59.574
262.47	59.202
262.85	60.188
263.22	58.154
263.59	65.421
263.96	64.286
264.33	60.606
264.70	61.607
265.07	57.738
265.44	61.756
265.81	61.299
266.18	64.208
266.55	58.612
266.92	58.031
267.29	58.747
267.66	57.033
268.03	60.995
268.40	60.052
268.77	64.439
269.14	59.712
269.51	60.925
269.88	56.110
270.25	57.398
270.62	61.220
270.99	60.358
271.36	59.169
271.73	57.277
272.10	60.097
272.47	59.811
272.84	59.158
273.21	60.557
273.58	64.337
273.95	61.785
274.32	59.122
274.69	52.715
275.06	60.045
275.43	57.823
275.80	57.616
276.17	58.621
276.54	57.816
276.91	57.895
277.28	57.424
277.65	55.579
278.02	57.872
278.39	59.737
278.76	57.862
279.13	54.979
279.50	59.454
279.87	56.587
280.23	56.989
280.60	54.971
280.97	58.990
281.34	54.808
281.71	58.316
282.08	55.419
282.45	56.751
282.82	54.247
283.19	56.480
283.56	55.684
283.92	55.598
284.29	54.231
284.66	53.488
285.03	55.796
285.40	54.631
285.77	53.603
286.14	54.513
286.51	55.535
286.87	53.016
287.24	54.512
287.61	52.028
287.98	54.035
288.35	52.686
288.72	53.765
289.08	50.000
289.45	51.670
289.82	51.748
290.19	48.635
290.56	50.257
290.93	50.168
291.29	49.153
291.66	47.402
292.03	48.644
292.40	46.452
292.77	49.920
293.13	46.104
293.50	46.282
293.87	48.244
294.24	47.295
294.60	43.517
294.97	45.982
295.34	45.092
295.71	46.051
296.08	42.601
296.44	42.390
296.81	44.028
297.18	44.493
297.55	43.902
297.91	43.288
298.28	42.612
298.65	39.620
299.02	41.105
299.38	41.040
299.75	41.931
300.12	39.398
300.48	41.634
300.85	39.417
301.22	39.870
301.59	38.816
301.95	40.127
302.32	39.948
302.69	39.677
303.05	38.366
303.42	40.224
303.79	39.836
304.15	38.232
304.52	38.050
304.89	37.427
305.25	37.893
305.62	35.939
305.99	36.374
306.35	37.225
306.72	37.233
307.09	38.198
307.45	38.462
307.82	37.963
308.19	36.818
308.55	37.405
308.92	37.473
309.29	35.866
309.65	36.168
310.02	37.624
310.38	37.212
310.75	38.033
311.12	37.352
311.48	35.949
311.85	35.079
312.22	36.181
312.58	35.138
312.95	34.578
313.31	34.265
313.68	36.126
314.05	34.388
314.41	35.052
314.78	35.361
315.14	36.485
315.51	34.990
315.87	35.041
316.24	37.513
316.61	34.252
316.97	37.004
317.34	36.230
317.70	35.660
318.07	34.519
318.43	35.882
318.80	34.280
319.16	35.352
319.53	35.138
319.89	34.941
320.26	34.818
320.62	35.807
320.99	33.716
321.35	34.635
321.72	35.722
322.08	35.650
322.45	36.142
322.81	36.542
323.18	35.132
323.54	36.197
323.91	33.885
324.27	35.156
324.64	34.831
325.00	35.675
325.37	35.445
325.73	33.545
326.10	35.513
326.46	33.901
326.83	34.821
327.19	34.438
327.56	35.534
327.92	35.827
328.29	34.196
328.65	35.189
329.01	34.283
329.38	35.392
329.74	34.278
330.11	34.198
330.47	32.282
330.84	33.750
331.20	37.167
331.56	33.611
331.93	34.795
332.29	35.839
332.66	34.118
333.02	34.572
333.38	32.264
333.75	34.524
334.11	31.961
334.48	35.086
334.84	33.333
335.20	33.669
335.57	31.460
335.93	33.604
336.29	33.886
336.66	32.879
337.02	32.342
337.38	31.111
337.75	32.455
338.11	32.552
338.47	33.577
338.84	33.919
339.20	32.358
339.56	33.211
339.93	32.677
340.29	33.028
340.65	33.781
341.02	32.801
341.38	32.389
341.74	31.449
342.11	30.763
342.47	32.384
342.83	32.612
343.20	32.578
343.56	32.174
343.92	31.798
344.28	32.878
344.65	32.383
345.01	31.461
345.37	30.866
345.73	32.218
346.10	31.665
346.46	32.548
346.82	31.424
347.19	31.338
347.55	31.746
347.91	32.120
348.27	31.285
348.63	31.431
349.00	31.173
349.36	31.837
349.72	31.758
350.08	32.131
350.45	31.045
350.81	30.565
351.17	30.130
351.53	32.000
351.89	30.471
352.26	30.320
352.62	30.645
352.98	29.398
353.34	30.354
353.70	30.663
354.07	30.000
354.43	29.944
354.79	28.819
355.15	30.635
355.51	30.538
355.87	30.663
356.24	29.608
356.60	30.558
356.96	30.952
357.32	29.553
357.68	28.851
358.04	29.887
358.40	30.064
358.77	30.702
359.13	30.184
359.49	29.122
359.85	29.329
360.21	30.383
360.57	30.298
360.93	29.425
361.29	29.154
361.66	29.859
362.02	30.758
362.38	29.322
362.74	30.053
363.10	31.151
363.46	29.652
363.82	30.203
364.18	29.520
364.54	29.191
364.90	29.032
365.26	29.767
365.62	31.241
365.98	29.032
366.35	30.226
366.71	28.603
367.07	30.189
367.43	28.613
367.79	28.339
368.15	28.787
368.51	30.080
368.87	27.782
369.23	28.375
369.59	29.738
369.95	29.179
370.31	28.251
370.67	27.910
371.03	27.931
371.39	28.301
371.75	29.451
372.11	28.174
372.47	29.438
372.83	29.170
373.19	28.887
373.55	29.531
373.91	29.806
374.27	29.199
374.63	28.212
374.99	27.447
375.35	28.412
375.71	29.021
376.07	28.441
376.42	28.435
376.78	28.389
377.14	29.587
377.50	28.154
377.86	28.246
378.22	27.888
378.58	28.590
378.94	28.607
379.30	27.698
379.66	28.464
380.02	28.633
380.38	27.937
380.74	27.229
381.09	29.080
381.45	28.379
381.81	27.699
382.17	27.728
382.53	27.795
382.89	28.123
383.25	27.878
383.61	28.963
383.97	27.365
384.32	26.391
384.68	27.740
385.04	26.777
385.40	27.505
385.76	27.736
386.12	28.525
386.48	27.842
386.83	28.155
387.19	27.534
387.55	28.545
387.91	27.995
388.27	28.205
388.62	27.816
388.98	27.072
389.34	27.295
389.70	27.843
390.06	27.250
390.42	27.655
390.77	27.731
391.13	27.427
391.49	27.296
391.85	27.745
392.20	28.060
392.56	27.336
392.92	27.833
393.28	28.538
393.64	27.387
393.99	27.524
394.35	26.882
394.71	27.458
395.07	25.770
395.42	27.019
395.78	27.622
396.14	26.608
396.50	28.091
396.85	27.753
397.21	27.318
397.57	27.900
397.92	26.902
398.28	27.299
398.64	26.687
399.00	27.540
399.35	26.129
399.71	26.881
400.07	27.328
400.42	26.805
400.78	27.863
401.14	26.558
401.49	27.635
401.85	26.935
402.21	27.410
402.57	28.312
402.92	26.286
403.28	26.504
403.63	27.554
403.99	26.913
404.35	27.233
404.70	26.607
405.06	27.145
405.42	27.968
405.77	26.438
406.13	27.299
406.49	26.406
406.84	27.200
407.20	27.995
407.55	26.207
407.91	27.206
408.27	26.832
408.62	28.369
408.98	27.049
409.34	27.200
409.69	27.519
410.05	26.416
410.40	26.358
410.76	27.865
411.11	27.500
411.47	26.627
411.83	26.491
412.18	27.542
412.54	25.780
412.89	26.047
413.25	26.895
413.60	26.646
413.96	26.135
414.31	26.707
414.67	27.133
415.03	26.232
415.38	27.219
415.74	27.296
416.09	27.890
416.45	27.211
416.80	26.966
417.16	27.279
417.51	27.781
417.87	27.510
418.22	27.008
418.58	27.157
418.93	28.213
419.29	26.056
419.64	26.572
420.00	27.960
420.35	26.746
420.71	26.488
421.06	27.133
421.42	27.584
421.77	26.416
422.12	26.447
422.48	27.017
422.83	27.378
423.19	26.919
423.54	26.396
423.90	26.561
424.25	27.325
424.61	28.397
424.96	26.249
425.31	27.210
425.67	26.232
426.02	27.915
426.38	26.800
426.73	28.450
427.09	27.975
427.44	27.235
427.79	27.755
428.15	27.791
428.50	27.075
428.85	26.658
429.21	26.995
429.56	27.385
429.92	27.221
430.27	27.118
430.62	25.980
430.98	26.911
431.33	27.865
431.68	26.949
432.04	27.725
432.39	26.127
432.74	26.518
433.10	27.874
433.45	26.822
433.80	26.349
434.16	26.814
434.51	26.935
434.86	26.945
435.22	27.201
435.57	27.511
435.92	27.006
436.28	26.953
436.63	26.811
436.98	26.999
437.34	26.981
437.69	27.728
438.04	27.123
438.39	27.001
438.75	27.140
439.10	26.316
439.45	27.267
439.81	26.789
440.16	27.078
440.51	27.881
440.86	28.218
441.22	26.867
441.57	27.815
441.92	27.859
442.27	28.215
442.63	28.051
442.98	26.939
443.33	26.822
443.68	26.366
444.03	27.074
444.39	27.398
444.74	27.815
445.09	27.951
445.44	27.066
445.79	27.592
446.15	27.313
446.50	27.011
446.85	27.524
447.20	27.112
447.55	26.618
447.91	27.242
448.26	26.522
448.61	27.231
448.96	26.793
449.31	28.208
449.66	26.887
450.02	27.382
450.37	27.090
450.72	27.320
451.07	28.165
451.42	27.403
451.77	28.149
452.12	26.794
452.47	27.688
452.83	27.444
453.18	27.514
453.53	27.939
453.88	27.808
454.23	27.904
454.58	28.149
454.93	27.642
455.28	25.841
455.63	27.650
455.98	27.420
456.34	27.458
456.69	28.018
457.04	28.986
457.39	28.068
457.74	28.356
458.09	27.016
458.44	27.970
458.79	28.291
459.14	28.261
459.49	28.119
459.84	27.580
460.19	28.034
460.54	29.218
460.89	27.784
461.24	28.075
461.59	28.979
461.94	27.925
462.29	28.890
462.64	29.302
462.99	28.910
463.34	27.955
463.69	27.992
464.04	27.421
464.39	27.956
464.74	28.589
465.09	27.573
465.44	27.986
465.79	27.438
466.14	27.879
466.49	28.522
466.84	28.376
467.19	28.536
467.54	27.075
467.89	27.669
468.24	27.981
468.59	28.444
468.94	28.889
469.29	28.459
469.64	28.982
469.99	29.713
470.34	27.372
470.68	28.635
471.03	30.007
471.38	29.815
471.73	28.081
472.08	28.426
472.43	28.322
472.78	27.759
473.13	28.503
473.48	28.860
473.83	28.954
474.17	29.016
474.52	28.207
474.87	28.121
475.22	27.700
475.57	27.668
475.92	28.744
476.27	27.707
476.61	29.456
476.96	27.830
477.31	28.610
477.66	28.090
478.01	28.467
478.36	27.179
478.70	28.711
479.05	28.956
479.40	29.200
479.75	28.832
480.10	28.059
480.45	28.750
480.79	29.104
481.14	29.559
481.49	28.276
481.84	28.764
482.19	28.017
482.53	28.345
482.88	28.067
483.23	29.031
483.58	28.396
483.92	28.364
484.27	28.350
484.62	28.642
484.97	27.363
485.31	27.637
485.66	26.303
486.01	26.301
486.36	26.323
486.70	27.153
487.05	27.474
487.40	27.740
487.75	27.803
488.09	27.812
488.44	28.370
488.79	28.950
489.13	28.606
489.48	28.303
489.83	28.924
490.17	28.045
490.52	28.637
490.87	29.107
491.22	28.701
491.56	29.080
491.91	27.533
492.26	28.488
492.60	28.743
492.95	29.464
493.30	28.188
493.64	29.126
493.99	29.372
494.34	28.398
494.68	28.952
495.03	27.932
495.37	29.441
495.72	28.521
496.07	29.122
496.41	28.160
496.76	28.328
497.11	28.319
497.45	29.547
497.80	29.011
498.14	28.763
498.49	28.644
498.84	29.641
499.18	29.920
499.53	29.167
499.87	28.502
500.22	29.723
500.56	28.946
500.91	28.213
501.26	29.214
501.60	29.120
501.95	29.209
502.29	29.346
502.64	29.778
502.98	29.255
503.33	28.146
503.67	28.434
504.02	29.081
504.36	29.688
504.71	28.586
505.06	28.334
505.40	29.898
505.75	29.124
506.09	29.093
506.44	30.339
506.78	30.204
507.13	29.679
507.47	28.198
507.82	29.167
508.16	29.424
508.51	29.958
508.85	29.827
509.19	28.579
509.54	29.223
509.88	27.886
510.23	30.016
510.57	29.984
510.92	28.412
511.26	29.896
511.61	30.143
511.95	30.356
512.30	29.767
512.64	29.271
512.98	28.411
513.33	30.890
513.67	29.790
514.02	30.835
514.36	30.971
514.70	30.128
515.05	30.259
515.39	30.519
515.74	30.479
516.08	30.066
516.42	29.800
516.77	30.193
517.11	30.801
517.46	30.760
517.80	30.572
518.14	30.741
518.49	30.769
518.83	30.620
519.17	29.169
519.52	29.426
519.86	29.952
520.20	30.073
520.55	30.144
520.89	31.054
521.23	30.462
521.58	30.410
521.92	31.859
522.26	31.555
522.61	30.649
522.95	31.854
523.29	30.559
523.64	30.813
523.98	30.979
524.32	30.155
524.66	31.434
525.01	31.039
525.35	31.886
525.69	31.044
526.04	30.886
526.38	31.842
526.72	29.758
527.06	30.869
527.41	31.662
527.75	30.764
528.09	30.365
528.43	31.398
528.78	31.023
529.12	30.903
529.46	31.904
529.80	30.779
530.15	31.155
530.49	30.236
530.83	31.874
531.17	30.625
531.51	32.216
531.86	31.475
532.20	31.315
532.54	30.565
532.88	32.512
533.22	30.712
533.57	31.717
533.91	30.483
534.25	31.836
534.59	31.238
534.93	30.208
535.27	28.680
535.62	30.849
535.96	31.572
536.30	31.201
536.64	31.082
536.98	30.453
537.32	31.650
537.66	31.907
538.01	31.538
538.35	31.276
538.69	31.558
539.03	30.349
539.37	32.234
539.71	30.539
540.05	30.414
540.39	31.994
540.73	31.311
541.07	31.630
541.42	31.452
541.76	31.659
542.10	30.902
542.44	31.689
542.78	30.626
543.12	29.945
543.46	31.711
543.80	30.118
544.14	30.174
544.48	31.579
544.82	30.827
545.16	31.557
545.50	31.175
545.84	32.365
546.18	31.631
546.52	31.218
546.86	30.482
547.20	31.187
547.54	30.742
547.88	31.114
548.22	29.520
548.56	30.805
548.90	30.997
549.24	31.267
549.58	30.959
549.92	30.808
550.26	31.136
550.60	32.119
550.94	32.263
551.28	31.453
551.62	32.077
551.96	31.429
552.30	31.067
552.64	29.055
552.98	30.380
553.32	31.384
553.66	30.261
554.00	32.409
554.34	31.684
554.68	30.826
555.02	31.771
555.36	31.638
555.69	31.062
556.03	30.050
556.37	30.107
556.71	30.686
557.05	31.394
557.39	30.186
557.73	31.484
558.07	31.976
558.41	30.781
558.75	31.567
559.08	31.836
559.42	31.984
559.76	32.266
560.10	31.422
560.44	31.199
560.78	31.399
561.12	31.241
561.45	31.272
561.79	30.532
562.13	32.363
562.47	31.007
562.81	31.124
563.15	30.818
563.48	31.188
563.82	31.434
564.16	31.337
564.50	30.946
564.84	31.191
565.17	30.852
565.51	31.079
565.85	31.413
566.19	30.504
566.52	30.764
566.86	30.913
567.20	30.075
567.54	30.474
567.88	31.166
568.21	31.957
568.55	30.598
568.89	29.107
569.23	30.332
569.56	29.159
569.90	29.923
570.24	28.210
570.57	29.455
570.91	29.662
571.25	28.708
571.59	28.527
571.92	28.237
572.26	27.929
572.60	28.558
572.93	28.553
573.27	28.997
573.61	28.043
573.95	27.936
574.28	27.966
574.62	28.121
574.96	27.400
575.29	27.839
575.63	27.365
575.97	27.596
576.30	28.254
576.64	27.682
576.98	28.314
577.31	28.115
577.65	28.670
577.98	27.937
578.32	27.779
578.66	27.316
578.99	28.077
579.33	27.404
579.67	27.403
580.00	27.620
580.34	28.284
580.67	27.992
581.01	28.242
581.35	27.562
581.68	27.258
582.02	26.886
582.35	27.242
582.69	27.308
583.02	28.071
583.36	27.727
583.70	28.323
584.03	29.413
584.37	28.910
584.70	29.121
585.04	27.876
585.37	27.568
585.71	27.203
586.04	27.761
586.38	28.034
586.72	28.350
587.05	28.856
587.39	28.767
587.72	28.732
588.06	27.927
588.39	28.738
588.73	28.449
589.06	28.604
589.40	29.036
589.73	29.646
590.07	29.041
590.40	29.102
590.73	29.860
591.07	29.474
591.40	30.321
591.74	30.226
592.07	29.685
592.41	29.373
592.74	27.758
593.08	27.768
593.41	28.270
593.75	27.740
594.08	28.115
594.41	28.348
594.75	28.435
595.08	28.717
595.42	28.635
595.75	29.290
596.09	28.968
596.42	29.103
596.75	29.218
597.09	29.339
597.42	29.539
597.75	29.363
598.09	28.656
598.42	29.061
598.76	27.971
599.09	28.526
599.42	27.321
599.76	28.292
600.09	28.695
600.42	28.127
600.76	27.526
601.09	28.397
601.42	28.672
601.76	28.464
602.09	28.424
602.42	29.233
602.76	29.626
603.09	29.693
603.42	30.518
603.76	28.427
604.09	28.635
604.42	28.849
604.76	30.040
605.09	30.119
605.42	29.436
605.75	28.415
606.09	28.493
606.42	28.774
606.75	29.481
607.09	29.495
607.42	28.401
607.75	29.041
608.08	28.167
608.42	28.963
608.75	29.205
609.08	28.799
609.41	29.848
609.75	29.486
610.08	28.857
610.41	28.792
610.74	29.254
611.07	28.837
611.41	29.580
611.74	29.638
612.07	28.640
612.40	30.088
612.73	29.605
613.07	28.459
613.40	29.048
613.73	30.050
614.06	28.826
614.39	29.893
614.72	29.356
615.06	28.939
615.39	28.930
615.72	29.225
616.05	29.106
616.38	28.832
616.71	30.153
617.05	30.513
617.38	29.541
617.71	29.182
618.04	31.111
618.37	30.580
618.70	30.627
619.03	31.111
619.36	30.174
619.69	32.221
620.03	30.679
620.36	30.114
620.69	30.264
621.02	30.428
621.35	32.448
621.68	32.228
622.01	32.333
622.34	31.125
622.67	31.073
623.00	30.704
623.33	31.555
623.66	29.768
623.99	30.560
624.32	29.506
624.65	28.947
624.99	30.926
625.32	29.492
625.65	32.757
625.98	31.910
626.31	31.255
626.64	33.016
626.97	31.763
627.30	30.998
627.63	32.062
627.96	33.154
628.29	32.470
628.62	32.940
628.95	31.162
629.28	32.964
629.61	31.107
629.94	30.890
630.26	31.522
630.59	33.611
630.92	33.128
631.25	31.385
631.58	32.379
631.91	31.250
632.24	33.257
632.57	34.205
632.90	33.808
633.23	33.529
633.56	32.242
633.89	33.662
634.22	33.457
634.55	33.164
634.88	31.801
635.20	30.897
635.53	33.467
635.86	33.030
636.19	34.541
636.52	32.526
636.85	31.514
637.18	32.453
637.51	31.824
637.83	34.034
638.16	35.880
638.49	33.243
638.82	35.000
639.15	31.615
639.48	34.663
639.81	34.728
640.13	34.343
640.46	34.694
640.79	32.695
641.12	34.860
641.45	33.634
641.77	32.593
642.10	35.229
642.43	33.441
642.76	35.809
643.09	34.572
643.41	33.333
643.74	31.137
644.07	33.826
644.40	37.838
644.73	35.552
645.05	33.893
645.38	34.744
645.71	34.220
646.04	36.625
646.36	34.220
646.69	33.993
647.02	37.240
647.35	36.007
647.67	33.272
648.00	35.634
648.33	33.788
648.66	35.763
648.98	32.831
649.31	34.545
649.64	32.339
649.96	32.091
650.29	33.049
650.62	34.359
650.94	32.222
651.27	33.520
651.60	35.315
651.92	35.315
652.25	31.794
652.58	35.333
652.90	33.791
653.23	31.765
653.56	33.672
653.88	32.474
654.21	31.349
654.54	30.900
654.86	35.144
655.19	31.433
655.52	29.876
655.84	24.865
656.17	28.144
656.49	38.361
656.82	41.022
657.15	32.496
657.47	24.581
657.80	18.465
658.13	18.705
658.45	29.461
658.78	30.307
659.10	30.163
659.43	30.163
659.75	31.228
660.08	32.069
660.41	33.095
660.73	31.630
661.06	33.276
661.38	34.051
661.71	31.006
662.03	37.339
662.36	36.044
662.68	33.628
663.01	32.314
663.33	34.571
663.66	34.419
663.98	33.256
664.31	36.887
664.63	33.180
664.96	34.130
665.28	32.892
665.61	35.498
665.93	33.913
666.26	35.141
666.58	30.872
666.91	35.294
667.23	35.613
667.56	35.782
667.88	33.333
668.21	32.697
668.53	33.806
668.86	34.906
669.18	30.660
669.50	32.930
669.83	36.279
670.15	35.431
670.48	36.842
670.80	35.023
671.13	34.228
671.45	31.507
671.77	36.481
672.10	32.871
672.42	31.273
672.75	33.393
673.07	33.631
673.39	32.294
673.72	30.375
674.04	33.958
674.37	34.322
674.69	30.407
675.01	32.889
675.34	34.685
675.66	37.037
675.98	34.590
676.31	31.422
676.63	34.917
676.95	33.864
677.28	38.824
677.60	35.904
677.92	33.257
678.25	32.604
678.57	32.468
678.89	30.462
679.22	34.004
679.54	29.920
679.86	31.213
680.18	31.068
680.51	31.629
680.83	32.008
681.15	31.000
681.48	35.656
681.80	32.438
682.12	32.460
682.44	31.172
682.77	34.879
683.09	32.723
683.41	31.818
683.73	33.180
684.06	32.301
684.38	30.323
684.70	33.987
685.02	29.668
685.34	29.644
685.67	32.645
685.99	32.731
686.31	31.150
686.63	31.169
686.96	30.418
687.28	27.879
687.60	30.798
687.92	34.545
688.24	32.056
688.56	31.659
688.89	30.357
689.21	33.333
689.53	31.555
689.85	32.558
690.17	33.482
690.49	31.206
690.82	34.466
691.14	31.190
691.46	31.776
691.78	32.883
692.10	31.613
692.42	29.870
692.74	32.265
693.06	32.658
693.39	32.353
693.71	29.412
694.03	28.637
694.35	33.178
694.67	32.071
694.99	32.637
695.31	35.509
695.63	33.000
695.95	32.071
696.27	31.088
696.59	36.111
696.91	31.092
697.23	31.877
697.56	30.693
697.88	29.677
698.20	31.207
698.52	32.706
698.84	30.383
699.16	31.750
699.48	34.586
699.80	31.762
700.12	30.997
700.44	31.933
700.76	34.302
701.08	30.909
701.40	33.133
701.72	36.111
702.04	32.343
702.36	34.448
702.68	28.228
703.00	34.848
703.32	31.965
703.64	29.096
703.96	31.594
704.28	30.982
704.60	31.111
704.91	33.123
705.23	33.223
705.55	33.922
705.87	29.603
706.19	33.333
706.51	36.426
706.83	33.441
707.15	30.218
707.47	33.613
707.79	29.427
708.11	32.500
708.43	30.750
708.74	28.682
709.06	31.268
709.38	30.887
709.70	31.361
710.02	32.166
710.34	32.198
710.66	28.846
710.98	29.801
711.29	31.803
711.61	31.186
711.93	34.853
712.25	34.708
712.57	36.264
712.89	26.866
713.20	31.142
713.52	33.798
713.84	32.082
714.16	34.364
714.48	29.032
714.80	36.218
715.11	29.787
715.43	29.781
715.75	30.667
716.07	29.900
716.39	30.537
716.70	32.103
717.02	32.061
717.34	37.247
717.66	33.628
717.97	26.087
718.29	32.218
718.61	38.583
718.93	29.845
719.24	33.840
719.56	29.719
719.88	32.302
720.20	28.788
720.51	29.502
720.83	32.819
721.15	31.092
721.46	31.048
721.78	30.435
722.10	29.368
722.42	26.556
722.73	33.469
723.05	34.694
723.37	30.085
723.68	38.739
724.00	36.325
724.32	27.556
724.63	27.727
724.95	32.314
725.27	34.101
725.58	28.390
725.90	27.381
726.22	27.799
726.53	29.492
726.85	33.708
727.16	32.830
727.48	25.911
727.80	31.579
728.11	32.627
728.43	26.667
728.74	28.629
729.06	32.800
729.38	38.346
729.69	34.263
730.01	27.308
730.32	31.343
730.64	28.975
730.96	29.811
731.27	26.333
731.59	26.441
731.90	28.981
732.22	30.284
732.53	32.558
732.85	27.305
733.16	32.660
733.48	24.101
733.80	27.536
734.11	31.525
734.43	31.615
734.74	29.091
735.06	25.407
735.37	29.607
735.69	29.293
736.00	32.056
736.32	30.537
736.63	30.986
736.95	30.717
737.26	28.114
737.58	25.839
737.89	27.473
738.21	27.068
738.52	28.807
738.83	33.188
739.15	24.454
739.46	34.646
739.78	26.374
740.09	27.451
740.41	28.261
740.72	28.346
741.04	29.555
741.35	25.532
741.66	30.806
741.98	23.980
742.29	28.713
742.61	35.602
742.92	20.853
743.23	26.852
743.55	30.769
743.86	29.187
744.18	33.014
744.49	31.383
744.80	32.065
745.12	36.364
745.43	29.268
745.74	34.375
746.06	29.756
746.37	26.702
746.68	32.701
747.00	32.447
747.31	30.348
747.62	30.097
747.94	33.014
748.25	27.228
748.56	34.973
748.88	31.414
749.19	31.383
749.50	35.961
749.82	22.642
750.13	26.147
750.44	31.203
750.75	30.224
751.07	30.657
751.38	26.054
751.69	28.627
752.01	27.132
752.32	28.685
752.63	29.644
752.94	25.862
753.26	36.402
753.57	30.769
753.88	29.646
754.19	23.750
754.51	26.446
754.82	26.316
755.13	28.750
755.44	28.629
755.75	33.984
756.07	31.518
756.38	24.528
756.69	27.586
757.00	29.000
757.31	25.817
757.63	24.085
757.94	24.167
758.25	23.562
758.56	25.000
758.87	26.062
759.18	26.168
759.50	26.909
759.81	31.104
760.12	24.839
760.43	24.848
760.74	30.556
761.05	27.077
761.36	25.568
761.67	28.788
761.99	28.571
762.30	25.818
762.61	26.877
762.92	28.054
763.23	26.126
763.54	26.168
763.85	32.627
764.16	28.631
764.47	31.048
764.78	27.106
765.10	28.956
765.41	24.606
765.72	23.810
766.03	23.308
766.34	25.182
766.65	29.084
766.96	28.283
767.27	26.064
767.58	27.586
767.89	26.241
768.20	26.705
768.51	26.374
768.82	27.094
769.13	21.198
769.44	24.464
769.75	20.548
770.06	23.707
770.37	30.288
770.68	25.888
770.99	26.697
771.30	31.863
771.61	25.339
771.92	29.741
772.23	32.512
772.54	29.570
772.85	24.074
773.16	26.404
773.47	32.026
773.78	28.758
774.09	26.347
774.39	24.000
774.70	26.115
775.01	30.345
775.32	30.000
775.63	19.835
775.94	32.824
776.25	33.858
776.56	22.500
776.87	27.885
777.18	29.915
777.48	25.000
777.79	26.087
778.10	27.619
778.41	23.423
778.72	26.190
779.03	33.835
779.34	24.113
779.65	32.877
779.95	16.438
780.26	31.724
780.57	21.138
780.88	20.472
781.19	17.241
781.50	24.031
781.80	27.811
782.11	18.868
782.42	21.538
782.73	27.338
783.04	31.111
783.34	24.306
783.65	11.966
783.96	34.426
784.27	26.897
784.57	26.829
784.88	25.781
785.19	41.000
785.50	43.000
785.81	20.690
786.11	22.414
786.42	32.039
786.73	27.273
787.04	23.469
787.34	16.071
787.65	36.190
787.96	24.779
788.26	26.364
788.57	16.239
788.88	26.563
789.19	25.397
789.49	22.609
789.80	23.469
790.11	30.303
790.41	20.000
790.72	33.696
791.03	18.182
791.33	31.250
791.64	23.750
791.95	17.442
792.25	30.851
792.56	30.337
792.87	26.027
793.17	28.986
793.48	18.667
793.79	22.500
794.09	36.250
794.40	12.264
794.70	28.155
795.01	24.390
795.32	18.803
795.62	22.857
795.93	21.569
796.23	28.302
796.54	22.917
796.85	26.471
797.15	21.127
797.46	19.444
797.76	43.939
798.07	17.442
798.37	27.632
798.68	28.788
798.99	19.753
799.29	28.571
799.60	14.493
799.90	25.333
800.21	27.869
800.51	13.846
800.82	25.424
801.12	36.232
801.43	34.426
801.73	19.048
802.04	22.000
802.34	20.896
802.65	30.769
802.95	14.286
803.26	13.462
803.56	15.686
803.87	0.000
804.17	22.667
804.48	34.921
804.78	14.815
805.09	19.565
805.39	-11.111
805.70	29.630
806.00	12.281
806.30	22.535
806.61	18.571
806.91	9.722
807.22	32.895
807.52	29.333
807.83	16.364
808.13	8.333
808.43	20.588
808.74	22.388
809.04	16.949
809.35	32.692
809.65	23.437
809.95	-2.703
810.26	4.545
810.56	19.178
810.86	23.810
811.17	2.000
811.47	32.653
811.77	23.684
812.08	22.727
812.38	39.623
812.69	10.000
812.99	18.182
813.29	10.526
813.59	-8.571
813.90	9.091
814.20	15.385
814.50	7.692
814.81	47.170
815.11	0.000
815.41	25.424
815.72	21.429
816.02	47.059
816.32	12.500
816.62	-4.878
816.93	0.000
817.23	31.429
817.53	29.167
817.84	17.391
818.14	17.308
818.44	10.526
818.74	32.609
819.04	-5.000
819.35	24.324
819.65	55.882
819.95	-16.667
820.25	0.000
820.56	50.000
820.86	3.448
821.16	37.500
821.46	6.383
821.76	30.000
822.07	9.302
822.37	13.514
822.67	-34.375
822.97	52.381
823.27	-25.000
823.57	-16.000
823.88	-25.926
824.18	25.000
824.48	11.765
824.78	25.806
825.08	0.000
825.38	0.000
825.69	-20.833
825.99	26.316
826.29	33.333
826.59	73.333
826.89	0.000
827.19	23.913
827.49	2.500
827.79	14.286
828.09	17.857
828.39	21.212
828.70	37.838
829.00	28.571
829.30	-14.286
829.60	16.667
829.90	53.125
830.20	0.000
830.50	3.704
830.80	0.000
831.10	-9.091
831.40	9.091
831.70	58.065
832.00	19.048
832.30	-19.048
832.60	-116.667
832.90	-13.793
833.20	-50.000
833.50	0.000
833.80	29.630
834.10	38.462
834.40	12.500
834.70	-11.111
835.00	0.000
835.30	57.692
835.60	53.333
835.90	25.806
836.20	0.000
836.50	21.429
836.80	-7.692
837.10	0.000
837.40	-133.333
837.70	4.545
838.00	-36.364
838.30	8.696
838.60	-53.846
838.90	36.364
839.19	7.143
839.49	16.667
839.79	-15.385
840.09	-66.667
840.39	7.143
840.69	21.429
840.99	23.077
841.29	5.263
841.59	-30.000
841.88	54.545
842.18	-20.000
842.48	12.500
842.78	-60.000
843.08	-33.333
843.38	-120.000
843.68	39.130
843.97	33.333
844.27	0.000
844.57	0.000
844.87	50.000
845.17	-19.048
845.47	26.667
845.76	-23.810
846.06	-5.882
846.36	-90.000
846.66	-35.714
846.96	13.333
847.25	-100.000
847.55	7.143
847.85	-75.000
848.15	27.273
848.44	-166.667
848.74	-10.000
849.04	37.037
849.34	-63.636
849.63	-66.667
849.93	-300.000
850.23	-55.556
850.53	50.000
850.82	-23.077
851.12	11.111
851.42	33.333
851.71	-3.846
852.01	50.000
852.31	-225.000
852.61	-18.182
852.90	5.000
853.20	36.842
853.50	-66.667
853.79	-30.435
854.09	8.333
854.39	10.526
854.68	0.000
854.98	29.032
855.28	30.769
855.57	-35.000
855.87	33.333
856.17	33.333
856.46	14.286
856.76	13.333
857.05	77.778
857.35	-16.000
857.65	-27.778
857.94	-30.769
858.24	13.793
858.53	50.000
858.83	18.519
859.13	-9.091
859.42	-69.565
859.72	75.000
860.01	-300.000
860.31	-4.000
860.60	9.524
860.90	-266.667
861.20	6.667
861.49	-350.000
861.79	33.333
862.08	10.000
862.38	46.667
862.67	-120.000
862.97	-200.000
863.26	16.667
863.56	22.222
863.85	-200.000
864.15	22.222
864.44	10.000
864.74	50.000
865.03	300.000
865.33	-180.000
865.62	-16.667
865.92	-33.333
866.21	-50.000
866.51	37.500
866.80	9.091
867.10	-50.000
867.39	16.667
867.69	0.000
867.98	-15.385
868.27	-333.333
868.57	26.667
868.86	27.778
869.16	-84.615
869.45	53.333
869.75	-1100.000
870.04	0.000
870.33	-42.857
870.63	33.333
870.92	433.333
871.22	-100.000
871.51	-500.000
871.80	88.889
872.10	266.667
>>>>>End Processed Spectral Data<<<<<
