SpectraSuite Data File
++++++++++++++++++++++++++++++++++++
Date: Fri May 15 20:39:34 PDT 2015
User: schluterlab
Dark Spectrum Present: Yes
Reference Spectrum Present: Yes
Number of Sampled Component Spectra: 1
Spectrometers: USB2E3373
Integration Time (usec): 3000 (USB2E3373)
Spectra Averaged: 3 (USB2E3373)
Boxcar Smoothing: 0 (USB2E3373)
Correct for Electrical Dark: No (USB2E3373)
Strobe/Lamp Enabled: No (USB2E3373)
Correct for Detector Non-linearity: No (USB2E3373)
Correct for Stray Light: No (USB2E3373)
Number of Pixels in Processed Spectrum: 2048
>>>>>Begin Processed Spectral Data<<<<<
178.53	0.000
178.91	0.000
179.29	-37.500
179.67	-600.000
180.04	85.714
180.42	75.000
180.80	0.000
181.18	-0.000
181.56	100.000
181.94	-200.000
182.31	-400.000
182.69	-60.000
183.07	-266.667
183.45	-240.000
183.83	66.667
184.20	-63.636
184.58	44.444
184.96	-25.000
185.34	-166.667
185.72	0.000
186.09	138.462
186.47	-800.000
186.85	150.000
187.23	100.000
187.61	800.000
187.98	0.000
188.36	-22.222
188.74	-300.000
189.12	76.471
189.49	55.556
189.87	0.000
190.25	14.286
190.63	0.000
191.00	133.333
191.38	-5.263
191.76	-50.000
192.14	125.000
192.51	-300.000
192.89	-100.000
193.27	-157.143
193.65	216.667
194.02	218.182
194.40	-60.000
194.78	-100.000
195.15	-58.333
195.53	-137.500
195.91	175.000
196.29	-150.000
196.66	107.692
197.04	100.000
197.42	22.222
197.79	-366.667
198.17	-69.231
198.55	600.000
198.92	-66.667
199.30	-200.000
199.68	-100.000
200.05	-300.000
200.43	0.000
200.81	-66.667
201.18	-100.000
201.56	1000.000
201.94	-450.000
202.31	-0.000
202.69	-260.000
203.07	-25.000
203.44	-100.000
203.82	0.000
204.19	85.714
204.57	-366.667
204.95	87.500
205.32	70.000
205.70	42.857
206.08	-75.000
206.45	177.778
206.83	92.857
207.20	-114.286
207.58	-900.000
207.96	-33.333
208.33	-140.000
208.71	-75.000
209.08	-100.000
209.46	-700.000
209.84	-100.000
210.21	-700.000
210.59	28.571
210.96	0.000
211.34	0.000
211.71	80.000
212.09	-114.286
212.46	-1400.000
212.84	0.000
213.22	100.000
213.59	700.000
213.97	23.077
214.34	27.273
214.72	-150.000
215.09	250.000
215.47	46.154
215.84	-81.818
216.22	-500.000
216.59	-25.000
216.97	100.000
217.34	-150.000
217.72	-120.000
218.09	50.000
218.47	75.000
218.84	100.000
219.22	-77.778
219.59	-60.000
219.97	400.000
220.34	50.000
220.72	-28.571
221.09	0.000
221.47	0.000
221.84	-250.000
222.22	-550.000
222.59	45.455
222.97	-41.667
223.34	-233.333
223.72	-21.429
224.09	-4.762
224.46	50.000
224.84	433.333
225.21	80.000
225.59	40.000
225.96	-50.000
226.34	225.000
226.71	42.857
227.08	83.333
227.46	37.500
227.83	150.000
228.21	0.000
228.58	54.545
228.95	-112.500
229.33	160.000
229.70	-31.250
230.08	-62.500
230.45	-142.857
230.82	42.857
231.20	-13.333
231.57	100.000
231.95	71.429
232.32	-90.000
232.69	57.143
233.07	-100.000
233.44	-40.000
233.81	-60.000
234.19	122.222
234.56	-52.941
234.93	750.000
235.31	-75.000
235.68	-400.000
236.05	-30.769
236.43	-35.000
236.80	29.412
237.17	9.375
237.55	5.000
237.92	-37.037
238.29	16.667
238.67	36.667
239.04	23.529
239.41	0.000
239.79	3.333
240.16	31.707
240.53	21.053
240.91	6.522
241.28	25.397
241.65	23.214
242.02	26.027
242.40	33.333
242.77	8.475
243.14	15.152
243.51	-8.750
243.89	19.540
244.26	3.448
244.63	11.905
245.00	25.773
245.38	6.186
245.75	10.112
246.12	12.069
246.49	9.917
246.87	14.423
247.24	12.605
247.61	3.509
247.98	13.821
248.36	18.125
248.73	15.132
249.10	12.338
249.47	10.759
249.84	13.072
250.22	20.000
250.59	16.993
250.96	19.718
251.33	16.860
251.70	20.588
252.08	15.736
252.45	15.347
252.82	18.090
253.19	15.207
253.56	13.084
253.94	17.117
254.31	16.522
254.68	17.544
255.05	16.142
255.42	13.100
255.79	21.236
256.16	21.012
256.54	19.030
256.91	14.829
257.28	15.613
257.65	15.730
258.02	10.638
258.39	17.508
258.76	19.414
259.14	18.937
259.51	15.858
259.88	14.777
260.25	17.320
260.62	17.708
260.99	18.983
261.36	16.781
261.73	21.519
262.10	18.845
262.47	17.791
262.85	15.987
263.22	16.923
263.59	17.134
263.96	19.876
264.33	14.242
264.70	17.262
265.07	15.179
265.44	18.130
265.81	19.209
266.18	18.579
266.55	22.365
266.92	16.062
267.29	17.493
267.66	16.113
268.03	20.681
268.40	16.971
268.77	16.310
269.14	17.266
269.51	19.794
269.88	16.958
270.25	15.561
270.62	16.829
270.99	18.159
271.36	17.115
271.73	19.718
272.10	17.275
272.47	17.967
272.84	14.604
273.21	19.258
273.58	15.422
273.95	19.222
274.32	15.012
274.69	15.611
275.06	20.759
275.43	17.007
275.80	17.439
276.17	19.080
276.54	15.203
276.91	17.763
277.28	17.249
277.65	20.455
278.02	16.809
278.39	17.505
278.76	15.514
279.13	16.805
279.50	18.277
279.87	15.335
280.23	18.065
280.60	19.688
280.97	16.566
281.34	15.385
281.71	18.686
282.08	14.519
282.45	15.264
282.82	13.707
283.19	17.021
283.56	17.726
283.92	14.611
284.29	16.731
284.66	13.953
285.03	15.128
285.40	16.446
285.77	15.993
286.14	14.801
286.51	17.897
286.87	14.991
287.24	14.365
287.61	15.168
287.98	15.965
288.35	15.945
288.72	16.462
289.08	15.278
289.45	17.047
289.82	17.832
290.19	14.676
290.56	14.580
290.93	15.657
291.29	13.251
291.66	14.646
292.03	15.470
292.40	15.000
292.77	14.035
293.13	14.123
293.50	12.140
293.87	13.130
294.24	12.519
294.60	14.158
294.97	14.435
295.34	11.503
295.71	13.115
296.08	14.051
296.44	11.949
296.81	12.778
297.18	13.333
297.55	14.905
297.91	11.644
298.28	16.359
298.65	13.976
299.02	10.916
299.38	10.670
299.75	12.828
300.12	10.864
300.48	12.385
300.85	12.674
301.22	12.338
301.59	11.974
301.95	13.165
302.32	13.359
302.69	12.313
303.05	12.376
303.42	12.578
303.79	12.500
304.15	12.425
304.52	10.702
304.89	11.345
305.25	11.259
305.62	12.019
305.99	11.579
306.35	11.214
306.72	11.474
307.09	13.113
307.45	12.859
307.82	11.111
308.19	11.382
308.55	11.559
308.92	12.963
309.29	11.620
309.65	12.379
310.02	11.221
310.38	10.209
310.75	12.240
311.12	12.379
311.48	11.877
311.85	12.356
312.22	11.498
312.58	12.102
312.95	10.993
313.31	10.145
313.68	12.147
314.05	11.327
314.41	11.237
314.78	11.856
315.14	13.361
315.51	12.215
315.87	11.578
316.24	13.852
316.61	13.091
316.97	12.996
317.34	13.672
317.70	12.237
318.07	13.462
318.43	13.235
318.80	12.784
319.16	13.574
319.53	15.005
319.89	13.681
320.26	14.676
320.62	14.544
320.99	13.883
321.35	14.697
321.72	15.992
322.08	14.804
322.45	16.853
322.81	15.815
323.18	14.917
323.54	16.120
323.91	16.845
324.27	17.188
324.64	17.978
325.00	18.339
325.37	18.457
325.73	18.314
326.10	18.619
326.46	19.552
326.83	19.948
327.19	21.011
327.56	20.417
327.92	21.391
328.29	21.696
328.65	22.642
329.01	22.610
329.38	22.488
329.74	21.719
330.11	23.726
330.47	22.820
330.84	24.519
331.20	26.806
331.56	23.611
331.93	24.932
332.29	24.748
332.66	24.977
333.02	25.465
333.38	24.656
333.75	26.190
334.11	23.993
334.48	26.836
334.84	25.733
335.20	26.258
335.57	24.751
335.93	26.649
336.29	25.046
336.66	26.431
337.02	25.929
337.38	26.481
337.75	27.273
338.11	26.510
338.47	26.460
338.84	26.895
339.20	26.234
339.56	26.972
339.93	27.037
340.29	27.248
340.65	28.405
341.02	27.128
341.38	26.991
341.74	25.883
342.11	25.043
342.47	26.779
342.83	26.817
343.20	26.481
343.56	26.696
343.92	26.218
344.28	27.071
344.65	27.029
345.01	27.226
345.37	26.325
345.73	28.870
346.10	26.920
346.46	26.913
346.82	26.432
347.19	26.018
347.55	26.901
347.91	27.427
348.27	27.648
348.63	27.683
349.00	26.415
349.36	27.847
349.72	28.027
350.08	26.066
350.45	27.454
350.81	26.578
351.17	25.977
351.53	28.082
351.89	27.746
352.26	27.520
352.62	27.500
352.98	27.068
353.34	27.295
353.70	26.456
354.07	27.661
354.43	27.782
354.79	28.076
355.15	27.302
355.51	28.006
355.87	27.104
356.24	26.509
356.60	28.133
356.96	27.143
357.32	27.077
357.68	27.287
358.04	27.625
358.40	26.688
358.77	28.389
359.13	27.382
359.49	27.119
359.85	28.393
360.21	27.831
360.57	27.927
360.93	28.215
361.29	26.813
361.66	28.762
362.02	28.939
362.38	28.561
362.74	28.236
363.10	27.916
363.46	27.650
363.82	29.827
364.18	27.601
364.54	28.382
364.90	28.387
365.26	28.967
365.62	29.635
365.98	29.106
366.35	28.623
366.71	28.086
367.07	28.520
367.43	27.318
367.79	28.763
368.15	29.218
368.51	28.478
368.87	28.571
369.23	27.653
369.59	29.082
369.95	29.765
370.31	28.902
370.67	28.881
371.03	28.305
371.39	28.665
371.75	29.377
372.11	27.746
372.47	28.550
372.83	28.886
373.19	28.887
373.55	28.520
373.91	28.438
374.27	29.554
374.63	30.007
374.99	28.936
375.35	29.248
375.71	29.231
376.07	29.284
376.42	29.728
376.78	30.671
377.14	29.722
377.50	29.947
377.86	30.054
378.22	29.228
378.58	29.808
378.94	28.544
379.30	29.258
379.66	30.596
380.02	29.736
380.38	29.641
380.74	29.264
381.09	29.877
381.45	29.847
381.81	29.611
382.17	29.822
382.53	29.544
382.89	29.692
383.25	30.243
383.61	30.427
383.97	29.397
384.32	29.268
384.68	29.969
385.04	29.289
385.40	28.874
385.76	30.063
386.12	30.142
386.48	30.907
386.83	28.789
387.19	29.609
387.55	29.987
387.91	30.257
388.27	29.548
388.62	29.767
388.98	29.466
389.34	28.857
389.70	30.516
390.06	29.327
390.42	28.497
390.77	29.039
391.13	28.436
391.49	29.172
391.85	29.110
392.20	28.939
392.56	29.498
392.92	29.419
393.28	29.009
393.64	29.009
393.99	29.655
394.35	28.210
394.71	28.672
395.07	28.850
395.42	28.719
395.78	28.339
396.14	28.689
396.50	29.233
396.85	29.169
397.21	28.822
397.57	27.962
397.92	28.460
398.28	27.586
398.64	27.048
399.00	27.427
399.35	27.765
399.71	28.145
400.07	28.597
400.42	28.213
400.78	27.067
401.14	26.981
401.49	27.397
401.85	26.996
402.21	27.771
402.57	27.188
402.92	27.227
403.28	27.444
403.63	27.617
403.99	27.105
404.35	25.984
404.70	26.548
405.06	26.616
405.42	26.476
405.77	26.380
406.13	26.484
406.49	26.169
406.84	26.284
407.20	26.430
407.55	25.177
407.91	26.404
408.27	25.558
408.62	25.292
408.98	25.632
409.34	26.022
409.69	25.969
410.05	24.815
410.40	25.494
410.76	25.633
411.11	25.438
411.47	25.838
411.83	25.298
412.18	25.354
412.54	24.969
412.89	24.323
413.25	26.414
413.60	25.093
413.96	25.031
414.31	24.573
414.67	25.465
415.03	25.433
415.38	24.608
415.74	25.342
416.09	25.735
416.45	25.456
416.80	25.248
417.16	25.622
417.51	25.583
417.87	25.033
418.22	26.425
418.58	25.819
418.93	26.897
419.29	24.840
419.64	26.636
420.00	26.448
420.35	25.313
420.71	26.974
421.06	27.072
421.42	26.683
421.77	27.399
422.12	27.185
422.48	26.638
422.83	28.016
423.19	27.991
423.54	27.043
423.90	26.090
424.25	27.555
424.61	28.335
424.96	27.294
425.31	29.463
425.67	28.815
426.02	28.327
426.38	29.618
426.73	29.116
427.09	29.177
427.44	29.353
427.79	28.757
428.15	29.551
428.50	30.224
428.85	29.607
429.21	30.560
429.56	30.243
429.92	30.354
430.27	30.025
430.62	29.117
430.98	29.671
431.33	30.599
431.68	29.409
432.04	30.352
432.39	30.291
432.74	30.908
433.10	31.667
433.45	30.346
433.80	30.470
434.16	30.194
434.51	31.344
434.86	30.546
435.22	31.969
435.57	31.441
435.92	32.036
436.28	30.590
436.63	31.888
436.98	31.634
437.34	32.426
437.69	33.512
438.04	32.934
438.39	32.498
438.75	32.423
439.10	32.881
439.45	32.988
439.81	32.599
440.16	33.729
440.51	34.149
440.86	34.018
441.22	33.088
441.57	33.830
441.92	33.578
442.27	34.146
442.63	34.529
442.98	33.946
443.33	34.780
443.68	34.324
444.03	34.426
444.39	34.137
444.74	35.786
445.09	35.579
445.44	34.872
445.79	35.792
446.15	33.921
446.50	34.498
446.85	35.069
447.20	34.672
447.55	35.603
447.91	35.871
448.26	35.401
448.61	35.751
448.96	35.915
449.31	35.607
449.66	35.482
450.02	35.482
450.37	35.803
450.72	35.567
451.07	36.266
451.42	35.456
451.77	35.986
452.12	35.108
452.47	35.802
452.83	36.337
453.18	35.294
453.53	37.105
453.88	35.216
454.23	35.956
454.58	36.398
454.93	36.534
455.28	35.365
455.63	36.516
455.98	36.801
456.34	37.356
456.69	37.992
457.04	37.240
457.39	36.574
457.74	36.336
458.09	35.609
458.44	35.927
458.79	36.751
459.14	36.270
459.49	36.896
459.84	37.451
460.19	36.165
460.54	36.736
460.89	37.102
461.24	36.522
461.59	36.580
461.94	37.421
462.29	37.696
462.64	37.209
462.99	36.899
463.34	37.344
463.69	36.873
464.04	36.562
464.39	36.931
464.74	36.810
465.09	36.931
465.44	36.469
465.79	36.791
466.14	36.488
466.49	36.285
466.84	36.645
467.19	38.736
467.54	36.271
467.89	36.260
468.24	36.375
468.59	38.095
468.94	36.825
469.29	37.443
469.64	37.457
469.99	39.313
470.34	37.065
470.68	38.330
471.03	37.933
471.38	38.231
471.73	37.675
472.08	37.585
472.43	37.987
472.78	37.697
473.13	38.367
473.48	38.241
473.83	37.733
474.17	38.277
474.52	37.652
474.87	37.879
475.22	36.913
475.57	37.606
475.92	37.575
476.27	37.893
476.61	39.178
476.96	37.256
477.31	38.291
477.66	36.966
478.01	37.732
478.36	37.908
478.70	39.152
479.05	38.846
479.40	38.315
479.75	37.331
480.10	36.918
480.45	37.200
480.79	38.671
481.14	38.012
481.49	36.847
481.84	37.162
482.19	36.997
482.53	37.266
482.88	38.568
483.23	37.524
483.58	38.019
483.92	37.657
484.27	37.192
484.62	36.889
484.97	36.899
485.31	35.477
485.66	33.907
486.01	33.412
486.36	33.317
486.70	34.342
487.05	34.979
487.40	34.721
487.75	35.437
488.09	35.012
488.44	35.729
488.79	36.496
489.13	37.019
489.48	37.666
489.83	36.861
490.17	37.079
490.52	37.552
490.87	36.927
491.22	38.395
491.56	37.287
491.91	36.950
492.26	38.503
492.60	37.236
492.95	38.711
493.30	36.395
493.64	37.721
493.99	37.923
494.34	37.039
494.68	38.238
495.03	36.545
495.37	37.537
495.72	37.961
496.07	37.415
496.41	37.500
496.76	36.711
497.11	36.563
497.45	37.470
497.80	39.152
498.14	37.506
498.49	38.141
498.84	38.723
499.18	38.303
499.53	37.897
499.87	37.597
500.22	37.537
500.56	37.115
500.91	37.249
501.26	37.420
501.60	37.580
501.95	37.943
502.29	37.143
502.64	37.259
502.98	37.000
503.33	36.744
503.67	37.639
504.02	37.928
504.36	37.655
504.71	36.364
505.06	36.839
505.40	37.970
505.75	37.680
506.09	36.898
506.44	36.858
506.78	37.755
507.13	37.746
507.47	37.493
507.82	37.286
508.16	37.454
508.51	38.143
508.85	37.520
509.19	37.307
509.54	37.051
509.88	37.109
510.23	38.784
510.57	38.856
510.92	36.780
511.26	38.025
511.61	37.679
511.95	38.301
512.30	37.916
512.64	37.896
512.98	37.900
513.33	38.388
513.67	38.204
514.02	39.703
514.36	38.971
514.70	38.811
515.05	39.600
515.39	38.371
515.74	39.461
516.08	39.331
516.42	39.399
516.77	38.327
517.11	38.872
517.46	39.258
517.80	38.141
518.14	39.253
518.49	38.522
518.83	38.457
519.17	37.477
519.52	38.721
519.86	38.175
520.20	38.396
520.55	39.087
520.89	40.276
521.23	38.949
521.58	39.621
521.92	40.385
522.26	37.736
522.61	39.091
522.95	40.927
523.29	39.199
523.64	38.945
523.98	39.469
524.32	37.564
524.66	38.476
525.01	38.896
525.35	38.691
525.69	38.182
526.04	37.831
526.38	39.624
526.72	37.933
527.06	37.095
527.41	38.654
527.75	39.544
528.09	38.870
528.43	38.420
528.78	38.218
529.12	37.935
529.46	37.882
529.80	38.315
530.15	38.218
530.49	38.047
530.83	38.098
531.17	37.542
531.51	37.893
531.86	37.050
532.20	37.091
532.54	38.325
532.88	37.782
533.22	37.433
533.57	38.729
533.91	36.423
534.25	36.849
534.59	36.305
534.93	34.865
535.27	36.485
535.62	35.645
535.96	36.008
536.30	37.335
536.64	38.456
536.98	36.516
537.32	37.269
537.66	37.938
538.01	36.923
538.35	36.338
538.69	36.551
539.03	35.817
539.37	36.406
539.71	35.719
540.05	37.135
540.39	36.911
540.73	35.146
541.07	36.257
541.42	37.097
541.76	35.857
542.10	36.132
542.44	35.511
542.78	34.756
543.12	35.783
543.46	36.300
543.80	36.641
544.14	34.045
544.48	36.576
544.82	36.022
545.16	37.158
545.50	36.248
545.84	37.323
546.18	34.610
546.52	37.058
546.86	35.873
547.20	36.481
547.54	34.488
547.88	35.802
548.22	34.320
548.56	34.763
548.90	35.445
549.24	33.815
549.58	34.485
549.92	34.453
550.26	35.604
550.60	36.877
550.94	36.072
551.28	36.399
551.62	37.462
551.96	35.865
552.30	35.746
552.64	35.190
552.98	35.584
553.32	34.593
553.66	35.414
554.00	35.474
554.34	36.041
554.68	35.398
555.02	36.012
555.36	35.752
555.69	34.652
556.03	34.904
556.37	34.947
556.71	34.946
557.05	35.720
557.39	35.390
557.73	36.507
558.07	36.425
558.41	34.839
558.75	36.633
559.08	35.697
559.42	35.556
559.76	36.509
560.10	35.550
560.44	35.145
560.78	34.336
561.12	33.639
561.45	34.786
561.79	34.664
562.13	34.351
562.47	34.173
562.81	34.654
563.15	34.626
563.48	35.219
563.82	34.317
564.16	35.237
564.50	33.581
564.84	34.070
565.17	33.333
565.51	33.948
565.85	34.088
566.19	33.952
566.52	34.584
566.86	33.933
567.20	32.441
567.54	32.786
567.88	33.099
568.21	32.466
568.55	32.065
568.89	31.366
569.23	31.103
569.56	30.123
569.90	30.085
570.24	29.922
570.57	29.164
570.91	29.174
571.25	27.951
571.59	28.340
571.92	27.230
572.26	28.110
572.60	27.659
572.93	27.706
573.27	27.429
573.61	27.804
573.95	27.280
574.28	27.516
574.62	26.138
574.96	26.328
575.29	26.275
575.63	26.173
575.97	26.620
576.30	26.708
576.64	26.464
576.98	27.053
577.31	26.468
577.65	26.674
577.98	26.479
578.32	25.735
578.66	25.747
578.99	25.807
579.33	26.255
579.67	26.091
580.00	26.076
580.34	26.716
580.67	26.014
581.01	26.105
581.35	25.883
581.68	25.546
582.02	25.418
582.35	25.608
582.69	25.458
583.02	25.721
583.36	25.929
583.70	26.687
584.03	27.273
584.37	27.019
584.70	26.676
585.04	26.088
585.37	26.314
585.71	26.043
586.04	26.147
586.38	26.060
586.72	27.030
587.05	26.834
587.39	26.782
587.72	27.255
588.06	26.986
588.39	26.374
588.73	26.832
589.06	27.397
589.40	27.757
589.73	28.112
590.07	28.437
590.40	28.251
590.73	28.501
591.07	29.220
591.40	29.297
591.74	28.914
592.07	28.571
592.41	29.064
592.74	27.877
593.08	26.546
593.41	26.820
593.75	27.053
594.08	26.777
594.41	27.511
594.75	27.824
595.08	27.469
595.42	27.052
595.75	27.676
596.09	27.443
596.42	28.524
596.75	28.597
597.09	29.157
597.42	28.771
597.75	28.081
598.09	26.618
598.42	27.843
598.76	27.928
599.09	27.524
599.42	26.525
599.76	26.561
600.09	27.300
600.42	27.142
600.76	26.746
601.09	27.252
601.42	26.439
601.76	27.273
602.09	27.228
602.42	28.138
602.76	27.462
603.09	28.281
603.42	27.759
603.76	27.419
604.09	27.217
604.42	27.200
604.76	28.304
605.09	27.422
605.42	27.856
605.75	27.277
606.09	27.134
606.42	26.606
606.75	27.835
607.09	27.560
607.42	27.780
607.75	26.732
608.08	27.044
608.42	27.364
608.75	28.434
609.08	28.500
609.41	27.310
609.75	27.923
610.08	28.657
610.41	26.667
610.74	27.694
611.07	27.855
611.41	28.490
611.74	28.838
612.07	28.105
612.40	28.118
612.73	28.249
613.07	28.628
613.40	28.556
613.73	28.036
614.06	27.824
614.39	28.483
614.72	28.179
615.06	28.268
615.39	27.948
615.72	27.180
616.05	27.877
616.38	28.091
616.71	28.318
617.05	28.660
617.38	28.975
617.71	28.679
618.04	28.825
618.37	29.760
618.70	30.429
619.03	29.931
619.36	29.233
619.69	31.160
620.03	30.679
620.36	30.758
620.69	29.764
621.02	30.887
621.35	31.784
621.68	31.122
622.01	30.833
622.34	31.285
622.67	30.284
623.00	29.556
623.33	30.640
623.66	30.292
623.99	29.879
624.32	30.570
624.65	29.323
624.99	30.248
625.32	28.431
625.65	30.715
625.98	30.540
626.31	29.759
626.64	30.849
626.97	30.541
627.30	30.648
627.63	31.716
627.96	31.447
628.29	32.007
628.62	33.432
628.95	32.565
629.28	33.165
629.61	31.206
629.94	32.942
630.26	32.708
630.59	34.131
630.92	35.385
631.25	32.103
631.58	33.590
631.91	32.566
632.24	33.372
632.57	33.523
632.90	32.740
633.23	34.235
633.56	35.390
633.89	34.649
634.22	35.432
634.55	34.053
634.88	34.866
635.20	34.744
635.53	36.400
635.86	32.640
636.19	34.670
636.52	33.418
636.85	33.127
637.18	34.214
637.51	34.969
637.83	33.377
638.16	35.607
638.49	34.877
638.82	34.737
639.15	33.514
639.48	33.425
639.81	35.425
640.13	33.045
640.46	35.131
640.79	33.137
641.12	35.746
641.45	36.036
641.77	36.593
642.10	37.599
642.43	35.370
642.76	34.983
643.09	34.410
643.41	36.246
643.74	36.409
644.07	36.946
644.40	36.318
644.73	35.727
645.05	37.752
645.38	35.273
645.71	35.993
646.04	39.677
646.36	34.929
646.69	39.029
647.02	39.887
647.35	38.619
647.67	38.026
648.00	40.672
648.33	37.713
648.66	37.627
648.98	34.673
649.31	32.893
649.64	32.967
649.96	32.253
650.29	34.242
650.62	34.188
650.94	36.111
651.27	37.244
651.60	34.414
651.92	35.664
652.25	33.393
652.58	32.167
652.90	35.334
653.23	34.286
653.56	31.641
653.88	32.302
654.21	33.450
654.54	34.126
654.86	37.012
655.19	31.725
655.52	27.399
655.84	21.478
656.17	23.120
656.49	30.952
656.82	32.019
657.15	24.538
657.47	18.312
657.80	13.761
658.13	13.878
658.45	21.046
658.78	22.039
659.10	21.549
659.43	22.532
659.75	23.976
660.08	25.586
660.41	28.396
660.73	31.630
661.06	31.716
661.38	32.681
661.71	34.086
662.03	37.124
662.36	34.725
662.68	34.292
663.01	38.646
663.33	37.123
663.66	34.884
663.98	37.907
664.31	34.542
664.63	35.484
664.96	34.130
665.28	32.892
665.61	35.931
665.93	40.000
666.26	36.009
666.58	32.215
666.91	36.000
667.23	38.208
667.56	36.019
667.88	35.012
668.21	37.470
668.53	34.752
668.86	37.736
669.18	35.849
669.50	34.625
669.83	34.651
670.15	35.431
670.48	36.842
670.80	35.253
671.13	35.570
671.45	34.018
671.77	35.622
672.10	35.050
672.42	31.835
672.75	32.860
673.07	32.200
673.39	33.211
673.72	31.558
674.04	31.458
674.37	32.839
674.69	32.548
675.01	36.222
675.34	32.432
675.66	34.722
675.98	35.698
676.31	37.615
676.63	33.017
676.95	34.545
677.28	35.059
677.60	36.627
677.92	34.174
678.25	34.354
678.57	30.736
678.89	32.983
679.22	34.004
679.54	32.329
679.86	31.213
680.18	29.320
680.51	33.144
680.83	31.213
681.15	31.200
681.48	32.172
681.80	34.091
682.12	33.871
682.44	30.335
682.77	33.333
683.09	33.181
683.41	32.727
683.73	32.488
684.06	31.858
684.38	32.258
684.70	29.847
685.02	28.838
685.34	29.051
685.67	28.705
685.99	30.199
686.31	30.619
686.63	29.870
686.96	27.376
687.28	29.899
687.60	28.137
687.92	32.525
688.24	31.250
688.56	30.786
688.89	31.696
689.21	34.000
689.53	31.090
689.85	31.163
690.17	33.036
690.49	30.496
690.82	30.825
691.14	28.333
691.46	31.542
691.78	29.054
692.10	31.183
692.42	30.952
692.74	30.342
693.06	31.757
693.39	29.186
693.71	27.149
694.03	29.561
694.35	28.972
694.67	32.828
694.99	28.198
695.31	30.809
695.63	31.750
695.95	31.061
696.27	31.088
696.59	34.167
696.91	31.653
697.23	29.306
697.56	28.465
697.88	32.043
698.20	30.068
698.52	29.882
698.84	27.273
699.16	27.250
699.48	32.331
699.80	31.017
700.12	30.728
700.44	31.092
700.76	29.360
701.08	29.091
701.40	31.627
701.72	37.346
702.04	31.353
702.36	31.438
702.68	34.835
703.00	30.303
703.32	29.032
703.64	22.881
703.96	31.014
704.28	34.969
704.60	31.429
704.91	31.546
705.23	33.555
705.55	31.802
705.87	36.101
706.19	33.333
706.51	33.333
706.83	35.691
707.15	30.218
707.47	32.493
707.79	27.865
708.11	29.000
708.43	29.000
708.74	31.008
709.06	32.676
709.38	34.557
709.70	30.473
710.02	32.166
710.34	34.056
710.66	28.526
710.98	31.126
711.29	29.180
711.61	30.508
711.93	33.225
712.25	30.584
712.57	30.037
712.89	33.209
713.20	33.218
713.52	29.268
713.84	30.034
714.16	26.460
714.48	29.032
714.80	28.205
715.11	30.091
715.43	26.646
715.75	24.333
716.07	23.588
716.39	28.523
716.70	24.723
717.02	30.534
717.34	34.413
717.66	35.841
717.97	26.957
718.29	35.146
718.61	33.071
718.93	27.132
719.24	27.757
719.56	32.129
719.88	27.491
720.20	29.167
720.51	31.034
720.83	31.274
721.15	28.992
721.46	31.855
721.78	28.063
722.10	27.881
722.42	23.237
722.73	31.837
723.05	31.020
723.37	33.051
723.68	36.036
724.00	30.769
724.32	26.667
724.63	25.455
724.95	33.624
725.27	33.641
725.58	28.814
725.90	29.365
726.22	26.641
726.53	30.508
726.85	32.210
727.16	31.321
727.48	25.101
727.80	29.555
728.11	30.508
728.43	29.020
728.74	19.355
729.06	25.200
729.38	30.827
729.69	27.490
730.01	21.154
730.32	31.343
730.64	32.862
730.96	23.019
731.27	24.333
731.59	26.441
731.90	24.522
732.22	23.344
732.53	29.568
732.85	27.305
733.16	28.956
733.48	22.662
733.80	26.812
734.11	24.746
734.43	25.430
734.74	26.061
735.06	22.476
735.37	26.586
735.69	27.946
736.00	24.042
736.32	23.490
736.63	23.944
736.95	28.328
737.26	25.979
737.58	27.181
737.89	26.740
738.21	25.188
738.52	27.984
738.83	30.131
739.15	24.017
739.46	25.591
739.78	23.077
740.09	25.163
740.41	28.261
740.72	23.228
741.04	24.291
741.35	24.681
741.66	31.280
741.98	22.449
742.29	30.693
742.61	26.702
742.92	18.483
743.23	22.222
743.55	30.317
743.86	25.837
744.18	29.187
744.49	25.532
744.80	29.348
745.12	30.481
745.43	25.854
745.74	29.688
746.06	28.780
746.37	31.937
746.68	32.701
747.00	27.660
747.31	33.333
747.62	24.272
747.94	22.967
748.25	26.238
748.56	24.590
748.88	28.796
749.19	37.234
749.50	23.645
749.82	23.113
750.13	28.899
750.44	34.586
750.75	28.358
751.07	28.102
751.38	27.969
751.69	22.353
752.01	23.643
752.32	25.896
752.63	24.111
752.94	23.276
753.26	31.381
753.57	25.339
753.88	27.876
754.19	20.833
754.51	23.140
754.82	23.077
755.13	28.333
755.44	23.387
755.75	25.000
756.07	20.623
756.38	22.642
756.69	25.287
757.00	26.000
757.31	19.281
757.63	21.037
757.94	24.444
758.25	17.260
758.56	21.809
758.87	16.997
759.18	22.741
759.50	22.182
759.81	28.094
760.12	24.516
760.43	20.909
760.74	23.765
761.05	24.000
761.36	23.580
761.67	25.152
761.99	22.449
762.30	20.000
762.61	26.482
762.92	25.792
763.23	22.523
763.54	26.636
763.85	25.847
764.16	25.726
764.47	20.565
764.78	22.344
765.10	24.579
765.41	21.767
765.72	20.000
766.03	21.053
766.34	22.628
766.65	29.482
766.96	25.253
767.27	29.787
767.58	24.713
767.89	24.113
768.20	22.727
768.51	26.374
768.82	26.108
769.13	18.894
769.44	26.180
769.75	26.484
770.06	21.983
770.37	26.923
770.68	16.751
770.99	19.005
771.30	26.471
771.61	14.932
771.92	24.569
772.23	23.645
772.54	26.882
772.85	25.309
773.16	29.775
773.47	33.987
773.78	25.490
774.09	17.964
774.39	28.000
774.70	31.210
775.01	31.034
775.32	28.571
775.63	28.099
775.94	25.954
776.25	33.071
776.56	20.000
776.87	26.923
777.18	23.932
777.48	26.724
777.79	20.870
778.10	16.190
778.41	19.820
778.72	23.810
779.03	30.075
779.34	26.241
779.65	24.658
779.95	16.438
780.26	25.517
780.57	26.016
780.88	22.047
781.19	24.138
781.50	21.705
781.80	19.527
782.11	17.610
782.42	23.846
782.73	25.180
783.04	31.111
783.34	22.222
783.65	11.111
783.96	23.770
784.27	22.069
784.57	21.138
784.88	20.313
785.19	22.000
785.50	31.000
785.81	36.207
786.11	16.379
786.42	19.417
786.73	33.636
787.04	25.510
787.34	12.500
787.65	20.952
787.96	28.319
788.26	27.273
788.57	28.205
788.88	26.563
789.19	26.190
789.49	22.609
789.80	19.388
790.11	26.263
790.41	14.545
790.72	27.174
791.03	18.182
791.33	31.250
791.64	21.250
791.95	27.907
792.25	22.340
792.56	28.090
792.87	21.918
793.17	44.928
793.48	18.667
793.79	17.500
794.09	38.750
794.40	20.755
794.70	19.417
795.01	11.382
795.32	23.932
795.62	16.190
795.93	16.667
796.23	21.698
796.54	16.667
796.85	25.000
797.15	19.718
797.46	30.556
797.76	22.727
798.07	31.395
798.37	14.474
798.68	15.152
798.99	18.519
799.29	18.571
799.60	23.188
799.90	21.333
800.21	19.672
800.51	23.077
800.82	33.898
801.12	27.536
801.43	16.393
801.73	9.524
802.04	20.000
802.34	10.448
802.65	50.000
802.95	12.500
803.26	3.846
803.56	25.490
803.87	-8.696
804.17	26.667
804.48	22.222
804.78	7.407
805.09	28.261
805.39	24.444
805.70	1.852
806.00	-3.509
806.30	23.944
806.61	35.714
806.91	15.278
807.22	34.211
807.52	28.000
807.83	3.636
808.13	31.944
808.43	17.647
808.74	17.910
809.04	22.034
809.35	23.077
809.65	15.625
809.95	-8.108
810.26	-22.727
810.56	24.658
810.86	19.048
811.17	4.000
811.47	28.571
811.77	5.263
812.08	29.545
812.38	28.302
812.69	17.500
812.99	30.303
813.29	31.579
813.59	11.429
813.90	15.909
814.20	2.564
814.50	25.000
814.81	22.642
815.11	2.128
815.41	28.814
815.72	19.048
816.02	19.608
816.32	27.083
816.62	14.634
816.93	5.405
817.23	11.429
817.53	14.583
817.84	23.913
818.14	15.385
818.44	2.632
818.74	41.304
819.04	-22.500
819.35	10.811
819.65	44.118
819.95	-11.111
820.25	26.190
820.56	40.000
820.86	-48.276
821.16	35.000
821.46	31.915
821.76	37.500
822.07	16.279
822.37	-5.405
822.67	21.875
822.97	23.810
823.27	10.714
823.57	-36.000
823.88	-7.407
824.18	3.571
824.48	-8.824
824.78	-9.677
825.08	-17.391
825.38	9.091
825.69	-29.167
825.99	-2.632
826.29	-2.778
826.59	-60.000
826.89	-19.048
827.19	23.913
827.49	10.000
827.79	40.000
828.09	10.714
828.39	33.333
828.70	43.243
829.00	-14.286
829.30	-9.524
829.60	6.667
829.90	25.000
830.20	7.895
830.50	-22.222
830.80	0.000
831.10	40.909
831.40	30.303
831.70	25.806
832.00	38.095
832.30	-76.190
832.60	-100.000
832.90	20.690
833.20	5.000
833.50	36.364
833.80	18.519
834.10	0.000
834.40	25.000
834.70	-33.333
835.00	21.053
835.30	50.000
835.60	40.000
835.90	19.355
836.20	50.000
836.50	-21.429
836.80	-23.077
837.10	-14.286
837.40	-66.667
837.70	18.182
838.00	-18.182
838.30	8.696
838.60	84.615
838.90	40.909
839.19	17.857
839.49	13.333
839.79	23.077
840.09	-75.000
840.39	46.429
840.69	-3.571
840.99	11.538
841.29	-10.526
841.59	-230.000
841.88	9.091
842.18	-10.000
842.48	12.500
842.78	13.333
843.08	29.630
843.38	-30.000
843.68	17.391
843.97	73.333
844.27	-93.333
844.57	20.000
844.87	33.333
845.17	-71.429
845.47	-33.333
845.76	19.048
846.06	29.412
846.36	0.000
846.66	-85.714
846.96	-13.333
847.25	-100.000
847.55	21.429
847.85	12.500
848.15	-4.545
848.44	-166.667
848.74	10.000
849.04	37.037
849.34	18.182
849.63	-33.333
849.93	-160.000
850.23	5.556
850.53	120.000
850.82	-15.385
851.12	-11.111
851.42	73.333
851.71	-3.846
852.01	0.000
852.31	-50.000
852.61	-54.545
852.90	10.000
853.20	5.263
853.50	-25.000
853.79	4.348
854.09	29.167
854.39	-31.579
854.68	-16.667
854.98	29.032
855.28	23.077
855.57	30.000
855.87	-22.222
856.17	14.815
856.46	-7.143
856.76	-20.000
857.05	33.333
857.35	24.000
857.65	22.222
857.94	-7.692
858.24	34.483
858.53	38.889
858.83	-11.111
859.13	36.364
859.42	21.739
859.72	-50.000
860.01	-400.000
860.31	32.000
860.60	14.286
860.90	-133.333
861.20	-20.000
861.49	-150.000
861.79	33.333
862.08	10.000
862.38	93.333
862.67	-300.000
862.97	0.000
863.26	66.667
863.56	50.000
863.85	-266.667
864.15	61.111
864.44	-50.000
864.74	21.429
865.03	25.000
865.33	-200.000
865.62	83.333
865.92	8.333
866.21	-66.667
866.51	12.500
866.80	-81.818
867.10	-350.000
867.39	91.667
867.69	0.000
867.98	0.000
868.27	33.333
868.57	73.333
868.86	55.556
869.16	-15.385
869.45	26.667
869.75	-400.000
870.04	0.000
870.33	-157.143
870.63	-33.333
870.92	333.333
871.22	-160.000
871.51	200.000
871.80	11.111
872.10	166.667
>>>>>End Processed Spectral Data<<<<<
