SpectraSuite Data File
++++++++++++++++++++++++++++++++++++
Date: Fri May 15 21:09:45 PDT 2015
User: schluterlab
Dark Spectrum Present: Yes
Reference Spectrum Present: Yes
Number of Sampled Component Spectra: 1
Spectrometers: USB2E3373
Integration Time (usec): 3000 (USB2E3373)
Spectra Averaged: 3 (USB2E3373)
Boxcar Smoothing: 0 (USB2E3373)
Correct for Electrical Dark: No (USB2E3373)
Strobe/Lamp Enabled: No (USB2E3373)
Correct for Detector Non-linearity: No (USB2E3373)
Correct for Stray Light: No (USB2E3373)
Number of Pixels in Processed Spectrum: 2048
>>>>>Begin Processed Spectral Data<<<<<
178.53	0.000
178.91	0.000
179.29	100.000
179.67	-200.000
180.04	14.286
180.42	100.000
180.80	200.000
181.18	-66.667
181.56	250.000
181.94	0.000
182.31	-100.000
182.69	-60.000
183.07	-100.000
183.45	-60.000
183.83	283.333
184.20	18.182
184.58	244.444
184.96	25.000
185.34	233.333
185.72	-450.000
186.09	76.923
186.47	-500.000
186.85	83.333
187.23	88.889
187.61	-100.000
187.98	-266.667
188.36	-22.222
188.74	-200.000
189.12	-29.412
189.49	16.667
189.87	0.000
190.25	0.000
190.63	0.000
191.00	-233.333
191.38	-5.263
191.76	200.000
192.14	125.000
192.51	300.000
192.89	-66.667
193.27	-57.143
193.65	83.333
194.02	190.909
194.40	-20.000
194.78	-175.000
195.15	-33.333
195.53	-112.500
195.91	350.000
196.29	-175.000
196.66	161.538
197.04	57.143
197.42	-22.222
197.79	-433.333
198.17	-115.385
198.55	1200.000
198.92	-266.667
199.30	-300.000
199.68	-40.000
200.05	-133.333
200.43	0.000
200.81	-133.333
201.18	-100.000
201.56	900.000
201.94	-350.000
202.31	-166.667
202.69	-280.000
203.07	375.000
203.44	1400.000
203.82	0.000
204.19	-21.429
204.57	-466.667
204.95	175.000
205.32	60.000
205.70	-100.000
206.08	-125.000
206.45	144.444
206.83	71.429
207.20	-242.857
207.58	-300.000
207.96	-366.667
208.33	-60.000
208.71	-300.000
209.08	-133.333
209.46	-500.000
209.84	-20.000
210.21	-600.000
210.59	42.857
210.96	-33.333
211.34	-250.000
211.71	13.333
212.09	-71.429
212.46	-1100.000
212.84	0.000
213.22	-20.000
213.59	300.000
213.97	-30.769
214.34	0.000
214.72	-216.667
215.09	325.000
215.47	-23.077
215.84	-63.636
216.22	-333.333
216.59	-87.500
216.97	-50.000
217.34	-300.000
217.72	-360.000
218.09	37.500
218.47	162.500
218.84	-1400.000
219.22	0.000
219.59	-200.000
219.97	266.667
220.34	275.000
220.72	-42.857
221.09	-100.000
221.47	-350.000
221.84	-650.000
222.22	-1000.000
222.59	-63.636
222.97	66.667
223.34	-400.000
223.72	-57.143
224.09	4.762
224.46	32.143
224.84	233.333
225.21	0.000
225.59	46.667
225.96	-100.000
226.34	400.000
226.71	-28.571
227.08	-66.667
227.46	-25.000
227.83	-150.000
228.21	-44.444
228.58	0.000
228.95	0.000
229.33	70.000
229.70	-31.250
230.08	-125.000
230.45	-28.571
230.82	-100.000
231.20	-60.000
231.57	28.571
231.95	-42.857
232.32	-50.000
232.69	28.571
233.07	100.000
233.44	-260.000
233.81	-70.000
234.19	-100.000
234.56	29.412
234.93	150.000
235.31	100.000
235.68	-340.000
236.05	-123.077
236.43	-25.000
236.80	17.647
237.17	3.125
237.55	-90.000
237.92	-37.037
238.29	11.111
238.67	10.000
239.04	-23.529
239.41	-29.268
239.79	-40.000
240.16	-21.951
240.53	-21.053
240.91	-17.391
241.28	1.587
241.65	16.071
242.02	-2.740
242.40	-3.333
242.77	-8.475
243.14	-27.273
243.51	0.000
243.89	10.345
244.26	-6.897
244.63	0.000
245.00	-4.124
245.38	12.371
245.75	-8.989
246.12	-6.897
246.49	1.653
246.87	-2.885
247.24	-10.084
247.61	-11.404
247.98	-4.065
248.36	-3.125
248.73	7.237
249.10	-3.896
249.47	-4.430
249.84	-6.536
250.22	-4.118
250.59	-3.922
250.96	0.469
251.33	-6.395
251.70	-4.706
252.08	-3.046
252.45	-2.970
252.82	-4.020
253.19	2.304
253.56	-5.607
253.94	2.703
254.31	3.913
254.68	1.316
255.05	3.543
255.42	-1.310
255.79	0.000
256.16	-1.556
256.54	-0.373
256.91	-0.760
257.28	-1.115
257.65	-2.622
258.02	-1.773
258.39	0.673
258.76	1.465
259.14	1.993
259.51	2.265
259.88	-2.749
260.25	-0.327
260.62	-0.347
260.99	-5.085
261.36	-2.397
261.73	-2.215
262.10	2.432
262.47	0.000
262.85	-0.940
263.22	0.615
263.59	1.869
263.96	2.174
264.33	0.909
264.70	-0.595
265.07	-0.893
265.44	1.700
265.81	0.000
266.18	1.366
266.55	1.799
266.92	1.036
267.29	1.828
267.66	0.256
268.03	4.712
268.40	1.567
268.77	3.209
269.14	0.719
269.51	1.542
269.88	-0.249
270.25	-2.806
270.62	-4.146
270.99	-2.046
271.36	0.244
271.73	0.235
272.10	-1.460
272.47	1.418
272.84	-0.495
273.21	1.392
273.58	1.687
273.95	1.602
274.32	1.617
274.69	2.036
275.06	1.116
275.43	0.454
275.80	0.442
276.17	-2.529
276.54	-0.857
276.91	-0.658
277.28	-0.873
277.65	3.512
278.02	-1.277
278.39	0.219
278.76	0.629
279.13	-1.037
279.50	-1.261
279.87	-1.296
280.23	-0.215
280.60	-0.390
280.97	1.010
281.34	-1.538
281.71	3.491
282.08	0.409
282.45	0.978
282.82	-0.772
283.19	0.000
283.56	0.385
283.92	-2.087
284.29	-1.731
284.66	-0.388
285.03	-0.982
285.40	-2.268
285.77	-0.176
286.14	0.903
286.51	1.107
286.87	0.731
287.24	0.368
287.61	0.882
287.98	2.456
288.35	0.693
288.72	1.401
289.08	-1.042
289.45	-0.351
289.82	-0.524
290.19	-0.341
290.56	-0.686
290.93	-0.673
291.29	-1.079
291.66	0.787
292.03	0.638
292.40	0.645
292.77	-0.957
293.13	-1.136
293.50	-1.214
293.87	1.221
294.24	-1.546
294.60	-0.745
294.97	1.339
295.34	-0.920
295.71	0.149
296.08	-0.598
296.44	-1.422
296.81	0.694
297.18	0.435
297.55	2.033
297.91	-0.822
298.28	1.715
298.65	0.950
299.02	-0.674
299.38	-3.420
299.75	-0.414
300.12	0.393
300.48	-0.527
300.85	1.394
301.22	-0.649
301.59	-1.053
301.95	0.506
302.32	1.038
302.69	-0.249
303.05	0.124
303.42	0.249
303.79	1.051
304.15	2.151
304.52	-1.784
304.89	-0.702
305.25	0.242
305.62	-0.467
305.99	1.404
306.35	-0.347
306.72	0.112
307.09	0.684
307.45	0.574
307.82	0.694
308.19	0.929
308.55	0.872
308.92	2.288
309.29	-0.335
309.65	1.292
310.02	2.750
310.38	2.086
310.75	1.749
311.12	0.753
311.48	2.227
311.85	1.361
312.22	1.160
312.58	0.425
312.95	0.961
313.31	1.760
313.68	1.571
314.05	2.551
314.41	1.856
314.78	3.402
315.14	2.364
315.51	3.520
315.87	3.381
316.24	4.348
316.61	4.921
316.97	4.266
317.34	4.980
317.70	4.302
318.07	5.865
318.43	5.686
318.80	5.871
319.16	6.445
319.53	7.502
319.89	7.480
320.26	8.603
320.62	8.626
320.99	8.351
321.35	8.941
321.72	10.592
322.08	10.272
322.45	10.254
322.81	10.314
323.18	10.500
323.54	10.907
323.91	11.003
324.27	12.402
324.64	13.483
325.00	14.872
325.37	14.876
325.73	14.325
326.10	15.077
326.46	16.951
326.83	16.360
327.19	16.042
327.56	17.116
327.92	17.518
328.29	17.768
328.65	17.358
329.01	18.015
329.38	17.235
329.74	17.375
330.11	19.277
330.47	18.553
330.84	17.019
331.20	20.913
331.56	18.796
331.93	20.913
332.29	19.982
332.66	19.367
333.02	21.375
333.38	20.348
333.75	21.520
334.11	20.054
334.48	21.578
334.84	21.154
335.20	21.775
335.57	20.852
335.93	21.138
336.29	21.363
336.66	21.435
337.02	21.933
337.38	21.852
337.75	22.000
338.11	22.904
338.47	23.540
338.84	21.904
339.20	23.126
339.56	22.936
339.93	22.919
340.29	22.294
340.65	23.566
341.02	23.138
341.38	23.451
341.74	21.201
342.11	21.231
342.47	21.886
342.83	23.616
343.20	23.606
343.56	23.913
343.92	24.092
344.28	23.997
344.65	23.921
345.01	22.904
345.37	23.045
345.73	23.347
346.10	23.986
346.46	24.390
346.82	23.486
347.19	23.774
347.55	24.478
347.91	24.919
348.27	24.252
348.63	24.020
349.00	23.380
349.36	24.190
349.72	24.793
350.08	24.672
350.45	24.421
350.81	23.754
351.17	24.267
351.53	25.061
351.89	24.938
352.26	25.040
352.62	25.403
352.98	24.900
353.34	24.879
353.70	25.971
354.07	25.645
354.43	25.460
354.79	23.782
355.15	25.873
355.51	25.554
355.87	26.133
356.24	25.367
356.60	25.384
356.96	26.825
357.32	26.837
357.68	25.958
358.04	25.202
358.40	26.045
358.77	27.273
359.13	26.421
359.49	25.578
359.85	25.819
360.21	26.475
360.57	27.008
360.93	27.231
361.29	25.302
361.66	26.803
362.02	27.652
362.38	27.342
362.74	25.965
363.10	27.389
363.46	27.354
363.82	28.400
364.18	27.011
364.54	27.941
364.90	26.738
365.26	26.710
365.62	29.051
365.98	28.079
366.35	28.769
366.71	30.229
367.07	28.882
367.43	27.318
367.79	28.975
368.15	28.356
368.51	28.696
368.87	29.074
369.23	28.520
369.59	29.738
369.95	29.619
370.31	29.913
370.67	29.328
371.03	29.873
371.39	30.197
371.75	29.158
372.11	29.101
372.47	30.030
372.83	29.879
373.19	29.672
373.55	30.181
373.91	30.382
374.27	30.191
374.63	30.223
374.99	30.496
375.35	30.501
375.71	31.049
376.07	31.531
376.42	30.612
376.78	30.201
377.14	31.415
377.50	30.810
377.86	31.392
378.22	29.930
378.58	30.064
378.94	30.624
379.30	31.753
379.66	32.727
380.02	31.514
380.38	30.858
380.74	31.299
381.09	32.638
381.45	30.765
381.81	32.387
382.17	32.170
382.53	31.730
382.89	32.015
383.25	32.296
383.61	32.012
383.97	32.190
384.32	31.895
384.68	32.755
385.04	32.475
385.40	31.612
385.76	33.082
386.12	32.212
386.48	32.375
386.83	32.276
387.19	32.357
387.55	33.250
387.91	32.885
388.27	31.990
388.62	32.725
388.98	32.719
389.34	32.542
389.70	32.940
390.06	31.907
390.42	32.383
390.77	32.505
391.13	32.282
391.49	33.441
391.85	32.424
392.20	32.894
392.56	32.549
392.92	32.766
393.28	32.606
393.64	32.613
393.99	33.103
394.35	31.752
394.71	32.886
395.07	31.867
395.42	33.090
395.78	34.007
396.14	33.480
396.50	32.594
396.85	33.162
397.21	33.396
397.57	32.790
397.92	31.516
398.28	31.782
398.64	32.229
399.00	32.901
399.35	31.772
399.71	32.395
400.07	31.983
400.42	31.701
400.78	31.782
401.14	31.942
401.49	32.817
401.85	32.054
402.21	32.831
402.57	33.438
402.92	32.183
403.28	31.892
403.63	32.472
403.99	32.207
404.35	32.480
404.70	31.905
405.06	32.256
405.42	31.697
405.77	31.435
406.13	31.141
406.49	31.616
406.84	32.457
407.20	32.511
407.55	31.037
407.91	31.283
408.27	31.039
408.62	30.892
408.98	31.362
409.34	30.855
409.69	30.620
410.05	30.973
410.40	31.481
410.76	30.277
411.11	30.688
411.47	31.887
411.83	30.697
412.18	31.853
412.54	29.963
412.89	29.495
413.25	31.769
413.60	30.000
413.96	29.877
414.31	30.488
414.67	29.955
415.03	30.493
415.38	29.896
415.74	30.423
416.09	30.111
416.45	30.520
416.80	29.147
417.16	31.215
417.51	29.447
417.87	29.857
418.22	30.635
418.58	30.100
418.93	29.969
419.29	29.065
419.64	30.784
420.00	30.038
420.35	29.373
420.71	30.255
421.06	29.589
421.42	30.108
421.77	29.480
422.12	30.023
422.48	29.182
422.83	29.698
423.19	29.853
423.54	28.689
423.90	28.681
424.25	29.162
424.61	29.559
424.96	28.281
425.31	29.001
425.67	29.812
426.02	30.153
426.38	30.182
426.73	29.177
427.09	30.000
427.44	29.588
427.79	29.523
428.15	29.733
428.50	28.831
428.85	28.624
429.21	29.202
429.56	28.841
429.92	28.814
430.27	28.020
430.62	27.601
430.98	29.140
431.33	28.549
431.68	28.833
432.04	28.619
432.39	27.952
432.74	28.623
433.10	28.391
433.45	28.853
433.80	28.381
434.16	27.590
434.51	28.387
434.86	28.455
435.22	27.650
435.57	28.759
435.92	27.725
436.28	27.609
436.63	27.610
436.98	27.346
437.34	28.070
437.69	28.384
438.04	27.749
438.39	27.184
438.75	27.383
439.10	27.900
439.45	27.876
439.81	26.911
440.16	28.741
440.51	28.896
440.86	29.003
441.22	27.658
441.57	27.539
441.92	28.279
442.27	28.437
442.63	28.105
442.98	27.858
443.33	28.214
443.68	27.162
444.03	27.124
444.39	27.447
444.74	27.703
445.09	27.840
445.44	27.578
445.79	27.488
446.15	26.872
446.50	27.011
446.85	26.886
447.20	27.216
447.55	27.679
447.91	27.355
448.26	27.661
448.61	27.346
448.96	27.539
449.31	26.243
449.66	26.481
450.02	26.241
450.37	27.327
450.72	26.518
451.07	26.835
451.42	26.654
451.77	25.738
452.12	25.897
452.47	25.306
452.83	25.736
453.18	25.933
453.53	26.359
453.88	26.533
454.23	26.306
454.58	26.071
454.93	26.095
455.28	25.905
455.63	26.720
455.98	26.398
456.34	26.181
456.69	26.620
457.04	25.520
457.39	25.820
457.74	26.300
458.09	24.603
458.44	24.634
458.79	25.378
459.14	26.144
459.49	26.269
459.84	25.550
460.19	25.364
460.54	25.244
460.89	24.830
461.24	25.031
461.59	25.059
461.94	25.472
462.29	26.779
462.64	25.581
462.99	25.118
463.34	24.409
463.69	23.745
464.04	25.303
464.39	25.227
464.74	23.865
465.09	24.828
465.44	25.332
465.79	23.980
466.14	24.857
466.49	24.669
466.84	23.974
467.19	24.468
467.54	24.330
467.89	23.879
468.24	24.209
468.59	24.952
468.94	24.635
469.29	24.262
469.64	25.222
469.99	24.597
470.34	24.027
470.68	25.354
471.03	23.708
471.38	24.037
471.73	23.810
472.08	23.609
472.43	22.752
472.78	22.413
473.13	23.741
473.48	22.932
473.83	23.288
474.17	22.474
474.52	23.357
474.87	23.576
475.22	22.514
475.57	23.038
475.92	23.807
476.27	22.526
476.61	23.322
476.96	23.090
477.31	22.282
477.66	22.528
478.01	21.954
478.36	22.277
478.70	23.545
479.05	22.692
479.40	22.046
479.75	21.794
480.10	22.632
480.45	22.200
480.79	22.407
481.14	22.797
481.49	21.379
481.84	22.539
482.19	21.375
482.53	22.110
482.88	21.718
483.23	20.969
483.58	21.085
483.92	21.684
484.27	21.057
484.62	21.470
484.97	21.393
485.31	21.676
485.66	20.607
486.01	21.076
486.36	21.349
486.70	21.369
487.05	21.063
487.40	21.122
487.75	20.592
488.09	20.519
488.44	21.114
488.79	20.097
489.13	20.713
489.48	20.693
489.83	20.583
490.17	20.045
490.52	20.323
490.87	20.639
491.22	20.010
491.56	19.924
491.91	20.220
492.26	20.321
492.60	20.202
492.95	20.856
493.30	20.322
493.64	20.678
493.99	19.565
494.34	19.612
494.68	19.333
495.03	19.270
495.37	19.480
495.72	19.687
496.07	19.756
496.41	19.340
496.76	20.083
497.11	18.864
497.45	19.809
497.80	19.223
498.14	19.573
498.49	18.944
498.84	19.212
499.18	18.373
499.53	18.849
499.87	19.212
500.22	19.090
500.56	18.659
500.91	18.574
501.26	18.883
501.60	18.938
501.95	19.214
502.29	18.354
502.64	19.064
502.98	18.402
503.33	17.963
503.67	18.265
504.02	18.719
504.36	19.149
504.71	18.586
505.06	18.168
505.40	17.563
505.75	18.763
506.09	18.702
506.44	18.224
506.78	18.776
507.13	18.046
507.47	17.232
507.82	17.468
508.16	18.119
508.51	18.258
508.85	18.367
509.19	17.775
509.54	17.694
509.88	17.260
510.23	17.214
510.57	18.065
510.92	17.111
511.26	17.730
511.61	17.547
511.95	18.027
512.30	17.129
512.64	17.974
512.98	17.238
513.33	17.180
513.67	16.885
514.02	17.620
514.36	18.571
514.70	18.531
515.05	17.333
515.39	16.883
515.74	17.904
516.08	17.513
516.42	17.903
516.77	17.203
517.11	17.389
517.46	17.594
517.80	17.580
518.14	17.575
518.49	16.406
518.83	17.618
519.17	16.495
519.52	16.045
519.86	15.726
520.20	17.132
520.55	16.510
520.89	17.566
521.23	16.213
521.58	17.603
521.92	16.474
522.26	16.461
522.61	17.143
522.95	16.556
523.29	15.947
523.64	16.773
523.98	16.785
524.32	15.786
524.66	16.581
525.01	16.948
525.35	17.304
525.69	16.094
526.04	16.204
526.38	17.121
526.72	15.958
527.06	16.732
527.41	16.755
527.75	16.019
528.09	15.681
528.43	17.016
528.78	16.436
529.12	15.935
529.46	15.724
529.80	16.719
530.15	15.776
530.49	16.162
530.83	15.527
531.17	14.976
531.51	15.390
531.86	15.296
532.20	16.145
532.54	15.929
532.88	16.085
533.22	15.793
533.57	15.662
533.91	15.666
534.25	16.406
534.59	15.138
534.93	15.922
535.27	14.975
535.62	14.906
535.96	15.329
536.30	16.227
536.64	16.196
536.98	14.983
537.32	14.723
537.66	16.480
538.01	15.664
538.35	14.771
538.69	16.245
539.03	14.627
539.37	15.680
539.71	14.928
540.05	15.207
540.39	15.166
540.73	15.342
541.07	14.917
541.42	16.062
541.76	15.210
542.10	15.348
542.44	15.497
542.78	13.902
543.12	14.148
543.46	15.369
543.80	14.226
544.14	13.752
544.48	14.990
544.82	15.516
545.16	14.891
545.50	15.955
545.84	15.510
546.18	15.177
546.52	14.996
546.86	14.450
547.20	14.449
547.54	12.862
547.88	14.810
548.22	14.596
548.56	13.918
548.90	13.881
549.24	14.325
549.58	14.457
549.92	13.224
550.26	13.993
550.60	13.606
550.94	14.190
551.28	13.601
551.62	14.077
551.96	14.662
552.30	14.035
552.64	13.611
552.98	14.557
553.32	13.837
553.66	12.700
554.00	13.285
554.34	13.368
554.68	13.864
555.02	14.732
555.36	14.136
555.69	13.553
556.03	13.205
556.37	13.879
556.71	13.285
557.05	13.199
557.39	13.160
557.73	13.418
558.07	14.103
558.41	13.323
558.75	13.484
559.08	13.554
559.42	13.175
559.76	13.371
560.10	12.691
560.44	12.733
560.78	12.727
561.12	13.188
561.45	13.071
561.79	12.325
562.13	13.130
562.47	12.662
562.81	12.680
563.15	13.117
563.48	13.296
563.82	13.590
564.16	14.136
564.50	13.108
564.84	12.851
565.17	12.542
565.51	13.934
565.85	12.826
566.19	12.467
566.52	13.070
566.86	13.882
567.20	12.329
567.54	12.956
567.88	12.771
568.21	13.292
568.55	12.554
568.89	12.782
569.23	13.144
569.56	12.828
569.90	12.708
570.24	12.877
570.57	12.836
570.91	13.384
571.25	12.660
571.59	12.270
571.92	12.474
572.26	11.926
572.60	12.186
572.93	12.394
573.27	12.226
573.61	11.933
573.95	12.261
574.28	11.970
574.62	11.899
574.96	11.967
575.29	11.863
575.63	11.920
575.97	11.765
576.30	11.808
576.64	11.974
576.98	12.252
577.31	11.993
577.65	12.018
577.98	11.898
578.32	11.971
578.66	11.777
578.99	11.722
579.33	11.341
579.67	11.355
580.00	11.544
580.34	11.667
580.67	11.771
581.01	11.503
581.35	11.585
581.68	11.769
582.02	11.580
582.35	11.662
582.69	11.706
583.02	11.472
583.36	11.687
583.70	11.994
584.03	11.871
584.37	12.140
584.70	11.593
585.04	11.166
585.37	11.523
585.71	10.886
586.04	11.523
586.38	11.203
586.72	11.420
587.05	11.872
587.39	11.350
587.72	11.892
588.06	11.237
588.39	11.507
588.73	11.600
589.06	11.676
589.40	11.372
589.73	11.318
590.07	11.594
590.40	11.842
590.73	11.779
591.07	11.238
591.40	10.997
591.74	11.674
592.07	11.364
592.41	11.661
592.74	11.151
593.08	11.352
593.41	11.203
593.75	11.122
594.08	10.917
594.41	11.172
594.75	10.878
595.08	11.426
595.42	10.821
595.75	11.453
596.09	11.063
596.42	10.790
596.75	11.590
597.09	10.797
597.42	11.201
597.75	10.673
598.09	11.317
598.42	10.514
598.76	10.553
599.09	10.817
599.42	10.913
599.76	10.798
600.09	10.822
600.42	10.576
600.76	10.587
601.09	10.611
601.42	10.772
601.76	10.401
602.09	10.066
602.42	11.457
602.76	10.696
603.09	10.922
603.42	10.744
603.76	9.960
604.09	10.450
604.42	10.321
604.76	10.369
605.09	10.969
605.42	10.880
605.75	10.595
606.09	10.573
606.42	10.092
606.75	10.606
607.09	10.989
607.42	10.456
607.75	9.902
608.08	10.018
608.42	9.868
608.75	11.325
609.08	10.164
609.41	10.051
609.75	10.433
610.08	10.634
610.41	10.338
610.74	9.361
611.07	10.129
611.41	10.016
611.74	11.301
612.07	9.957
612.40	10.613
612.73	9.887
613.07	9.899
613.40	10.832
613.73	9.401
614.06	10.796
614.39	10.378
614.72	9.188
615.06	10.279
615.39	10.317
615.72	9.203
616.05	10.168
616.38	9.573
616.71	10.275
617.05	10.006
617.38	10.748
617.71	9.937
618.04	10.730
618.37	10.719
618.70	10.561
619.03	12.153
619.36	9.624
619.69	10.690
620.03	10.811
620.36	9.371
620.69	9.208
621.02	10.245
621.35	9.793
621.68	10.119
622.01	9.917
622.34	10.136
622.67	10.489
623.00	10.490
623.33	9.985
623.66	9.424
623.99	10.968
624.32	10.114
624.65	8.947
624.99	10.158
625.32	9.553
625.65	9.819
625.98	10.153
626.31	10.806
626.64	9.532
626.97	10.558
627.30	9.282
627.63	9.272
627.96	9.434
628.29	9.621
628.62	10.718
628.95	9.619
629.28	9.476
629.61	10.469
629.94	9.873
630.26	8.597
630.59	9.990
630.92	9.436
631.25	9.128
631.58	10.132
631.91	9.211
632.24	9.060
632.57	9.091
632.90	9.964
633.23	9.294
633.56	9.572
633.89	7.891
634.22	10.000
634.55	7.878
634.88	9.068
635.20	8.077
635.53	8.667
635.86	9.753
636.19	10.091
636.52	9.311
636.85	8.313
637.18	8.428
637.51	9.057
637.83	9.461
638.16	11.323
638.49	7.766
638.82	10.789
639.15	10.176
639.48	10.041
639.81	10.181
640.13	9.380
640.46	10.350
640.79	10.015
641.12	9.010
641.45	8.559
641.77	9.481
642.10	9.321
642.43	10.289
642.76	10.726
643.09	9.693
643.41	8.900
643.74	9.226
644.07	11.002
644.40	8.446
644.73	10.683
645.05	10.235
645.38	8.818
645.71	7.979
646.04	9.156
646.36	8.511
646.69	10.791
647.02	9.263
647.35	7.649
647.67	10.786
648.00	10.261
648.33	9.727
648.66	8.814
648.98	6.868
649.31	6.446
649.64	8.477
649.96	8.752
650.29	9.540
650.62	9.402
650.94	5.000
651.27	8.752
651.60	9.730
651.92	9.266
652.25	7.105
652.58	10.167
652.90	10.978
653.23	8.067
653.56	8.460
653.88	8.247
654.21	7.356
654.54	8.489
654.86	8.998
655.19	8.772
655.52	9.288
655.84	8.930
656.17	9.563
656.49	13.139
656.82	13.467
657.15	10.539
657.47	7.751
657.80	5.547
658.13	5.492
658.45	8.454
658.78	8.314
659.10	8.446
659.43	8.391
659.75	8.288
660.08	8.345
660.41	7.865
660.73	8.840
661.06	9.879
661.38	10.763
661.71	9.035
662.03	8.798
662.36	9.451
662.68	7.965
663.01	8.952
663.33	8.121
663.66	6.512
663.98	6.977
664.31	10.021
664.63	5.069
664.96	5.435
665.28	7.285
665.61	10.823
665.93	9.348
666.26	6.725
666.58	6.935
666.91	6.824
667.23	9.434
667.56	6.635
667.88	7.674
668.21	6.921
668.53	9.220
668.86	8.726
669.18	6.368
669.50	7.022
669.83	8.372
670.15	6.993
670.48	9.809
670.80	9.908
671.13	8.725
671.45	4.795
671.77	10.086
672.10	9.505
672.42	8.989
672.75	9.947
673.07	10.376
673.39	8.257
673.72	6.706
674.04	7.083
674.37	10.169
674.69	5.353
675.01	7.778
675.34	5.631
675.66	7.176
675.98	9.534
676.31	9.862
676.63	7.601
676.95	6.136
677.28	11.294
677.60	9.639
677.92	8.028
678.25	9.628
678.57	7.792
678.89	9.244
679.22	9.396
679.54	6.827
679.86	5.964
680.18	7.184
680.51	7.008
680.83	6.163
681.15	8.600
681.48	10.041
681.80	8.264
682.12	8.065
682.44	6.904
682.77	6.623
683.09	7.323
683.41	5.000
683.73	6.912
684.06	7.965
684.38	8.172
684.70	6.318
685.02	5.809
685.34	8.103
685.67	6.942
685.99	8.318
686.31	10.796
686.63	9.276
686.96	5.513
687.28	3.232
687.60	6.084
687.92	8.687
688.24	6.653
688.56	7.205
688.89	9.598
689.21	9.778
689.53	9.513
689.85	5.349
690.17	8.036
690.49	6.383
690.82	9.951
691.14	5.714
691.46	6.776
691.78	8.559
692.10	8.817
692.42	6.494
692.74	9.829
693.06	7.432
693.39	4.299
693.71	8.145
694.03	5.312
694.35	7.944
694.67	4.293
694.99	7.050
695.31	7.833
695.63	6.500
695.95	6.566
696.27	6.477
696.59	8.333
696.91	7.843
697.23	6.684
697.56	5.446
697.88	8.817
698.20	7.973
698.52	7.294
698.84	5.502
699.16	7.500
699.48	7.519
699.80	5.707
700.12	7.008
700.44	7.563
700.76	8.430
701.08	6.061
701.40	9.337
701.72	10.185
702.04	8.581
702.36	6.689
702.68	6.907
703.00	6.667
703.32	9.091
703.64	3.672
703.96	10.145
704.28	5.215
704.60	7.302
704.91	0.946
705.23	5.648
705.55	10.954
705.87	7.220
706.19	7.407
706.51	7.904
706.83	8.039
707.15	4.361
707.47	8.683
707.79	6.250
708.11	9.750
708.43	8.250
708.74	10.078
709.06	9.296
709.38	10.092
709.70	7.988
710.02	7.006
710.34	8.669
710.66	2.885
710.98	4.305
711.29	4.918
711.61	3.729
711.93	5.863
712.25	12.027
712.57	5.128
712.89	3.731
713.20	11.073
713.52	7.666
713.84	5.119
714.16	6.873
714.48	5.806
714.80	9.936
715.11	5.167
715.43	4.075
715.75	4.333
716.07	4.651
716.39	10.738
716.70	4.428
717.02	4.962
717.34	6.073
717.66	5.310
717.97	6.087
718.29	7.531
718.61	5.906
718.93	6.589
719.24	6.084
719.56	6.827
719.88	8.935
720.20	7.197
720.51	3.831
720.83	8.108
721.15	5.882
721.46	6.855
721.78	2.767
722.10	6.691
722.42	0.415
722.73	6.939
723.05	10.612
723.37	8.475
723.68	8.559
724.00	7.265
724.32	6.667
724.63	5.000
724.95	3.493
725.27	5.069
725.58	11.017
725.90	5.556
726.22	6.178
726.53	10.508
726.85	9.738
727.16	5.660
727.48	2.429
727.80	3.239
728.11	5.508
728.43	1.176
728.74	4.032
729.06	6.400
729.38	13.158
729.69	2.390
730.01	3.462
730.32	6.716
730.64	7.774
730.96	5.660
731.27	5.667
731.59	5.424
731.90	5.414
732.22	9.464
732.53	7.973
732.85	6.383
733.16	10.438
733.48	2.518
733.80	3.986
734.11	5.085
734.43	3.780
734.74	6.061
735.06	3.257
735.37	8.761
735.69	6.061
736.00	7.666
736.32	6.040
736.63	5.986
736.95	5.119
737.26	7.117
737.58	6.376
737.89	6.227
738.21	6.767
738.52	5.350
738.83	5.240
739.15	5.677
739.46	6.693
739.78	2.198
740.09	5.882
740.41	6.884
740.72	5.512
741.04	7.692
741.35	8.936
741.66	7.583
741.98	4.592
742.29	6.436
742.61	4.712
742.92	0.474
743.23	3.704
743.55	4.072
743.86	2.392
744.18	7.177
744.49	-0.532
744.80	1.630
745.12	10.160
745.43	5.854
745.74	8.854
746.06	7.805
746.37	2.618
746.68	7.109
747.00	1.064
747.31	7.960
747.62	5.825
747.94	6.699
748.25	1.980
748.56	3.279
748.88	2.094
749.19	6.915
749.50	5.911
749.82	1.415
750.13	1.376
750.44	12.782
750.75	7.463
751.07	12.044
751.38	2.299
751.69	2.353
752.01	9.302
752.32	5.179
752.63	3.953
752.94	0.000
753.26	11.715
753.57	5.430
753.88	6.195
754.19	0.833
754.51	1.240
754.82	3.644
755.13	9.167
755.44	5.645
755.75	6.641
756.07	8.560
756.38	3.396
756.69	3.065
757.00	9.000
757.31	7.190
757.63	5.488
757.94	5.833
758.25	3.836
758.56	5.053
758.87	6.516
759.18	10.280
759.50	1.818
759.81	11.037
760.12	7.419
760.43	6.061
760.74	8.642
761.05	5.846
761.36	5.114
761.67	13.636
761.99	9.184
762.30	3.636
762.61	8.300
762.92	2.715
763.23	4.505
763.54	1.869
763.85	5.085
764.16	5.809
764.47	8.065
764.78	4.762
765.10	11.111
765.41	4.101
765.72	6.667
766.03	1.880
766.34	8.029
766.65	9.562
766.96	5.051
767.27	6.383
767.58	5.172
767.89	-0.709
768.20	-1.705
768.51	4.396
768.82	7.882
769.13	2.304
769.44	3.863
769.75	2.283
770.06	8.190
770.37	8.654
770.68	-1.015
770.99	7.692
771.30	7.353
771.61	3.167
771.92	10.776
772.23	8.374
772.54	8.602
772.85	1.852
773.16	7.303
773.47	9.150
773.78	3.268
774.09	6.587
774.39	4.667
774.70	10.191
775.01	4.138
775.32	11.429
775.63	-6.612
775.94	6.107
776.25	11.024
776.56	0.000
776.87	1.923
777.18	0.000
777.48	5.172
777.79	-13.043
778.10	-2.857
778.41	-7.207
778.72	2.381
779.03	6.767
779.34	11.348
779.65	8.219
779.95	1.370
780.26	6.207
780.57	-2.439
780.88	10.236
781.19	-8.621
781.50	7.752
781.80	5.325
782.11	-3.774
782.42	-2.308
782.73	2.158
783.04	0.741
783.34	0.694
783.65	-6.838
783.96	-4.098
784.27	4.138
784.57	2.439
784.88	10.938
785.19	2.000
785.50	9.000
785.81	6.034
786.11	0.000
786.42	-3.883
786.73	0.000
787.04	-13.265
787.34	-2.679
787.65	2.857
787.96	-7.965
788.26	11.818
788.57	6.838
788.88	9.375
789.19	-0.794
789.49	1.739
789.80	-8.163
790.11	6.061
790.41	3.636
790.72	2.174
791.03	2.273
791.33	6.250
791.64	6.250
791.95	-9.302
792.25	3.191
792.56	3.371
792.87	-2.740
793.17	-7.246
793.48	-12.000
793.79	-5.000
794.09	7.500
794.40	0.943
794.70	-2.913
795.01	-10.569
795.32	-3.419
795.62	0.000
795.93	2.941
796.23	15.094
796.54	9.375
796.85	-5.882
797.15	-4.225
797.46	4.167
797.76	1.515
798.07	4.651
798.37	5.263
798.68	-10.606
798.99	13.580
799.29	5.714
799.60	-13.043
799.90	5.333
800.21	16.393
800.51	-1.538
800.82	-10.169
801.12	-1.449
801.43	9.836
801.73	19.048
802.04	-4.000
802.34	-8.955
802.65	15.385
802.95	5.357
803.26	-15.385
803.56	-3.922
803.87	-17.391
804.17	20.000
804.48	4.762
804.78	7.407
805.09	-17.391
805.39	-11.111
805.70	-5.556
806.00	-15.789
806.30	4.225
806.61	1.429
806.91	-22.222
807.22	5.263
807.52	14.667
807.83	-16.364
808.13	-4.167
808.43	19.118
808.74	-20.896
809.04	-10.169
809.35	-3.846
809.65	1.563
809.95	-43.243
810.26	-27.273
810.56	6.849
810.86	-21.429
811.17	0.000
811.47	18.367
811.77	5.263
812.08	-2.273
812.38	3.774
812.69	-17.500
812.99	-45.455
813.29	-2.632
813.59	-34.286
813.90	-4.545
814.20	-28.205
814.50	-5.769
814.81	0.000
815.11	0.000
815.41	16.949
815.72	2.381
816.02	1.961
816.32	-2.083
816.62	14.634
816.93	-2.703
817.23	-8.571
817.53	8.333
817.84	-17.391
818.14	15.385
818.44	10.526
818.74	30.435
819.04	-35.000
819.35	8.108
819.65	-23.529
819.95	-2.778
820.25	-2.381
820.56	17.500
820.86	-41.379
821.16	7.500
821.46	-12.766
821.76	10.000
822.07	-4.651
822.37	-18.919
822.67	-34.375
822.97	0.000
823.27	-28.571
823.57	4.000
823.88	-29.630
824.18	-35.714
824.48	-29.412
824.78	9.677
825.08	-69.565
825.38	0.000
825.69	-16.667
825.99	26.316
826.29	-16.667
826.59	-93.333
826.89	-95.238
827.19	8.696
827.49	0.000
827.79	20.000
828.09	10.714
828.39	-3.030
828.70	43.243
829.00	-50.000
829.30	-14.286
829.60	-6.667
829.90	9.375
830.20	0.000
830.50	-11.111
830.80	-34.783
831.10	-36.364
831.40	6.061
831.70	19.355
832.00	-4.762
832.30	-28.571
832.60	-25.000
832.90	-13.793
833.20	-35.000
833.50	-15.152
833.80	0.000
834.10	-11.538
834.40	-3.125
834.70	-33.333
835.00	-26.316
835.30	-7.692
835.60	-73.333
835.90	-16.129
836.20	-22.727
836.50	-14.286
836.80	-26.923
837.10	-17.857
837.40	-433.333
837.70	-27.273
838.00	-109.091
838.30	-13.043
838.60	7.692
838.90	13.636
839.19	-7.143
839.49	30.000
839.79	-61.538
840.09	-91.667
840.39	14.286
840.69	7.143
840.99	-65.385
841.29	-57.895
841.59	-140.000
841.88	-18.182
842.18	-20.000
842.48	-75.000
842.78	-100.000
843.08	-25.926
843.38	-230.000
843.68	26.087
843.97	0.000
844.27	-26.667
844.57	-40.000
844.87	0.000
845.17	-23.810
845.47	26.667
845.76	9.524
846.06	-23.529
846.36	-160.000
846.66	-57.143
846.96	-6.667
847.25	-275.000
847.55	-14.286
847.85	-75.000
848.15	-13.636
848.44	-566.667
848.74	35.000
849.04	3.704
849.34	-100.000
849.63	-183.333
849.93	-380.000
850.23	11.111
850.53	30.000
850.82	-46.154
851.12	-188.889
851.42	-60.000
851.71	-26.923
852.01	-7.143
852.31	-75.000
852.61	-45.455
852.90	-45.000
853.20	26.316
853.50	-75.000
853.79	-56.522
854.09	16.667
854.39	-73.684
854.68	-12.500
854.98	-3.226
855.28	34.615
855.57	-15.000
855.87	-22.222
856.17	-14.815
856.46	0.000
856.76	-33.333
857.05	-22.222
857.35	0.000
857.65	-5.556
857.94	-76.923
858.24	24.138
858.53	5.556
858.83	0.000
859.13	-4.545
859.42	-47.826
859.72	-175.000
860.01	-400.000
860.31	8.000
860.60	-33.333
860.90	-233.333
861.20	-53.333
861.49	-750.000
861.79	-73.333
862.08	-45.000
862.38	26.667
862.67	-240.000
862.97	-50.000
863.26	-91.667
863.56	16.667
863.85	-466.667
864.15	22.222
864.44	-70.000
864.74	0.000
865.03	375.000
865.33	-160.000
865.62	33.333
865.92	0.000
866.21	-116.667
866.51	37.500
866.80	-90.909
867.10	-500.000
867.39	-8.333
867.69	0.000
867.98	92.308
868.27	-233.333
868.57	0.000
868.86	-66.667
869.16	-107.692
869.45	-6.667
869.75	-2300.000
870.04	0.000
870.33	-114.286
870.63	14.286
870.92	433.333
871.22	-120.000
871.51	-1000.000
871.80	-33.333
872.10	500.000
>>>>>End Processed Spectral Data<<<<<
