SpectraSuite Data File
++++++++++++++++++++++++++++++++++++
Date: Fri May 15 20:42:38 PDT 2015
User: schluterlab
Dark Spectrum Present: Yes
Reference Spectrum Present: Yes
Number of Sampled Component Spectra: 1
Spectrometers: USB2E3373
Integration Time (usec): 3000 (USB2E3373)
Spectra Averaged: 3 (USB2E3373)
Boxcar Smoothing: 0 (USB2E3373)
Correct for Electrical Dark: No (USB2E3373)
Strobe/Lamp Enabled: No (USB2E3373)
Correct for Detector Non-linearity: No (USB2E3373)
Correct for Stray Light: No (USB2E3373)
Number of Pixels in Processed Spectrum: 2048
>>>>>Begin Processed Spectral Data<<<<<
178.53	0.000
178.91	0.000
179.29	0.000
179.67	-250.000
180.04	42.857
180.42	-125.000
180.80	0.000
181.18	133.333
181.56	650.000
181.94	150.000
182.31	1100.000
182.69	-180.000
183.07	-133.333
183.45	-120.000
183.83	150.000
184.20	-27.273
184.58	166.667
184.96	25.000
185.34	200.000
185.72	-550.000
186.09	15.385
186.47	-1600.000
186.85	183.333
187.23	166.667
187.61	300.000
187.98	-200.000
188.36	33.333
188.74	-400.000
189.12	0.000
189.49	33.333
189.87	0.000
190.25	21.429
190.63	50.000
191.00	-366.667
191.38	-26.316
191.76	150.000
192.14	175.000
192.51	200.000
192.89	-11.111
193.27	-214.286
193.65	233.333
194.02	136.364
194.40	-50.000
194.78	0.000
195.15	-8.333
195.53	25.000
195.91	200.000
196.29	-100.000
196.66	76.923
197.04	57.143
197.42	-44.444
197.79	-300.000
198.17	-115.385
198.55	1100.000
198.92	-333.333
199.30	200.000
199.68	-260.000
200.05	-433.333
200.43	0.000
200.81	-133.333
201.18	133.333
201.56	900.000
201.94	-300.000
202.31	-133.333
202.69	-160.000
203.07	75.000
203.44	200.000
203.82	0.000
204.19	21.429
204.57	-400.000
204.95	187.500
205.32	20.000
205.70	-128.571
206.08	25.000
206.45	111.111
206.83	71.429
207.20	-71.429
207.58	900.000
207.96	-433.333
208.33	-170.000
208.71	-225.000
209.08	-250.000
209.46	-900.000
209.84	-260.000
210.21	-900.000
210.59	0.000
210.96	33.333
211.34	-275.000
211.71	-13.333
212.09	0.000
212.46	-1200.000
212.84	0.000
213.22	60.000
213.59	600.000
213.97	-46.154
214.34	-27.273
214.72	-100.000
215.09	225.000
215.47	7.692
215.84	-63.636
216.22	-66.667
216.59	-50.000
216.97	50.000
217.34	0.000
217.72	-320.000
218.09	-37.500
218.47	212.500
218.84	-600.000
219.22	-77.778
219.59	-40.000
219.97	500.000
220.34	125.000
220.72	157.143
221.09	-200.000
221.47	-200.000
221.84	-850.000
222.22	-800.000
222.59	-9.091
222.97	25.000
223.34	-200.000
223.72	-14.286
224.09	19.048
224.46	17.857
224.84	300.000
225.21	20.000
225.59	-6.667
225.96	50.000
226.34	175.000
226.71	-285.714
227.08	83.333
227.46	-87.500
227.83	-250.000
228.21	66.667
228.58	9.091
228.95	-37.500
229.33	180.000
229.70	62.500
230.08	-125.000
230.45	-128.571
230.82	42.857
231.20	-26.667
231.57	21.429
231.95	-14.286
232.32	-110.000
232.69	107.143
233.07	-266.667
233.44	-260.000
233.81	-150.000
234.19	77.778
234.56	5.882
234.93	800.000
235.31	25.000
235.68	-400.000
236.05	-30.769
236.43	-40.000
236.80	-47.059
237.17	25.000
237.55	-25.000
237.92	-18.519
238.29	16.667
238.67	-3.333
239.04	-8.824
239.41	-14.634
239.79	-26.667
240.16	-4.878
240.53	5.263
240.91	10.870
241.28	6.349
241.65	-12.500
242.02	4.110
242.40	11.667
242.77	-1.695
243.14	-1.515
243.51	6.250
243.89	10.345
244.26	3.448
244.63	4.762
245.00	7.216
245.38	8.247
245.75	-3.371
246.12	-1.724
246.49	-0.826
246.87	4.808
247.24	-0.840
247.61	-2.632
247.98	3.252
248.36	8.125
248.73	6.579
249.10	0.649
249.47	2.532
249.84	3.922
250.22	4.118
250.59	1.307
250.96	9.390
251.33	-0.581
251.70	2.941
252.08	5.076
252.45	4.455
252.82	4.523
253.19	3.687
253.56	2.804
253.94	5.856
254.31	9.565
254.68	6.140
255.05	5.906
255.42	4.803
255.79	1.931
256.16	4.669
256.54	8.955
256.91	0.380
257.28	4.833
257.65	4.494
258.02	1.064
258.39	4.040
258.76	6.593
259.14	4.651
259.51	5.502
259.88	4.467
260.25	6.536
260.62	10.069
260.99	1.695
261.36	2.397
261.73	1.582
262.10	5.167
262.47	3.067
262.85	3.135
263.22	3.077
263.59	7.788
263.96	8.385
264.33	6.364
264.70	4.464
265.07	3.571
265.44	5.099
265.81	5.650
266.18	5.191
266.55	8.226
266.92	7.254
267.29	5.744
267.66	4.604
268.03	3.403
268.40	4.700
268.77	6.150
269.14	8.153
269.51	4.884
269.88	5.736
270.25	3.571
270.62	6.585
270.99	3.325
271.36	5.623
271.73	6.808
272.10	4.866
272.47	5.674
272.84	3.960
273.21	5.336
273.58	5.542
273.95	6.178
274.32	4.850
274.69	4.751
275.06	5.804
275.43	6.122
275.80	5.740
276.17	2.299
276.54	5.996
276.91	6.360
277.28	5.459
277.65	7.438
278.02	5.106
278.39	5.689
278.76	3.564
279.13	1.452
279.50	4.202
279.87	5.400
280.23	3.871
280.60	6.238
280.97	5.051
281.34	5.000
281.71	9.446
282.08	4.908
282.45	5.675
282.82	4.440
283.19	5.803
283.56	4.046
283.92	4.554
284.29	5.000
284.66	3.876
285.03	5.108
285.40	4.537
285.77	6.327
286.14	5.235
286.51	8.487
286.87	4.388
287.24	4.420
287.61	5.115
287.98	6.316
288.35	3.813
288.72	4.729
289.08	4.167
289.45	5.975
289.82	6.469
290.19	5.631
290.56	5.317
290.93	4.040
291.29	4.160
291.66	5.512
292.03	5.742
292.40	4.194
292.77	4.785
293.13	2.597
293.50	4.552
293.87	6.260
294.24	4.173
294.60	5.216
294.97	5.060
295.34	3.374
295.71	5.365
296.08	3.886
296.44	2.418
296.81	4.722
297.18	4.348
297.55	6.504
297.91	4.247
298.28	5.013
298.65	4.071
299.02	4.717
299.38	2.736
299.75	4.552
300.12	3.010
300.48	3.294
300.85	3.042
301.22	3.766
301.59	4.211
301.95	5.949
302.32	5.966
302.69	5.846
303.05	3.837
303.42	4.981
303.79	4.556
304.15	4.301
304.52	3.210
304.89	3.860
305.25	4.600
305.62	3.267
305.99	3.509
306.35	4.393
306.72	4.612
307.09	4.447
307.45	5.396
307.82	3.356
308.19	4.762
308.55	4.035
308.92	5.011
309.29	3.911
309.65	3.875
310.02	4.070
310.38	4.940
310.75	5.902
311.12	5.167
311.48	4.666
311.85	4.921
312.22	4.536
312.58	5.096
312.95	4.696
313.31	4.969
313.68	5.654
314.05	6.735
314.41	5.361
314.78	5.258
315.14	7.297
315.51	6.004
315.87	6.250
316.24	7.786
316.61	8.563
316.97	7.440
317.34	8.203
317.70	8.700
318.07	7.404
318.43	8.333
318.80	8.617
319.16	10.156
319.53	10.921
319.89	10.039
320.26	9.818
320.62	11.434
320.99	10.752
321.35	11.614
321.72	13.499
322.08	12.487
322.45	11.371
322.81	12.672
323.18	12.561
323.54	12.934
323.91	14.606
324.27	15.039
324.64	14.794
325.00	15.693
325.37	16.988
325.73	16.500
326.10	17.348
326.46	18.565
326.83	19.510
327.19	18.134
327.56	18.332
327.92	19.542
328.29	20.446
328.65	20.283
329.01	21.599
329.38	21.935
329.74	21.152
330.11	21.779
330.47	22.820
330.84	21.731
331.20	24.144
331.56	20.833
331.93	23.105
332.29	24.565
332.66	23.077
333.02	23.606
333.38	23.831
333.75	25.458
334.11	23.366
334.48	25.113
334.84	24.542
335.20	24.977
335.57	24.297
335.93	25.113
336.29	25.414
336.66	23.433
337.02	24.628
337.38	25.093
337.75	25.545
338.11	25.609
338.47	24.909
338.84	24.954
339.20	24.314
339.56	25.780
339.93	25.336
340.29	26.789
340.65	25.717
341.02	24.734
341.38	25.841
341.74	25.177
342.11	25.390
342.47	25.445
342.83	25.952
343.20	25.348
343.56	27.130
343.92	26.218
344.28	26.302
344.65	25.475
345.01	25.929
345.37	25.315
345.73	26.444
346.10	26.575
346.46	25.652
346.82	24.632
347.19	25.021
347.55	25.480
347.91	25.809
348.27	24.576
348.63	25.298
349.00	25.103
349.36	25.270
349.72	27.032
350.08	25.820
350.45	25.778
350.81	26.163
351.17	24.919
351.53	24.980
351.89	24.525
352.26	25.760
352.62	25.645
352.98	25.462
353.34	25.523
353.70	25.081
354.07	24.839
354.43	25.781
354.79	25.516
355.15	26.349
355.51	25.554
355.87	27.265
356.24	24.959
356.60	25.546
356.96	25.794
357.32	25.479
357.68	25.176
358.04	24.475
358.40	24.839
358.77	25.917
359.13	26.261
359.49	24.730
359.85	25.117
360.21	26.874
360.57	26.320
360.93	25.719
361.29	25.604
361.66	26.019
362.02	26.136
362.38	26.809
362.74	25.587
363.10	26.712
363.46	25.649
363.82	26.597
364.18	26.199
364.54	25.074
364.90	25.520
365.26	25.837
365.62	27.737
365.98	26.540
366.35	26.147
366.71	25.868
367.07	26.851
367.43	26.456
367.79	25.371
368.15	25.341
368.51	26.584
368.87	26.633
369.23	25.487
369.59	27.332
369.95	27.566
370.31	28.324
370.67	26.716
371.03	25.467
371.39	26.842
371.75	27.839
372.11	25.749
372.47	27.219
372.83	26.828
373.19	27.461
373.55	26.643
373.91	26.422
374.27	26.860
374.63	27.279
374.99	28.794
375.35	27.716
375.71	27.762
376.07	26.966
376.42	27.959
376.78	27.987
377.14	26.608
377.50	26.892
377.86	27.510
378.22	27.122
378.58	26.859
378.94	27.221
379.30	27.324
379.66	27.712
380.02	26.609
380.38	28.058
380.74	27.409
381.09	27.914
381.45	28.257
381.81	27.390
382.17	26.840
382.53	27.108
382.89	28.625
383.25	27.567
383.61	27.439
383.97	27.111
384.32	27.705
384.68	28.050
385.04	27.022
385.40	26.633
385.76	28.050
386.12	27.943
386.48	27.969
386.83	27.964
387.19	27.839
387.55	27.729
387.91	27.139
388.27	27.656
388.62	28.194
388.98	26.765
389.34	27.295
389.70	27.719
390.06	26.495
390.42	27.655
390.77	27.796
391.13	27.049
391.49	28.072
391.85	28.265
392.20	27.872
392.56	27.018
392.92	28.009
393.28	26.769
393.64	26.547
393.99	28.276
394.35	26.439
394.71	27.331
395.07	26.336
395.42	26.958
395.78	27.231
396.14	27.049
396.50	27.901
396.85	28.010
397.21	27.130
397.57	27.398
397.92	26.783
398.28	26.379
398.64	25.783
399.00	26.862
399.35	26.637
399.71	26.479
400.07	26.844
400.42	26.255
400.78	26.332
401.14	26.134
401.49	26.266
401.85	26.325
402.21	26.024
402.57	27.625
402.92	24.906
403.28	26.253
403.63	25.662
403.99	25.574
404.35	26.296
404.70	26.012
405.06	25.499
405.42	26.352
405.77	25.334
406.13	25.146
406.49	25.400
406.84	25.306
407.20	25.768
407.55	24.726
407.91	25.869
408.27	25.175
408.62	26.092
408.98	25.447
409.34	25.155
409.69	25.258
410.05	24.138
410.40	25.432
410.76	25.030
411.11	24.938
411.47	25.247
411.83	24.670
412.18	25.676
412.54	24.594
412.89	24.507
413.25	24.729
413.60	24.286
413.96	24.785
414.31	24.695
414.67	24.567
415.03	25.300
415.38	24.674
415.74	24.756
416.09	24.690
416.45	24.173
416.80	24.851
417.16	26.036
417.51	25.117
417.87	24.511
418.22	25.194
418.58	25.485
418.93	24.765
419.29	23.688
419.64	24.174
420.00	25.756
420.35	25.075
420.71	25.091
421.06	25.414
421.42	26.082
421.77	25.607
422.12	24.688
422.48	25.393
422.83	25.580
423.19	26.016
423.54	24.574
423.90	25.324
424.25	25.431
424.61	26.438
424.96	25.958
425.31	25.881
425.67	25.059
426.02	26.031
426.38	25.798
426.73	26.937
427.09	26.835
427.44	26.941
427.79	26.635
428.15	25.667
428.50	26.227
428.85	26.290
429.21	27.448
429.56	27.439
429.92	26.451
430.27	26.917
430.62	25.771
430.98	26.168
431.33	26.866
431.68	25.327
432.04	26.831
432.39	26.469
432.74	26.518
433.10	27.644
433.45	27.001
433.80	26.814
434.16	26.316
434.51	26.882
434.86	27.294
435.22	27.818
435.57	27.074
435.92	27.725
436.28	27.072
436.63	27.210
436.98	26.651
437.34	27.586
437.69	27.490
438.04	27.464
438.39	27.245
438.75	27.201
439.10	27.900
439.45	28.302
439.81	26.300
440.16	28.444
440.51	28.896
440.86	29.003
441.22	27.941
441.57	28.642
441.92	28.856
442.27	29.157
442.63	29.015
442.98	27.915
443.33	29.048
443.68	28.276
444.03	29.707
444.39	28.923
444.74	29.264
445.09	29.454
445.44	29.573
445.79	29.036
446.15	28.414
446.50	28.342
446.85	29.277
447.20	29.041
447.55	29.241
447.91	28.934
448.26	30.905
448.61	29.419
448.96	30.120
449.31	29.942
449.66	29.326
450.02	28.922
450.37	29.638
450.72	30.470
451.07	29.873
451.42	30.400
451.77	30.259
452.12	28.648
452.47	29.749
452.83	29.034
453.18	29.728
453.53	29.836
453.88	30.176
454.23	30.117
454.58	30.290
454.93	30.477
455.28	29.397
455.63	30.626
455.98	30.126
456.34	30.460
456.69	30.051
457.04	30.750
457.39	30.134
457.74	30.048
458.09	30.135
458.44	30.135
458.79	29.300
459.14	30.492
459.49	30.746
459.84	30.795
460.19	29.976
460.54	30.562
460.89	29.830
461.24	30.559
461.59	31.354
461.94	30.000
462.29	31.665
462.64	30.299
462.99	31.009
463.34	30.111
463.69	29.858
464.04	30.630
464.39	30.200
464.74	30.368
465.09	30.692
465.44	30.583
465.79	28.685
466.14	30.787
466.49	29.385
466.84	29.923
467.19	31.101
467.54	30.971
467.89	29.880
468.24	30.353
468.59	31.238
468.94	30.857
469.29	31.213
469.64	31.032
469.99	31.885
470.34	30.171
470.68	31.767
471.03	31.776
471.38	30.456
471.73	31.513
472.08	31.479
472.43	30.604
472.78	29.815
473.13	30.816
473.48	30.945
473.83	30.760
474.17	30.829
474.52	30.377
474.87	30.000
475.22	30.323
475.57	30.152
475.92	31.212
476.27	30.268
476.61	31.250
476.96	30.508
477.31	30.503
477.66	30.281
478.01	30.657
478.36	29.739
478.70	30.560
479.05	30.330
479.40	31.002
479.75	30.188
480.10	30.517
480.45	29.950
480.79	30.816
481.14	29.764
481.49	29.951
481.84	30.792
482.19	30.028
482.53	30.264
482.88	30.835
483.23	29.894
483.58	30.047
483.92	29.477
484.27	28.760
484.62	30.659
484.97	29.270
485.31	28.360
485.66	27.754
486.01	27.657
486.36	27.374
486.70	27.459
487.05	28.189
487.40	28.413
487.75	28.169
488.09	28.554
488.44	28.714
488.79	29.511
489.13	29.527
489.48	28.987
489.83	30.135
490.17	30.472
490.52	29.330
490.87	29.755
491.22	30.755
491.56	30.218
491.91	29.446
492.26	30.433
492.60	29.846
492.95	29.808
493.30	30.288
493.64	30.550
493.99	29.903
494.34	30.291
494.68	30.190
495.03	29.343
495.37	29.833
495.72	30.136
496.07	30.244
496.41	29.387
496.76	29.802
497.11	28.784
497.45	30.072
497.80	29.516
498.14	30.204
498.49	30.066
498.84	29.741
499.18	30.171
499.53	30.109
499.87	28.599
500.22	30.069
500.56	30.005
500.91	29.769
501.26	29.609
501.60	29.513
501.95	29.306
502.29	29.201
502.64	30.212
502.98	29.896
503.33	29.443
503.67	28.964
504.02	30.059
504.36	29.441
504.71	29.545
505.06	28.938
505.40	29.594
505.75	30.052
506.09	29.245
506.44	29.517
506.78	29.439
507.13	29.473
507.47	28.825
507.82	29.487
508.16	28.949
508.51	30.168
508.85	30.560
509.19	29.697
509.54	29.491
509.88	28.533
510.23	29.586
510.57	29.449
510.92	28.358
511.26	29.242
511.61	29.758
511.95	29.699
512.30	29.490
512.64	29.327
512.98	29.197
513.33	29.994
513.67	28.653
514.02	29.977
514.36	30.057
514.70	29.895
515.05	30.670
515.39	29.752
515.74	31.018
516.08	30.066
516.42	30.742
516.77	29.315
517.11	30.208
517.46	30.221
517.80	29.857
518.14	30.190
518.49	29.928
518.83	30.073
519.17	29.230
519.52	28.774
519.86	28.872
520.20	30.255
520.55	30.206
520.89	30.364
521.23	28.562
521.58	30.158
521.92	30.321
522.26	31.034
522.61	30.390
522.95	31.060
523.29	29.924
523.64	30.813
523.98	30.006
524.32	29.253
524.66	30.346
525.01	30.065
525.35	30.006
525.69	29.024
526.04	29.167
526.38	30.674
526.72	29.562
527.06	29.831
527.41	30.211
527.75	28.619
528.09	29.037
528.43	29.980
528.78	29.373
529.12	29.355
529.46	28.460
529.80	28.246
530.15	29.901
530.49	28.418
530.83	29.617
531.17	29.483
531.51	29.822
531.86	28.824
532.20	29.228
532.54	29.204
532.88	29.432
533.22	28.427
533.57	28.768
533.91	28.133
534.25	28.190
534.59	28.031
534.93	26.621
535.27	26.650
535.62	26.701
535.96	29.028
536.30	27.902
536.64	28.256
536.98	27.596
537.32	27.881
537.66	28.191
538.01	27.902
538.35	28.502
538.69	27.563
539.03	27.341
539.37	27.524
539.71	27.744
540.05	27.427
540.39	28.740
540.73	28.173
541.07	27.072
541.42	28.226
541.76	27.667
542.10	27.667
542.44	27.311
542.78	25.809
543.12	26.305
543.46	27.260
543.80	26.718
544.14	25.701
544.48	26.782
544.82	27.068
545.16	28.074
545.50	27.704
545.84	28.045
546.18	27.872
546.52	26.820
546.86	26.815
547.20	27.253
547.54	26.007
547.88	26.359
548.22	25.575
548.56	25.989
548.90	26.482
549.24	26.171
549.58	25.740
549.92	26.376
550.26	27.106
550.60	27.509
550.94	27.633
551.28	27.125
551.62	27.769
551.96	26.391
552.30	26.243
552.64	26.023
552.98	27.778
553.32	26.534
553.66	25.835
554.00	26.861
554.34	27.105
554.68	25.295
555.02	26.935
555.36	26.477
555.69	25.275
556.03	25.410
556.37	25.552
556.71	26.859
557.05	26.398
557.39	26.171
557.73	26.237
558.07	26.395
558.41	26.799
558.75	26.968
559.08	26.556
559.42	27.063
559.76	28.423
560.10	26.911
560.44	25.093
560.78	25.455
561.12	26.023
561.45	25.931
561.79	25.630
562.13	26.189
562.47	24.676
562.81	25.216
563.15	26.446
563.48	25.177
563.82	26.012
564.16	25.348
564.50	24.257
564.84	24.565
565.17	24.681
565.51	26.298
565.85	24.486
566.19	24.271
566.52	24.799
566.86	25.578
567.20	24.658
567.54	24.635
567.88	24.253
568.21	23.303
568.55	23.098
568.89	23.306
569.23	24.121
569.56	22.504
569.90	22.533
570.24	21.660
570.57	21.673
570.91	22.133
571.25	20.717
571.59	20.492
571.92	21.096
572.26	20.531
572.60	20.806
572.93	20.803
573.27	20.376
573.61	20.316
573.95	20.235
574.28	20.048
574.62	19.985
574.96	20.444
575.29	19.813
575.63	19.435
575.97	20.141
576.30	20.242
576.64	19.285
576.98	19.897
577.31	19.538
577.65	19.633
577.98	19.315
578.32	19.249
578.66	19.407
578.99	19.350
579.33	18.936
579.67	19.304
580.00	19.595
580.34	19.527
580.67	19.016
581.01	19.092
581.35	19.078
581.68	19.032
582.02	18.701
582.35	18.700
582.69	19.049
583.02	19.163
583.36	19.541
583.70	19.808
584.03	19.933
584.37	20.186
584.70	19.396
585.04	18.731
585.37	19.287
585.71	19.329
586.04	19.239
586.38	19.125
586.72	19.971
587.05	19.815
587.39	19.653
587.72	20.366
588.06	19.956
588.39	19.681
588.73	19.689
589.06	20.189
589.40	20.118
589.73	20.555
590.07	20.619
590.40	20.782
590.73	21.417
591.07	20.738
591.40	21.149
591.74	20.679
592.07	21.150
592.41	21.422
592.74	20.669
593.08	19.420
593.41	19.473
593.75	20.085
594.08	19.464
594.41	19.833
594.75	19.542
595.08	20.431
595.42	19.838
595.75	20.353
596.09	20.328
596.42	20.546
596.75	20.648
597.09	20.638
597.42	20.641
597.75	21.255
598.09	20.598
598.42	20.126
598.76	20.077
599.09	20.433
599.42	19.742
599.76	19.413
600.09	19.570
600.42	19.788
600.76	18.982
601.09	19.618
601.42	20.212
601.76	19.333
602.09	19.761
602.42	21.146
602.76	20.331
603.09	19.892
603.42	20.819
603.76	19.355
604.09	19.482
604.42	19.247
604.76	20.561
605.09	20.612
605.42	20.316
605.75	19.571
606.09	19.830
606.42	19.516
606.75	19.134
607.09	19.956
607.42	19.362
607.75	19.538
608.08	19.542
608.42	20.146
608.75	19.711
609.08	19.930
609.41	20.203
609.75	20.565
610.08	20.719
610.41	20.580
610.74	19.795
611.07	20.465
611.41	19.720
611.74	20.362
612.07	20.236
612.40	20.733
612.73	20.508
613.07	19.854
613.40	20.514
613.73	20.369
614.06	20.646
614.39	19.910
614.72	20.056
615.06	20.670
615.39	20.142
615.72	19.914
616.05	20.615
616.38	19.886
616.71	20.428
617.05	20.198
617.38	20.239
617.71	20.377
618.04	20.571
618.37	20.933
618.70	20.924
619.03	21.319
619.36	20.622
619.69	22.138
620.03	22.425
620.36	21.459
620.69	22.127
621.02	20.489
621.35	22.324
621.68	22.109
622.01	23.333
622.34	20.750
622.67	21.767
623.00	20.750
623.33	21.113
623.66	20.718
623.99	20.045
624.32	21.141
624.65	21.053
624.99	20.918
625.32	20.015
625.65	22.545
625.98	21.918
626.31	20.449
626.64	21.750
626.97	23.386
627.30	22.680
627.63	21.837
627.96	21.653
628.29	22.109
628.62	23.107
628.95	23.747
629.28	22.681
629.61	21.834
629.94	21.505
630.26	22.431
630.59	22.685
630.92	22.256
631.25	23.282
631.58	23.018
631.91	22.697
632.24	23.280
632.57	24.205
632.90	24.911
633.23	24.000
633.56	23.426
633.89	23.181
634.22	24.074
634.55	22.618
634.88	23.627
635.20	25.128
635.53	24.400
635.86	23.017
636.19	24.062
636.52	23.087
636.85	23.573
637.18	21.384
637.51	22.390
637.83	23.784
638.16	26.603
638.49	24.114
638.82	25.395
639.15	23.881
639.48	22.971
639.81	25.105
640.13	22.222
640.46	25.073
640.79	22.533
641.12	24.520
641.45	24.174
641.77	26.222
642.10	25.750
642.43	26.045
642.76	26.403
643.09	24.233
643.41	25.243
643.74	26.524
644.07	26.273
644.40	27.534
644.73	25.394
645.05	25.168
645.38	24.162
645.71	23.404
646.04	26.930
646.36	24.823
646.69	27.698
647.02	24.764
647.35	24.067
647.67	25.777
648.00	26.493
648.33	26.621
648.66	24.407
648.98	23.283
649.31	24.132
649.64	24.804
649.96	23.015
650.29	24.532
650.62	25.812
650.94	25.370
651.27	22.160
651.60	24.324
651.92	24.825
652.25	23.268
652.58	24.667
652.90	23.671
653.23	23.529
653.56	21.489
653.88	25.430
654.21	21.541
654.54	23.939
654.86	24.618
655.19	23.977
655.52	18.808
655.84	15.042
656.17	15.890
656.49	21.785
656.82	22.359
657.15	17.023
657.47	13.023
657.80	9.697
658.13	9.801
658.45	15.079
658.78	15.304
659.10	15.264
659.43	15.949
659.75	17.020
660.08	17.448
660.41	20.735
660.73	22.238
661.06	22.704
661.38	21.331
661.71	23.614
662.03	26.395
662.36	23.516
662.68	24.779
663.01	24.891
663.33	21.810
663.66	25.116
663.98	21.860
664.31	25.586
664.63	22.811
664.96	20.435
665.28	22.517
665.61	25.541
665.93	26.087
666.26	22.560
666.58	23.043
666.91	24.000
667.23	22.877
667.56	26.540
667.88	24.221
668.21	26.730
668.53	25.296
668.86	27.123
669.18	23.821
669.50	22.760
669.83	25.814
670.15	23.776
670.48	24.641
670.80	24.885
671.13	23.490
671.45	23.059
671.77	25.751
672.10	22.178
672.42	21.348
672.75	21.847
673.07	24.329
673.39	22.752
673.72	20.316
674.04	21.250
674.37	20.127
674.69	20.771
675.01	22.889
675.34	23.649
675.66	23.148
675.98	22.616
676.31	26.835
676.63	22.803
676.95	19.545
677.28	25.647
677.60	22.410
677.92	25.459
678.25	25.821
678.57	22.727
678.89	23.109
679.22	22.595
679.54	20.482
679.86	22.266
680.18	20.777
680.51	23.674
680.83	21.471
681.15	20.400
681.48	24.180
681.80	22.727
682.12	20.565
682.44	20.711
682.77	20.971
683.09	20.824
683.41	24.318
683.73	20.276
684.06	21.239
684.38	19.570
684.70	21.786
685.02	19.087
685.34	17.984
685.67	20.263
685.99	20.796
686.31	20.885
686.63	19.666
686.96	18.061
687.28	19.596
687.60	19.202
687.92	22.424
688.24	20.565
688.56	20.742
688.89	20.536
689.21	23.111
689.53	22.274
689.85	22.791
690.17	21.875
690.49	22.222
690.82	20.388
691.14	21.667
691.46	22.897
691.78	19.595
692.10	23.871
692.42	18.615
692.74	20.299
693.06	18.919
693.39	19.457
693.71	20.362
694.03	18.938
694.35	20.794
694.67	22.222
694.99	21.671
695.31	23.760
695.63	23.250
695.95	19.697
696.27	20.466
696.59	23.333
696.91	19.048
697.23	19.537
697.56	18.564
697.88	20.430
698.20	20.046
698.52	18.353
698.84	20.096
699.16	21.000
699.48	19.799
699.80	18.362
700.12	20.755
700.44	22.689
700.76	19.767
701.08	19.394
701.40	21.687
701.72	27.160
702.04	21.122
702.36	20.736
702.68	22.222
703.00	20.909
703.32	19.648
703.64	15.254
703.96	20.580
704.28	19.632
704.60	26.032
704.91	19.874
705.23	17.608
705.55	24.735
705.87	22.383
706.19	20.370
706.51	24.742
706.83	21.865
707.15	19.315
707.47	21.289
707.79	17.448
708.11	18.750
708.43	18.750
708.74	20.413
709.06	24.507
709.38	17.737
709.70	20.710
710.02	20.382
710.34	21.981
710.66	17.308
710.98	20.199
711.29	20.656
711.61	20.678
711.93	22.150
712.25	24.399
712.57	19.414
712.89	23.507
713.20	20.761
713.52	18.118
713.84	19.795
714.16	20.275
714.48	16.774
714.80	20.192
715.11	18.845
715.43	18.182
715.75	20.000
716.07	20.598
716.39	17.114
716.70	14.391
717.02	22.519
717.34	21.457
717.66	20.354
717.97	20.000
718.29	20.502
718.61	20.472
718.93	17.442
719.24	20.913
719.56	19.277
719.88	19.931
720.20	18.182
720.51	16.092
720.83	22.008
721.15	21.008
721.46	19.758
721.78	9.881
722.10	19.331
722.42	15.353
722.73	17.959
723.05	25.306
723.37	28.390
723.68	24.324
724.00	19.658
724.32	17.333
724.63	21.818
724.95	24.017
725.27	20.737
725.58	21.186
725.90	15.873
726.22	18.919
726.53	20.678
726.85	17.228
727.16	18.491
727.48	17.814
727.80	19.433
728.11	13.559
728.43	17.647
728.74	16.935
729.06	18.000
729.38	21.053
729.69	16.335
730.01	15.000
730.32	22.761
730.64	19.081
730.96	21.132
731.27	15.333
731.59	14.237
731.90	16.561
732.22	22.082
732.53	13.289
732.85	20.213
733.16	21.886
733.48	14.748
733.80	14.493
734.11	15.254
734.43	15.464
734.74	18.788
735.06	13.355
735.37	16.918
735.69	17.845
736.00	13.937
736.32	17.450
736.63	19.718
736.95	17.747
737.26	14.235
737.58	14.765
737.89	15.018
738.21	16.165
738.52	19.753
738.83	20.087
739.15	15.721
739.46	16.142
739.78	11.722
740.09	21.242
740.41	15.217
740.72	12.992
741.04	18.219
741.35	14.468
741.66	18.483
741.98	22.959
742.29	18.317
742.61	17.801
742.92	18.957
743.23	13.426
743.55	16.290
743.86	20.574
744.18	17.225
744.49	18.085
744.80	18.478
745.12	24.064
745.43	14.146
745.74	16.667
746.06	19.512
746.37	19.372
746.68	22.749
747.00	17.553
747.31	21.393
747.62	16.019
747.94	24.402
748.25	13.861
748.56	19.126
748.88	14.136
749.19	18.617
749.50	16.749
749.82	15.566
750.13	9.633
750.44	15.414
750.75	14.179
751.07	19.343
751.38	13.410
751.69	13.333
752.01	15.116
752.32	15.139
752.63	15.020
752.94	16.810
753.26	24.686
753.57	12.217
753.88	16.372
754.19	11.667
754.51	11.983
754.82	17.814
755.13	18.750
755.44	16.129
755.75	19.141
756.07	13.619
756.38	17.358
756.69	10.728
757.00	13.333
757.31	14.052
757.63	14.024
757.94	15.556
758.25	13.425
758.56	12.766
758.87	11.331
759.18	17.134
759.50	14.909
759.81	16.722
760.12	14.839
760.43	14.545
760.74	15.123
761.05	15.385
761.36	13.068
761.67	16.364
761.99	13.605
762.30	15.273
762.61	20.158
762.92	14.480
763.23	14.865
763.54	9.346
763.85	13.559
764.16	11.203
764.47	12.903
764.78	12.088
765.10	17.845
765.41	12.618
765.72	11.111
766.03	13.534
766.34	17.883
766.65	18.327
766.96	16.162
767.27	16.489
767.58	9.770
767.89	8.511
768.20	14.205
768.51	12.088
768.82	8.867
769.13	10.599
769.44	14.163
769.75	12.785
770.06	19.828
770.37	12.019
770.68	15.228
770.99	15.385
771.30	24.510
771.61	14.027
771.92	21.983
772.23	15.271
772.54	17.204
772.85	16.049
773.16	17.978
773.47	21.569
773.78	16.993
774.09	10.180
774.39	10.667
774.70	15.287
775.01	22.069
775.32	9.286
775.63	9.091
775.94	7.634
776.25	14.173
776.56	17.500
776.87	22.115
777.18	13.675
777.48	9.483
777.79	14.783
778.10	3.810
778.41	7.207
778.72	12.698
779.03	13.534
779.34	20.567
779.65	16.438
779.95	10.959
780.26	15.172
780.57	3.252
780.88	14.961
781.19	10.345
781.50	19.380
781.80	9.467
782.11	7.547
782.42	14.615
782.73	12.950
783.04	18.519
783.34	13.194
783.65	-0.855
783.96	15.574
784.27	19.310
784.57	13.008
784.88	10.938
785.19	16.000
785.50	24.000
785.81	13.793
786.11	13.793
786.42	4.854
786.73	20.909
787.04	4.082
787.34	2.679
787.65	18.095
787.96	-0.885
788.26	15.455
788.57	6.838
788.88	19.531
789.19	9.524
789.49	13.043
789.80	16.327
790.11	21.212
790.41	5.455
790.72	16.304
791.03	6.818
791.33	10.000
791.64	11.250
791.95	5.814
792.25	20.213
792.56	25.843
792.87	12.329
793.17	10.145
793.48	14.667
793.79	10.000
794.09	12.500
794.40	12.264
794.70	-0.971
795.01	4.065
795.32	10.256
795.62	7.619
795.93	8.824
796.23	18.868
796.54	21.875
796.85	22.059
797.15	15.493
797.46	23.611
797.76	10.606
798.07	17.442
798.37	6.579
798.68	1.515
798.99	13.580
799.29	14.286
799.60	15.942
799.90	26.667
800.21	14.754
800.51	15.385
800.82	15.254
801.12	23.188
801.43	22.951
801.73	15.873
802.04	12.000
802.34	14.925
802.65	9.615
802.95	12.500
803.26	5.769
803.56	13.725
803.87	-28.261
804.17	17.333
804.48	30.159
804.78	20.370
805.09	13.043
805.39	-4.444
805.70	7.407
806.00	-10.526
806.30	16.901
806.61	0.000
806.91	-6.944
807.22	22.368
807.52	18.667
807.83	1.818
808.13	6.944
808.43	19.118
808.74	7.463
809.04	22.034
809.35	-1.923
809.65	21.875
809.95	-21.622
810.26	6.818
810.56	8.219
810.86	4.762
811.17	2.000
811.47	14.286
811.77	5.263
812.08	-6.818
812.38	5.660
812.69	-20.000
812.99	9.091
813.29	28.947
813.59	-31.429
813.90	20.455
814.20	-20.513
814.50	-9.615
814.81	18.868
815.11	2.128
815.41	30.508
815.72	19.048
816.02	17.647
816.32	33.333
816.62	12.195
816.93	-2.703
817.23	0.000
817.53	33.333
817.84	6.522
818.14	9.615
818.44	-10.526
818.74	28.261
819.04	-12.500
819.35	24.324
819.65	2.941
819.95	0.000
820.25	-11.905
820.56	10.000
820.86	-44.828
821.16	25.000
821.46	23.404
821.76	30.000
822.07	11.628
822.37	-24.324
822.67	3.125
822.97	21.429
823.27	-28.571
823.57	-12.000
823.88	11.111
824.18	32.143
824.48	-2.941
824.78	32.258
825.08	34.783
825.38	18.182
825.69	-66.667
825.99	-7.895
826.29	-13.889
826.59	-40.000
826.89	-85.714
827.19	26.087
827.49	0.000
827.79	22.857
828.09	-14.286
828.39	-6.061
828.70	29.730
829.00	7.143
829.30	19.048
829.60	-20.000
829.90	37.500
830.20	7.895
830.50	-33.333
830.80	-4.348
831.10	9.091
831.40	24.242
831.70	9.677
832.00	23.810
832.30	-19.048
832.60	16.667
832.90	-17.241
833.20	-10.000
833.50	6.061
833.80	3.704
834.10	26.923
834.40	28.125
834.70	0.000
835.00	-47.368
835.30	53.846
835.60	-26.667
835.90	6.452
836.20	-13.636
836.50	7.143
836.80	-42.308
837.10	-14.286
837.40	100.000
837.70	13.636
838.00	-54.545
838.30	8.696
838.60	-61.538
838.90	-4.545
839.19	-14.286
839.49	10.000
839.79	-46.154
840.09	-33.333
840.39	42.857
840.69	-28.571
840.99	-3.846
841.29	-63.158
841.59	-70.000
841.88	-27.273
842.18	0.000
842.48	43.750
842.78	-13.333
843.08	25.926
843.38	-160.000
843.68	8.696
843.97	46.667
844.27	-73.333
844.57	-25.000
844.87	-27.778
845.17	9.524
845.47	26.667
845.76	23.810
846.06	11.765
846.36	-20.000
846.66	-21.429
846.96	-60.000
847.25	-162.500
847.55	35.714
847.85	12.500
848.15	13.636
848.44	-133.333
848.74	15.000
849.04	37.037
849.34	18.182
849.63	-50.000
849.93	-200.000
850.23	-16.667
850.53	-10.000
850.82	-61.538
851.12	-111.111
851.42	-46.667
851.71	0.000
852.01	-50.000
852.31	-250.000
852.61	-81.818
852.90	-30.000
853.20	-15.789
853.50	-33.333
853.79	0.000
854.09	58.333
854.39	-26.316
854.68	8.333
854.98	-6.452
855.28	38.462
855.57	-50.000
855.87	-11.111
856.17	-14.815
856.46	7.143
856.76	20.000
857.05	-44.444
857.35	40.000
857.65	11.111
857.94	15.385
858.24	10.345
858.53	-11.111
858.83	25.926
859.13	59.091
859.42	17.391
859.72	-25.000
860.01	-333.333
860.31	16.000
860.60	52.381
860.90	-300.000
861.20	-40.000
861.49	-500.000
861.79	40.000
862.08	-20.000
862.38	73.333
862.67	-220.000
862.97	-66.667
863.26	-25.000
863.56	66.667
863.85	-433.333
864.15	27.778
864.44	40.000
864.74	50.000
865.03	250.000
865.33	-140.000
865.62	33.333
865.92	16.667
866.21	-166.667
866.51	-12.500
866.80	-100.000
867.10	-250.000
867.39	0.000
867.69	0.000
867.98	-23.077
868.27	-233.333
868.57	-33.333
868.86	50.000
869.16	-76.923
869.45	6.667
869.75	-1500.000
870.04	0.000
870.33	-157.143
870.63	42.857
870.92	466.667
871.22	-220.000
871.51	-100.000
871.80	11.111
872.10	633.333
>>>>>End Processed Spectral Data<<<<<
