SpectraSuite Data File
++++++++++++++++++++++++++++++++++++
Date: Fri May 15 20:35:15 PDT 2015
User: schluterlab
Dark Spectrum Present: Yes
Reference Spectrum Present: Yes
Number of Sampled Component Spectra: 1
Spectrometers: USB2E3373
Integration Time (usec): 3000 (USB2E3373)
Spectra Averaged: 3 (USB2E3373)
Boxcar Smoothing: 0 (USB2E3373)
Correct for Electrical Dark: No (USB2E3373)
Strobe/Lamp Enabled: No (USB2E3373)
Correct for Detector Non-linearity: No (USB2E3373)
Correct for Stray Light: No (USB2E3373)
Number of Pixels in Processed Spectrum: 2048
>>>>>Begin Processed Spectral Data<<<<<
178.53	0.000
178.91	0.000
179.29	37.500
179.67	-900.000
180.04	100.000
180.42	-150.000
180.80	-100.000
181.18	266.667
181.56	400.000
181.94	-100.000
182.31	400.000
182.69	-140.000
183.07	-233.333
183.45	-140.000
183.83	200.000
184.20	54.545
184.58	155.556
184.96	175.000
185.34	-66.667
185.72	-450.000
186.09	38.462
186.47	-100.000
186.85	283.333
187.23	111.111
187.61	200.000
187.98	-133.333
188.36	55.556
188.74	-233.333
189.12	0.000
189.49	5.556
189.87	0.000
190.25	42.857
190.63	-450.000
191.00	0.000
191.38	-10.526
191.76	-100.000
192.14	-0.000
192.51	-100.000
192.89	-122.222
193.27	-228.571
193.65	316.667
194.02	190.909
194.40	-40.000
194.78	-150.000
195.15	-116.667
195.53	-162.500
195.91	375.000
196.29	75.000
196.66	92.308
197.04	200.000
197.42	22.222
197.79	-533.333
198.17	-53.846
198.55	1300.000
198.92	-166.667
199.30	-400.000
199.68	-160.000
200.05	-166.667
200.43	0.000
200.81	0.000
201.18	-266.667
201.56	700.000
201.94	-300.000
202.31	233.333
202.69	-260.000
203.07	100.000
203.44	100.000
203.82	0.000
204.19	-57.143
204.57	-433.333
204.95	100.000
205.32	-80.000
205.70	-128.571
206.08	-225.000
206.45	155.556
206.83	7.143
207.20	-242.857
207.58	-100.000
207.96	-300.000
208.33	-140.000
208.71	-125.000
209.08	-183.333
209.46	-1100.000
209.84	-220.000
210.21	-1400.000
210.59	0.000
210.96	0.000
211.34	-150.000
211.71	106.667
212.09	-285.714
212.46	-1700.000
212.84	0.000
213.22	0.000
213.59	700.000
213.97	84.615
214.34	-9.091
214.72	-83.333
215.09	550.000
215.47	-30.769
215.84	-54.545
216.22	-100.000
216.59	-12.500
216.97	-100.000
217.34	0.000
217.72	-160.000
218.09	-50.000
218.47	212.500
218.84	-300.000
219.22	-88.889
219.59	-160.000
219.97	333.333
220.34	275.000
220.72	-128.571
221.09	-200.000
221.47	-350.000
221.84	-700.000
222.22	-950.000
222.59	-72.727
222.97	41.667
223.34	-33.333
223.72	-35.714
224.09	-28.571
224.46	7.143
224.84	900.000
225.21	-10.000
225.59	73.333
225.96	-150.000
226.34	175.000
226.71	-171.429
227.08	-83.333
227.46	-25.000
227.83	-850.000
228.21	-22.222
228.58	81.818
228.95	-75.000
229.33	140.000
229.70	18.750
230.08	-87.500
230.45	-100.000
230.82	-28.571
231.20	53.333
231.57	0.000
231.95	71.429
232.32	-140.000
232.69	57.143
233.07	-33.333
233.44	-80.000
233.81	0.000
234.19	-66.667
234.56	0.000
234.93	-50.000
235.31	50.000
235.68	-80.000
236.05	-7.692
236.43	10.000
236.80	0.000
237.17	12.500
237.55	-5.000
237.92	-3.704
238.29	44.444
238.67	36.667
239.04	32.353
239.41	-9.756
239.79	36.667
240.16	39.024
240.53	10.526
240.91	4.348
241.28	30.159
241.65	37.500
242.02	31.507
242.40	20.000
242.77	18.644
243.14	31.818
243.51	25.000
243.89	39.080
244.26	21.839
244.63	28.571
245.00	26.804
245.38	36.082
245.75	32.584
246.12	30.172
246.49	36.364
246.87	32.692
247.24	31.933
247.61	40.351
247.98	36.585
248.36	32.500
248.73	40.132
249.10	33.117
249.47	39.873
249.84	35.948
250.22	37.647
250.59	35.294
250.96	35.211
251.33	34.884
251.70	37.647
252.08	37.563
252.45	41.089
252.82	41.709
253.19	37.327
253.56	37.383
253.94	41.441
254.31	39.565
254.68	36.842
255.05	36.614
255.42	40.611
255.79	37.066
256.16	34.630
256.54	37.313
256.91	39.163
257.28	37.175
257.65	38.951
258.02	39.362
258.39	38.047
258.76	36.996
259.14	37.209
259.51	39.806
259.88	39.175
260.25	39.216
260.62	40.278
260.99	37.966
261.36	41.781
261.73	35.443
262.10	37.386
262.47	37.730
262.85	35.737
263.22	41.231
263.59	42.368
263.96	37.578
264.33	42.727
264.70	38.988
265.07	38.095
265.44	41.643
265.81	38.418
266.18	37.978
266.55	38.303
266.92	38.601
267.29	37.076
267.66	40.409
268.03	42.408
268.40	41.775
268.77	41.176
269.14	37.170
269.51	38.046
269.88	37.406
270.25	39.541
270.62	36.585
270.99	37.596
271.36	38.631
271.73	39.906
272.10	37.470
272.47	39.243
272.84	34.406
273.21	37.587
273.58	38.313
273.95	38.673
274.32	36.028
274.69	37.330
275.06	39.286
275.43	38.095
275.80	37.528
276.17	39.770
276.54	36.403
276.91	38.158
277.28	38.646
277.65	37.190
278.02	34.468
278.39	39.168
278.76	36.268
279.13	34.855
279.50	39.286
279.87	34.773
280.23	36.559
280.60	36.647
280.97	38.788
281.34	32.885
281.71	39.836
282.08	36.605
282.45	37.378
282.82	35.135
283.19	36.944
283.56	36.031
283.92	36.433
284.29	36.346
284.66	34.109
285.03	34.185
285.40	39.130
285.77	34.798
286.14	35.740
286.51	37.269
286.87	34.552
287.24	36.832
287.61	33.157
287.98	35.789
288.35	34.315
288.72	36.953
289.08	33.681
289.45	33.568
289.82	34.790
290.19	32.253
290.56	32.247
290.93	32.828
291.29	28.505
291.66	33.701
292.03	31.579
292.40	31.452
292.77	31.579
293.13	29.058
293.50	30.046
293.87	30.992
294.24	29.366
294.60	28.316
294.97	29.315
295.34	29.755
295.71	29.508
296.08	29.297
296.44	28.307
296.81	29.167
297.18	27.826
297.55	29.268
297.91	26.712
298.28	28.628
298.65	27.680
299.02	28.167
299.38	25.034
299.75	28.552
300.12	28.665
300.48	27.009
300.85	27.630
301.22	25.974
301.59	27.368
301.95	25.443
302.32	27.626
302.69	25.622
303.05	25.124
303.42	27.273
303.79	25.818
304.15	25.806
304.52	24.614
304.89	24.561
305.25	24.939
305.62	22.870
305.99	24.211
306.35	24.855
306.72	23.960
307.09	26.112
307.45	23.766
307.82	24.537
308.19	25.087
308.55	24.427
308.92	25.272
309.29	24.134
309.65	23.789
310.02	24.972
310.38	24.588
310.75	25.574
311.12	24.435
311.48	23.754
311.85	23.979
312.22	22.468
312.58	24.098
312.95	24.440
313.31	22.360
313.68	24.188
314.05	23.673
314.41	23.402
314.78	23.505
315.14	23.433
315.51	25.155
315.87	24.283
316.24	23.559
316.61	24.508
316.97	22.917
317.34	23.340
317.70	22.658
318.07	24.038
318.43	23.235
318.80	23.958
319.16	23.828
319.53	23.932
319.89	23.819
320.26	24.089
320.62	23.972
320.99	21.190
321.35	24.049
321.72	24.299
322.08	24.169
322.45	23.249
322.81	22.593
323.18	23.258
323.54	22.587
323.91	21.811
324.27	24.902
324.64	23.876
325.00	23.996
325.37	24.610
325.73	22.937
326.10	24.705
326.46	22.870
326.83	23.710
327.19	23.017
327.56	23.719
327.92	24.120
328.29	22.054
328.65	23.302
329.01	24.449
329.38	23.041
329.74	23.229
330.11	23.818
330.47	21.058
330.84	22.596
331.20	24.525
331.56	22.593
331.93	23.927
332.29	23.648
332.66	23.439
333.02	22.026
333.38	22.640
333.75	23.077
334.11	21.844
334.48	24.025
334.84	23.993
335.20	23.696
335.57	22.937
335.93	23.577
336.29	22.836
336.66	22.979
337.02	21.840
337.38	21.944
337.75	22.727
338.11	23.264
338.47	22.354
338.84	22.458
339.20	23.309
339.56	22.202
339.93	22.113
340.29	22.294
340.65	23.029
341.02	21.720
341.38	21.504
341.74	22.350
342.11	23.137
342.47	21.441
342.83	22.318
343.20	21.864
343.56	22.087
343.92	22.409
344.28	22.459
344.65	20.380
345.01	22.731
345.37	21.278
345.73	23.849
346.10	21.484
346.46	22.372
346.82	21.686
347.19	22.278
347.55	22.055
347.91	22.087
348.27	21.342
348.63	21.635
349.00	19.852
349.36	21.446
349.72	22.056
350.08	21.639
350.45	21.788
350.81	21.262
351.17	21.173
351.53	21.714
351.89	20.314
352.26	20.720
352.62	21.371
352.98	20.080
353.34	21.256
353.70	21.440
354.07	21.774
354.43	21.938
354.79	20.809
355.15	21.825
355.51	21.044
355.87	21.197
356.24	20.065
356.60	20.534
356.96	21.190
357.32	20.607
357.68	19.234
358.04	20.436
358.40	20.659
358.77	21.292
359.13	20.737
359.49	20.185
359.85	19.345
360.21	20.574
360.57	20.811
360.93	20.121
361.29	19.864
361.66	21.082
362.02	20.606
362.38	20.716
362.74	21.120
363.10	20.767
363.46	19.199
363.82	21.037
364.18	18.967
364.54	19.559
364.90	20.502
365.26	20.306
365.62	21.752
365.98	19.575
366.35	20.830
366.71	20.769
367.07	20.827
367.43	19.986
367.79	20.141
368.15	20.029
368.51	21.122
368.87	19.167
369.23	19.422
369.59	19.898
369.95	19.795
370.31	20.014
370.67	19.030
371.03	19.716
371.39	20.204
371.75	20.366
372.11	20.114
372.47	20.192
372.83	20.653
373.19	20.043
373.55	19.783
373.91	19.942
374.27	20.057
374.63	19.311
374.99	19.504
375.35	20.543
375.71	20.210
376.07	20.295
376.42	19.932
376.78	20.134
377.14	20.447
377.50	19.256
377.86	18.407
378.22	19.592
378.58	19.808
378.94	19.534
379.30	19.027
379.66	20.690
380.02	18.761
380.38	18.868
380.74	18.671
381.09	19.325
381.45	19.694
381.81	19.494
382.17	18.845
382.53	19.176
382.89	19.460
383.25	19.975
383.61	19.390
383.97	18.730
384.32	18.699
384.68	18.762
385.04	19.730
385.40	19.228
385.76	20.189
386.12	19.470
386.48	19.413
386.83	18.897
387.19	18.559
387.55	19.699
387.91	19.193
388.27	19.170
388.62	18.817
388.98	19.030
389.34	19.176
389.70	19.453
390.06	19.132
390.42	19.754
390.77	18.574
391.13	18.159
391.49	19.276
391.85	18.129
392.20	19.837
392.56	17.546
392.92	18.908
393.28	19.163
393.64	18.318
393.99	19.060
394.35	18.722
394.71	19.732
395.07	18.416
395.42	18.822
395.78	18.958
396.14	18.916
396.50	19.214
396.85	19.253
397.21	18.170
397.57	18.871
397.92	18.933
398.28	18.966
398.64	19.398
399.00	19.300
399.35	19.131
399.71	18.897
400.07	19.226
400.42	18.543
400.78	19.535
401.14	18.875
401.49	19.119
401.85	18.464
402.21	19.096
402.57	19.938
402.92	18.381
403.28	19.674
403.63	18.537
403.99	18.176
404.35	18.738
404.70	18.333
405.06	18.978
405.42	19.267
405.77	18.187
406.13	18.393
406.49	19.183
406.84	19.438
407.20	19.747
407.55	18.223
407.91	19.318
408.27	18.929
408.62	20.062
408.98	19.409
409.34	18.897
409.69	18.540
410.05	18.719
410.40	18.765
410.76	18.637
411.11	18.375
411.47	19.527
411.83	17.828
412.18	18.855
412.54	18.727
412.89	18.288
413.25	19.194
413.60	19.130
413.96	17.730
414.31	19.024
414.67	19.115
415.03	18.509
415.38	19.321
415.74	19.349
416.09	19.268
416.45	18.569
416.80	18.572
417.16	18.785
417.51	19.720
417.87	18.840
418.22	19.171
418.58	19.799
418.93	19.812
419.29	18.374
419.64	18.082
420.00	20.151
420.35	19.164
420.71	19.623
421.06	19.214
421.42	19.050
421.77	19.306
422.12	19.069
422.48	19.491
422.83	18.852
423.19	18.905
423.54	19.224
423.90	18.905
424.25	19.805
424.61	19.706
424.96	18.641
425.31	19.700
425.67	19.190
426.02	19.906
426.38	19.411
426.73	19.794
427.09	19.241
427.44	20.059
427.79	19.387
428.15	20.024
428.50	19.503
428.85	18.980
429.21	19.411
429.56	20.162
429.92	19.979
430.27	19.398
430.62	18.819
430.98	19.427
431.33	20.137
431.68	19.048
432.04	19.229
432.39	19.452
432.74	19.182
433.10	20.517
433.45	19.116
433.80	19.617
434.16	18.781
434.51	20.108
434.86	20.093
435.22	19.518
435.57	19.339
435.92	19.820
436.28	18.903
436.63	19.852
436.98	18.424
437.34	19.238
437.69	19.082
438.04	19.316
438.39	19.181
438.75	20.401
439.10	20.091
439.45	19.903
439.81	19.021
440.16	20.309
440.51	20.776
440.86	20.725
441.22	19.457
441.57	20.199
441.92	19.780
442.27	19.900
442.63	20.182
442.98	20.333
443.33	19.032
443.68	19.947
444.03	20.119
444.39	19.774
444.74	20.011
445.09	19.878
445.44	20.684
445.79	21.042
446.15	20.099
446.50	19.301
446.85	19.607
447.20	19.708
447.55	20.815
447.91	20.135
448.26	20.091
448.61	20.035
448.96	20.023
449.31	19.769
449.66	19.686
450.02	20.080
450.37	19.798
450.72	19.702
451.07	20.886
451.42	20.287
451.77	20.434
452.12	19.318
452.47	19.768
452.83	19.788
453.18	20.430
453.53	20.607
453.88	20.947
454.23	20.897
454.58	20.655
454.93	21.392
455.28	19.429
455.63	20.273
455.98	21.167
456.34	20.370
456.69	20.140
457.04	21.172
457.39	20.049
457.74	20.617
458.09	20.188
458.44	19.485
458.79	20.000
459.14	20.881
459.49	21.015
459.84	20.981
460.19	19.721
460.54	20.966
460.89	20.398
461.24	21.801
461.59	20.903
461.94	19.937
462.29	21.411
462.64	20.797
462.99	21.327
463.34	19.124
463.69	20.785
464.04	20.702
464.39	20.619
464.74	20.491
465.09	20.961
465.44	21.581
465.79	20.635
466.14	21.323
466.49	19.839
466.84	20.642
467.19	21.402
467.54	21.392
467.89	20.025
468.24	20.864
468.59	20.952
468.94	20.381
469.29	21.574
469.64	20.779
469.99	22.214
470.34	20.751
470.68	22.148
471.03	21.727
471.38	22.040
471.73	22.129
472.08	21.506
472.43	20.336
472.78	20.356
473.13	21.429
473.48	21.889
473.83	21.046
474.17	22.215
474.52	21.315
474.87	21.697
475.22	20.927
475.57	22.191
475.92	21.448
476.27	21.013
476.61	21.528
476.96	21.026
477.31	21.147
477.66	21.742
478.01	21.673
478.36	21.405
478.70	22.077
479.05	21.813
479.40	21.569
479.75	21.064
480.10	21.608
480.45	21.050
480.79	22.256
481.14	21.824
481.49	21.527
481.84	22.442
482.19	21.282
482.53	21.823
482.88	21.671
483.23	21.401
483.58	21.132
483.92	21.588
484.27	20.784
484.62	21.649
484.97	21.227
485.31	21.171
485.66	20.553
486.01	20.310
486.36	20.114
486.70	20.162
487.05	20.438
487.40	20.372
487.75	20.592
488.09	20.241
488.44	20.770
488.79	21.442
489.13	21.274
489.48	22.061
489.83	21.480
490.17	21.124
490.52	21.293
490.87	21.518
491.22	22.111
491.56	21.822
491.91	22.036
492.26	21.682
492.60	22.361
492.95	22.627
493.30	21.544
493.64	22.151
493.99	22.271
494.34	21.262
494.68	22.143
495.03	21.460
495.37	22.571
495.72	22.867
496.07	22.146
496.41	21.651
496.76	21.971
497.11	21.938
497.45	22.482
497.80	23.411
498.14	22.752
498.49	22.296
498.84	22.954
499.18	22.641
499.53	21.875
499.87	22.228
500.22	22.305
500.56	23.248
500.91	22.189
501.26	23.134
501.60	22.528
501.95	22.610
502.29	23.002
502.64	22.732
502.98	22.496
503.33	22.286
503.67	22.651
504.02	22.825
504.36	22.761
504.71	22.475
505.06	22.496
505.40	23.198
505.75	22.526
506.09	22.098
506.44	23.563
506.78	22.806
507.13	23.371
507.47	22.350
507.82	22.115
508.16	22.345
508.51	23.767
508.85	23.496
509.19	22.459
509.54	22.949
509.88	22.654
510.23	23.292
510.57	23.036
510.92	22.015
511.26	23.350
511.61	24.037
511.95	24.274
512.30	23.337
512.64	24.096
512.98	23.021
513.33	24.454
513.67	23.536
514.02	24.485
514.36	24.171
514.70	24.301
515.05	24.442
515.39	24.085
515.74	25.090
516.08	24.387
516.42	24.735
516.77	25.102
517.11	24.451
517.46	23.938
517.80	24.493
518.14	23.944
518.49	24.700
518.83	25.273
519.17	23.469
519.52	24.571
519.86	24.490
520.20	24.484
520.55	24.703
520.89	25.471
521.23	25.142
521.58	24.732
521.92	25.064
522.26	25.049
522.61	24.675
522.95	25.099
523.29	24.269
523.64	25.413
523.98	25.470
524.32	23.389
524.66	25.736
525.01	24.870
525.35	25.794
525.69	24.444
526.04	25.000
526.38	26.200
526.72	24.395
527.06	24.773
527.41	25.858
527.75	25.335
528.09	25.648
528.43	26.806
528.78	25.017
529.12	24.903
529.46	25.406
529.80	25.712
530.15	27.327
530.49	25.118
530.83	25.855
531.17	24.446
531.51	26.060
531.86	25.357
532.20	25.122
532.54	25.528
532.88	25.394
533.22	25.134
533.57	25.688
533.91	24.869
534.25	24.935
534.59	24.567
534.93	25.110
535.27	23.604
535.62	24.238
535.96	25.506
536.30	25.923
536.64	25.086
536.98	25.226
537.32	26.671
537.66	26.858
538.01	25.455
538.35	24.896
538.69	24.101
539.03	24.607
539.37	24.832
539.71	25.085
540.05	25.187
540.39	27.285
540.73	25.732
541.07	27.279
541.42	25.605
541.76	25.533
542.10	24.845
542.44	26.268
542.78	23.469
543.12	25.069
543.46	26.287
543.80	25.191
544.14	25.167
544.48	25.916
544.82	25.085
545.16	26.503
545.50	25.501
545.84	25.000
546.18	26.170
546.52	26.388
546.86	26.024
547.20	26.753
547.54	25.371
547.88	26.087
548.22	23.669
548.56	24.604
548.90	26.078
549.24	25.895
549.58	26.516
549.92	24.232
550.26	26.300
550.60	26.245
550.94	26.662
551.28	25.502
551.62	26.308
551.96	26.241
552.30	26.170
552.64	25.458
552.98	25.246
553.32	26.391
553.66	25.835
554.00	26.350
554.34	25.185
554.68	25.811
555.02	26.042
555.36	26.477
555.69	25.568
556.03	25.696
556.37	24.982
556.71	25.848
557.05	25.503
557.39	25.130
557.73	26.387
558.07	25.867
558.41	27.259
558.75	26.345
559.08	27.266
559.42	27.063
559.76	27.222
560.10	25.841
560.44	25.391
560.78	25.664
561.12	25.317
561.45	26.001
561.79	25.490
562.13	26.757
562.47	24.604
562.81	25.937
563.15	25.529
563.48	26.025
563.82	26.287
564.16	25.905
564.50	25.135
564.84	26.305
565.17	25.687
565.51	26.366
565.85	25.720
566.19	25.398
566.52	26.475
566.86	26.414
567.20	24.720
567.54	24.635
567.88	24.312
568.21	24.548
568.55	24.565
568.89	24.025
569.23	23.832
569.56	23.862
569.90	23.914
570.24	22.553
570.57	23.782
570.91	23.039
571.25	22.591
571.59	22.049
571.92	22.074
572.26	21.890
572.60	22.326
572.93	22.309
573.27	22.226
573.61	22.047
573.95	21.737
574.28	21.637
574.62	21.103
574.96	21.790
575.29	21.656
575.63	21.171
575.97	21.713
576.30	21.591
576.64	21.483
576.98	21.982
577.31	21.234
577.65	21.743
577.98	21.492
578.32	20.667
578.66	20.868
578.99	21.292
579.33	21.059
579.67	21.373
580.00	21.418
580.34	21.418
580.67	21.192
581.01	21.566
581.35	20.543
581.68	20.941
582.02	20.719
582.35	20.650
582.69	21.231
583.02	21.149
583.36	21.765
583.70	21.443
584.03	21.963
584.37	21.993
584.70	21.346
585.04	21.399
585.37	21.376
585.71	20.982
586.04	21.029
586.38	21.232
586.72	21.779
587.05	21.664
587.39	21.638
587.72	21.870
588.06	21.312
588.39	21.504
588.73	22.131
589.06	22.407
589.40	22.122
589.73	22.599
590.07	22.545
590.40	22.949
590.73	22.941
591.07	22.901
591.40	23.063
591.74	23.575
592.07	23.887
592.41	23.322
592.74	23.019
593.08	21.900
593.41	22.175
593.75	22.244
594.08	22.314
594.41	22.853
594.75	22.176
595.08	22.285
595.42	22.488
595.75	22.756
596.09	22.361
596.42	23.026
596.75	22.558
597.09	23.690
597.42	23.171
597.75	22.767
598.09	22.499
598.42	22.473
598.76	22.523
599.09	22.676
599.42	22.205
599.76	22.573
600.09	21.946
600.42	22.214
600.76	21.731
601.09	22.290
601.42	21.896
601.76	22.231
602.09	22.607
602.42	22.999
602.76	22.708
603.09	22.674
603.42	23.244
603.76	21.855
604.09	22.479
604.42	22.800
604.76	23.186
605.09	23.126
605.42	22.619
605.75	22.680
606.09	22.463
606.42	22.977
606.75	22.641
607.09	22.989
607.42	22.153
607.75	22.869
608.08	22.462
608.42	23.298
608.75	22.843
609.08	23.817
609.41	23.756
609.75	23.639
610.08	24.214
610.41	22.464
610.74	23.257
611.07	23.721
611.41	23.560
611.74	23.454
612.07	22.752
612.40	24.344
612.73	24.972
613.07	23.735
613.40	24.015
613.73	23.559
614.06	23.038
614.39	23.294
614.72	23.249
615.06	23.408
615.39	23.526
615.72	22.928
616.05	23.575
616.38	22.621
616.71	24.343
617.05	24.645
617.38	24.576
617.71	23.962
618.04	23.810
618.37	25.662
618.70	25.281
619.03	25.556
619.36	24.313
619.69	26.914
620.03	27.173
620.36	25.179
620.69	24.054
621.02	25.306
621.35	26.971
621.68	26.446
622.01	25.500
622.34	27.374
622.67	25.946
623.00	25.804
623.33	25.686
623.66	24.981
623.99	25.416
624.32	25.551
624.65	24.361
624.99	26.336
625.32	25.246
625.65	26.473
625.98	26.027
626.31	24.771
626.64	26.603
626.97	27.487
627.30	26.095
627.63	27.470
627.96	26.235
628.29	27.197
628.62	27.237
628.95	26.553
629.28	28.125
629.61	27.517
629.94	28.446
630.26	27.273
630.59	27.888
630.92	28.821
631.25	27.282
631.58	29.515
631.91	26.645
632.24	26.606
632.57	30.455
632.90	28.470
633.23	26.824
633.56	28.589
633.89	28.730
634.22	29.877
634.55	28.717
634.88	28.991
635.20	29.359
635.53	30.533
635.86	27.958
636.19	28.849
636.52	28.444
636.85	27.792
637.18	27.296
637.51	28.679
637.83	30.618
638.16	30.150
638.49	28.338
638.82	30.395
639.15	28.494
639.48	29.986
639.81	30.962
640.13	29.582
640.46	29.446
640.79	29.013
641.12	29.099
641.45	28.679
641.77	30.222
642.10	33.965
642.43	29.743
642.76	31.848
643.09	31.502
643.41	29.935
643.74	31.301
644.07	29.064
644.40	32.939
644.73	30.823
645.05	31.879
645.38	31.393
645.71	29.787
646.04	34.650
646.36	31.738
646.69	33.633
647.02	34.026
647.35	31.716
647.67	33.638
648.00	31.157
648.33	31.570
648.66	28.983
648.98	29.648
649.31	27.273
649.64	28.100
649.96	27.553
650.29	28.450
650.62	30.427
650.94	29.815
651.27	29.981
651.60	29.910
651.92	31.818
652.25	28.597
652.58	29.333
652.90	31.561
653.23	29.412
653.56	29.611
653.88	28.694
654.21	27.671
654.54	30.390
654.86	30.900
655.19	26.901
655.52	26.084
655.84	20.631
656.17	22.405
656.49	30.124
656.82	30.937
657.15	23.754
657.47	17.767
657.80	13.412
658.13	13.192
658.45	20.310
658.78	20.599
659.10	20.651
659.43	21.519
659.75	22.743
660.08	23.034
660.41	26.047
660.73	25.691
661.06	31.542
661.38	28.571
661.71	29.363
662.03	32.403
662.36	29.670
662.68	27.876
663.01	36.463
663.33	33.875
663.66	30.000
663.98	31.163
664.31	31.770
664.63	29.954
664.96	29.565
665.28	29.581
665.61	30.952
665.93	29.783
666.26	31.887
666.58	30.201
666.91	30.824
667.23	37.028
667.56	32.227
667.88	33.333
668.21	31.265
668.53	33.097
668.86	32.547
669.18	31.840
669.50	32.930
669.83	32.093
670.15	32.168
670.48	32.536
670.80	32.488
671.13	30.425
671.45	28.767
671.77	32.618
672.10	31.881
672.42	29.401
672.75	29.130
673.07	30.233
673.39	31.193
673.72	25.838
674.04	27.917
674.37	30.720
674.69	29.979
675.01	34.889
675.34	31.982
675.66	36.111
675.98	33.038
676.31	28.211
676.63	30.404
676.95	30.227
677.28	30.824
677.60	30.120
677.92	29.358
678.25	32.166
678.57	29.870
678.89	29.202
679.22	33.333
679.54	27.912
679.86	28.231
680.18	29.709
680.51	27.083
680.83	28.231
681.15	28.400
681.48	32.787
681.80	27.066
682.12	28.024
682.44	27.824
682.77	33.996
683.09	32.723
683.41	27.500
683.73	30.876
684.06	31.195
684.38	29.677
684.70	29.412
685.02	28.423
685.34	27.075
685.67	27.580
685.99	28.391
686.31	28.319
686.63	27.458
686.96	27.186
687.28	26.263
687.60	24.715
687.92	29.495
688.24	29.234
688.56	29.476
688.89	28.571
689.21	31.556
689.53	27.610
689.85	29.302
690.17	28.571
690.49	30.496
690.82	30.340
691.14	27.857
691.46	27.804
691.78	28.829
692.10	30.323
692.42	27.922
692.74	27.778
693.06	28.153
693.39	26.018
693.71	26.923
694.03	27.714
694.35	27.804
694.67	27.778
694.99	27.415
695.31	29.765
695.63	27.500
695.95	27.778
696.27	27.979
696.59	30.278
696.91	31.653
697.23	30.334
697.56	29.950
697.88	27.527
698.20	27.107
698.52	29.647
698.84	26.794
699.16	26.250
699.48	27.318
699.80	28.784
700.12	32.345
700.44	31.653
700.76	28.198
701.08	24.848
701.40	31.928
701.72	30.247
702.04	35.644
702.36	31.773
702.68	30.631
703.00	34.545
703.32	27.566
703.64	24.859
703.96	30.435
704.28	31.902
704.60	31.746
704.91	34.069
705.23	28.239
705.55	34.629
705.87	31.408
706.19	33.333
706.51	34.021
706.83	31.190
707.15	29.283
707.47	28.291
707.79	26.302
708.11	27.750
708.43	26.750
708.74	28.941
709.06	30.423
709.38	28.440
709.70	28.994
710.02	30.892
710.34	30.341
710.66	23.397
710.98	27.483
711.29	31.475
711.61	31.864
711.93	31.596
712.25	35.395
712.57	30.769
712.89	26.119
713.20	30.796
713.52	29.617
713.84	27.645
714.16	33.677
714.48	32.258
714.80	26.603
715.11	31.611
715.43	24.765
715.75	28.333
716.07	26.910
716.39	32.215
716.70	30.258
717.02	27.099
717.34	30.769
717.66	34.071
717.97	28.261
718.29	30.544
718.61	29.134
718.93	31.008
719.24	28.517
719.56	34.137
719.88	31.615
720.20	24.621
720.51	30.268
720.83	27.027
721.15	27.311
721.46	29.435
721.78	26.877
722.10	28.253
722.42	24.066
722.73	28.571
723.05	32.653
723.37	29.661
723.68	36.036
724.00	27.778
724.32	27.111
724.63	26.364
724.95	28.384
725.27	31.797
725.58	27.542
725.90	25.794
726.22	30.888
726.53	34.576
726.85	27.715
727.16	30.189
727.48	26.316
727.80	29.150
728.11	28.390
728.43	23.529
728.74	26.210
729.06	27.600
729.38	32.331
729.69	27.490
730.01	23.462
730.32	27.612
730.64	31.802
730.96	26.792
731.27	28.667
731.59	24.068
731.90	24.522
732.22	28.391
732.53	29.900
732.85	26.950
733.16	31.987
733.48	24.820
733.80	25.725
734.11	22.373
734.43	24.742
734.74	27.273
735.06	22.801
735.37	27.795
735.69	29.293
736.00	22.997
736.32	26.174
736.63	26.056
736.95	27.986
737.26	24.911
737.58	25.839
737.89	28.205
738.21	29.323
738.52	28.395
738.83	24.017
739.15	28.384
739.46	29.528
739.78	24.176
740.09	21.569
740.41	28.261
740.72	24.803
741.04	31.579
741.35	25.106
741.66	26.066
741.98	28.061
742.29	29.703
742.61	35.079
742.92	18.957
743.23	27.315
743.55	27.602
743.86	26.316
744.18	29.665
744.49	26.596
744.80	25.543
745.12	31.016
745.43	23.415
745.74	37.500
746.06	26.829
746.37	32.461
746.68	28.910
747.00	29.255
747.31	33.333
747.62	26.699
747.94	29.187
748.25	23.762
748.56	34.426
748.88	28.796
749.19	27.660
749.50	33.498
749.82	24.528
750.13	23.853
750.44	28.195
750.75	28.731
751.07	34.307
751.38	25.670
751.69	23.922
752.01	30.620
752.32	27.092
752.63	27.273
752.94	30.603
753.26	33.473
753.57	27.149
753.88	26.991
754.19	24.583
754.51	25.620
754.82	25.911
755.13	32.500
755.44	27.823
755.75	26.953
756.07	26.459
756.38	25.660
756.69	22.989
757.00	27.667
757.31	25.817
757.63	24.695
757.94	23.056
758.25	22.192
758.56	23.138
758.87	20.680
759.18	25.234
759.50	24.727
759.81	24.080
760.12	27.097
760.43	23.939
760.74	25.309
761.05	24.308
761.36	23.295
761.67	26.667
761.99	27.891
762.30	23.273
762.61	25.692
762.92	25.339
763.23	24.775
763.54	22.897
763.85	22.881
764.16	26.141
764.47	22.984
764.78	29.304
765.10	28.283
765.41	25.868
765.72	26.349
766.03	19.925
766.34	23.723
766.65	32.271
766.96	25.758
767.27	28.723
767.58	23.563
767.89	22.695
768.20	28.977
768.51	23.077
768.82	24.138
769.13	24.885
769.44	24.893
769.75	21.005
770.06	28.448
770.37	22.596
770.68	25.888
770.99	23.077
771.30	30.392
771.61	24.887
771.92	27.586
772.23	31.527
772.54	20.968
772.85	19.753
773.16	29.213
773.47	26.797
773.78	24.183
774.09	19.760
774.39	20.000
774.70	27.389
775.01	28.276
775.32	26.429
775.63	19.835
775.94	29.008
776.25	27.559
776.56	20.000
776.87	22.115
777.18	30.769
777.48	25.000
777.79	20.870
778.10	13.333
778.41	16.216
778.72	30.952
779.03	28.571
779.34	29.078
779.65	26.712
779.95	28.082
780.26	26.897
780.57	19.512
780.88	25.197
781.19	20.690
781.50	29.457
781.80	26.036
782.11	19.497
782.42	26.923
782.73	22.302
783.04	23.704
783.34	24.306
783.65	4.274
783.96	23.770
784.27	31.034
784.57	14.634
784.88	29.688
785.19	32.000
785.50	39.000
785.81	26.724
786.11	23.276
786.42	31.068
786.73	21.818
787.04	20.408
787.34	15.179
787.65	23.810
787.96	14.159
788.26	27.273
788.57	15.385
788.88	29.687
789.19	21.429
789.49	18.261
789.80	25.510
790.11	26.263
790.41	18.182
790.72	20.652
791.03	21.591
791.33	30.000
791.64	26.250
791.95	10.465
792.25	22.340
792.56	31.461
792.87	9.589
793.17	17.391
793.48	21.333
793.79	16.250
794.09	31.250
794.40	19.811
794.70	19.417
795.01	21.951
795.32	15.385
795.62	18.095
795.93	28.431
796.23	25.472
796.54	28.125
796.85	17.647
797.15	21.127
797.46	29.167
797.76	12.121
798.07	16.279
798.37	14.474
798.68	7.576
798.99	19.753
799.29	35.714
799.60	28.986
799.90	25.333
800.21	14.754
800.51	16.923
800.82	1.695
801.12	18.841
801.43	36.066
801.73	30.159
802.04	22.000
802.34	14.925
802.65	50.000
802.95	25.000
803.26	17.308
803.56	15.686
803.87	-4.348
804.17	25.333
804.48	38.095
804.78	22.222
805.09	15.217
805.39	4.444
805.70	27.778
806.00	-8.772
806.30	19.718
806.61	31.429
806.91	1.389
807.22	31.579
807.52	24.000
807.83	20.000
808.13	6.944
808.43	25.000
808.74	2.985
809.04	13.559
809.35	13.462
809.65	26.563
809.95	-8.108
810.26	9.091
810.56	6.849
810.86	19.048
811.17	22.000
811.47	24.490
811.77	7.895
812.08	4.545
812.38	7.547
812.69	17.500
812.99	-9.091
813.29	5.263
813.59	20.000
813.90	22.727
814.20	7.692
814.50	34.615
814.81	33.962
815.11	14.894
815.41	25.424
815.72	14.286
816.02	3.922
816.32	0.000
816.62	17.073
816.93	10.811
817.23	2.857
817.53	6.250
817.84	21.739
818.14	23.077
818.44	2.632
818.74	54.348
819.04	-5.000
819.35	18.919
819.65	-2.941
819.95	41.667
820.25	11.905
820.56	45.000
820.86	-13.793
821.16	37.500
821.46	12.766
821.76	22.500
822.07	20.930
822.37	-8.108
822.67	3.125
822.97	19.048
823.27	-14.286
823.57	-28.000
823.88	7.407
824.18	21.429
824.48	-2.941
824.78	-12.903
825.08	0.000
825.38	9.091
825.69	-4.167
825.99	-13.158
826.29	-5.556
826.59	33.333
826.89	-19.048
827.19	8.696
827.49	5.000
827.79	17.143
828.09	42.857
828.39	30.303
828.70	56.757
829.00	7.143
829.30	-19.048
829.60	-13.333
829.90	6.250
830.20	0.000
830.50	44.444
830.80	4.348
831.10	77.273
831.40	39.394
831.70	12.903
832.00	23.810
832.30	-52.381
832.60	-33.333
832.90	-3.448
833.20	-30.000
833.50	3.030
833.80	-11.111
834.10	0.000
834.40	31.250
834.70	-88.889
835.00	47.368
835.30	42.308
835.60	60.000
835.90	29.032
836.20	0.000
836.50	14.286
836.80	-26.923
837.10	-17.857
837.40	-266.667
837.70	27.273
838.00	-45.455
838.30	0.000
838.60	-46.154
838.90	-18.182
839.19	25.000
839.49	20.000
839.79	-46.154
840.09	-83.333
840.39	35.714
840.69	-10.714
840.99	-19.231
841.29	-47.368
841.59	-130.000
841.88	27.273
842.18	-20.000
842.48	37.500
842.78	-13.333
843.08	7.407
843.38	-90.000
843.68	-4.348
843.97	-46.667
844.27	-53.333
844.57	10.000
844.87	-11.111
845.17	-14.286
845.47	13.333
845.76	-4.762
846.06	-17.647
846.36	-60.000
846.66	-7.143
846.96	-60.000
847.25	-262.500
847.55	21.429
847.85	-37.500
848.15	-18.182
848.44	-433.333
848.74	-5.000
849.04	25.926
849.34	9.091
849.63	-166.667
849.93	-280.000
850.23	-22.222
850.53	30.000
850.82	-23.077
851.12	-44.444
851.42	20.000
851.71	-30.769
852.01	-14.286
852.31	-325.000
852.61	-45.455
852.90	-45.000
853.20	15.789
853.50	-33.333
853.79	17.391
854.09	20.833
854.39	-10.526
854.68	-41.667
854.98	6.452
855.28	38.462
855.57	10.000
855.87	-33.333
856.17	18.519
856.46	-71.429
856.76	-26.667
857.05	-77.778
857.35	20.000
857.65	-16.667
857.94	-46.154
858.24	41.379
858.53	55.556
858.83	18.519
859.13	9.091
859.42	-30.435
859.72	-375.000
860.01	-300.000
860.31	28.000
860.60	-23.810
860.90	-500.000
861.20	-66.667
861.49	-200.000
861.79	-53.333
862.08	0.000
862.38	-20.000
862.67	-200.000
862.97	16.667
863.26	-33.333
863.56	11.111
863.85	-566.667
864.15	-5.556
864.44	-110.000
864.74	50.000
865.03	75.000
865.33	-160.000
865.62	-166.667
865.92	-75.000
866.21	-166.667
866.51	-18.750
866.80	-100.000
867.10	-100.000
867.39	58.333
867.69	0.000
867.98	84.615
868.27	-500.000
868.57	-20.000
868.86	0.000
869.16	-123.077
869.45	-13.333
869.75	-1000.000
870.04	0.000
870.33	-142.857
870.63	4.762
870.92	466.667
871.22	-360.000
871.51	-1300.000
871.80	0.000
872.10	433.333
>>>>>End Processed Spectral Data<<<<<
