SpectraSuite Data File
++++++++++++++++++++++++++++++++++++
Date: Fri May 15 20:56:51 PDT 2015
User: schluterlab
Dark Spectrum Present: Yes
Reference Spectrum Present: Yes
Number of Sampled Component Spectra: 1
Spectrometers: USB2E3373
Integration Time (usec): 3000 (USB2E3373)
Spectra Averaged: 3 (USB2E3373)
Boxcar Smoothing: 0 (USB2E3373)
Correct for Electrical Dark: No (USB2E3373)
Strobe/Lamp Enabled: No (USB2E3373)
Correct for Detector Non-linearity: No (USB2E3373)
Correct for Stray Light: No (USB2E3373)
Number of Pixels in Processed Spectrum: 2048
>>>>>Begin Processed Spectral Data<<<<<
178.53	0.000
178.91	0.000
179.29	100.000
179.67	-350.000
180.04	57.143
180.42	0.000
180.80	-100.000
181.18	100.000
181.56	100.000
181.94	-50.000
182.31	1000.000
182.69	-20.000
183.07	-200.000
183.45	-180.000
183.83	100.000
184.20	0.000
184.58	166.667
184.96	-75.000
185.34	233.333
185.72	-400.000
186.09	84.615
186.47	-700.000
186.85	150.000
187.23	211.111
187.61	100.000
187.98	-266.667
188.36	44.444
188.74	-133.333
189.12	29.412
189.49	16.667
189.87	0.000
190.25	35.714
190.63	-400.000
191.00	-233.333
191.38	-57.895
191.76	-100.000
192.14	125.000
192.51	-50.000
192.89	-100.000
193.27	-185.714
193.65	83.333
194.02	181.818
194.40	60.000
194.78	-175.000
195.15	-16.667
195.53	-137.500
195.91	50.000
196.29	-175.000
196.66	146.154
197.04	171.429
197.42	-66.667
197.79	-366.667
198.17	-61.538
198.55	-100.000
198.92	-133.333
199.30	-500.000
199.68	0.000
200.05	-133.333
200.43	0.000
200.81	-33.333
201.18	-166.667
201.56	1100.000
201.94	100.000
202.31	-0.000
202.69	-140.000
203.07	50.000
203.44	1200.000
203.82	0.000
204.19	0.000
204.57	-533.333
204.95	137.500
205.32	-40.000
205.70	-28.571
206.08	-25.000
206.45	155.556
206.83	21.429
207.20	-100.000
207.58	300.000
207.96	-200.000
208.33	-70.000
208.71	125.000
209.08	-200.000
209.46	-100.000
209.84	60.000
210.21	-1100.000
210.59	114.286
210.96	-133.333
211.34	-150.000
211.71	6.667
212.09	-85.714
212.46	-2000.000
212.84	0.000
213.22	80.000
213.59	600.000
213.97	53.846
214.34	90.909
214.72	-33.333
215.09	525.000
215.47	-23.077
215.84	18.182
216.22	-33.333
216.59	-37.500
216.97	-100.000
217.34	25.000
217.72	-120.000
218.09	-37.500
218.47	100.000
218.84	-700.000
219.22	33.333
219.59	40.000
219.97	466.667
220.34	275.000
220.72	71.429
221.09	-300.000
221.47	50.000
221.84	-650.000
222.22	-550.000
222.59	9.091
222.97	-8.333
223.34	0.000
223.72	14.286
224.09	14.286
224.46	14.286
224.84	166.667
225.21	-110.000
225.59	-66.667
225.96	-100.000
226.34	225.000
226.71	57.143
227.08	50.000
227.46	37.500
227.83	-400.000
228.21	33.333
228.58	18.182
228.95	-25.000
229.33	90.000
229.70	-12.500
230.08	-125.000
230.45	-85.714
230.82	157.143
231.20	60.000
231.57	107.143
231.95	42.857
232.32	10.000
232.69	100.000
233.07	0.000
233.44	100.000
233.81	40.000
234.19	-11.111
234.56	64.706
234.93	800.000
235.31	200.000
235.68	-200.000
236.05	-38.462
236.43	5.000
236.80	-82.353
237.17	34.375
237.55	-15.000
237.92	25.926
238.29	22.222
238.67	33.333
239.04	20.588
239.41	-19.512
239.79	-3.333
240.16	48.780
240.53	-5.263
240.91	10.870
241.28	12.698
241.65	30.357
242.02	19.178
242.40	30.000
242.77	22.034
243.14	6.061
243.51	17.500
243.89	12.644
244.26	24.138
244.63	22.619
245.00	27.835
245.38	42.268
245.75	14.607
246.12	12.931
246.49	23.140
246.87	28.846
247.24	16.807
247.61	20.175
247.98	21.951
248.36	18.750
248.73	21.711
249.10	22.078
249.47	20.886
249.84	16.993
250.22	20.000
250.59	23.529
250.96	30.047
251.33	33.721
251.70	30.588
252.08	23.858
252.45	22.277
252.82	18.593
253.19	20.737
253.56	22.430
253.94	25.225
254.31	29.130
254.68	28.070
255.05	25.591
255.42	25.328
255.79	26.255
256.16	29.961
256.54	28.731
256.91	23.194
257.28	22.677
257.65	18.727
258.02	24.468
258.39	23.232
258.76	23.077
259.14	24.917
259.51	29.773
259.88	24.742
260.25	22.549
260.62	29.167
260.99	26.102
261.36	27.055
261.73	24.051
262.10	26.748
262.47	24.847
262.85	25.078
263.22	27.692
263.59	24.611
263.96	31.677
264.33	29.091
264.70	25.595
265.07	25.000
265.44	28.045
265.81	24.859
266.18	26.230
266.55	24.679
266.92	26.943
267.29	26.632
267.66	24.552
268.03	28.272
268.40	25.587
268.77	27.273
269.14	26.379
269.51	25.707
269.88	26.434
270.25	22.449
270.62	24.146
270.99	23.785
271.36	21.516
271.73	26.056
272.10	23.601
272.47	26.950
272.84	25.248
273.21	24.594
273.58	26.747
273.95	24.485
274.32	25.173
274.69	23.303
275.06	26.786
275.43	24.490
275.80	24.283
276.17	25.057
276.54	24.625
276.91	23.465
277.28	23.581
277.65	25.000
278.02	25.106
278.39	22.976
278.76	26.205
279.13	20.747
279.50	24.160
279.87	25.054
280.23	22.581
280.60	24.561
280.97	26.667
281.34	23.462
281.71	26.078
282.08	22.904
282.45	20.939
282.82	24.517
283.19	24.565
283.56	22.543
283.92	22.201
284.29	21.346
284.66	23.256
285.03	22.593
285.40	22.684
285.77	23.726
286.14	21.661
286.51	26.753
286.87	21.207
287.24	23.573
287.61	20.988
287.98	22.982
288.35	24.437
288.72	22.417
289.08	21.007
289.45	23.023
289.82	21.329
290.19	22.014
290.56	20.926
290.93	22.559
291.29	18.798
291.66	21.575
292.03	20.574
292.40	21.290
292.77	20.415
293.13	17.695
293.50	19.879
293.87	20.305
294.24	18.856
294.60	19.523
294.97	19.048
295.34	20.092
295.71	19.076
296.08	17.788
296.44	16.643
296.81	16.944
297.18	17.971
297.55	18.970
297.91	18.904
298.28	20.053
298.65	17.910
299.02	17.925
299.38	16.416
299.75	18.345
300.12	18.325
300.48	16.996
300.85	17.364
301.22	17.792
301.59	16.316
301.95	18.861
302.32	18.158
302.69	17.040
303.05	18.564
303.42	17.186
303.79	18.575
304.15	16.607
304.52	15.696
304.89	17.310
305.25	17.433
305.62	14.352
305.99	16.959
306.35	17.341
306.72	14.398
307.09	16.876
307.45	15.959
307.82	16.435
308.19	16.492
308.55	16.794
308.92	16.776
309.29	16.425
309.65	15.608
310.02	15.402
310.38	16.136
310.75	17.268
311.12	15.931
311.48	16.967
311.85	16.440
312.22	16.350
312.58	14.544
312.95	16.329
313.31	14.596
313.68	18.115
314.05	15.714
314.41	16.289
314.78	16.186
315.14	16.855
315.51	18.012
315.87	17.213
316.24	18.807
316.61	16.535
316.97	16.667
317.34	17.188
317.70	17.973
318.07	17.692
318.43	18.627
318.80	17.235
319.16	19.238
319.53	19.658
319.89	20.177
320.26	20.040
320.62	20.060
320.99	18.580
321.35	20.247
321.72	21.288
322.08	23.162
322.45	21.218
322.81	23.084
323.18	22.179
323.54	23.263
323.91	23.369
324.27	25.391
324.64	24.625
325.00	23.905
325.37	26.263
325.73	24.932
326.10	25.795
326.46	27.534
326.83	28.346
327.19	28.073
327.56	29.626
327.92	29.049
328.29	29.107
328.65	30.000
329.01	29.136
329.38	30.968
329.74	29.934
330.11	31.511
330.47	31.076
330.84	31.154
331.20	32.890
331.56	31.481
331.93	33.699
332.29	33.822
332.66	33.394
333.02	33.829
333.38	32.172
333.75	33.974
334.11	33.483
334.48	34.361
334.84	34.066
335.20	34.401
335.57	33.454
335.93	35.140
336.29	34.991
336.66	33.969
337.02	34.294
337.38	35.185
337.75	34.909
338.11	35.257
338.47	34.854
338.84	34.935
339.20	33.912
339.56	34.679
339.93	37.064
340.29	36.239
340.65	36.828
341.02	35.638
341.38	35.929
341.74	36.307
342.11	33.969
342.47	37.011
342.83	36.419
343.20	37.021
343.56	37.391
343.92	37.112
344.28	36.892
344.65	36.874
345.01	36.301
345.37	36.501
345.73	36.736
346.10	37.532
346.46	37.342
346.82	36.661
347.19	34.663
347.55	36.090
347.91	38.026
348.27	36.944
348.63	36.457
349.00	36.916
349.36	37.905
349.72	37.065
350.08	37.213
350.45	36.712
350.81	37.043
351.17	38.029
351.53	37.714
351.89	37.820
352.26	35.120
352.62	38.226
352.98	38.474
353.34	37.198
353.70	39.320
354.07	37.823
354.43	38.110
354.79	39.059
355.15	38.095
355.51	39.082
355.87	38.592
356.24	38.336
356.60	37.833
356.96	38.492
357.32	38.019
357.68	38.155
358.04	40.307
358.40	38.666
358.77	40.351
359.13	38.271
359.49	38.752
359.85	38.846
360.21	38.836
360.57	38.791
360.93	38.124
361.29	37.387
361.66	40.752
362.02	40.152
362.38	39.147
362.74	40.802
363.10	40.331
363.46	40.771
363.82	39.820
364.18	39.631
364.54	39.412
364.90	40.860
365.26	40.539
365.62	40.876
365.98	40.616
366.35	40.932
366.71	41.020
367.07	40.856
367.43	41.193
367.79	40.777
368.15	40.847
368.51	41.952
368.87	41.924
369.23	41.877
369.59	41.910
369.95	43.988
370.31	42.197
370.67	41.940
371.03	42.644
371.39	42.232
371.75	41.685
372.11	42.439
372.47	43.195
372.83	42.796
373.19	42.225
373.55	41.155
373.91	43.413
374.27	42.665
374.63	43.360
374.99	42.766
375.35	44.150
375.71	43.566
376.07	43.890
376.42	43.741
376.78	43.423
377.14	43.466
377.50	43.692
377.86	44.378
378.22	44.735
378.58	44.359
378.94	43.163
379.30	44.791
379.66	44.451
380.02	44.083
380.38	43.944
380.74	44.464
381.09	46.196
381.45	44.281
381.81	45.589
382.17	45.622
382.53	45.784
382.89	45.825
383.25	46.235
383.61	45.610
383.97	45.460
384.32	46.091
384.68	44.520
385.04	46.140
385.40	46.049
385.76	47.736
386.12	46.572
386.48	46.935
386.83	45.593
387.19	46.032
387.55	47.679
387.91	46.760
388.27	46.886
388.62	48.710
388.98	46.593
389.34	46.908
389.70	46.489
390.06	47.262
390.42	47.539
390.77	48.267
391.13	46.721
391.49	48.383
391.85	47.758
392.20	47.897
392.56	47.807
392.92	48.385
393.28	47.465
393.64	47.207
393.99	49.342
394.35	48.893
394.71	49.042
395.07	48.146
395.42	48.087
395.78	49.316
396.14	49.117
396.50	48.003
396.85	49.259
397.21	48.810
397.57	48.652
397.92	48.532
398.28	49.770
398.64	47.711
399.00	48.702
399.35	48.307
399.71	48.995
400.07	50.544
400.42	49.266
400.78	49.663
401.14	48.578
401.49	49.792
401.85	48.446
402.21	49.157
402.57	49.188
402.92	48.871
403.28	49.624
403.63	48.928
403.99	50.064
404.35	49.532
404.70	49.345
405.06	49.412
405.42	48.664
405.77	48.867
406.13	50.233
406.49	48.964
406.84	50.000
407.20	50.271
407.55	49.581
407.91	49.198
408.27	49.458
408.62	50.215
408.98	49.230
409.34	50.434
409.69	48.708
410.05	49.138
410.40	50.062
410.76	50.603
411.11	51.812
411.47	50.296
411.83	50.282
412.18	51.995
412.54	50.437
412.89	49.692
413.25	49.940
413.60	49.876
413.96	50.245
414.31	49.451
414.67	49.391
415.03	50.000
415.38	50.065
415.74	50.749
416.09	50.359
416.45	51.249
416.80	49.174
417.16	51.519
417.51	51.432
417.87	50.587
418.22	51.166
418.58	49.833
418.93	50.282
419.29	49.104
419.64	50.356
420.00	52.078
420.35	48.896
420.71	51.276
421.06	50.153
421.42	51.082
421.77	51.561
422.12	49.035
422.48	51.218
422.83	50.812
423.19	50.395
423.54	50.441
423.90	50.471
424.25	50.804
424.61	51.897
424.96	50.697
425.31	51.704
425.67	50.939
426.02	52.061
426.38	51.597
426.73	51.937
427.09	52.532
427.44	52.412
427.79	50.796
428.15	51.032
428.50	51.545
428.85	50.491
429.21	52.066
429.56	51.860
429.92	51.104
430.27	49.925
430.62	50.235
430.98	51.486
431.33	51.262
431.68	51.230
432.04	52.208
432.39	50.599
432.74	51.173
433.10	52.586
433.45	52.808
433.80	53.395
434.16	51.579
434.51	51.613
434.86	51.452
435.22	52.159
435.57	53.525
435.92	52.575
436.28	51.938
436.63	53.280
436.98	51.275
437.34	52.692
437.69	52.952
438.04	52.365
438.39	53.024
438.75	53.248
439.10	53.820
439.45	54.291
439.81	52.599
440.16	54.394
440.51	53.552
440.86	54.924
441.22	52.658
441.57	52.925
441.92	53.568
442.27	54.767
442.63	54.015
442.98	54.451
443.33	53.422
443.68	53.422
444.03	54.396
444.39	54.009
444.74	55.128
445.09	54.287
445.44	54.131
445.79	54.719
446.15	53.084
446.50	54.687
446.85	55.367
447.20	53.754
447.55	54.408
447.91	53.694
448.26	54.582
448.61	55.037
448.96	55.077
449.31	54.104
449.66	54.530
450.02	53.965
450.37	55.957
450.72	55.155
451.07	54.937
451.42	52.996
451.77	55.274
452.12	54.486
452.47	55.248
452.83	54.594
453.18	55.218
453.53	54.678
453.88	54.948
454.23	54.825
454.58	55.730
454.93	54.510
455.28	54.286
455.63	55.673
455.98	54.901
456.34	55.683
456.69	55.527
457.04	55.009
457.39	55.832
457.74	55.804
458.09	54.974
458.44	55.530
458.79	53.445
459.14	54.691
459.49	55.940
459.84	55.725
460.19	55.461
460.54	55.990
460.89	55.682
461.24	56.273
461.59	56.532
461.94	55.094
462.29	56.092
462.64	56.013
462.99	57.278
463.34	57.441
463.69	55.277
464.04	55.569
464.39	54.700
464.74	54.110
465.09	55.708
465.44	55.222
465.79	53.345
466.14	56.100
466.49	55.952
466.84	56.692
467.19	56.258
467.54	56.003
467.89	57.486
468.24	56.569
468.59	57.397
468.94	56.698
469.29	57.836
469.64	56.323
469.99	58.024
470.34	57.065
470.68	59.284
471.03	58.811
471.38	57.775
471.73	58.053
472.08	58.005
472.43	59.128
472.78	58.053
473.13	58.231
473.48	57.590
473.83	58.157
474.17	57.578
474.52	57.498
474.87	57.939
475.22	57.596
475.57	57.199
475.92	58.914
476.27	58.847
476.61	58.391
476.96	57.167
477.31	58.464
477.66	57.978
478.01	59.573
478.36	58.932
478.70	58.782
479.05	58.681
479.40	59.247
479.75	57.873
480.10	58.269
480.45	57.900
480.79	58.510
481.14	57.684
481.49	57.537
481.84	58.398
482.19	58.232
482.53	58.465
482.88	57.995
483.23	57.821
483.58	57.689
483.92	58.809
484.27	57.293
484.62	57.194
484.97	57.463
485.31	55.997
485.66	53.305
486.01	53.388
486.36	53.464
486.70	54.577
487.05	55.975
487.40	55.662
487.75	55.606
488.09	56.768
488.44	57.703
488.79	57.975
489.13	57.772
489.48	57.546
489.83	58.027
490.17	58.292
490.52	57.090
490.87	57.149
491.22	58.644
491.56	57.827
491.91	57.553
492.26	58.824
492.60	57.582
492.95	58.977
493.30	57.841
493.64	59.528
493.99	58.551
494.34	58.883
494.68	58.476
495.03	58.005
495.37	59.814
495.72	59.061
496.07	59.073
496.41	58.868
496.76	58.268
497.11	59.106
497.45	58.902
497.80	59.132
498.14	58.122
498.49	59.116
498.84	59.830
499.18	59.388
499.53	58.234
499.87	59.193
500.22	58.704
500.56	59.254
500.91	59.739
501.26	59.367
501.60	59.370
501.95	60.602
502.29	59.080
502.64	59.459
502.98	59.299
503.33	59.078
503.67	59.036
504.02	60.557
504.36	61.306
504.71	59.798
505.06	59.185
505.40	60.102
505.75	61.546
506.09	59.554
506.44	61.242
506.78	61.429
507.13	61.169
507.47	61.097
507.82	60.844
508.16	61.173
508.51	61.752
508.85	62.585
509.19	62.001
509.54	62.574
509.88	61.758
510.23	62.292
510.57	62.694
510.92	62.313
511.26	62.902
511.61	63.806
511.95	63.452
512.30	62.971
512.64	62.938
512.98	63.953
513.33	63.682
513.67	64.127
514.02	65.446
514.36	64.629
514.70	66.142
515.05	65.746
515.39	65.230
515.74	66.287
516.08	66.169
516.42	67.079
516.77	67.642
517.11	66.469
517.46	66.068
517.80	66.925
518.14	66.197
518.49	66.106
518.83	67.922
519.17	65.373
519.52	66.548
519.86	66.026
520.20	67.558
520.55	68.480
520.89	68.758
521.23	67.574
521.58	67.697
521.92	68.910
522.26	69.551
522.61	68.247
522.95	70.795
523.29	67.281
523.64	67.980
523.98	69.216
524.32	68.235
524.66	69.462
525.01	68.571
525.35	68.827
525.69	70.640
526.04	68.188
526.38	69.650
526.72	67.888
527.06	68.029
527.41	69.987
527.75	68.901
528.09	69.103
528.43	69.750
528.78	70.033
529.12	68.710
529.46	67.966
529.80	67.954
530.15	68.185
530.49	69.428
530.83	69.699
531.17	68.570
531.51	70.041
531.86	68.525
532.20	69.450
532.54	68.346
532.88	68.994
533.22	69.489
533.57	67.497
533.91	67.885
534.25	69.010
534.59	67.736
534.93	66.709
535.27	67.132
535.62	67.531
535.96	67.776
536.30	69.393
536.64	69.194
536.98	67.735
537.32	69.630
537.66	68.583
538.01	69.161
538.35	67.060
538.69	65.712
539.03	65.960
539.37	67.564
539.71	67.076
540.05	66.599
540.39	68.283
540.73	67.713
541.07	68.508
541.42	67.876
541.76	68.617
542.10	68.135
542.44	68.033
542.78	64.969
543.12	66.896
543.46	65.925
543.80	66.690
544.14	65.087
544.48	66.223
544.82	65.482
545.16	66.530
545.50	66.155
545.84	67.210
546.18	66.667
546.52	68.205
546.86	66.283
547.20	65.880
547.54	64.664
547.88	65.489
548.22	63.445
548.56	63.325
548.90	64.892
549.24	65.289
549.58	64.810
549.92	65.618
550.26	64.542
550.60	68.401
550.94	68.036
551.28	66.383
551.62	67.308
551.96	66.015
552.30	65.863
552.64	65.162
552.98	65.049
553.32	64.051
553.66	63.933
554.00	66.715
554.34	66.691
554.68	65.192
555.02	67.113
555.36	64.921
555.69	64.249
556.03	62.170
556.37	63.132
556.71	62.888
557.05	65.772
557.39	64.015
557.73	65.367
558.07	64.329
558.41	66.080
558.75	64.692
559.08	65.327
559.42	65.397
559.76	65.012
560.10	64.297
560.44	64.036
560.78	62.867
561.12	63.540
561.45	63.036
561.79	63.866
562.13	63.449
562.47	63.237
562.81	63.545
563.15	61.777
563.48	63.791
563.82	62.320
564.16	62.883
564.50	62.027
564.84	60.576
565.17	61.972
565.51	63.866
565.85	62.277
566.19	63.196
566.52	61.729
566.86	61.375
567.20	60.834
567.54	61.071
567.88	60.984
568.21	60.690
568.55	59.565
568.89	58.778
569.23	57.631
569.56	57.312
569.90	56.638
570.24	54.671
570.57	55.382
570.91	55.978
571.25	54.390
571.59	54.251
571.92	53.333
572.26	53.261
572.60	52.806
572.93	53.624
573.27	53.574
573.61	53.222
573.95	52.731
574.28	52.701
574.62	52.021
574.96	51.857
575.29	51.136
575.63	50.428
575.97	50.664
576.30	51.307
576.64	51.523
576.98	51.171
577.31	51.733
577.65	51.216
577.98	50.275
578.32	50.323
578.66	49.925
578.99	50.889
579.33	50.562
579.67	49.937
580.00	51.215
580.34	50.697
580.67	50.544
581.01	51.273
581.35	49.526
581.68	49.419
582.02	48.981
582.35	49.359
582.69	49.610
583.02	49.712
583.36	49.799
583.70	50.857
584.03	52.071
584.37	51.863
584.70	50.907
585.04	49.845
585.37	49.140
585.71	49.099
586.04	49.723
586.38	49.053
586.72	50.473
587.05	50.549
587.39	50.210
587.72	50.984
588.06	50.069
588.39	49.559
588.73	50.794
589.06	51.468
589.40	50.536
589.73	51.625
590.07	52.228
590.40	51.703
590.73	53.007
591.07	52.672
591.40	52.182
591.74	51.810
592.07	52.412
592.41	52.208
592.74	50.060
593.08	48.061
593.41	49.621
593.75	48.446
594.08	48.163
594.41	49.199
594.75	49.313
595.08	49.754
595.42	49.614
595.75	51.145
596.09	51.564
596.42	49.979
596.75	50.888
597.09	50.569
597.42	50.632
597.75	49.748
598.09	49.389
598.42	50.000
598.76	48.563
599.09	48.638
599.42	47.707
599.76	48.119
600.09	48.228
600.42	46.967
600.76	47.437
601.09	47.595
601.42	47.904
601.76	47.598
602.09	48.515
602.42	49.452
602.76	48.599
603.09	49.003
603.42	49.582
603.76	48.468
604.09	47.995
604.42	48.435
604.76	49.043
605.09	48.903
605.42	48.262
605.75	46.804
606.09	48.238
606.42	46.539
606.75	48.052
607.09	48.044
607.42	46.921
607.75	47.869
608.08	46.541
608.42	46.825
608.75	48.048
609.08	48.879
609.41	48.629
609.75	48.185
610.08	48.128
610.41	46.715
610.74	47.635
611.07	48.889
611.41	48.106
611.74	49.574
612.07	47.859
612.40	48.851
612.73	48.079
613.07	48.144
613.40	49.344
613.73	47.846
614.06	48.971
614.39	49.408
614.72	47.563
615.06	49.385
615.39	46.670
615.72	46.986
616.05	46.313
616.38	47.293
616.71	48.135
617.05	48.487
617.38	49.591
617.71	48.868
618.04	49.397
618.37	48.298
618.70	48.779
619.03	49.444
619.36	50.000
619.69	50.417
620.03	49.963
620.36	49.356
620.69	48.537
621.02	48.853
621.35	52.199
621.68	51.020
622.01	50.750
622.34	49.162
622.67	50.237
623.00	49.311
623.33	48.857
623.66	48.093
623.99	49.470
624.32	49.962
624.65	49.248
624.99	48.834
625.32	49.052
625.65	50.982
625.98	49.637
626.31	49.127
626.64	50.780
626.97	49.825
627.30	51.401
627.63	50.867
627.96	51.482
628.29	50.509
628.62	52.901
628.95	50.000
629.28	51.512
629.61	51.745
629.94	51.613
630.26	50.000
630.59	52.862
630.92	50.564
631.25	50.051
631.58	53.855
631.91	51.425
632.24	52.523
632.57	54.091
632.90	52.669
633.23	51.412
633.56	52.141
633.89	53.637
634.22	54.815
634.55	53.240
634.88	53.895
635.20	53.462
635.53	55.467
635.86	50.975
636.19	52.911
636.52	51.020
636.85	52.233
637.18	49.560
637.51	51.572
637.83	51.643
638.16	54.434
638.49	50.817
638.82	51.842
639.15	52.510
639.48	52.270
639.81	53.138
640.13	51.948
640.46	52.770
640.79	52.725
641.12	51.846
641.45	54.204
641.77	54.222
642.10	53.081
642.43	55.305
642.76	55.941
643.09	56.543
643.41	52.427
643.74	53.048
644.07	55.993
644.40	54.899
644.73	54.641
645.05	52.181
645.38	56.261
645.71	56.738
646.04	57.810
646.36	53.901
646.69	55.935
647.02	55.009
647.35	56.343
647.67	52.285
648.00	53.731
648.33	53.242
648.66	52.712
648.98	50.754
649.31	48.926
649.64	50.863
649.96	51.216
650.29	52.300
650.62	52.308
650.94	53.333
651.27	51.583
651.60	49.730
651.92	52.972
652.25	50.622
652.58	50.167
652.90	52.316
653.23	52.437
653.56	49.239
653.88	51.718
654.21	48.862
654.54	50.934
654.86	47.708
655.19	46.930
655.52	43.421
655.84	34.411
656.17	37.035
656.49	50.298
656.82	53.612
657.15	42.012
657.47	32.025
657.80	24.088
658.13	24.398
658.45	37.736
658.78	38.969
659.10	38.777
659.43	39.349
659.75	40.306
660.08	41.724
660.41	45.455
660.73	46.685
661.06	51.300
661.38	49.706
661.71	48.871
662.03	51.931
662.36	52.967
662.68	53.982
663.01	51.310
663.33	49.884
663.66	51.395
663.98	52.093
664.31	53.945
664.63	51.843
664.96	48.043
665.28	47.903
665.61	48.485
665.93	50.000
666.26	51.627
666.58	47.427
666.91	52.706
667.23	55.425
667.56	51.896
667.88	50.839
668.21	50.358
668.53	54.846
668.86	53.302
669.18	52.594
669.50	47.942
669.83	54.186
670.15	49.184
670.48	50.478
670.80	50.691
671.13	46.532
671.45	46.347
671.77	48.927
672.10	47.327
672.42	48.315
672.75	43.694
673.07	45.617
673.39	45.872
673.72	45.759
674.04	45.833
674.37	49.576
674.69	48.608
675.01	50.222
675.34	48.874
675.66	48.148
675.98	47.007
676.31	49.541
676.63	44.893
676.95	45.000
677.28	48.000
677.60	51.325
677.92	50.229
678.25	50.328
678.57	43.939
678.89	45.378
679.22	46.980
679.54	43.775
679.86	43.738
680.18	46.019
680.51	42.424
680.83	42.147
681.15	45.400
681.48	46.516
681.80	46.074
682.12	43.750
682.44	45.188
682.77	45.033
683.09	42.792
683.41	45.000
683.73	45.622
684.06	42.035
684.38	43.441
684.70	46.187
685.02	44.398
685.34	44.466
685.67	42.964
685.99	40.506
686.31	41.239
686.63	43.414
686.96	42.776
687.28	40.808
687.60	39.924
687.92	42.626
688.24	43.145
688.56	43.450
688.89	44.866
689.21	46.444
689.53	44.084
689.85	43.953
690.17	42.411
690.49	41.844
690.82	45.146
691.14	41.905
691.46	45.093
691.78	41.667
692.10	43.871
692.42	40.909
692.74	42.735
693.06	39.189
693.39	42.081
693.71	43.891
694.03	38.568
694.35	41.589
694.67	44.192
694.99	43.081
695.31	44.648
695.63	44.500
695.95	39.394
696.27	44.819
696.59	45.278
696.91	43.137
697.23	43.188
697.56	43.069
697.88	42.796
698.20	39.636
698.52	40.471
698.84	37.321
699.16	40.250
699.48	41.353
699.80	41.687
700.12	41.509
700.44	43.697
700.76	44.186
701.08	40.909
701.40	48.494
701.72	49.074
702.04	46.865
702.36	47.157
702.68	44.745
703.00	44.848
703.32	41.349
703.64	37.571
703.96	42.899
704.28	41.104
704.60	43.175
704.91	41.640
705.23	42.525
705.55	49.470
705.87	48.014
706.19	45.185
706.51	43.986
706.83	39.871
707.15	39.252
707.47	39.776
707.79	35.938
708.11	39.750
708.43	37.000
708.74	37.468
709.06	42.817
709.38	41.590
709.70	38.462
710.02	42.357
710.34	40.867
710.66	35.897
710.98	38.079
711.29	41.967
711.61	40.000
711.93	42.997
712.25	41.581
712.57	43.590
712.89	41.418
713.20	43.599
713.52	42.160
713.84	39.249
714.16	35.739
714.48	40.645
714.80	41.026
715.11	37.994
715.43	36.991
715.75	39.667
716.07	36.877
716.39	42.282
716.70	40.221
717.02	39.695
717.34	39.676
717.66	40.708
717.97	40.870
718.29	41.423
718.61	38.583
718.93	42.248
719.24	38.403
719.56	40.161
719.88	40.893
720.20	37.500
720.51	36.398
720.83	39.768
721.15	42.017
721.46	33.871
721.78	33.597
722.10	35.316
722.42	41.079
722.73	42.041
723.05	44.898
723.37	43.644
723.68	40.541
724.00	36.752
724.32	35.111
724.63	33.182
724.95	41.921
725.27	39.631
725.58	42.373
725.90	34.524
726.22	35.135
726.53	37.288
726.85	37.079
727.16	40.755
727.48	32.389
727.80	37.652
728.11	33.898
728.43	40.392
728.74	32.258
729.06	39.200
729.38	42.857
729.69	32.271
730.01	35.385
730.32	35.821
730.64	42.756
730.96	39.623
731.27	36.000
731.59	36.271
731.90	37.580
732.22	36.593
732.53	37.542
732.85	32.979
733.16	36.700
733.48	34.173
733.80	39.855
734.11	34.915
734.43	34.364
734.74	35.758
735.06	29.316
735.37	37.160
735.69	34.680
736.00	33.101
736.32	33.893
736.63	35.563
736.95	33.106
737.26	32.384
737.58	29.866
737.89	36.264
738.21	30.827
738.52	39.095
738.83	36.681
739.15	34.061
739.46	35.827
739.78	35.165
740.09	33.333
740.41	35.507
740.72	32.283
741.04	32.389
741.35	36.170
741.66	37.915
741.98	33.673
742.29	34.653
742.61	38.220
742.92	25.592
743.23	30.556
743.55	40.271
743.86	37.321
744.18	36.842
744.49	34.574
744.80	39.130
745.12	41.176
745.43	33.171
745.74	33.854
746.06	36.098
746.37	36.649
746.68	37.441
747.00	32.447
747.31	36.318
747.62	31.553
747.94	32.057
748.25	31.683
748.56	31.694
748.88	32.461
749.19	36.702
749.50	35.961
749.82	25.000
750.13	33.486
750.44	36.466
750.75	36.194
751.07	36.131
751.38	36.398
751.69	32.549
752.01	35.271
752.32	28.287
752.63	31.225
752.94	34.052
753.26	38.494
753.57	35.294
753.88	33.628
754.19	31.667
754.51	29.339
754.82	30.364
755.13	39.167
755.44	33.065
755.75	31.641
756.07	33.852
756.38	28.302
756.69	33.333
757.00	31.000
757.31	32.353
757.63	28.354
757.94	27.222
758.25	27.671
758.56	28.989
758.87	28.329
759.18	27.726
759.50	26.182
759.81	36.120
760.12	30.000
760.43	30.000
760.74	30.556
761.05	29.231
761.36	27.841
761.67	28.788
761.99	31.633
762.30	24.727
762.61	35.968
762.92	29.864
763.23	33.333
763.54	27.570
763.85	29.661
764.16	26.556
764.47	33.065
764.78	27.473
765.10	31.313
765.41	26.183
765.72	31.111
766.03	29.323
766.34	29.927
766.65	33.068
766.96	34.343
767.27	37.766
767.58	31.034
767.89	23.404
768.20	34.659
768.51	30.220
768.82	30.049
769.13	28.111
769.44	25.751
769.75	24.201
770.06	30.603
770.37	28.365
770.68	28.426
770.99	26.244
771.30	32.353
771.61	30.769
771.92	32.328
772.23	28.079
772.54	33.871
772.85	33.951
773.16	33.708
773.47	39.216
773.78	28.758
774.09	31.138
774.39	33.333
774.70	29.299
775.01	33.103
775.32	25.714
775.63	28.926
775.94	29.008
776.25	27.559
776.56	26.667
776.87	31.731
777.18	32.479
777.48	28.448
777.79	29.565
778.10	21.905
778.41	34.234
778.72	31.746
779.03	36.842
779.34	36.879
779.65	40.411
779.95	21.918
780.26	25.517
780.57	27.642
780.88	31.496
781.19	34.483
781.50	31.783
781.80	24.852
782.11	26.415
782.42	32.308
782.73	23.741
783.04	25.926
783.34	31.944
783.65	8.547
783.96	30.328
784.27	35.172
784.57	24.390
784.88	27.344
785.19	31.000
785.50	41.000
785.81	25.000
786.11	23.276
786.42	29.126
786.73	30.909
787.04	29.592
787.34	29.464
787.65	20.000
787.96	27.434
788.26	24.545
788.57	20.513
788.88	33.594
789.19	30.952
789.49	21.739
789.80	19.388
790.11	23.232
790.41	22.727
790.72	28.261
791.03	21.591
791.33	43.750
791.64	35.000
791.95	22.093
792.25	27.660
792.56	28.090
792.87	13.699
793.17	36.232
793.48	32.000
793.79	32.500
794.09	40.000
794.40	22.642
794.70	26.214
795.01	22.764
795.32	23.932
795.62	17.143
795.93	29.412
796.23	41.509
796.54	38.542
796.85	32.353
797.15	19.718
797.46	22.222
797.76	51.515
798.07	24.419
798.37	19.737
798.68	24.242
798.99	25.926
799.29	40.000
799.60	43.478
799.90	24.000
800.21	18.033
800.51	35.385
800.82	32.203
801.12	18.841
801.43	42.623
801.73	52.381
802.04	14.000
802.34	22.388
802.65	34.615
802.95	14.286
803.26	7.692
803.56	27.451
803.87	17.391
804.17	22.667
804.48	20.635
804.78	18.519
805.09	28.261
805.39	13.333
805.70	20.370
806.00	10.526
806.30	22.535
806.61	22.857
806.91	4.167
807.22	42.105
807.52	42.667
807.83	7.273
808.13	30.556
808.43	23.529
808.74	28.358
809.04	13.559
809.35	23.077
809.65	39.063
809.95	-16.216
810.26	20.455
810.56	23.288
810.86	11.905
811.17	48.000
811.47	22.449
811.77	10.526
812.08	11.364
812.38	20.755
812.69	27.500
812.99	6.061
813.29	36.842
813.59	8.571
813.90	45.455
814.20	28.205
814.50	28.846
814.81	26.415
815.11	6.383
815.41	37.288
815.72	23.810
816.02	17.647
816.32	2.083
816.62	31.707
816.93	29.730
817.23	31.429
817.53	27.083
817.84	19.565
818.14	17.308
818.44	7.895
818.74	52.174
819.04	-17.500
819.35	24.324
819.65	17.647
819.95	2.778
820.25	21.429
820.56	42.500
820.86	-17.241
821.16	40.000
821.46	14.894
821.76	40.000
822.07	16.279
822.37	-8.108
822.67	21.875
822.97	35.714
823.27	3.571
823.57	12.000
823.88	-18.519
824.18	0.000
824.48	0.000
824.78	9.677
825.08	-8.696
825.38	9.091
825.69	-8.333
825.99	10.526
826.29	22.222
826.59	0.000
826.89	-23.810
827.19	30.435
827.49	15.000
827.79	-8.571
828.09	35.714
828.39	21.212
828.70	27.027
829.00	50.000
829.30	-14.286
829.60	20.000
829.90	3.125
830.20	2.632
830.50	7.407
830.80	8.696
831.10	9.091
831.40	66.667
831.70	45.161
832.00	42.857
832.30	-9.524
832.60	-33.333
832.90	31.034
833.20	0.000
833.50	12.121
833.80	-14.815
834.10	23.077
834.40	53.125
834.70	-155.556
835.00	36.842
835.30	61.538
835.60	6.667
835.90	6.452
836.20	40.909
836.50	39.286
836.80	-11.538
837.10	-28.571
837.40	-200.000
837.70	-13.636
838.00	-9.091
838.30	34.783
838.60	0.000
838.90	36.364
839.19	10.714
839.49	0.000
839.79	46.154
840.09	8.333
840.39	57.143
840.69	-14.286
840.99	7.692
841.29	-47.368
841.59	0.000
841.88	27.273
842.18	-20.000
842.48	-6.250
842.78	6.667
843.08	29.630
843.38	-90.000
843.68	43.478
843.97	26.667
844.27	6.667
844.57	10.000
844.87	-22.222
845.17	14.286
845.47	60.000
845.76	14.286
846.06	-23.529
846.36	0.000
846.66	-78.571
846.96	13.333
847.25	-250.000
847.55	57.143
847.85	-187.500
848.15	-36.364
848.44	-500.000
848.74	70.000
849.04	18.519
849.34	27.273
849.63	-166.667
849.93	-260.000
850.23	16.667
850.53	100.000
850.82	-46.154
851.12	-11.111
851.42	33.333
851.71	-11.538
852.01	28.571
852.31	-200.000
852.61	-36.364
852.90	10.000
853.20	21.053
853.50	58.333
853.79	30.435
854.09	58.333
854.39	31.579
854.68	62.500
854.98	25.806
855.28	11.538
855.57	-5.000
855.87	50.000
856.17	44.444
856.46	78.571
856.76	-20.000
857.05	11.111
857.35	52.000
857.65	11.111
857.94	23.077
858.24	44.828
858.53	83.333
858.83	37.037
859.13	59.091
859.42	-26.087
859.72	125.000
860.01	-433.333
860.31	60.000
860.60	4.762
860.90	-333.333
861.20	-33.333
861.49	-350.000
861.79	-13.333
862.08	40.000
862.38	46.667
862.67	0.000
862.97	0.000
863.26	-33.333
863.56	-22.222
863.85	-500.000
864.15	-33.333
864.44	40.000
864.74	57.143
865.03	175.000
865.33	-60.000
865.62	-33.333
865.92	16.667
866.21	-83.333
866.51	106.250
866.80	-145.455
867.10	-500.000
867.39	-33.333
867.69	0.000
867.98	-53.846
868.27	-466.667
868.57	6.667
868.86	72.222
869.16	-23.077
869.45	126.667
869.75	-1000.000
870.04	0.000
870.33	-142.857
870.63	9.524
870.92	266.667
871.22	-100.000
871.51	-100.000
871.80	33.333
872.10	233.333
>>>>>End Processed Spectral Data<<<<<
