SpectraSuite Data File
++++++++++++++++++++++++++++++++++++
Date: Fri May 15 21:08:34 PDT 2015
User: schluterlab
Dark Spectrum Present: Yes
Reference Spectrum Present: Yes
Number of Sampled Component Spectra: 1
Spectrometers: USB2E3373
Integration Time (usec): 3000 (USB2E3373)
Spectra Averaged: 3 (USB2E3373)
Boxcar Smoothing: 0 (USB2E3373)
Correct for Electrical Dark: No (USB2E3373)
Strobe/Lamp Enabled: No (USB2E3373)
Correct for Detector Non-linearity: No (USB2E3373)
Correct for Stray Light: No (USB2E3373)
Number of Pixels in Processed Spectrum: 2048
>>>>>Begin Processed Spectral Data<<<<<
178.53	0.000
178.91	0.000
179.29	125.000
179.67	-600.000
180.04	185.714
180.42	-400.000
180.80	-200.000
181.18	66.667
181.56	950.000
181.94	50.000
182.31	700.000
182.69	-200.000
183.07	-466.667
183.45	-60.000
183.83	116.667
184.20	-63.636
184.58	233.333
184.96	-75.000
185.34	-33.333
185.72	-400.000
186.09	130.769
186.47	-200.000
186.85	116.667
187.23	133.333
187.61	700.000
187.98	-500.000
188.36	-55.556
188.74	-533.333
189.12	-17.647
189.49	22.222
189.87	0.000
190.25	-7.143
190.63	-450.000
191.00	-466.667
191.38	5.263
191.76	150.000
192.14	-175.000
192.51	-500.000
192.89	-177.778
193.27	-57.143
193.65	166.667
194.02	109.091
194.40	10.000
194.78	-100.000
195.15	41.667
195.53	-37.500
195.91	225.000
196.29	-50.000
196.66	100.000
197.04	128.571
197.42	33.333
197.79	-433.333
198.17	-107.692
198.55	700.000
198.92	-500.000
199.30	-600.000
199.68	-240.000
200.05	-266.667
200.43	0.000
200.81	-200.000
201.18	-100.000
201.56	700.000
201.94	-300.000
202.31	-66.667
202.69	-120.000
203.07	150.000
203.44	-100.000
203.82	0.000
204.19	0.000
204.57	-466.667
204.95	100.000
205.32	-70.000
205.70	100.000
206.08	-150.000
206.45	122.222
206.83	50.000
207.20	-114.286
207.58	1300.000
207.96	0.000
208.33	-130.000
208.71	-200.000
209.08	-233.333
209.46	-600.000
209.84	-60.000
210.21	-1100.000
210.59	14.286
210.96	50.000
211.34	-100.000
211.71	20.000
212.09	-200.000
212.46	-1100.000
212.84	0.000
213.22	70.000
213.59	800.000
213.97	61.538
214.34	-18.182
214.72	-83.333
215.09	400.000
215.47	-38.462
215.84	-27.273
216.22	-300.000
216.59	-125.000
216.97	50.000
217.34	-50.000
217.72	-360.000
218.09	-37.500
218.47	162.500
218.84	-300.000
219.22	-155.556
219.59	-20.000
219.97	333.333
220.34	225.000
220.72	-42.857
221.09	-375.000
221.47	-350.000
221.84	-200.000
222.22	-800.000
222.59	63.636
222.97	-16.667
223.34	-66.667
223.72	-35.714
224.09	28.571
224.46	35.714
224.84	600.000
225.21	60.000
225.59	33.333
225.96	200.000
226.34	325.000
226.71	14.286
227.08	-16.667
227.46	-12.500
227.83	-250.000
228.21	77.778
228.58	72.727
228.95	-225.000
229.33	100.000
229.70	-31.250
230.08	-112.500
230.45	-171.429
230.82	-14.286
231.20	-26.667
231.57	42.857
231.95	0.000
232.32	-100.000
232.69	-42.857
233.07	-166.667
233.44	100.000
233.81	-90.000
234.19	-11.111
234.56	-47.059
234.93	800.000
235.31	-175.000
235.68	-320.000
236.05	-7.692
236.43	-45.000
236.80	-23.529
237.17	25.000
237.55	-40.000
237.92	-51.852
238.29	13.889
238.67	-23.333
239.04	-17.647
239.41	-31.707
239.79	-36.667
240.16	14.634
240.53	-23.684
240.91	-10.870
241.28	-11.111
241.65	3.571
242.02	12.329
242.40	-13.333
242.77	-5.085
243.14	12.121
243.51	-2.500
243.89	5.747
244.26	-6.897
244.63	-1.190
245.00	3.093
245.38	14.433
245.75	-16.854
246.12	-1.724
246.49	10.744
246.87	14.423
247.24	-3.361
247.61	0.000
247.98	0.813
248.36	1.250
248.73	9.211
249.10	5.195
249.47	14.557
249.84	3.268
250.22	5.294
250.59	5.229
250.96	13.615
251.33	-0.581
251.70	5.882
252.08	7.107
252.45	6.436
252.82	4.523
253.19	12.903
253.56	0.935
253.94	5.405
254.31	10.870
254.68	10.088
255.05	5.906
255.42	6.114
255.79	8.880
256.16	8.171
256.54	11.194
256.91	7.224
257.28	8.178
257.65	4.494
258.02	-1.064
258.39	12.121
258.76	6.960
259.14	7.973
259.51	6.472
259.88	3.093
260.25	7.190
260.62	9.028
260.99	3.390
261.36	6.849
261.73	3.481
262.10	5.775
262.47	4.908
262.85	7.837
263.22	8.615
263.59	9.034
263.96	9.317
264.33	6.970
264.70	4.167
265.07	4.167
265.44	7.365
265.81	6.497
266.18	5.738
266.55	5.913
266.92	8.549
267.29	5.744
267.66	7.673
268.03	8.639
268.40	4.961
268.77	9.893
269.14	8.633
269.51	8.740
269.88	6.733
270.25	6.633
270.62	5.610
270.99	6.394
271.36	6.357
271.73	7.042
272.10	8.273
272.47	8.274
272.84	4.703
273.21	8.817
273.58	7.711
273.95	7.094
274.32	4.388
274.69	5.430
275.06	7.143
275.43	5.669
275.80	7.285
276.17	5.057
276.54	8.779
276.91	6.579
277.28	7.205
277.65	9.504
278.02	6.170
278.39	7.877
278.76	6.499
279.13	4.357
279.50	8.613
279.87	6.695
280.23	3.656
280.60	10.331
280.97	7.475
281.34	5.962
281.71	6.982
282.08	3.681
282.45	6.849
282.82	6.371
283.19	7.157
283.56	7.129
283.92	5.503
284.29	3.846
284.66	4.651
285.03	6.090
285.40	6.805
285.77	4.921
286.14	5.054
286.51	7.934
286.87	5.119
287.24	6.077
287.61	5.467
287.98	7.719
288.35	5.373
288.72	4.203
289.08	7.465
289.45	6.151
289.82	4.371
290.19	5.631
290.56	4.974
290.93	5.051
291.29	5.701
291.66	6.457
292.03	6.858
292.40	5.484
292.77	4.785
293.13	4.058
293.50	3.642
293.87	5.496
294.24	6.337
294.60	6.259
294.97	5.506
295.34	5.675
295.71	7.452
296.08	6.577
296.44	4.410
296.81	6.528
297.18	4.058
297.55	7.182
297.91	6.575
298.28	7.256
298.65	5.563
299.02	4.987
299.38	3.694
299.75	5.517
300.12	5.236
300.48	4.611
300.85	5.323
301.22	3.766
301.59	4.474
301.95	5.570
302.32	6.874
302.69	6.841
303.05	5.941
303.42	6.600
303.79	5.841
304.15	6.691
304.52	3.686
304.89	5.263
305.25	5.327
305.62	5.601
305.99	3.392
306.35	5.896
306.72	5.849
307.09	4.219
307.45	6.889
307.82	3.819
308.19	5.226
308.55	5.453
308.92	6.536
309.29	5.028
309.65	5.274
310.02	6.931
310.38	6.696
310.75	6.557
311.12	6.136
311.48	5.726
311.85	7.120
312.22	5.274
312.58	6.157
312.95	7.044
313.31	5.694
313.68	6.597
314.05	6.837
314.41	8.041
314.78	6.907
315.14	7.400
315.51	7.660
315.87	8.811
316.24	9.302
316.61	8.957
316.97	9.226
317.34	7.715
317.70	7.744
318.07	9.712
318.43	9.510
318.80	9.186
319.16	9.766
319.53	10.541
319.89	11.220
320.26	10.526
320.62	12.036
320.99	9.708
321.35	10.791
321.72	12.150
322.08	10.574
322.45	10.964
322.81	12.083
323.18	12.954
323.54	11.390
323.91	11.685
324.27	13.867
324.64	13.390
325.00	14.599
325.37	14.325
325.73	12.602
326.10	13.442
326.46	14.350
326.83	15.223
327.19	14.473
327.56	14.683
327.92	15.053
328.29	14.732
328.65	16.226
329.01	14.890
329.38	15.945
329.74	15.109
330.11	16.589
330.47	15.399
330.84	16.058
331.20	17.300
331.56	15.278
331.93	17.443
332.29	16.315
332.66	16.290
333.02	16.078
333.38	15.857
333.75	17.216
334.11	16.831
334.48	18.314
334.84	17.399
335.20	18.390
335.57	16.772
335.93	17.525
336.29	17.772
336.66	16.440
337.02	15.985
337.38	16.944
337.75	18.636
338.11	18.124
338.47	18.157
338.84	17.652
339.20	17.550
339.56	18.073
339.93	18.263
340.29	17.156
340.65	17.742
341.02	17.908
341.38	17.168
341.74	15.901
342.11	17.418
342.47	16.993
342.83	18.339
343.20	17.422
343.56	19.130
343.92	18.778
344.28	18.446
344.65	17.271
345.01	16.768
345.37	17.662
345.73	19.247
346.10	17.688
346.46	18.503
346.82	17.185
347.19	18.288
347.55	18.045
347.91	19.417
348.27	18.998
348.63	18.825
349.00	18.622
349.36	18.620
349.72	18.159
350.08	20.000
350.45	18.675
350.81	17.442
351.17	17.997
351.53	18.939
351.89	18.249
352.26	19.120
352.62	18.629
352.98	19.277
353.34	18.599
353.70	19.903
354.07	18.629
354.43	18.495
354.79	18.662
355.15	19.683
355.51	19.066
355.87	18.689
356.24	18.434
356.60	17.947
356.96	19.603
357.32	19.169
357.68	19.234
358.04	19.225
358.40	19.453
358.77	20.255
359.13	18.014
359.49	18.721
359.85	18.955
360.21	18.581
360.57	18.210
360.93	19.818
361.29	18.353
361.66	19.592
362.02	20.530
362.38	19.497
362.74	19.152
363.10	20.692
363.46	20.089
363.82	20.285
364.18	20.443
364.54	18.750
364.90	20.287
365.26	19.796
365.62	21.606
365.98	20.674
366.35	20.830
366.71	19.882
367.07	20.610
367.43	19.842
367.79	20.707
368.15	20.531
368.51	20.757
368.87	20.244
369.23	19.278
369.59	20.117
369.95	20.528
370.31	21.171
370.67	21.791
371.03	19.492
371.39	19.621
371.75	20.073
372.11	20.685
372.47	20.488
372.83	20.724
373.19	21.683
373.55	20.144
373.91	20.662
374.27	21.332
374.63	21.536
374.99	21.064
375.35	21.379
375.71	22.378
376.07	21.980
376.42	22.109
376.78	20.940
377.14	22.072
377.50	21.381
377.86	21.620
378.22	21.953
378.58	21.346
378.94	21.172
379.30	22.583
379.66	23.197
380.02	23.115
380.38	22.824
380.74	21.544
381.09	22.454
381.45	22.385
381.81	22.517
382.17	22.335
382.53	22.673
382.89	22.222
383.25	22.900
383.61	23.659
383.97	22.921
384.32	22.076
384.68	22.291
385.04	22.059
385.40	22.775
385.76	23.459
386.12	23.157
386.48	23.372
386.83	23.589
387.19	23.077
387.55	24.279
387.91	24.205
388.27	23.565
388.62	23.977
388.98	23.573
389.34	23.548
389.70	23.679
390.06	22.907
390.42	23.640
390.77	23.479
391.13	24.275
391.49	23.157
391.85	23.652
392.20	23.980
392.56	23.395
392.92	25.015
393.28	24.116
393.64	24.024
393.99	25.266
394.35	23.213
394.71	24.585
395.07	23.507
395.42	24.165
395.78	24.300
396.14	23.518
396.50	24.921
396.85	24.598
397.21	23.371
397.57	24.577
397.92	23.367
398.28	24.598
398.64	23.614
399.00	25.169
399.35	23.251
399.71	23.665
400.07	24.788
400.42	24.174
400.78	24.801
401.14	23.775
401.49	24.479
401.85	23.522
402.21	24.157
402.57	24.625
402.92	23.275
403.28	24.624
403.63	23.960
403.99	24.043
404.35	24.360
404.70	22.738
405.06	23.796
405.42	23.679
405.77	23.417
406.13	23.690
406.49	23.683
406.84	24.022
407.20	24.142
407.55	23.632
407.91	23.195
408.27	23.901
408.62	24.308
408.98	23.660
409.34	24.349
409.69	24.031
410.05	22.845
410.40	23.951
410.76	23.764
411.11	23.000
411.47	23.011
411.83	22.536
412.18	22.523
412.54	22.534
412.89	23.461
413.25	23.526
413.60	21.615
413.96	22.331
414.31	22.866
414.67	22.771
415.03	21.971
415.38	23.107
415.74	23.257
416.09	22.861
416.45	23.295
416.80	23.199
417.16	23.343
417.51	23.451
417.87	22.686
418.22	22.927
418.58	22.341
418.93	23.135
419.29	21.639
419.64	22.942
420.00	24.055
420.35	22.687
420.71	23.208
421.06	22.836
421.42	22.656
421.77	23.353
422.12	22.247
422.48	21.873
422.83	22.506
423.19	21.558
423.54	21.458
423.90	21.849
424.25	21.470
424.61	22.644
424.96	22.009
425.31	22.415
425.67	20.833
426.02	21.673
426.38	21.353
426.73	21.550
427.09	21.835
427.44	21.059
427.79	21.273
428.15	21.663
428.50	21.563
428.85	21.376
429.21	22.015
429.56	21.186
429.92	21.007
430.27	20.902
430.62	21.119
430.98	20.754
431.33	20.400
431.68	20.722
432.04	21.465
432.39	20.821
432.74	20.084
433.10	20.805
433.45	21.147
433.80	21.242
434.16	20.222
434.51	21.075
434.86	21.080
435.22	20.079
435.57	19.838
435.92	19.880
436.28	20.095
436.63	20.878
436.98	19.467
437.34	20.266
437.69	20.572
438.04	20.456
438.39	19.792
438.75	20.583
439.10	20.430
439.45	18.746
439.81	19.266
440.16	20.012
440.51	20.179
440.86	20.725
441.22	19.400
441.57	19.205
441.92	20.042
442.27	19.845
442.63	20.182
442.98	19.357
443.33	18.920
443.68	18.992
444.03	19.324
444.39	19.233
444.74	20.123
445.09	19.989
445.44	19.943
445.79	19.598
446.15	19.604
446.50	17.970
446.85	19.129
447.20	18.978
447.55	19.922
447.91	19.177
448.26	18.327
448.61	19.113
448.96	18.933
449.31	19.133
449.66	18.467
450.02	18.369
450.37	19.265
450.72	18.156
451.07	18.101
451.42	18.414
451.77	18.686
452.12	17.524
452.47	18.223
452.83	18.198
453.18	18.280
453.53	18.078
453.88	18.094
454.23	17.824
454.58	17.821
454.93	18.814
455.28	17.397
455.63	18.351
455.98	19.062
456.34	17.625
456.69	18.170
457.04	17.706
457.39	16.950
457.74	18.017
458.09	16.363
458.44	17.379
458.79	17.647
459.14	18.364
459.49	18.507
459.84	17.428
460.19	18.204
460.54	16.993
460.89	17.500
461.24	17.764
461.59	17.637
461.94	17.107
462.29	17.793
462.64	17.409
462.99	17.536
463.34	16.829
463.69	16.216
464.04	17.312
464.39	16.737
464.74	17.117
465.09	17.592
465.44	16.965
465.79	16.553
466.14	16.933
466.49	16.504
466.84	16.062
467.19	17.209
467.54	16.539
467.89	16.551
468.24	17.457
468.59	16.889
468.94	16.190
469.29	17.311
469.64	16.883
469.99	17.519
470.34	16.587
470.68	17.002
471.03	16.914
471.38	15.763
471.73	16.387
472.08	16.893
472.43	15.973
472.78	15.422
473.13	17.143
473.48	16.156
473.83	16.376
474.17	16.969
474.52	16.018
474.87	16.909
475.22	16.473
475.57	15.359
475.92	16.511
476.27	16.589
476.61	16.551
476.96	16.007
477.31	16.928
477.66	16.124
478.01	16.227
478.36	15.251
478.70	15.824
479.05	17.363
479.40	15.686
479.75	16.371
480.10	16.078
480.45	16.050
480.79	16.415
481.14	16.189
481.49	15.369
481.84	15.927
482.19	15.809
482.53	15.635
482.88	16.229
483.23	14.875
483.58	15.519
483.92	15.102
484.27	14.722
484.62	15.598
484.97	14.718
485.31	14.704
485.66	14.401
486.01	14.693
486.36	14.589
486.70	14.775
487.05	14.608
487.40	14.736
487.75	14.507
488.09	13.782
488.44	14.821
488.79	14.083
489.13	14.423
489.48	14.835
489.83	15.022
490.17	15.146
490.52	14.734
490.87	14.530
491.22	14.422
491.56	14.658
491.91	14.340
492.26	15.605
492.60	14.923
492.95	15.101
493.30	14.949
493.64	14.293
493.99	15.072
494.34	14.515
494.68	14.238
495.03	14.258
495.37	14.769
495.72	15.649
496.07	14.098
496.41	14.151
496.76	14.279
497.11	13.787
497.45	14.845
497.80	15.035
498.14	14.456
498.49	14.576
498.84	15.120
499.18	14.307
499.53	14.435
499.87	14.591
500.22	14.491
500.56	14.776
500.91	14.508
501.26	14.088
501.60	14.117
501.95	13.974
502.29	14.673
502.64	14.479
502.98	14.258
503.33	14.361
503.67	14.169
504.02	15.103
504.36	14.448
504.71	14.192
505.06	14.645
505.40	13.909
505.75	13.918
506.09	14.344
506.44	15.195
506.78	15.255
507.13	15.667
507.47	14.413
507.82	14.263
508.16	14.157
508.51	13.903
508.85	15.228
509.19	13.677
509.54	15.013
509.88	13.700
510.23	14.739
510.57	14.377
510.92	14.339
511.26	14.021
511.61	14.576
511.95	13.699
512.30	14.690
512.64	14.691
512.98	14.318
513.33	14.270
513.67	14.042
514.02	14.989
514.36	14.914
514.70	15.093
515.05	14.454
515.39	14.463
515.74	16.347
516.08	14.764
516.42	14.605
516.77	13.985
517.11	15.371
517.46	15.320
517.80	15.375
518.14	14.819
518.49	13.942
518.83	14.216
519.17	14.433
519.52	13.973
519.86	14.046
520.20	14.885
520.55	15.072
520.89	15.935
521.23	14.123
521.58	14.953
521.92	14.551
522.26	14.249
522.61	14.156
522.95	15.563
523.29	14.422
523.64	14.994
523.98	15.036
524.32	13.853
524.66	15.173
525.01	14.870
525.35	15.489
525.69	14.343
526.04	14.749
526.38	15.370
526.72	13.800
527.06	14.591
527.41	15.172
527.75	14.008
528.09	13.821
528.43	15.733
528.78	14.191
529.12	14.903
529.46	14.165
529.80	14.376
530.15	14.653
530.49	15.017
530.83	14.364
531.17	13.969
531.51	13.953
531.86	13.732
532.20	13.083
532.54	14.976
532.88	14.648
533.22	14.651
533.57	14.089
533.91	14.295
534.25	14.583
534.59	13.406
534.93	13.531
535.27	13.071
535.62	14.388
535.96	14.416
536.30	14.314
536.64	14.680
536.98	13.659
537.32	14.154
537.66	14.656
538.01	14.545
538.35	12.968
538.69	14.714
539.03	13.671
539.37	14.468
539.71	14.110
540.05	12.967
540.39	13.920
540.73	14.854
541.07	13.950
541.42	14.382
541.76	14.178
542.10	13.558
542.44	12.856
542.78	12.939
543.12	12.637
543.46	14.047
543.80	13.324
544.14	13.151
544.48	12.592
544.82	13.876
545.16	13.661
545.50	14.219
545.84	14.235
546.18	12.979
546.52	13.050
546.86	12.653
547.20	13.519
547.54	12.792
547.88	13.043
548.22	12.623
548.56	13.193
548.90	13.477
549.24	12.879
549.58	13.258
549.92	11.866
550.26	13.773
550.60	13.606
550.94	13.816
551.28	13.601
551.62	12.385
551.96	13.158
552.30	12.427
552.64	11.636
552.98	13.291
553.32	12.696
553.66	11.901
554.00	12.336
554.34	13.885
554.68	11.726
555.02	12.946
555.36	11.743
555.69	12.234
556.03	12.562
556.37	12.883
556.71	12.996
557.05	12.453
557.39	11.673
557.73	12.594
558.07	13.876
558.41	12.481
558.75	12.783
559.08	12.530
559.42	12.222
559.76	12.890
560.10	11.774
560.44	12.360
560.78	12.168
561.12	12.553
561.45	12.579
561.79	13.025
562.13	12.491
562.47	11.511
562.81	12.536
563.15	12.553
563.48	13.013
563.82	13.315
564.16	12.813
564.50	12.297
564.84	12.718
565.17	12.408
565.51	12.432
565.85	12.963
566.19	11.804
566.52	12.735
566.86	12.211
567.20	11.333
567.54	11.922
567.88	12.127
568.21	12.274
568.55	11.033
568.89	11.961
569.23	11.700
569.56	11.602
569.90	11.612
570.24	11.537
570.57	11.673
570.91	11.467
571.25	11.148
571.59	11.056
571.92	10.519
572.26	10.990
572.60	11.163
572.93	11.139
573.27	10.940
573.61	10.621
573.95	10.923
574.28	10.885
574.62	10.628
574.96	10.995
575.29	11.005
575.63	10.417
575.97	10.436
576.30	10.683
576.64	10.199
576.98	10.888
577.31	10.568
577.65	10.780
577.98	10.862
578.32	10.428
578.66	10.294
578.99	10.669
579.33	10.317
579.67	10.421
580.00	10.582
580.34	10.373
580.67	10.608
581.01	10.663
581.35	10.336
581.68	10.648
582.02	10.240
582.35	10.399
582.69	10.382
583.02	10.062
583.36	10.362
583.70	10.384
584.03	10.425
584.37	10.587
584.70	10.357
585.04	10.259
585.37	10.197
585.71	10.417
586.04	10.086
586.38	10.109
586.72	10.531
587.05	10.861
587.39	10.316
587.72	10.607
588.06	10.075
588.39	10.310
588.73	10.501
589.06	10.568
589.40	10.750
589.73	10.807
590.07	10.687
590.40	10.488
590.73	10.997
591.07	10.814
591.40	10.641
591.74	10.860
592.07	10.946
592.41	10.645
592.74	10.394
593.08	10.339
593.41	9.984
593.75	10.337
594.08	10.127
594.41	10.917
594.75	10.305
595.08	9.989
595.42	9.937
595.75	10.514
596.09	10.477
596.42	10.294
596.75	10.391
597.09	10.752
597.42	10.027
597.75	10.673
598.09	10.005
598.42	10.018
598.76	10.167
599.09	10.377
599.42	10.080
599.76	10.120
600.09	10.445
600.42	10.311
600.76	9.807
601.09	9.771
601.42	9.597
601.76	10.242
602.09	10.314
602.42	10.489
602.76	9.932
603.09	10.507
603.42	10.702
603.76	10.000
604.09	10.045
604.42	10.533
604.76	10.725
605.09	10.878
605.42	10.203
605.75	10.333
606.09	10.021
606.42	10.634
606.75	10.346
607.09	11.033
607.42	9.482
607.75	9.858
608.08	9.389
608.42	10.050
608.75	10.988
609.08	10.613
609.41	10.203
609.75	9.929
610.08	10.185
610.41	9.952
610.74	10.288
611.07	10.181
611.41	10.483
611.74	10.821
612.07	10.011
612.40	10.284
612.73	10.226
613.07	10.686
613.40	10.886
613.73	9.457
614.06	10.573
614.39	10.773
614.72	10.028
615.06	10.950
615.39	10.371
615.72	10.226
616.05	10.782
616.38	9.345
616.71	10.275
617.05	10.686
617.38	10.685
617.71	10.252
618.04	10.603
618.37	11.160
618.70	11.023
619.03	12.014
619.36	9.913
619.69	9.174
620.03	11.103
620.36	11.230
620.69	10.635
621.02	10.780
621.35	10.622
621.68	11.480
622.01	10.667
622.34	11.572
622.67	10.410
623.00	10.107
623.33	9.451
623.66	10.546
623.99	10.817
624.32	10.722
624.65	9.850
624.99	11.061
625.32	9.856
625.65	10.683
625.98	11.523
626.31	9.393
626.64	11.179
626.97	12.129
627.30	11.559
627.63	10.312
627.96	10.692
628.29	11.471
628.62	12.979
628.95	11.723
629.28	9.778
629.61	10.568
629.94	12.121
630.26	10.771
630.59	11.446
630.92	10.769
631.25	9.846
631.58	11.344
631.91	9.978
632.24	10.436
632.57	12.614
632.90	10.913
633.23	12.941
633.56	11.209
633.89	10.604
634.22	13.086
634.55	10.292
634.88	13.155
635.20	11.282
635.53	11.867
635.86	9.883
636.19	12.290
636.52	10.714
636.85	9.801
637.18	10.314
637.51	10.692
637.83	11.432
638.16	12.142
638.49	9.946
638.82	10.921
639.15	11.398
639.48	10.316
639.81	11.855
640.13	11.544
640.46	12.974
640.79	10.162
641.12	13.146
641.45	11.411
641.77	11.407
642.10	12.480
642.43	9.968
642.76	11.716
643.09	13.086
643.41	10.518
643.74	10.379
644.07	13.629
644.40	11.824
644.73	9.807
645.05	12.584
645.38	11.111
645.71	13.830
646.04	11.670
646.36	12.766
646.69	13.129
647.02	12.476
647.35	12.873
647.67	11.883
648.00	13.246
648.33	14.334
648.66	12.034
648.98	10.720
649.31	9.917
649.64	10.047
649.96	10.049
650.29	12.436
650.62	12.650
650.94	11.667
651.27	10.242
651.60	11.532
651.92	11.364
652.25	10.835
652.58	12.333
652.90	12.178
653.23	10.252
653.56	8.968
653.88	10.825
654.21	7.881
654.54	10.696
654.86	11.036
655.19	11.550
655.52	10.604
655.84	8.868
656.17	9.768
656.49	13.327
656.82	13.859
657.15	10.752
657.47	7.768
657.80	5.777
658.13	5.693
658.45	8.574
658.78	8.453
659.10	8.361
659.43	8.644
659.75	8.337
660.08	8.966
660.41	9.499
660.73	10.497
661.06	11.438
661.38	9.785
661.71	8.419
662.03	10.944
662.36	13.187
662.68	11.726
663.01	13.319
663.33	8.585
663.66	7.674
663.98	9.767
664.31	11.301
664.63	9.217
664.96	8.478
665.28	10.155
665.61	11.688
665.93	12.174
666.26	11.280
666.58	9.396
666.91	13.647
667.23	11.321
667.56	10.900
667.88	9.353
668.21	11.695
668.53	13.239
668.86	15.094
669.18	10.849
669.50	7.506
669.83	9.070
670.15	11.888
670.48	8.612
670.80	12.673
671.13	12.081
671.45	8.904
671.77	11.588
672.10	12.673
672.42	9.925
672.75	11.723
673.07	10.018
673.39	11.193
673.72	8.679
674.04	10.000
674.37	12.288
674.69	8.779
675.01	11.778
675.34	9.009
675.66	11.574
675.98	13.304
676.31	13.991
676.63	8.551
676.95	11.364
677.28	14.824
677.60	10.361
677.92	10.550
678.25	9.409
678.57	7.576
678.89	10.504
679.22	11.186
679.54	8.032
679.86	8.151
680.18	10.485
680.51	11.174
680.83	10.338
681.15	11.400
681.48	13.115
681.80	11.157
682.12	9.879
682.44	8.787
682.77	10.155
683.09	12.128
683.41	9.773
683.73	11.060
684.06	8.407
684.38	9.032
684.70	10.893
685.02	8.714
685.34	11.067
685.67	9.756
685.99	11.573
686.31	12.035
686.63	9.833
686.96	9.506
687.28	8.687
687.60	9.886
687.92	12.323
688.24	10.887
688.56	11.354
688.89	12.054
689.21	12.444
689.53	11.601
689.85	12.326
690.17	10.045
690.49	9.693
690.82	8.010
691.14	9.524
691.46	10.748
691.78	11.937
692.10	11.398
692.42	8.874
692.74	10.684
693.06	9.234
693.39	8.145
693.71	8.597
694.03	7.852
694.35	8.645
694.67	11.111
694.99	7.050
695.31	10.183
695.63	8.750
695.95	7.828
696.27	8.808
696.59	12.778
696.91	9.804
697.23	11.054
697.56	11.386
697.88	12.258
698.20	9.112
698.52	9.412
698.84	10.048
699.16	6.250
699.48	10.025
699.80	11.166
700.12	9.704
700.44	11.204
700.76	8.430
701.08	7.273
701.40	10.542
701.72	15.741
702.04	6.601
702.36	10.702
702.68	6.907
703.00	12.727
703.32	7.625
703.64	10.452
703.96	11.304
704.28	11.043
704.60	8.889
704.91	6.309
705.23	7.309
705.55	14.841
705.87	13.357
706.19	6.296
706.51	12.027
706.83	9.646
707.15	3.738
707.47	7.843
707.79	10.417
708.11	12.250
708.43	10.750
708.74	7.752
709.06	14.085
709.38	11.315
709.70	10.355
710.02	8.599
710.34	13.622
710.66	7.692
710.98	8.278
711.29	12.459
711.61	8.814
711.93	10.098
712.25	9.966
712.57	10.623
712.89	6.716
713.20	9.343
713.52	13.589
713.84	8.532
714.16	5.842
714.48	11.290
714.80	8.013
715.11	7.295
715.43	5.329
715.75	8.667
716.07	7.309
716.39	8.389
716.70	4.428
717.02	9.542
717.34	12.146
717.66	7.522
717.97	6.087
718.29	10.042
718.61	14.567
718.93	12.791
719.24	8.365
719.56	10.040
719.88	9.622
720.20	11.364
720.51	7.280
720.83	8.494
721.15	9.664
721.46	8.065
721.78	6.324
722.10	10.037
722.42	6.639
722.73	6.939
723.05	12.653
723.37	11.441
723.68	11.712
724.00	8.120
724.32	6.222
724.63	7.727
724.95	8.734
725.27	10.138
725.58	11.017
725.90	4.365
726.22	10.425
726.53	14.915
726.85	7.491
727.16	12.453
727.48	2.834
727.80	16.194
728.11	10.169
728.43	10.980
728.74	1.210
729.06	8.400
729.38	16.917
729.69	4.781
730.01	9.615
730.32	14.925
730.64	13.428
730.96	10.189
731.27	8.333
731.59	9.492
731.90	9.554
732.22	12.934
732.53	15.282
732.85	8.865
733.16	17.172
733.48	4.317
733.80	11.594
734.11	9.153
734.43	7.216
734.74	8.788
735.06	5.212
735.37	11.178
735.69	10.774
736.00	9.059
736.32	9.060
736.63	9.507
736.95	9.898
737.26	9.253
737.58	9.732
737.89	9.158
738.21	7.519
738.52	9.053
738.83	6.550
739.15	8.297
739.46	7.874
739.78	8.059
740.09	13.072
740.41	9.420
740.72	7.480
741.04	10.931
741.35	8.936
741.66	8.057
741.98	7.653
742.29	8.416
742.61	8.377
742.92	2.370
743.23	6.019
743.55	9.502
743.86	9.569
744.18	11.005
744.49	8.511
744.80	11.413
745.12	10.160
745.43	4.878
745.74	13.021
746.06	14.146
746.37	6.806
746.68	9.005
747.00	2.660
747.31	13.433
747.62	6.796
747.94	9.569
748.25	5.446
748.56	2.186
748.88	12.565
749.19	9.043
749.50	6.897
749.82	4.717
750.13	5.963
750.44	15.414
750.75	11.940
751.07	13.869
751.38	9.195
751.69	8.627
752.01	13.178
752.32	13.147
752.63	7.510
752.94	10.345
753.26	14.226
753.57	5.430
753.88	6.195
754.19	3.333
754.51	5.372
754.82	5.668
755.13	15.000
755.44	9.677
755.75	14.062
756.07	7.393
756.38	7.170
756.69	6.897
757.00	9.667
757.31	7.190
757.63	7.927
757.94	10.833
758.25	7.397
758.56	6.915
758.87	6.799
759.18	8.100
759.50	10.545
759.81	11.371
760.12	10.000
760.43	8.182
760.74	7.716
761.05	9.846
761.36	9.943
761.67	11.212
761.99	8.844
762.30	8.000
762.61	7.905
762.92	10.860
763.23	3.604
763.54	6.075
763.85	8.051
764.16	9.129
764.47	6.452
764.78	12.821
765.10	15.488
765.41	5.678
765.72	10.794
766.03	7.519
766.34	8.394
766.65	13.546
766.96	5.051
767.27	8.511
767.58	4.598
767.89	1.418
768.20	13.636
768.51	7.143
768.82	10.345
769.13	2.765
769.44	6.867
769.75	8.219
770.06	9.483
770.37	8.654
770.68	8.629
770.99	4.072
771.30	9.804
771.61	7.240
771.92	11.207
772.23	13.300
772.54	9.140
772.85	11.111
773.16	13.483
773.47	13.072
773.78	14.379
774.09	13.174
774.39	2.000
774.70	12.739
775.01	14.483
775.32	8.571
775.63	4.132
775.94	3.817
776.25	3.150
776.56	3.333
776.87	4.808
777.18	5.128
777.48	6.897
777.79	8.696
778.10	-4.762
778.41	-3.604
778.72	15.873
779.03	9.023
779.34	12.057
779.65	10.959
779.95	10.274
780.26	7.586
780.57	4.878
780.88	2.362
781.19	6.034
781.50	6.977
781.80	13.609
782.11	5.031
782.42	2.308
782.73	2.878
783.04	8.889
783.34	9.028
783.65	-5.128
783.96	0.820
784.27	11.724
784.57	13.008
784.88	2.344
785.19	9.000
785.50	12.000
785.81	12.069
786.11	2.586
786.42	-0.971
786.73	14.545
787.04	5.102
787.34	8.929
787.65	4.762
787.96	4.425
788.26	3.636
788.57	5.128
788.88	15.625
789.19	1.587
789.49	0.870
789.80	4.082
790.11	3.030
790.41	4.545
790.72	20.652
791.03	2.273
791.33	2.500
791.64	-2.500
791.95	6.977
792.25	18.085
792.56	15.730
792.87	-10.959
793.17	4.348
793.48	-9.333
793.79	7.500
794.09	3.750
794.40	9.434
794.70	2.913
795.01	1.626
795.32	8.547
795.62	1.905
795.93	0.000
796.23	11.321
796.54	18.750
796.85	8.824
797.15	14.085
797.46	1.389
797.76	12.121
798.07	13.953
798.37	-2.632
798.68	-16.667
798.99	-4.938
799.29	7.143
799.60	4.348
799.90	0.000
800.21	16.393
800.51	0.000
800.82	6.780
801.12	2.899
801.43	4.918
801.73	7.937
802.04	10.000
802.34	-10.448
802.65	15.385
802.95	5.357
803.26	3.846
803.56	-7.843
803.87	-6.522
804.17	-8.000
804.48	9.524
804.78	3.704
805.09	-17.391
805.39	-11.111
805.70	1.852
806.00	-26.316
806.30	15.493
806.61	15.714
806.91	-11.111
807.22	2.632
807.52	2.667
807.83	14.545
808.13	4.167
808.43	8.824
808.74	10.448
809.04	-3.390
809.35	-13.462
809.65	12.500
809.95	-67.568
810.26	-18.182
810.56	4.110
810.86	-21.429
811.17	-10.000
811.47	4.082
811.77	-21.053
812.08	-13.636
812.38	9.434
812.69	-7.500
812.99	-21.212
813.29	-2.632
813.59	-51.429
813.90	-6.818
814.20	-38.462
814.50	3.846
814.81	0.000
815.11	-6.383
815.41	8.475
815.72	-11.905
816.02	33.333
816.32	-8.333
816.62	-14.634
816.93	8.108
817.23	-28.571
817.53	-10.417
817.84	13.043
818.14	0.000
818.44	-5.263
818.74	23.913
819.04	-37.500
819.35	-2.703
819.65	26.471
819.95	-16.667
820.25	16.667
820.56	12.500
820.86	-72.414
821.16	25.000
821.46	-2.128
821.76	-12.500
822.07	18.605
822.37	-16.216
822.67	-21.875
822.97	14.286
823.27	-42.857
823.57	-28.000
823.88	-55.556
824.18	17.857
824.48	-5.882
824.78	-3.226
825.08	-26.087
825.38	9.091
825.69	-25.000
825.99	36.842
826.29	-11.111
826.59	-20.000
826.89	-61.905
827.19	17.391
827.49	-15.000
827.79	-14.286
828.09	10.714
828.39	12.121
828.70	8.108
829.00	-28.571
829.30	-33.333
829.60	-6.667
829.90	-3.125
830.20	31.579
830.50	-44.444
830.80	17.391
831.10	0.000
831.40	3.030
831.70	6.452
832.00	19.048
832.30	-57.143
832.60	-100.000
832.90	-17.241
833.20	-40.000
833.50	18.182
833.80	-25.926
834.10	11.538
834.40	6.250
834.70	-111.111
835.00	-15.789
835.30	11.538
835.60	-40.000
835.90	0.000
836.20	-22.727
836.50	39.286
836.80	-30.769
837.10	-3.571
837.40	-466.667
837.70	22.727
838.00	-127.273
838.30	-52.174
838.60	-23.077
838.90	4.545
839.19	0.000
839.49	43.333
839.79	-46.154
840.09	-75.000
840.39	57.143
840.69	0.000
840.99	-19.231
841.29	-68.421
841.59	-120.000
841.88	-54.545
842.18	50.000
842.48	-62.500
842.78	-13.333
843.08	3.704
843.38	-180.000
843.68	26.087
843.97	6.667
844.27	-53.333
844.57	-25.000
844.87	-27.778
845.17	52.381
845.47	20.000
845.76	0.000
846.06	-17.647
846.36	-80.000
846.66	-85.714
846.96	13.333
847.25	-162.500
847.55	14.286
847.85	-50.000
848.15	-9.091
848.44	-666.667
848.74	-40.000
849.04	70.370
849.34	-72.727
849.63	-83.333
849.93	-280.000
850.23	-44.444
850.53	80.000
850.82	-92.308
851.12	-88.889
851.42	0.000
851.71	30.769
852.01	-14.286
852.31	-150.000
852.61	-54.545
852.90	-15.000
853.20	-21.053
853.50	-100.000
853.79	13.043
854.09	16.667
854.39	-21.053
854.68	16.667
854.98	38.710
855.28	15.385
855.57	-35.000
855.87	-44.444
856.17	22.222
856.46	7.143
856.76	-53.333
857.05	188.889
857.35	-48.000
857.65	-5.556
857.94	-46.154
858.24	13.793
858.53	61.111
858.83	3.704
859.13	4.545
859.42	8.696
859.72	0.000
860.01	-266.667
860.31	20.000
860.60	33.333
860.90	-66.667
861.20	-106.667
861.49	-900.000
861.79	-40.000
862.08	15.000
862.38	40.000
862.67	-140.000
862.97	-100.000
863.26	-75.000
863.56	44.444
863.85	-233.333
864.15	27.778
864.44	-30.000
864.74	14.286
865.03	175.000
865.33	-140.000
865.62	-166.667
865.92	-100.000
866.21	-266.667
866.51	6.250
866.80	-100.000
867.10	-300.000
867.39	91.667
867.69	0.000
867.98	0.000
868.27	-333.333
868.57	-26.667
868.86	27.778
869.16	-46.154
869.45	-26.667
869.75	-500.000
870.04	0.000
870.33	-157.143
870.63	-19.048
870.92	600.000
871.22	-40.000
871.51	-1100.000
871.80	22.222
872.10	333.333
>>>>>End Processed Spectral Data<<<<<
