SpectraSuite Data File
++++++++++++++++++++++++++++++++++++
Date: Fri May 15 21:07:46 PDT 2015
User: schluterlab
Dark Spectrum Present: Yes
Reference Spectrum Present: Yes
Number of Sampled Component Spectra: 1
Spectrometers: USB2E3373
Integration Time (usec): 3000 (USB2E3373)
Spectra Averaged: 3 (USB2E3373)
Boxcar Smoothing: 0 (USB2E3373)
Correct for Electrical Dark: No (USB2E3373)
Strobe/Lamp Enabled: No (USB2E3373)
Correct for Detector Non-linearity: No (USB2E3373)
Correct for Stray Light: No (USB2E3373)
Number of Pixels in Processed Spectrum: 2048
>>>>>Begin Processed Spectral Data<<<<<
178.53	0.000
178.91	0.000
179.29	12.500
179.67	-500.000
180.04	242.857
180.42	100.000
180.80	-1100.000
181.18	66.667
181.56	750.000
181.94	-50.000
182.31	400.000
182.69	-60.000
183.07	300.000
183.45	-80.000
183.83	233.333
184.20	0.000
184.58	88.889
184.96	75.000
185.34	66.667
185.72	-750.000
186.09	76.923
186.47	-300.000
186.85	200.000
187.23	33.333
187.61	200.000
187.98	-666.667
188.36	-44.444
188.74	33.333
189.12	35.294
189.49	33.333
189.87	0.000
190.25	-21.429
190.63	-350.000
191.00	-300.000
191.38	-15.789
191.76	150.000
192.14	400.000
192.51	450.000
192.89	-133.333
193.27	157.143
193.65	116.667
194.02	109.091
194.40	10.000
194.78	-175.000
195.15	50.000
195.53	-50.000
195.91	325.000
196.29	25.000
196.66	146.154
197.04	114.286
197.42	-33.333
197.79	-533.333
198.17	-61.538
198.55	2300.000
198.92	-100.000
199.30	-900.000
199.68	-60.000
200.05	33.333
200.43	0.000
200.81	-66.667
201.18	0.000
201.56	1600.000
201.94	-450.000
202.31	100.000
202.69	-120.000
203.07	300.000
203.44	-400.000
203.82	0.000
204.19	-7.143
204.57	-466.667
204.95	100.000
205.32	50.000
205.70	0.000
206.08	100.000
206.45	55.556
206.83	42.857
207.20	-42.857
207.58	800.000
207.96	-466.667
208.33	-50.000
208.71	-275.000
209.08	-133.333
209.46	-800.000
209.84	-220.000
210.21	-1000.000
210.59	57.143
210.96	-133.333
211.34	-150.000
211.71	0.000
212.09	-114.286
212.46	-900.000
212.84	0.000
213.22	70.000
213.59	800.000
213.97	30.769
214.34	36.364
214.72	83.333
215.09	75.000
215.47	-23.077
215.84	-27.273
216.22	-600.000
216.59	-100.000
216.97	100.000
217.34	0.000
217.72	-120.000
218.09	-12.500
218.47	187.500
218.84	-600.000
219.22	-88.889
219.59	-180.000
219.97	533.333
220.34	400.000
220.72	-57.143
221.09	-275.000
221.47	150.000
221.84	-650.000
222.22	-800.000
222.59	18.182
222.97	25.000
223.34	-366.667
223.72	-28.571
224.09	9.524
224.46	28.571
224.84	33.333
225.21	10.000
225.59	46.667
225.96	-250.000
226.34	525.000
226.71	-57.143
227.08	33.333
227.46	0.000
227.83	-100.000
228.21	88.889
228.58	54.545
228.95	-100.000
229.33	70.000
229.70	-31.250
230.08	-112.500
230.45	0.000
230.82	-42.857
231.20	0.000
231.57	-14.286
231.95	-28.571
232.32	-30.000
232.69	7.143
233.07	-266.667
233.44	-140.000
233.81	-120.000
234.19	-44.444
234.56	11.765
234.93	200.000
235.31	125.000
235.68	-280.000
236.05	-69.231
236.43	-45.000
236.80	-29.412
237.17	-12.500
237.55	-25.000
237.92	-11.111
238.29	-5.556
238.67	3.333
239.04	0.000
239.41	-17.073
239.79	-30.000
240.16	9.756
240.53	-7.895
240.91	-28.261
241.28	4.762
241.65	10.714
242.02	4.110
242.40	6.667
242.77	-3.390
243.14	9.091
243.51	8.750
243.89	25.287
244.26	10.345
244.63	5.952
245.00	9.278
245.38	18.557
245.75	-3.371
246.12	1.724
246.49	12.397
246.87	15.385
247.24	2.521
247.61	-1.754
247.98	8.130
248.36	11.250
248.73	9.211
249.10	9.740
249.47	6.329
249.84	4.575
250.22	11.176
250.59	10.458
250.96	15.962
251.33	2.326
251.70	12.941
252.08	10.660
252.45	13.861
252.82	13.568
253.19	14.286
253.56	7.009
253.94	14.865
254.31	13.478
254.68	11.404
255.05	10.236
255.42	13.974
255.79	7.336
256.16	13.619
256.54	8.582
256.91	14.068
257.28	10.409
257.65	10.861
258.02	8.865
258.39	16.498
258.76	12.821
259.14	12.292
259.51	11.327
259.88	12.027
260.25	7.843
260.62	12.153
260.99	3.390
261.36	6.849
261.73	9.177
262.10	11.854
262.47	11.350
262.85	7.524
263.22	9.846
263.59	11.215
263.96	11.491
264.33	12.727
264.70	10.714
265.07	7.738
265.44	11.898
265.81	14.407
266.18	12.842
266.55	13.625
266.92	13.212
267.29	10.966
267.66	12.788
268.03	10.471
268.40	11.227
268.77	13.369
269.14	12.950
269.51	12.596
269.88	10.474
270.25	8.163
270.62	10.976
270.99	6.905
271.36	10.513
271.73	10.329
272.10	9.246
272.47	12.530
272.84	10.644
273.21	13.225
273.58	11.084
273.95	12.815
274.32	8.545
274.69	9.729
275.06	10.491
275.43	13.152
275.80	10.817
276.17	9.425
276.54	10.064
276.91	9.868
277.28	9.170
277.65	11.570
278.02	11.915
278.39	9.409
278.76	12.579
279.13	9.544
279.50	12.395
279.87	10.583
280.23	8.172
280.60	15.205
280.97	9.899
281.34	9.038
281.71	13.963
282.08	11.452
282.45	9.785
282.82	10.039
283.19	10.638
283.56	13.102
283.92	8.729
284.29	10.577
284.66	9.690
285.03	9.234
285.40	11.342
285.77	9.490
286.14	10.830
286.51	11.808
286.87	9.324
287.24	10.313
287.61	10.053
287.98	12.456
288.35	11.785
288.72	9.807
289.08	10.069
289.45	9.315
289.82	11.713
290.19	10.410
290.56	10.292
290.93	9.091
291.29	9.091
291.66	11.339
292.03	9.729
292.40	9.194
292.77	7.496
293.13	8.442
293.50	8.042
293.87	7.939
294.24	10.046
294.60	8.346
294.97	9.524
295.34	9.202
295.71	8.942
296.08	9.417
296.44	7.112
296.81	9.583
297.18	9.420
297.55	10.298
297.91	10.959
298.28	10.950
298.65	7.327
299.02	9.030
299.38	8.208
299.75	8.690
300.12	8.901
300.48	8.959
300.85	8.999
301.22	8.961
301.59	8.158
301.95	8.608
302.32	10.117
302.69	9.577
303.05	9.406
303.42	8.966
303.79	10.280
304.15	9.797
304.52	8.323
304.89	8.304
305.25	8.111
305.62	8.868
305.99	7.953
306.35	8.324
306.72	7.199
307.09	8.552
307.45	9.185
307.82	8.449
308.19	10.453
308.55	8.397
308.92	10.784
309.29	9.050
309.65	9.473
310.02	10.011
310.38	10.977
310.75	9.727
311.12	9.688
311.48	10.392
311.85	10.785
312.22	9.705
312.58	10.722
312.95	8.965
313.31	9.627
313.68	10.471
314.05	11.939
314.41	11.031
314.78	10.206
315.14	12.230
315.51	12.112
315.87	11.885
316.24	13.650
316.61	13.780
316.97	13.690
317.34	13.672
317.70	14.149
318.07	14.327
318.43	15.882
318.80	14.394
319.16	15.625
319.53	16.429
319.89	15.945
320.26	17.915
320.62	17.553
320.99	17.745
321.35	18.088
321.72	19.107
322.08	19.436
322.45	21.523
322.81	20.138
323.18	19.921
323.54	21.718
323.91	21.616
324.27	23.535
324.64	24.438
325.00	24.726
325.37	25.620
325.73	25.748
326.10	27.793
326.46	27.803
326.83	27.034
327.19	27.463
327.56	29.192
327.92	29.665
328.29	29.107
328.65	30.849
329.01	30.882
329.38	31.244
329.74	30.784
330.11	31.603
330.47	31.354
330.84	33.558
331.20	33.080
331.56	32.130
331.93	33.607
332.29	34.647
332.66	34.751
333.02	34.851
333.38	34.555
333.75	34.799
334.11	33.930
334.48	35.993
334.84	35.348
335.20	35.590
335.57	33.908
335.93	35.953
336.29	35.727
336.66	36.149
337.02	35.502
337.38	34.352
337.75	36.545
338.11	36.700
338.47	37.044
338.84	36.784
339.20	36.563
339.56	36.514
339.93	36.705
340.29	37.248
340.65	36.918
341.02	36.082
341.38	36.637
341.74	36.131
342.11	35.269
342.47	36.744
342.83	37.543
343.20	36.498
343.56	37.652
343.92	38.264
344.28	37.233
344.65	37.392
345.01	36.041
345.37	36.585
345.73	37.657
346.10	36.670
346.46	36.922
346.82	35.761
347.19	36.492
347.55	35.840
347.91	36.570
348.27	36.055
348.63	36.627
349.00	36.013
349.36	36.741
349.72	37.396
350.08	36.475
350.45	35.754
350.81	36.877
351.17	35.668
351.53	37.143
351.89	34.600
352.26	35.440
352.62	35.968
352.98	35.020
353.34	35.346
353.70	36.003
354.07	35.726
354.43	35.468
354.79	35.673
355.15	36.190
355.51	36.788
355.87	35.518
356.24	34.502
356.60	35.166
356.96	36.111
357.32	36.262
357.68	35.731
358.04	35.460
358.40	34.807
358.77	35.726
359.13	35.548
359.49	33.590
359.85	35.959
360.21	35.008
360.57	35.042
360.93	34.342
361.29	33.837
361.66	33.934
362.02	35.152
362.38	35.339
362.74	34.595
363.10	34.763
363.46	35.063
363.82	35.312
364.18	33.875
364.54	35.074
364.90	33.907
365.26	33.916
365.62	35.474
365.98	34.164
366.35	35.470
366.71	35.551
367.07	34.615
367.43	34.651
367.79	34.982
368.15	33.740
368.51	33.722
368.87	34.171
369.23	32.996
369.59	35.350
369.95	35.484
370.31	34.610
370.67	34.403
371.03	33.458
371.39	32.969
371.75	34.359
372.11	33.096
372.47	33.876
372.83	33.996
373.19	33.951
373.55	32.708
373.91	33.621
374.27	33.168
374.63	34.243
374.99	33.617
375.35	33.635
375.71	33.846
376.07	33.708
376.42	33.537
376.78	33.893
377.14	33.717
377.50	33.798
377.86	33.735
378.22	32.738
378.58	33.462
378.94	33.144
379.30	32.314
379.66	33.668
380.02	32.189
380.38	32.562
380.74	32.316
381.09	33.129
381.45	32.232
381.81	32.881
382.17	33.312
382.53	32.105
382.89	32.894
383.25	33.727
383.61	33.963
383.97	32.190
384.32	33.208
384.68	33.065
385.04	32.353
385.40	31.736
385.76	33.459
386.12	32.794
386.48	32.886
386.83	32.530
387.19	32.723
387.55	33.563
387.91	32.702
388.27	32.051
388.62	31.970
388.98	31.614
389.34	32.105
389.70	32.629
390.06	31.403
390.42	32.060
390.77	32.112
391.13	31.778
391.49	31.630
391.85	31.644
392.20	32.392
392.56	31.723
392.92	31.591
393.28	32.075
393.64	31.111
393.99	32.727
394.35	30.550
394.71	31.609
395.07	31.364
395.42	31.269
395.78	31.466
396.14	31.148
396.50	31.008
396.85	31.101
397.21	32.206
397.57	30.345
397.92	31.096
398.28	30.747
398.64	29.096
399.00	30.361
399.35	29.628
399.71	30.155
400.07	29.927
400.42	29.559
400.78	30.863
401.14	30.067
401.49	29.720
401.85	29.677
402.21	30.000
402.57	30.750
402.92	29.611
403.28	30.451
403.63	30.832
403.99	28.954
404.35	29.919
404.70	29.226
405.06	28.613
405.42	29.086
405.77	28.356
406.13	29.104
406.49	29.426
406.84	29.156
407.20	29.500
407.55	28.976
407.91	28.075
408.27	28.171
408.62	29.108
408.98	28.281
409.34	28.686
409.69	28.424
410.05	28.017
410.40	28.765
410.76	27.805
411.11	28.875
411.47	28.008
411.83	28.123
412.18	28.507
412.54	27.840
412.89	26.847
413.25	27.316
413.60	27.205
413.96	27.055
414.31	27.683
414.67	26.684
415.03	27.297
415.38	26.893
415.74	27.622
416.09	28.413
416.45	26.266
416.80	27.098
417.16	27.003
417.51	26.982
417.87	26.988
418.22	27.526
418.58	27.224
418.93	25.893
419.29	25.736
419.64	26.248
420.00	26.763
420.35	25.552
420.71	26.610
421.06	26.765
421.42	26.502
421.77	26.069
422.12	25.936
422.48	26.909
422.83	25.638
423.19	25.282
423.54	25.985
423.90	24.912
424.25	26.406
424.61	26.561
424.96	25.261
425.31	26.574
425.67	25.998
426.02	27.032
426.38	25.861
426.73	26.271
427.09	25.443
427.44	25.059
427.79	25.221
428.15	26.456
428.50	25.197
428.85	25.307
429.21	25.297
429.56	25.121
429.92	25.475
430.27	24.311
430.62	24.307
430.98	24.894
431.33	24.869
431.68	24.437
432.04	24.539
432.39	23.959
432.74	23.692
433.10	25.172
433.45	24.253
433.80	25.247
434.16	24.543
434.51	24.570
434.86	23.287
435.22	24.958
435.57	24.579
435.92	24.970
436.28	24.091
436.63	23.446
436.98	23.696
437.34	23.714
437.69	24.210
438.04	24.103
438.39	24.252
438.75	24.590
439.10	23.656
439.45	24.528
439.81	23.976
440.16	24.762
440.51	23.642
440.86	24.713
441.22	23.982
441.57	24.283
441.92	23.924
442.27	23.780
442.63	24.251
442.98	24.928
443.33	23.261
443.68	23.395
444.03	23.547
444.39	23.217
444.74	24.192
445.09	23.719
445.44	23.362
445.79	23.775
446.15	24.064
446.50	23.184
446.85	24.336
447.20	23.462
447.55	23.940
447.91	23.407
448.26	23.620
448.61	23.374
448.96	24.154
449.31	23.699
449.66	23.519
450.02	24.016
450.37	22.881
450.72	22.738
451.07	24.304
451.42	22.472
451.77	24.051
452.12	22.847
452.47	22.279
452.83	22.909
453.18	23.023
453.53	23.578
453.88	22.101
454.23	23.417
454.58	23.866
454.93	24.291
455.28	22.032
455.63	22.567
455.98	22.850
456.34	22.031
456.69	23.380
457.04	23.566
457.39	22.600
457.74	22.491
458.09	22.602
458.44	22.586
458.79	22.969
459.14	23.398
459.49	22.507
459.84	22.561
460.19	22.998
460.54	22.983
460.89	22.557
461.24	22.919
461.59	22.506
461.94	21.887
462.29	23.040
462.64	23.389
462.99	23.223
463.34	22.114
463.69	22.458
464.04	22.942
464.39	22.195
464.74	22.025
465.09	23.331
465.44	22.908
465.79	21.202
466.14	22.235
466.49	22.657
466.84	22.011
467.19	22.153
467.54	21.520
467.89	21.605
468.24	22.019
468.59	22.667
468.94	22.476
469.29	22.820
469.64	21.805
469.99	22.355
470.34	21.911
470.68	22.670
471.03	22.718
471.38	22.040
471.73	22.409
472.08	22.592
472.43	21.879
472.78	21.522
473.13	22.449
473.48	22.410
473.83	21.606
474.17	21.632
474.52	21.315
474.87	22.242
475.22	22.575
475.57	22.247
475.92	22.052
476.27	22.526
476.61	22.396
476.96	21.584
477.31	22.769
477.66	22.022
478.01	20.887
478.36	21.460
478.70	21.479
479.05	22.692
479.40	22.364
479.75	22.211
480.10	21.710
480.45	21.800
480.79	22.608
481.14	21.773
481.49	21.626
481.84	21.380
482.19	21.048
482.53	21.679
482.88	21.671
483.23	21.929
483.58	22.075
483.92	21.104
484.27	20.966
484.62	21.381
484.97	21.269
485.31	20.267
485.66	19.882
486.01	19.760
486.36	19.930
486.70	20.144
487.05	20.482
487.40	20.424
487.75	20.676
488.09	20.365
488.44	20.702
488.79	21.031
489.13	20.473
489.48	21.035
489.83	21.166
490.17	21.933
490.52	21.478
490.87	21.610
491.22	21.968
491.56	21.442
491.91	21.319
492.26	21.779
492.60	21.545
492.95	21.938
493.30	21.348
493.64	20.825
493.99	21.208
494.34	21.359
494.68	21.524
495.03	20.730
495.37	21.786
495.72	21.605
496.07	21.951
496.41	21.557
496.76	20.958
497.11	21.099
497.45	21.241
497.80	21.796
498.14	21.461
498.49	21.229
498.84	21.956
499.18	21.185
499.53	21.181
499.87	21.255
500.22	20.969
500.56	21.180
500.91	21.135
501.26	20.910
501.60	20.512
501.95	21.300
502.29	21.017
502.64	21.959
502.98	21.263
503.33	20.893
503.67	21.060
504.02	21.505
504.36	21.821
504.71	21.212
505.06	21.087
505.40	20.558
505.75	21.804
506.09	21.541
506.44	21.355
506.78	21.888
507.13	21.044
507.47	20.418
507.82	21.902
508.16	21.130
508.51	21.406
508.85	20.931
509.19	20.756
509.54	21.233
509.88	20.820
510.23	21.947
510.57	21.432
510.92	20.362
511.26	22.259
511.61	21.452
511.95	21.534
512.30	21.341
512.64	21.870
512.98	20.663
513.33	22.328
513.67	21.205
514.02	23.227
514.36	22.229
514.70	21.737
515.05	21.680
515.39	22.609
515.74	21.916
516.08	21.160
516.42	22.026
516.77	21.943
517.11	21.958
517.46	21.305
517.80	22.169
518.14	22.045
518.49	21.514
518.83	21.932
519.17	20.800
519.52	21.551
519.86	21.248
520.20	21.567
520.55	21.201
520.89	22.083
521.23	21.659
521.58	23.281
521.92	22.628
522.26	21.796
522.61	22.078
522.95	22.384
523.29	22.109
523.64	21.537
523.98	22.942
524.32	21.972
524.66	22.023
525.01	22.857
525.35	23.137
525.69	21.616
526.04	21.296
526.38	23.217
526.72	21.387
527.06	21.141
527.41	21.702
527.75	21.850
528.09	21.262
528.43	23.700
528.78	21.518
529.12	21.097
529.46	21.962
529.80	21.596
530.15	22.838
530.49	21.481
530.83	22.161
531.17	21.424
531.51	23.119
531.86	21.822
532.20	21.642
532.54	21.988
532.88	21.903
533.22	21.774
533.57	22.215
533.91	21.475
534.25	22.721
534.59	21.039
534.93	20.768
535.27	20.685
535.62	21.517
535.96	22.831
536.30	22.493
536.64	21.502
536.98	21.603
537.32	21.337
537.66	22.020
538.01	21.818
538.35	21.637
538.69	21.172
539.03	20.848
539.37	21.534
539.71	21.200
540.05	21.792
540.39	22.022
540.73	21.409
541.07	21.409
541.42	21.841
541.76	22.023
542.10	21.679
542.44	21.404
542.78	20.853
543.12	20.879
543.46	22.392
543.80	21.513
544.14	20.761
544.48	20.786
544.82	20.232
545.16	21.653
545.50	22.296
545.84	21.530
546.18	22.270
546.52	20.981
546.86	21.567
547.20	21.745
547.54	20.989
547.88	21.399
548.22	19.658
548.56	20.646
548.90	21.833
549.24	20.592
549.58	20.663
549.92	21.015
550.26	21.026
550.60	20.892
550.94	21.583
551.28	21.947
551.62	21.615
551.96	21.729
552.30	20.906
552.64	21.509
552.98	21.238
553.32	21.327
553.66	20.827
554.00	22.190
554.34	20.975
554.68	20.944
555.02	23.438
555.36	21.765
555.69	21.319
556.03	20.842
556.37	20.427
556.71	21.805
557.05	20.955
557.39	20.149
557.73	21.589
558.07	21.644
558.41	21.057
558.75	20.966
559.08	21.277
559.42	21.667
559.76	21.617
560.10	20.642
560.44	22.264
560.78	21.049
561.12	20.663
561.45	21.152
561.79	21.989
562.13	20.795
562.47	20.863
562.81	21.182
563.15	20.945
563.48	21.711
563.82	21.277
564.16	20.474
564.50	21.081
564.84	21.620
565.17	20.121
565.51	21.311
565.85	21.193
566.19	20.756
566.52	20.777
566.86	21.272
567.20	19.738
567.54	20.195
567.88	20.269
568.21	20.192
568.55	20.272
568.89	19.815
569.23	19.259
569.56	18.739
569.90	18.839
570.24	18.980
570.57	18.909
570.91	18.926
571.25	18.185
571.59	17.907
571.92	18.193
572.26	17.754
572.60	17.829
572.93	18.199
573.27	18.119
573.61	17.840
573.95	18.351
574.28	17.850
574.62	17.544
574.96	17.726
575.29	17.971
575.63	17.440
575.97	17.186
576.30	17.796
576.64	17.510
576.98	18.198
577.31	17.990
577.65	17.798
577.98	17.921
578.32	16.997
578.66	17.021
578.99	17.431
579.33	17.387
579.67	17.764
580.00	17.114
580.34	17.687
580.67	17.804
581.01	17.723
581.35	17.550
581.68	17.300
582.02	16.994
582.35	17.010
582.69	17.257
583.02	17.176
583.36	17.483
583.70	18.120
584.03	18.126
584.37	18.238
584.70	17.857
585.04	17.358
585.37	17.543
585.71	17.403
586.04	17.448
586.38	17.151
586.72	17.819
587.05	18.053
587.39	18.423
587.72	18.261
588.06	17.603
588.39	18.058
588.73	17.979
589.06	18.102
589.40	18.113
589.73	18.620
590.07	18.240
590.40	18.266
590.73	18.781
591.07	18.660
591.40	18.566
591.74	18.778
592.07	18.924
592.41	19.037
592.74	18.359
593.08	17.534
593.41	17.891
593.75	18.090
594.08	17.920
594.41	18.668
594.75	17.824
595.08	17.783
595.42	18.145
595.75	18.513
596.09	18.491
596.42	18.520
596.75	18.917
597.09	19.043
597.42	18.654
597.75	18.140
598.09	18.425
598.42	17.870
598.76	17.975
599.09	18.069
599.42	17.582
599.76	17.720
600.09	17.308
600.42	17.475
600.76	17.162
601.09	17.443
601.42	17.078
601.76	18.142
602.09	18.028
602.42	18.703
602.76	18.166
603.09	18.522
603.42	18.855
603.76	17.419
604.09	18.023
604.42	18.232
604.76	18.158
605.09	18.967
605.42	18.555
605.75	18.433
606.09	17.452
606.42	17.765
606.75	18.528
607.09	18.330
607.42	17.988
607.75	18.339
608.08	17.520
608.42	18.045
608.75	18.795
609.08	18.485
609.41	18.223
609.75	18.196
610.08	18.173
610.41	17.440
610.74	18.235
611.07	18.243
611.41	18.526
611.74	18.657
612.07	18.683
612.40	19.256
612.73	19.040
613.07	18.166
613.40	19.201
613.73	18.802
614.06	18.531
614.39	18.669
614.72	18.095
615.06	18.380
615.39	17.849
615.72	18.245
616.05	18.156
616.38	18.462
616.71	18.960
617.05	19.148
617.38	19.233
617.71	18.553
618.04	19.238
618.37	20.555
618.70	19.274
619.03	20.278
619.36	18.813
619.69	19.939
620.03	20.161
620.36	20.243
620.69	19.415
621.02	19.725
621.35	19.585
621.68	20.068
622.01	19.833
622.34	21.229
622.67	20.189
623.00	20.368
623.33	20.732
623.66	19.297
623.99	20.499
624.32	19.316
624.65	18.872
624.99	19.865
625.32	18.726
625.65	20.974
625.98	20.306
626.31	19.202
626.64	19.757
626.97	22.077
627.30	21.366
627.63	20.537
627.96	22.102
628.29	19.889
628.62	21.337
628.95	20.541
629.28	20.665
629.61	19.940
629.94	21.896
630.26	20.356
630.59	21.540
630.92	20.821
631.25	21.846
631.58	22.907
631.91	21.053
632.24	21.216
632.57	22.159
632.90	21.471
633.23	22.235
633.56	22.040
633.89	21.455
634.22	22.593
634.55	22.363
634.88	22.733
635.20	22.692
635.53	20.800
635.86	21.066
636.19	21.475
636.52	19.770
636.85	21.092
637.18	20.377
637.51	22.642
637.83	22.602
638.16	23.056
638.49	21.390
638.82	22.105
639.15	21.981
639.48	23.659
639.81	22.594
640.13	21.934
640.46	22.303
640.79	21.355
641.12	20.827
641.45	24.324
641.77	22.667
642.10	26.066
642.43	22.508
642.76	23.102
643.09	24.233
643.41	21.197
643.74	23.394
644.07	22.989
644.40	23.818
644.73	24.168
645.05	23.993
645.38	22.399
645.71	22.340
646.04	24.596
646.36	24.113
646.69	25.719
647.02	24.197
647.35	25.373
647.67	21.572
648.00	24.813
648.33	21.502
648.66	24.237
648.98	22.278
649.31	19.835
649.64	21.664
649.96	21.232
650.29	22.147
650.62	23.419
650.94	22.778
651.27	23.464
651.60	22.703
651.92	24.825
652.25	22.025
652.58	25.000
652.90	25.901
653.23	22.521
653.56	22.504
653.88	21.478
654.21	20.490
654.54	23.090
654.86	22.750
655.19	20.175
655.52	20.356
655.84	16.520
656.17	17.789
656.49	23.815
656.82	24.540
657.15	18.736
657.47	14.053
657.80	10.446
658.13	10.562
658.45	15.994
658.78	16.628
659.10	16.667
659.43	17.107
659.75	17.366
660.08	18.000
660.41	18.795
660.73	21.133
661.06	22.704
661.38	21.331
661.71	21.561
662.03	24.249
662.36	23.956
662.68	24.336
663.01	23.144
663.33	22.274
663.66	23.023
663.98	24.651
664.31	24.947
664.63	21.659
664.96	21.087
665.28	21.854
665.61	25.758
665.93	23.478
666.26	25.163
666.58	20.582
666.91	24.000
667.23	23.821
667.56	26.066
667.88	22.542
668.21	24.821
668.53	25.532
668.86	25.236
669.18	22.642
669.50	24.213
669.83	22.558
670.15	21.678
670.48	21.292
670.80	24.424
671.13	24.609
671.45	20.091
671.77	23.176
672.10	23.168
672.42	20.037
672.75	21.847
673.07	23.256
673.39	21.468
673.72	20.513
674.04	21.875
674.37	22.246
674.69	21.842
675.01	25.333
675.34	20.721
675.66	23.148
675.98	25.721
676.31	22.477
676.63	22.803
676.95	20.000
677.28	23.059
677.60	25.060
677.92	20.642
678.25	23.195
678.57	22.511
678.89	23.529
679.22	22.819
679.54	21.687
679.86	18.489
680.18	20.000
680.51	21.023
680.83	20.676
681.15	19.200
681.48	21.926
681.80	23.554
682.12	21.371
682.44	21.967
682.77	22.958
683.09	23.112
683.41	19.773
683.73	21.659
684.06	23.894
684.38	18.925
684.70	22.440
685.02	21.992
685.34	19.170
685.67	18.762
685.99	20.796
686.31	17.699
686.63	20.223
686.96	17.490
687.28	17.980
687.60	19.011
687.92	21.212
688.24	21.573
688.56	21.834
688.89	21.429
689.21	25.333
689.53	21.346
689.85	20.930
690.17	20.759
690.49	21.277
690.82	22.816
691.14	19.524
691.46	22.664
691.78	21.396
692.10	20.860
692.42	19.048
692.74	21.154
693.06	20.946
693.39	20.362
693.71	19.231
694.03	17.783
694.35	21.028
694.67	23.485
694.99	21.149
695.31	21.671
695.63	21.750
695.95	21.212
696.27	21.762
696.59	21.667
696.91	21.569
697.23	20.566
697.56	22.525
697.88	23.441
698.20	21.412
698.52	19.294
698.84	17.943
699.16	17.500
699.48	23.559
699.80	21.588
700.12	22.102
700.44	21.289
700.76	20.640
701.08	20.303
701.40	23.193
701.72	24.691
702.04	27.723
702.36	22.742
702.68	21.922
703.00	21.818
703.32	19.062
703.64	19.492
703.96	22.029
704.28	19.632
704.60	21.905
704.91	17.666
705.23	21.927
705.55	22.615
705.87	23.827
706.19	18.889
706.51	20.962
706.83	22.830
707.15	16.511
707.47	19.608
707.79	19.531
708.11	19.750
708.43	18.500
708.74	19.638
709.06	23.099
709.38	20.795
709.70	21.598
710.02	21.019
710.34	21.672
710.66	18.910
710.98	19.536
711.29	23.607
711.61	21.356
711.93	24.430
712.25	27.491
712.57	21.612
712.89	19.776
713.20	24.221
713.52	20.209
713.84	23.891
714.16	18.900
714.48	18.387
714.80	20.833
715.11	21.277
715.43	20.376
715.75	15.333
716.07	21.595
716.39	21.477
716.70	16.605
717.02	18.321
717.34	20.648
717.66	22.124
717.97	22.174
718.29	23.013
718.61	19.291
718.93	20.543
719.24	23.954
719.56	19.277
719.88	21.649
720.20	19.318
720.51	18.391
720.83	25.097
721.15	23.529
721.46	21.774
721.78	16.996
722.10	20.446
722.42	17.427
722.73	20.000
723.05	28.163
723.37	23.305
723.68	23.874
724.00	21.795
724.32	17.778
724.63	14.091
724.95	22.707
725.27	24.885
725.58	19.915
725.90	17.063
726.22	20.849
726.53	22.373
726.85	22.846
727.16	23.019
727.48	16.599
727.80	23.077
728.11	18.220
728.43	19.216
728.74	16.935
729.06	17.200
729.38	25.188
729.69	16.733
730.01	15.385
730.32	23.507
730.64	22.968
730.96	17.736
731.27	19.667
731.59	20.339
731.90	17.834
732.22	19.558
732.53	19.601
732.85	18.794
733.16	24.242
733.48	21.942
733.80	17.754
734.11	21.356
734.43	17.526
734.74	18.788
735.06	18.241
735.37	21.752
735.69	21.886
736.00	18.467
736.32	20.470
736.63	17.606
736.95	18.430
737.26	18.149
737.58	16.443
737.89	20.879
738.21	18.421
738.52	22.222
738.83	17.467
739.15	14.847
739.46	20.079
739.78	14.652
740.09	21.242
740.41	21.739
740.72	18.504
741.04	21.457
741.35	21.277
741.66	22.749
741.98	22.449
742.29	17.327
742.61	20.419
742.92	17.062
743.23	16.204
743.55	23.077
743.86	16.746
744.18	20.096
744.49	19.149
744.80	19.022
745.12	24.599
745.43	20.000
745.74	20.833
746.06	22.927
746.37	16.754
746.68	16.588
747.00	21.277
747.31	26.368
747.62	20.388
747.94	22.967
748.25	18.317
748.56	20.219
748.88	18.325
749.19	22.872
749.50	24.631
749.82	17.925
750.13	17.890
750.44	22.556
750.75	17.164
751.07	22.628
751.38	15.326
751.69	14.902
752.01	22.481
752.32	16.733
752.63	16.206
752.94	15.086
753.26	25.523
753.57	16.742
753.88	20.796
754.19	13.750
754.51	14.463
754.82	20.648
755.13	21.250
755.44	16.532
755.75	21.484
756.07	19.844
756.38	16.981
756.69	14.176
757.00	21.000
757.31	16.993
757.63	16.159
757.94	15.833
758.25	16.712
758.56	14.894
758.87	13.598
759.18	18.069
759.50	20.727
759.81	16.054
760.12	20.000
760.43	13.636
760.74	20.062
761.05	15.385
761.36	17.045
761.67	18.788
761.99	21.088
762.30	16.364
762.61	21.344
762.92	19.457
763.23	24.775
763.54	16.355
763.85	16.949
764.16	18.672
764.47	16.129
764.78	16.484
765.10	22.559
765.41	16.719
765.72	19.365
766.03	15.038
766.34	17.883
766.65	20.319
766.96	17.172
767.27	21.277
767.58	13.793
767.89	15.603
768.20	15.909
768.51	19.780
768.82	17.241
769.13	16.590
769.44	18.455
769.75	14.155
770.06	22.414
770.37	19.231
770.68	14.213
770.99	19.457
771.30	19.608
771.61	17.647
771.92	19.828
772.23	13.300
772.54	16.129
772.85	18.519
773.16	23.034
773.47	22.222
773.78	14.379
774.09	20.958
774.39	15.333
774.70	16.561
775.01	18.621
775.32	16.429
775.63	17.355
775.94	24.427
776.25	20.472
776.56	20.833
776.87	22.115
777.18	17.949
777.48	12.931
777.79	23.478
778.10	14.286
778.41	13.514
778.72	15.873
779.03	12.782
779.34	24.823
779.65	20.548
779.95	21.233
780.26	19.310
780.57	17.073
780.88	17.323
781.19	15.517
781.50	15.504
781.80	17.751
782.11	14.465
782.42	20.000
782.73	14.388
783.04	14.815
783.34	13.889
783.65	4.274
783.96	11.475
784.27	19.310
784.57	19.512
784.88	22.656
785.19	28.000
785.50	25.000
785.81	14.655
786.11	17.241
786.42	14.563
786.73	19.091
787.04	13.265
787.34	8.929
787.65	22.857
787.96	18.584
788.26	13.636
788.57	19.658
788.88	25.781
789.19	12.698
789.49	17.391
789.80	1.020
790.11	22.222
790.41	20.000
790.72	29.348
791.03	18.182
791.33	15.000
791.64	15.000
791.95	11.628
792.25	17.021
792.56	11.236
792.87	0.000
793.17	7.246
793.48	1.333
793.79	2.500
794.09	20.000
794.40	10.377
794.70	15.534
795.01	7.317
795.32	5.983
795.62	2.857
795.93	19.608
796.23	21.698
796.54	11.458
796.85	22.059
797.15	14.085
797.46	18.056
797.76	27.273
798.07	11.628
798.37	5.263
798.68	-10.606
798.99	19.753
799.29	30.000
799.60	5.797
799.90	22.667
800.21	6.557
800.51	15.385
800.82	0.000
801.12	21.739
801.43	13.115
801.73	11.111
802.04	-10.000
802.34	-1.493
802.65	21.154
802.95	17.857
803.26	-3.846
803.56	21.569
803.87	-8.696
804.17	13.333
804.48	19.048
804.78	7.407
805.09	13.043
805.39	-8.889
805.70	22.222
806.00	-8.772
806.30	8.451
806.61	8.571
806.91	0.000
807.22	31.579
807.52	25.333
807.83	0.000
808.13	19.444
808.43	13.235
808.74	5.970
809.04	15.254
809.35	-5.769
809.65	4.687
809.95	-16.216
810.26	11.364
810.56	16.438
810.86	28.571
811.17	4.000
811.47	22.449
811.77	-21.053
812.08	13.636
812.38	1.887
812.69	10.000
812.99	-9.091
813.29	2.632
813.59	-11.429
813.90	-2.273
814.20	-15.385
814.50	7.692
814.81	11.321
815.11	8.511
815.41	18.644
815.72	33.333
816.02	25.490
816.32	4.167
816.62	-4.878
816.93	18.919
817.23	-2.857
817.53	16.667
817.84	-10.870
818.14	7.692
818.44	-21.053
818.74	19.565
819.04	-7.500
819.35	16.216
819.65	8.824
819.95	0.000
820.25	11.905
820.56	25.000
820.86	-37.931
821.16	30.000
821.46	23.404
821.76	-2.500
822.07	0.000
822.37	-18.919
822.67	21.875
822.97	33.333
823.27	3.571
823.57	-28.000
823.88	-29.630
824.18	50.000
824.48	20.588
824.78	3.226
825.08	-21.739
825.38	18.182
825.69	-25.000
825.99	-5.263
826.29	13.889
826.59	-73.333
826.89	-52.381
827.19	26.087
827.49	2.500
827.79	5.714
828.09	14.286
828.39	-9.091
828.70	16.216
829.00	-17.857
829.30	-71.429
829.60	16.667
829.90	6.250
830.20	23.684
830.50	-11.111
830.80	-26.087
831.10	-4.545
831.40	45.455
831.70	45.161
832.00	28.571
832.30	-33.333
832.60	-41.667
832.90	3.448
833.20	-60.000
833.50	9.091
833.80	11.111
834.10	-30.769
834.40	9.375
834.70	66.667
835.00	-10.526
835.30	15.385
835.60	-33.333
835.90	35.484
836.20	22.727
836.50	46.429
836.80	-30.769
837.10	3.571
837.40	-166.667
837.70	-9.091
838.00	-109.091
838.30	-8.696
838.60	23.077
838.90	-9.091
839.19	-3.571
839.49	50.000
839.79	-15.385
840.09	-16.667
840.39	0.000
840.69	-10.714
840.99	0.000
841.29	-57.895
841.59	-30.000
841.88	54.545
842.18	60.000
842.48	-37.500
842.78	-26.667
843.08	7.407
843.38	-40.000
843.68	34.783
843.97	-40.000
844.27	-80.000
844.57	10.000
844.87	33.333
845.17	9.524
845.47	33.333
845.76	33.333
846.06	-5.882
846.36	40.000
846.66	-7.143
846.96	6.667
847.25	-212.500
847.55	21.429
847.85	0.000
848.15	13.636
848.44	-466.667
848.74	0.000
849.04	18.519
849.34	18.182
849.63	-133.333
849.93	-440.000
850.23	11.111
850.53	20.000
850.82	-107.692
851.12	-88.889
851.42	13.333
851.71	-23.077
852.01	-57.143
852.31	-200.000
852.61	-9.091
852.90	-30.000
853.20	57.895
853.50	-141.667
853.79	0.000
854.09	8.333
854.39	-52.632
854.68	-33.333
854.98	29.032
855.28	50.000
855.57	-10.000
855.87	-38.889
856.17	29.630
856.46	-28.571
856.76	13.333
857.05	11.111
857.35	-16.000
857.65	16.667
857.94	-76.923
858.24	41.379
858.53	11.111
858.83	7.407
859.13	13.636
859.42	-17.391
859.72	-25.000
860.01	-133.333
860.31	60.000
860.60	4.762
860.90	-233.333
861.20	-93.333
861.49	-1000.000
861.79	-60.000
862.08	-10.000
862.38	20.000
862.67	-260.000
862.97	-200.000
863.26	-8.333
863.56	-5.556
863.85	-366.667
864.15	33.333
864.44	-10.000
864.74	7.143
865.03	400.000
865.33	-240.000
865.62	-16.667
865.92	0.000
866.21	-50.000
866.51	6.250
866.80	45.455
867.10	-250.000
867.39	-41.667
867.69	0.000
867.98	-38.462
868.27	-233.333
868.57	-6.667
868.86	-11.111
869.16	-100.000
869.45	-26.667
869.75	-1000.000
870.04	0.000
870.33	-57.143
870.63	9.524
870.92	366.667
871.22	-160.000
871.51	-400.000
871.80	111.111
872.10	500.000
>>>>>End Processed Spectral Data<<<<<
