SpectraSuite Data File
++++++++++++++++++++++++++++++++++++
Date: Fri May 15 20:46:41 PDT 2015
User: schluterlab
Dark Spectrum Present: Yes
Reference Spectrum Present: Yes
Number of Sampled Component Spectra: 1
Spectrometers: USB2E3373
Integration Time (usec): 3000 (USB2E3373)
Spectra Averaged: 3 (USB2E3373)
Boxcar Smoothing: 0 (USB2E3373)
Correct for Electrical Dark: No (USB2E3373)
Strobe/Lamp Enabled: No (USB2E3373)
Correct for Detector Non-linearity: No (USB2E3373)
Correct for Stray Light: No (USB2E3373)
Number of Pixels in Processed Spectrum: 2048
>>>>>Begin Processed Spectral Data<<<<<
178.53	0.000
178.91	0.000
179.29	37.500
179.67	-650.000
180.04	-28.571
180.42	-200.000
180.80	-1000.000
181.18	300.000
181.56	850.000
181.94	-350.000
182.31	1100.000
182.69	-220.000
183.07	-166.667
183.45	-120.000
183.83	33.333
184.20	45.455
184.58	100.000
184.96	-100.000
185.34	166.667
185.72	-450.000
186.09	115.385
186.47	-500.000
186.85	300.000
187.23	122.222
187.61	900.000
187.98	-233.333
188.36	55.556
188.74	-366.667
189.12	0.000
189.49	0.000
189.87	0.000
190.25	-14.286
190.63	200.000
191.00	-233.333
191.38	-36.842
191.76	-150.000
192.14	250.000
192.51	200.000
192.89	-88.889
193.27	-71.429
193.65	166.667
194.02	236.364
194.40	-40.000
194.78	-50.000
195.15	-66.667
195.53	-100.000
195.91	325.000
196.29	-275.000
196.66	207.692
197.04	85.714
197.42	-100.000
197.79	-600.000
198.17	-84.615
198.55	700.000
198.92	-133.333
199.30	-700.000
199.68	-140.000
200.05	-133.333
200.43	0.000
200.81	-100.000
201.18	-100.000
201.56	1400.000
201.94	-500.000
202.31	200.000
202.69	-260.000
203.07	150.000
203.44	0.000
203.82	0.000
204.19	-42.857
204.57	-333.333
204.95	175.000
205.32	-10.000
205.70	57.143
206.08	25.000
206.45	55.556
206.83	92.857
207.20	-171.429
207.58	500.000
207.96	-166.667
208.33	-110.000
208.71	-50.000
209.08	-100.000
209.46	-600.000
209.84	-120.000
210.21	-1400.000
210.59	-28.571
210.96	50.000
211.34	-50.000
211.71	40.000
212.09	-185.714
212.46	-1700.000
212.84	0.000
213.22	-20.000
213.59	450.000
213.97	53.846
214.34	-63.636
214.72	-33.333
215.09	375.000
215.47	30.769
215.84	-27.273
216.22	-133.333
216.59	-87.500
216.97	-100.000
217.34	-175.000
217.72	-100.000
218.09	112.500
218.47	75.000
218.84	-500.000
219.22	-88.889
219.59	0.000
219.97	-0.000
220.34	575.000
220.72	-14.286
221.09	-125.000
221.47	-150.000
221.84	-600.000
222.22	-650.000
222.59	18.182
222.97	-8.333
223.34	-666.667
223.72	-100.000
224.09	9.524
224.46	3.571
224.84	500.000
225.21	-20.000
225.59	-20.000
225.96	-550.000
226.34	225.000
226.71	-114.286
227.08	-233.333
227.46	-25.000
227.83	-750.000
228.21	0.000
228.58	18.182
228.95	-112.500
229.33	80.000
229.70	-68.750
230.08	-112.500
230.45	-214.286
230.82	-171.429
231.20	-40.000
231.57	7.143
231.95	57.143
232.32	-70.000
232.69	0.000
233.07	33.333
233.44	-40.000
233.81	-40.000
234.19	-77.778
234.56	5.882
234.93	1000.000
235.31	-25.000
235.68	-420.000
236.05	-92.308
236.43	-30.000
236.80	-88.235
237.17	12.500
237.55	-80.000
237.92	-37.037
238.29	-11.111
238.67	-6.667
239.04	-14.706
239.41	-7.317
239.79	-20.000
240.16	-4.878
240.53	-23.684
240.91	-23.913
241.28	-3.175
241.65	5.357
242.02	16.438
242.40	-13.333
242.77	-15.254
243.14	-12.121
243.51	-1.250
243.89	9.195
244.26	-16.092
244.63	-3.571
245.00	-11.340
245.38	-14.433
245.75	-10.112
246.12	-11.207
246.49	-0.826
246.87	4.808
247.24	-7.563
247.61	-17.544
247.98	-7.317
248.36	-6.250
248.73	1.316
249.10	-5.844
249.47	1.899
249.84	-5.229
250.22	-1.176
250.59	-1.961
250.96	0.000
251.33	-5.233
251.70	-6.471
252.08	-4.569
252.45	-2.970
252.82	0.503
253.19	-0.461
253.56	-7.944
253.94	2.252
254.31	-2.609
254.68	-0.439
255.05	-3.543
255.42	0.000
255.79	0.386
256.16	-1.946
256.54	0.373
256.91	-2.662
257.28	-0.743
257.65	-2.622
258.02	-2.482
258.39	-2.020
258.76	1.465
259.14	1.661
259.51	1.942
259.88	1.031
260.25	-5.882
260.62	-0.694
260.99	-4.407
261.36	-4.110
261.73	0.316
262.10	-0.608
262.47	-1.840
262.85	-3.762
263.22	-4.000
263.59	-2.804
263.96	-0.932
264.33	-1.818
264.70	-3.869
265.07	-2.976
265.44	-0.850
265.81	-3.107
266.18	-0.273
266.55	2.571
266.92	0.259
267.29	-0.783
267.66	-2.302
268.03	-1.047
268.40	-2.872
268.77	0.000
269.14	-1.199
269.51	-0.771
269.88	-0.998
270.25	-2.041
270.62	-1.951
270.99	-4.348
271.36	-1.222
271.73	2.347
272.10	-2.190
272.47	-2.600
272.84	-0.743
273.21	-0.464
273.58	0.000
273.95	0.229
274.32	-1.386
274.69	-0.905
275.06	1.563
275.43	-3.628
275.80	-0.221
276.17	-3.218
276.54	1.071
276.91	0.439
277.28	-1.310
277.65	-0.620
278.02	-0.213
278.39	-3.939
278.76	0.000
279.13	-4.357
279.50	0.000
279.87	1.512
280.23	-2.796
280.60	0.195
280.97	-0.202
281.34	-0.769
281.71	0.821
282.08	-1.840
282.45	-0.587
282.82	-2.124
283.19	-1.354
283.56	0.000
283.92	-2.846
284.29	-3.269
284.66	-0.388
285.03	-1.179
285.40	-0.378
285.77	-0.527
286.14	-0.361
286.51	-0.923
286.87	-0.548
287.24	-2.947
287.61	-1.411
287.98	1.404
288.35	0.693
288.72	-1.401
289.08	0.694
289.45	0.351
289.82	0.350
290.19	-1.195
290.56	-0.515
290.93	-2.189
291.29	-1.541
291.66	0.472
292.03	0.159
292.40	0.806
292.77	-0.478
293.13	-3.734
293.50	-1.973
293.87	-1.069
294.24	0.000
294.60	-1.192
294.97	0.298
295.34	-0.153
295.71	-0.894
296.08	-1.644
296.44	-3.698
296.81	-0.278
297.18	0.000
297.55	0.542
297.91	0.137
298.28	0.264
298.65	0.000
299.02	0.270
299.38	-2.599
299.75	-0.276
300.12	-1.440
300.48	-1.976
300.85	-0.507
301.22	0.260
301.59	-0.658
301.95	0.380
302.32	0.778
302.69	-0.622
303.05	0.495
303.42	0.872
303.79	0.701
304.15	0.836
304.52	-2.140
304.89	0.234
305.25	-0.969
305.62	-0.583
305.99	-0.468
306.35	-0.694
306.72	-1.350
307.09	-1.140
307.45	0.230
307.82	0.000
308.19	0.465
308.55	0.981
308.92	0.980
309.29	-0.894
309.65	1.615
310.02	-0.330
310.38	-0.110
310.75	0.109
311.12	0.215
311.48	0.212
311.85	0.942
312.22	0.633
312.58	1.062
312.95	-0.640
313.31	-0.311
313.68	0.524
314.05	0.918
314.41	1.649
314.78	0.619
315.14	2.055
315.51	3.209
315.87	1.434
316.24	2.730
316.61	3.150
316.97	3.869
317.34	2.637
317.70	4.302
318.07	3.077
318.43	4.314
318.80	3.883
319.16	4.688
319.53	7.217
319.89	5.610
320.26	5.668
320.62	7.322
320.99	6.576
321.35	5.550
321.72	8.723
322.08	8.056
322.45	8.731
322.81	9.725
323.18	9.814
323.54	9.942
323.91	11.392
324.27	11.230
324.64	13.296
325.00	13.595
325.37	14.325
325.73	14.053
326.10	15.350
326.46	15.426
326.83	17.148
327.19	17.960
327.56	18.332
327.92	19.278
328.29	18.839
328.65	19.717
329.01	20.588
329.38	21.290
329.74	21.152
330.11	21.872
330.47	22.356
330.84	21.250
331.20	24.525
331.56	23.519
331.93	25.205
332.29	24.198
332.66	23.439
333.02	24.257
333.38	24.748
333.75	26.923
334.11	24.799
334.48	26.111
334.84	25.000
335.20	26.075
335.57	25.023
335.93	26.739
336.29	27.808
336.66	26.794
337.02	27.230
337.38	27.870
337.75	27.273
338.11	26.871
338.47	27.555
338.84	26.895
339.20	27.057
339.56	27.523
339.93	28.201
340.29	29.358
340.65	29.749
341.02	27.482
341.38	29.204
341.74	28.445
342.11	29.203
342.47	29.181
342.83	29.066
343.20	29.791
343.56	28.957
343.92	29.672
344.28	29.633
344.65	28.756
345.01	28.695
345.37	29.184
345.73	29.958
346.10	31.406
346.46	29.100
346.82	28.478
347.19	28.845
347.55	30.242
347.91	29.693
348.27	28.860
348.63	31.005
349.00	29.286
349.36	30.258
349.72	30.846
350.08	29.918
350.45	29.848
350.81	28.488
351.17	28.420
351.53	30.367
351.89	29.810
352.26	29.440
352.62	30.887
352.98	29.880
353.34	29.549
353.70	31.068
354.07	30.161
354.43	30.745
354.79	30.801
355.15	29.524
355.51	30.380
355.87	30.421
356.24	29.119
356.60	30.073
356.96	31.190
357.32	30.591
357.68	30.180
358.04	29.483
358.40	30.225
358.77	30.463
359.13	31.065
359.49	29.584
359.85	29.485
360.21	30.303
360.57	29.457
360.93	29.652
361.29	28.625
361.66	30.016
362.02	31.212
362.38	30.693
362.74	30.810
363.10	30.926
363.46	31.060
363.82	31.705
364.18	30.332
364.54	30.441
364.90	30.394
365.26	29.549
365.62	32.482
365.98	30.572
366.35	32.338
366.71	30.599
367.07	30.479
367.43	31.272
367.79	30.954
368.15	29.792
368.51	30.663
368.87	30.438
369.23	29.314
369.59	30.977
369.95	31.525
370.31	30.853
370.67	29.403
371.03	30.471
371.39	29.468
371.75	30.769
372.11	30.385
372.47	30.843
372.83	32.009
373.19	30.599
373.55	29.531
373.91	30.382
374.27	31.467
374.63	30.581
374.99	29.929
375.35	30.501
375.71	31.329
376.07	31.039
376.42	29.864
376.78	29.866
377.14	29.655
377.50	30.013
377.86	30.321
378.22	30.185
378.58	30.577
378.94	30.939
379.30	29.258
379.66	30.157
380.02	28.878
380.38	30.128
380.74	29.144
381.09	30.736
381.45	30.031
381.81	30.290
382.17	28.997
382.53	29.919
382.89	31.387
383.25	29.932
383.61	30.488
383.97	28.825
384.32	29.831
384.68	30.031
385.04	29.963
385.40	29.247
385.76	30.566
386.12	29.819
386.48	30.077
386.83	28.789
387.19	29.792
387.55	30.364
387.91	29.279
388.27	28.755
388.62	29.201
388.98	28.177
389.34	29.669
389.70	28.776
390.06	28.760
390.42	28.951
390.77	28.319
391.13	28.499
391.49	29.884
391.85	29.045
392.20	28.625
392.56	27.972
392.92	28.362
393.28	28.833
393.64	28.168
393.99	29.718
394.35	28.906
394.71	29.119
395.07	28.033
395.42	28.597
395.78	27.687
396.14	27.680
396.50	28.662
396.85	28.139
397.21	27.694
397.57	27.273
397.92	26.483
398.28	27.931
398.64	27.229
399.00	27.257
399.35	26.693
399.71	26.881
400.07	27.751
400.42	26.744
400.78	27.067
401.14	27.707
401.49	27.516
401.85	26.143
402.21	26.386
402.57	26.875
402.92	26.223
403.28	26.629
403.63	26.608
403.99	26.786
404.35	26.483
404.70	26.607
405.06	25.676
405.42	25.109
405.77	24.869
406.13	25.553
406.49	24.926
406.84	25.672
407.20	25.346
407.55	24.662
407.91	24.933
408.27	24.793
408.62	24.923
408.98	25.015
409.34	25.836
409.69	23.773
410.05	24.877
410.40	25.185
410.76	24.910
411.11	23.687
411.47	24.260
411.83	23.540
412.18	24.517
412.54	23.908
412.89	23.645
413.25	24.188
413.60	24.099
413.96	23.374
414.31	24.390
414.67	23.733
415.03	24.101
415.38	22.781
415.74	23.257
416.09	23.775
416.45	23.093
416.80	23.067
417.16	24.240
417.51	23.251
417.87	22.947
418.22	22.927
418.58	23.077
418.93	23.448
419.29	22.727
419.64	21.970
420.00	23.048
420.35	22.627
420.71	22.904
421.06	22.468
421.42	22.897
421.77	22.601
422.12	22.645
422.48	22.956
422.83	22.100
423.19	22.630
423.54	21.576
423.90	22.261
424.25	22.273
424.61	22.277
424.96	21.545
425.31	22.241
425.67	22.477
426.02	22.909
426.38	22.730
426.73	21.550
427.09	22.215
427.44	21.882
427.79	22.510
428.15	22.209
428.50	22.532
428.85	21.683
429.21	22.184
429.56	22.264
429.92	21.674
430.27	21.454
430.62	21.119
430.98	21.603
431.33	22.660
431.68	22.083
432.04	21.912
432.39	20.878
432.74	21.587
433.10	22.241
433.45	21.266
433.80	21.706
434.16	20.776
434.51	20.699
434.86	21.487
435.22	20.920
435.57	21.085
435.92	21.078
436.28	21.228
436.63	20.878
436.98	20.857
437.34	20.811
437.69	20.811
438.04	20.057
438.39	20.220
438.75	20.765
439.10	20.656
439.45	22.033
439.81	21.101
440.16	21.318
440.51	21.552
440.86	21.994
441.22	20.419
441.57	20.751
441.92	21.563
442.27	19.623
442.63	21.467
442.98	20.965
443.33	20.701
443.68	20.000
444.03	21.908
444.39	21.003
444.74	21.572
445.09	21.047
445.44	19.943
445.79	22.022
446.15	20.650
446.50	20.022
446.85	20.723
447.20	20.490
447.55	20.089
447.91	21.320
448.26	21.116
448.61	20.150
448.96	21.113
449.31	20.636
449.66	20.209
450.02	19.852
450.37	20.154
450.72	20.275
451.07	20.633
451.42	20.287
451.77	20.133
452.12	20.275
452.47	19.060
452.83	20.024
453.18	20.620
453.53	20.480
453.88	20.886
454.23	20.098
454.58	20.340
454.93	19.845
455.28	19.365
455.63	18.661
455.98	20.505
456.34	19.860
456.69	20.013
457.04	20.605
457.39	19.563
457.74	19.589
458.09	19.894
458.44	19.602
458.79	19.384
459.14	19.680
459.49	19.403
459.84	20.023
460.19	19.964
460.54	19.988
460.89	18.864
461.24	19.130
461.59	18.765
461.94	18.553
462.29	19.421
462.64	19.535
462.99	19.905
463.34	19.193
463.69	19.176
464.04	19.915
464.39	19.102
464.74	19.141
465.09	19.838
465.44	19.850
465.79	18.878
466.14	18.871
466.49	18.746
466.84	18.620
467.19	19.024
467.54	19.285
467.89	18.636
468.24	18.674
468.59	18.413
468.94	18.032
469.29	18.295
469.64	18.934
469.99	18.150
470.34	17.065
470.68	19.463
471.03	19.391
471.38	17.832
471.73	19.258
472.08	17.707
472.43	17.718
472.78	17.341
473.13	18.095
473.48	17.980
473.83	17.933
474.17	17.293
474.52	18.826
474.87	18.303
475.22	17.450
475.57	17.617
475.92	18.212
476.27	18.393
476.61	17.882
476.96	17.457
477.31	18.605
477.66	17.584
478.01	16.002
478.36	17.484
478.70	17.510
479.05	18.352
479.40	17.435
479.75	16.840
480.10	17.460
480.45	16.950
480.79	18.026
481.14	17.111
481.49	16.897
481.84	16.651
482.19	17.399
482.53	16.739
482.88	16.659
483.23	16.027
483.58	17.217
483.92	16.215
484.27	16.317
484.62	16.316
484.97	15.755
485.31	16.149
485.66	15.852
486.01	15.910
486.36	15.757
486.70	16.000
487.05	16.261
487.40	16.158
487.75	15.972
488.09	15.358
488.44	15.956
488.79	15.951
489.13	16.146
489.48	16.460
489.83	15.740
490.17	16.180
490.52	15.658
490.87	15.826
491.22	15.950
491.56	15.750
491.91	15.822
492.26	15.605
492.60	16.219
492.95	16.183
493.30	15.144
493.64	15.914
493.99	16.184
494.34	15.388
494.68	15.667
495.03	15.280
495.37	15.751
495.72	14.992
496.07	15.902
496.41	15.236
496.76	15.937
497.11	15.137
497.45	15.322
497.80	15.338
498.14	15.499
498.49	15.185
498.84	15.369
499.18	15.110
499.53	15.079
499.87	14.640
500.22	14.540
500.56	14.776
500.91	15.010
501.26	13.890
501.60	15.298
501.95	15.866
502.29	14.770
502.64	15.058
502.98	15.195
503.33	14.841
503.67	13.880
504.02	14.614
504.36	14.547
504.71	14.040
505.06	14.444
505.40	14.416
505.75	14.536
506.09	14.445
506.44	15.144
506.78	15.000
507.13	14.581
507.47	13.525
507.82	13.942
508.16	13.946
508.51	14.900
508.85	14.495
509.19	14.103
509.54	14.316
509.88	13.808
510.23	14.201
510.57	14.324
510.92	13.220
511.26	14.184
511.61	13.641
511.95	13.534
512.30	14.412
512.64	14.691
512.98	13.532
513.33	14.550
513.67	13.928
514.02	14.703
514.36	14.343
514.70	14.394
515.05	14.101
515.39	13.932
515.74	14.012
516.08	14.047
516.42	14.841
516.77	14.277
517.11	14.065
517.46	13.704
517.80	14.422
518.14	13.656
518.49	13.341
518.83	14.156
519.17	12.310
519.52	13.381
519.86	12.605
520.20	13.548
520.55	12.633
520.89	13.676
521.23	13.363
521.58	14.385
521.92	12.756
522.26	12.752
522.61	13.312
522.95	13.576
523.29	13.723
523.64	13.024
523.98	13.480
524.32	12.564
524.66	13.764
525.01	12.922
525.35	13.027
525.69	12.593
526.04	12.897
526.38	13.230
526.72	12.165
527.06	12.387
527.41	13.127
527.75	12.466
528.09	11.694
528.43	13.910
528.78	12.739
529.12	13.097
529.46	12.086
529.80	11.970
530.15	12.475
530.49	11.852
530.83	13.064
531.17	13.230
531.51	12.517
531.86	12.576
532.20	12.109
532.54	12.185
532.88	13.005
533.22	12.702
533.57	11.992
533.91	11.749
534.25	12.174
534.59	12.380
534.93	11.705
535.27	11.358
535.62	12.573
535.96	11.611
536.30	12.863
536.64	12.405
536.98	12.056
537.32	12.162
537.66	12.342
538.01	12.378
538.35	10.818
538.69	12.450
539.03	11.415
539.37	12.113
539.71	10.975
540.05	11.473
540.39	12.465
540.73	12.064
541.07	12.224
541.42	12.567
541.76	11.838
542.10	12.663
542.44	10.771
542.78	10.943
543.12	11.264
543.46	12.448
543.80	11.867
544.14	10.948
544.48	12.791
544.82	11.210
545.16	11.407
545.50	11.949
545.84	11.615
546.18	11.986
546.52	11.968
546.86	11.718
547.20	11.016
547.54	11.307
547.88	10.937
548.22	10.914
548.56	11.609
548.90	12.129
549.24	10.950
549.58	11.707
549.92	11.008
550.26	10.696
550.60	10.632
550.94	10.829
551.28	10.819
551.62	11.000
551.96	10.902
552.30	11.257
552.64	10.437
552.98	10.970
553.32	11.484
553.66	10.087
554.00	10.146
554.34	11.595
554.68	10.914
555.02	11.756
555.36	10.172
555.69	10.403
556.03	10.421
556.37	11.957
556.71	10.469
557.05	11.111
557.39	10.037
557.73	11.469
558.07	10.407
558.41	11.256
558.75	11.146
559.08	10.638
559.42	9.921
559.76	11.049
560.10	10.321
560.44	9.754
560.78	11.399
561.12	9.873
561.45	10.401
561.79	10.574
562.13	10.362
562.47	10.144
562.81	10.519
563.15	10.085
563.48	9.335
563.82	10.295
564.16	9.958
564.50	10.000
564.84	11.111
565.17	10.597
565.51	11.339
565.85	11.043
566.19	10.279
566.52	9.718
566.86	10.668
567.20	9.714
567.54	10.280
567.88	9.842
568.21	10.124
568.55	9.674
568.89	10.524
569.23	10.255
569.56	9.588
569.90	10.394
570.24	10.234
570.57	9.636
570.91	10.073
571.25	9.207
571.59	9.717
571.92	9.393
572.26	9.511
572.60	9.581
572.93	9.633
573.27	9.404
573.61	9.726
573.95	9.421
574.28	9.481
574.62	8.950
574.96	9.175
575.29	9.414
575.63	9.018
575.97	9.054
576.30	9.081
576.64	8.795
576.98	9.086
577.31	9.413
577.65	9.518
577.98	9.277
578.32	9.051
578.66	9.284
578.99	9.148
579.33	9.243
579.67	8.983
580.00	8.835
580.34	9.005
580.67	9.149
581.01	9.126
581.35	9.044
581.68	9.034
582.02	9.011
582.35	8.784
582.69	9.194
583.02	8.930
583.36	8.919
583.70	9.398
584.03	9.369
584.37	9.373
584.70	8.819
585.04	8.420
585.37	8.993
585.71	8.665
586.04	8.472
586.38	8.642
586.72	9.039
587.05	9.128
587.39	9.114
587.72	9.459
588.06	8.968
588.39	8.972
588.73	9.005
589.06	9.035
589.40	9.091
589.73	9.456
590.07	9.441
590.40	9.443
590.73	8.731
591.07	9.288
591.40	9.083
591.74	8.552
592.07	9.647
592.41	9.673
592.74	8.801
593.08	8.802
593.41	9.061
593.75	8.865
594.08	8.617
594.41	8.879
594.75	8.397
595.08	8.854
595.42	8.944
595.75	8.487
596.09	8.718
596.42	9.177
596.75	9.236
597.09	8.474
597.42	8.717
597.75	8.658
598.09	9.099
598.42	8.348
598.76	8.666
599.09	8.734
599.42	8.829
599.76	8.728
600.09	8.522
600.42	8.643
600.76	8.358
601.09	8.244
601.42	8.030
601.76	8.575
602.09	8.828
602.42	8.972
602.76	8.659
603.09	8.638
603.42	8.654
603.76	8.306
604.09	8.384
604.42	8.545
604.76	8.456
605.09	9.095
605.42	9.074
605.75	8.757
606.09	8.620
606.42	8.090
606.75	7.749
607.09	8.923
607.42	8.152
607.75	8.393
608.08	8.176
608.42	7.857
608.75	9.060
609.08	8.769
609.41	8.122
609.75	8.770
610.08	8.837
610.41	8.261
610.74	8.386
611.07	8.114
611.41	8.511
611.74	9.115
612.07	7.709
612.40	9.300
612.73	7.740
613.07	8.211
613.40	8.643
613.73	8.394
614.06	8.514
614.39	8.178
614.72	8.627
615.06	8.156
615.39	8.570
615.72	8.558
616.05	8.715
616.38	7.863
616.71	7.890
617.05	8.030
617.38	7.668
617.71	8.176
618.04	9.016
618.37	9.079
618.70	9.109
619.03	8.611
619.36	8.466
619.69	8.795
620.03	9.350
620.36	8.226
620.69	8.637
621.02	8.945
621.35	9.129
621.68	8.333
622.01	7.917
622.34	8.619
622.67	8.438
623.00	7.657
623.33	8.155
623.66	8.227
623.99	8.169
624.32	8.973
624.65	7.820
624.99	8.503
625.32	8.036
625.65	8.877
625.98	9.106
626.31	7.648
626.64	8.839
626.97	9.162
627.30	8.319
627.63	8.752
627.96	9.344
628.29	8.418
628.62	8.751
628.95	7.715
629.28	7.359
629.61	7.478
629.94	8.895
630.26	8.300
630.59	8.949
630.92	8.308
631.25	7.692
631.58	7.159
631.91	7.675
632.24	7.339
632.57	9.091
632.90	7.592
633.23	8.471
633.56	8.438
633.89	7.768
634.22	10.247
634.55	9.403
634.88	8.557
635.20	8.077
635.53	7.333
635.86	7.802
636.19	9.314
636.52	7.270
636.85	6.824
637.18	7.673
637.51	9.057
637.83	6.833
638.16	8.868
638.49	6.540
638.82	9.474
639.15	8.548
639.48	7.703
639.81	8.229
640.13	7.792
640.46	6.122
640.79	6.922
641.12	8.863
641.45	8.559
641.77	8.741
642.10	8.057
642.43	8.842
642.76	7.096
643.09	8.078
643.41	6.472
643.74	7.908
644.07	8.046
644.40	8.784
644.73	6.480
645.05	8.557
645.38	6.702
645.71	7.801
646.04	8.079
646.36	8.156
646.69	12.410
647.02	6.805
647.35	7.276
647.67	6.947
648.00	8.582
648.33	7.850
648.66	7.627
648.98	7.873
649.31	5.124
649.64	7.535
649.96	6.645
650.29	8.859
650.62	7.692
650.94	7.593
651.27	6.704
651.60	10.811
651.92	8.392
652.25	6.217
652.58	8.667
652.90	7.890
653.23	7.899
653.56	5.584
653.88	8.247
654.21	4.553
654.54	8.998
654.86	7.810
655.19	7.456
655.52	7.740
655.84	7.175
656.17	8.090
656.49	10.547
656.82	10.997
657.15	8.418
657.47	6.175
657.80	4.661
658.13	4.626
658.45	6.923
658.78	6.990
659.10	6.397
659.43	6.908
659.75	7.351
660.08	6.690
660.41	8.580
660.73	7.182
661.06	8.492
661.38	6.849
661.71	6.160
662.03	11.373
662.36	8.132
662.68	7.522
663.01	9.607
663.33	6.032
663.66	6.279
663.98	6.512
664.31	7.463
664.63	6.912
664.96	5.000
665.28	5.298
665.61	6.926
665.93	7.174
666.26	6.941
666.58	3.579
666.91	6.118
667.23	7.547
667.56	9.242
667.88	7.914
668.21	5.489
668.53	10.402
668.86	8.255
669.18	5.896
669.50	5.811
669.83	5.581
670.15	7.692
670.48	7.177
670.80	6.912
671.13	7.383
671.45	5.708
671.77	8.584
672.10	8.515
672.42	6.367
672.75	7.460
673.07	7.156
673.39	8.257
673.72	5.720
674.04	5.208
674.37	7.627
674.69	7.281
675.01	10.000
675.34	7.207
675.66	6.713
675.98	7.761
676.31	6.422
676.63	6.176
676.95	5.682
677.28	7.765
677.60	7.952
677.92	4.358
678.25	7.440
678.57	4.762
678.89	5.882
679.22	7.606
679.54	6.627
679.86	5.567
680.18	6.796
680.51	5.871
680.83	5.567
681.15	7.200
681.48	8.197
681.80	5.372
682.12	7.460
682.44	7.322
682.77	6.623
683.09	6.178
683.41	5.227
683.73	7.143
684.06	6.195
684.38	6.022
684.70	5.664
685.02	4.979
685.34	5.929
685.67	6.754
685.99	6.691
686.31	7.788
686.63	5.937
686.96	5.133
687.28	-0.404
687.60	4.183
687.92	7.273
688.24	7.460
688.56	6.987
688.89	3.795
689.21	8.222
689.53	4.640
689.85	5.581
690.17	6.920
690.49	4.965
690.82	4.612
691.14	4.524
691.46	7.009
691.78	5.631
692.10	6.882
692.42	5.628
692.74	7.479
693.06	2.703
693.39	4.977
693.71	4.525
694.03	3.002
694.35	7.243
694.67	6.313
694.99	2.611
695.31	8.094
695.63	7.750
695.95	3.535
696.27	5.181
696.59	6.389
696.91	5.882
697.23	5.656
697.56	6.188
697.88	8.387
698.20	4.328
698.52	4.235
698.84	3.349
699.16	8.250
699.48	4.010
699.80	6.700
700.12	7.817
700.44	6.162
700.76	4.360
701.08	1.212
701.40	4.819
701.72	6.790
702.04	3.630
702.36	4.013
702.68	3.604
703.00	5.152
703.32	4.692
703.64	5.650
703.96	5.507
704.28	3.374
704.60	7.619
704.91	1.893
705.23	4.651
705.55	12.014
705.87	5.776
706.19	4.815
706.51	5.842
706.83	3.859
707.15	6.231
707.47	6.162
707.79	4.167
708.11	7.750
708.43	7.750
708.74	4.651
709.06	6.197
709.38	7.034
709.70	6.213
710.02	4.459
710.34	6.811
710.66	0.962
710.98	3.974
711.29	7.541
711.61	5.085
711.93	5.537
712.25	8.591
712.57	4.029
712.89	5.224
713.20	10.035
713.52	4.530
713.84	4.096
714.16	6.873
714.48	5.484
714.80	5.128
715.11	3.951
715.43	4.389
715.75	3.667
716.07	3.987
716.39	4.027
716.70	2.952
717.02	2.672
717.34	3.239
717.66	4.425
717.97	3.478
718.29	5.439
718.61	5.906
718.93	9.302
719.24	7.605
719.56	4.418
719.88	4.811
720.20	1.894
720.51	4.598
720.83	4.633
721.15	1.261
721.46	2.419
721.78	5.534
722.10	2.230
722.42	-0.415
722.73	4.898
723.05	5.714
723.37	8.475
723.68	9.910
724.00	2.991
724.32	2.222
724.63	1.364
724.95	7.860
725.27	7.373
725.58	5.508
725.90	0.397
726.22	3.861
726.53	9.831
726.85	7.865
727.16	7.925
727.48	0.000
727.80	2.429
728.11	3.814
728.43	5.882
728.74	1.210
729.06	3.600
729.38	12.030
729.69	0.000
730.01	0.769
730.32	7.836
730.64	7.067
730.96	1.509
731.27	5.667
731.59	3.390
731.90	7.962
732.22	7.886
732.53	5.316
732.85	9.220
733.16	9.091
733.48	1.439
733.80	2.899
734.11	5.085
734.43	2.062
734.74	5.152
735.06	2.606
735.37	8.157
735.69	4.377
736.00	2.787
736.32	7.047
736.63	6.338
736.95	6.143
737.26	2.135
737.58	3.691
737.89	5.861
738.21	7.519
738.52	5.761
738.83	3.930
739.15	1.747
739.46	7.480
739.78	6.960
740.09	6.863
740.41	6.159
740.72	0.787
741.04	3.239
741.35	2.979
741.66	6.161
741.98	6.633
742.29	4.950
742.61	2.618
742.92	-1.896
743.23	1.852
743.55	8.145
743.86	6.220
744.18	4.785
744.49	2.128
744.80	1.087
745.12	5.882
745.43	-0.488
745.74	7.292
746.06	7.805
746.37	1.571
746.68	3.791
747.00	0.532
747.31	6.965
747.62	3.398
747.94	9.569
748.25	3.960
748.56	-0.546
748.88	4.188
749.19	7.447
749.50	5.419
749.82	5.189
750.13	0.459
750.44	8.647
750.75	6.716
751.07	6.569
751.38	3.831
751.69	1.961
752.01	6.977
752.32	4.382
752.63	-1.186
752.94	4.741
753.26	12.552
753.57	4.072
753.88	2.212
754.19	0.833
754.51	0.413
754.82	2.834
755.13	8.750
755.44	4.435
755.75	4.687
756.07	1.946
756.38	5.283
756.69	1.916
757.00	1.667
757.31	6.209
757.63	0.305
757.94	4.167
758.25	3.288
758.56	4.521
758.87	4.249
759.18	2.804
759.50	4.364
759.81	7.023
760.12	2.903
760.43	2.121
760.74	5.556
761.05	4.308
761.36	4.830
761.67	8.788
761.99	9.184
762.30	4.727
762.61	6.719
762.92	3.167
763.23	0.901
763.54	0.467
763.85	7.203
764.16	3.734
764.47	0.000
764.78	3.663
765.10	8.081
765.41	3.155
765.72	4.127
766.03	-6.015
766.34	6.569
766.65	11.155
766.96	4.545
767.27	1.596
767.58	-6.897
767.89	-10.638
768.20	3.977
768.51	2.198
768.82	6.404
769.13	-0.461
769.44	0.429
769.75	6.849
770.06	9.914
770.37	2.404
770.68	4.569
770.99	6.787
771.30	4.412
771.61	3.167
771.92	2.586
772.23	9.852
772.54	3.763
772.85	1.852
773.16	5.056
773.47	9.804
773.78	5.882
774.09	2.395
774.39	2.000
774.70	6.369
775.01	4.828
775.32	8.571
775.63	-4.132
775.94	3.053
776.25	0.787
776.56	-2.500
776.87	1.923
777.18	-0.855
777.48	3.448
777.79	-5.217
778.10	-8.571
778.41	-1.802
778.72	3.968
779.03	3.759
779.34	7.801
779.65	-0.685
779.95	-2.055
780.26	4.138
780.57	-4.065
780.88	-0.787
781.19	-0.862
781.50	2.326
781.80	6.509
782.11	1.258
782.42	0.769
782.73	2.878
783.04	0.000
783.34	-4.167
783.65	-14.530
783.96	-4.918
784.27	1.379
784.57	2.439
784.88	1.563
785.19	-1.000
785.50	11.000
785.81	8.621
786.11	5.172
786.42	-3.883
786.73	11.818
787.04	2.041
787.34	5.357
787.65	-0.952
787.96	1.770
788.26	8.182
788.57	-0.855
788.88	3.125
789.19	0.000
789.49	-6.087
789.80	-6.122
790.11	3.030
790.41	-10.909
790.72	6.522
791.03	0.000
791.33	6.250
791.64	1.250
791.95	-6.977
792.25	3.191
792.56	2.247
792.87	-6.849
793.17	-5.797
793.48	-16.000
793.79	-5.000
794.09	-6.250
794.40	6.604
794.70	-4.854
795.01	-9.756
795.32	-4.274
795.62	1.905
795.93	0.980
796.23	7.547
796.54	10.417
796.85	-8.824
797.15	4.225
797.46	9.722
797.76	6.061
798.07	8.140
798.37	-5.263
798.68	-33.333
798.99	-8.642
799.29	-1.429
799.60	-8.696
799.90	1.333
800.21	-11.475
800.51	-3.077
800.82	-15.254
801.12	-4.348
801.43	8.197
801.73	-9.524
802.04	-20.000
802.34	-11.940
802.65	1.923
802.95	-10.714
803.26	-11.538
803.56	-15.686
803.87	-15.217
804.17	4.000
804.48	4.762
804.78	-25.926
805.09	13.043
805.39	-13.333
805.70	1.852
806.00	-21.053
806.30	11.268
806.61	-14.286
806.91	-13.889
807.22	14.474
807.52	2.667
807.83	-30.909
808.13	1.389
808.43	14.706
808.74	-17.910
809.04	-37.288
809.35	-25.000
809.65	-4.687
809.95	-37.838
810.26	-9.091
810.56	2.740
810.86	-61.905
811.17	-2.000
811.47	0.000
811.77	-42.105
812.08	-34.091
812.38	-15.094
812.69	2.500
812.99	-30.303
813.29	-23.684
813.59	-48.571
813.90	-2.273
814.20	-48.718
814.50	-11.538
814.81	7.547
815.11	-27.660
815.41	10.169
815.72	-30.952
816.02	19.608
816.32	-16.667
816.62	-14.634
816.93	-16.216
817.23	-8.571
817.53	16.667
817.84	-13.043
818.14	-1.923
818.44	-18.421
818.74	21.739
819.04	-50.000
819.35	8.108
819.65	-20.588
819.95	-2.778
820.25	-11.905
820.56	5.000
820.86	-48.276
821.16	22.500
821.46	8.511
821.76	-12.500
822.07	2.326
822.37	-45.946
822.67	-3.125
822.97	7.143
823.27	-39.286
823.57	-8.000
823.88	-62.963
824.18	-7.143
824.48	-5.882
824.78	-6.452
825.08	-13.043
825.38	12.121
825.69	-70.833
825.99	-10.526
826.29	-8.333
826.59	-93.333
826.89	-90.476
827.19	10.870
827.49	-17.500
827.79	-2.857
828.09	-7.143
828.39	-24.242
828.70	10.811
829.00	-39.286
829.30	-76.190
829.60	0.000
829.90	0.000
830.20	-18.421
830.50	-44.444
830.80	-17.391
831.10	-40.909
831.40	12.121
831.70	-3.226
832.00	-14.286
832.30	-23.810
832.60	-16.667
832.90	-13.793
833.20	-45.000
833.50	24.242
833.80	-33.333
834.10	-23.077
834.40	0.000
834.70	-66.667
835.00	-31.579
835.30	3.846
835.60	-60.000
835.90	25.806
836.20	-13.636
836.50	-3.571
836.80	-53.846
837.10	-21.429
837.40	-566.667
837.70	-13.636
838.00	-90.909
838.30	-43.478
838.60	-15.385
838.90	-9.091
839.19	-3.571
839.49	-3.333
839.79	-53.846
840.09	-133.333
840.39	10.714
840.69	-35.714
840.99	-15.385
841.29	-52.632
841.59	-180.000
841.88	-100.000
842.18	-20.000
842.48	43.750
842.78	-13.333
843.08	-22.222
843.38	-150.000
843.68	30.435
843.97	-26.667
844.27	-46.667
844.57	-55.000
844.87	-5.556
845.17	-66.667
845.47	0.000
845.76	-38.095
846.06	-23.529
846.36	-120.000
846.66	-35.714
846.96	6.667
847.25	-212.500
847.55	21.429
847.85	-50.000
848.15	-95.455
848.44	-566.667
848.74	-10.000
849.04	7.407
849.34	-81.818
849.63	-216.667
849.93	-320.000
850.23	-77.778
850.53	-80.000
850.82	-53.846
851.12	-55.556
851.42	0.000
851.71	-34.615
852.01	-28.571
852.31	-375.000
852.61	-109.091
852.90	-80.000
853.20	-15.789
853.50	-116.667
853.79	-8.696
854.09	8.333
854.39	-52.632
854.68	-29.167
854.98	-41.935
855.28	-34.615
855.57	-50.000
855.87	16.667
856.17	-3.704
856.46	0.000
856.76	-40.000
857.05	-22.222
857.35	0.000
857.65	5.556
857.94	-115.385
858.24	34.483
858.53	16.667
858.83	22.222
859.13	-36.364
859.42	-39.130
859.72	-150.000
860.01	-633.333
860.31	24.000
860.60	42.857
860.90	-400.000
861.20	-60.000
861.49	-750.000
861.79	-20.000
862.08	-35.000
862.38	-13.333
862.67	-260.000
862.97	-316.667
863.26	41.667
863.56	55.556
863.85	-566.667
864.15	61.111
864.44	-90.000
864.74	0.000
865.03	175.000
865.33	-280.000
865.62	33.333
865.92	-75.000
866.21	-183.333
866.51	-50.000
866.80	-109.091
867.10	-700.000
867.39	66.667
867.69	0.000
867.98	-46.154
868.27	-466.667
868.57	-33.333
868.86	-55.556
869.16	-92.308
869.45	0.000
869.75	-1000.000
870.04	0.000
870.33	-28.571
870.63	28.571
870.92	300.000
871.22	-160.000
871.51	-1100.000
871.80	-100.000
872.10	633.333
>>>>>End Processed Spectral Data<<<<<
