SpectraSuite Data File
++++++++++++++++++++++++++++++++++++
Date: Fri May 15 20:44:17 PDT 2015
User: schluterlab
Dark Spectrum Present: Yes
Reference Spectrum Present: Yes
Number of Sampled Component Spectra: 1
Spectrometers: USB2E3373
Integration Time (usec): 3000 (USB2E3373)
Spectra Averaged: 3 (USB2E3373)
Boxcar Smoothing: 0 (USB2E3373)
Correct for Electrical Dark: No (USB2E3373)
Strobe/Lamp Enabled: No (USB2E3373)
Correct for Detector Non-linearity: No (USB2E3373)
Correct for Stray Light: No (USB2E3373)
Number of Pixels in Processed Spectrum: 2048
>>>>>Begin Processed Spectral Data<<<<<
178.53	0.000
178.91	0.000
179.29	0.000
179.67	-400.000
180.04	57.143
180.42	125.000
180.80	300.000
181.18	200.000
181.56	200.000
181.94	-50.000
182.31	900.000
182.69	-80.000
183.07	-233.333
183.45	-100.000
183.83	-33.333
184.20	-36.364
184.58	200.000
184.96	-100.000
185.34	133.333
185.72	-200.000
186.09	69.231
186.47	-600.000
186.85	233.333
187.23	55.556
187.61	500.000
187.98	-300.000
188.36	33.333
188.74	-100.000
189.12	23.529
189.49	11.111
189.87	0.000
190.25	42.857
190.63	350.000
191.00	133.333
191.38	-26.316
191.76	0.000
192.14	100.000
192.51	-350.000
192.89	33.333
193.27	-85.714
193.65	166.667
194.02	127.273
194.40	-40.000
194.78	-12.500
195.15	-25.000
195.53	-75.000
195.91	575.000
196.29	100.000
196.66	161.538
197.04	100.000
197.42	-11.111
197.79	-533.333
198.17	-23.077
198.55	1300.000
198.92	-200.000
199.30	-800.000
199.68	-240.000
200.05	-433.333
200.43	0.000
200.81	-100.000
201.18	-233.333
201.56	1400.000
201.94	-500.000
202.31	-66.667
202.69	-160.000
203.07	225.000
203.44	-100.000
203.82	0.000
204.19	50.000
204.57	-500.000
204.95	100.000
205.32	250.000
205.70	28.571
206.08	-275.000
206.45	66.667
206.83	64.286
207.20	-57.143
207.58	-100.000
207.96	-100.000
208.33	-90.000
208.71	-325.000
209.08	-66.667
209.46	-1100.000
209.84	-100.000
210.21	-900.000
210.59	0.000
210.96	-33.333
211.34	-25.000
211.71	113.333
212.09	-85.714
212.46	-500.000
212.84	0.000
213.22	70.000
213.59	750.000
213.97	38.462
214.34	18.182
214.72	-116.667
215.09	550.000
215.47	0.000
215.84	27.273
216.22	-233.333
216.59	-37.500
216.97	-100.000
217.34	-50.000
217.72	-160.000
218.09	12.500
218.47	187.500
218.84	-900.000
219.22	11.111
219.59	-80.000
219.97	500.000
220.34	200.000
220.72	-128.571
221.09	-175.000
221.47	100.000
221.84	-1100.000
222.22	-1000.000
222.59	-81.818
222.97	0.000
223.34	-200.000
223.72	7.143
224.09	-19.048
224.46	10.714
224.84	333.333
225.21	-80.000
225.59	-33.333
225.96	100.000
226.34	175.000
226.71	-114.286
227.08	83.333
227.46	-25.000
227.83	-450.000
228.21	44.444
228.58	-72.727
228.95	25.000
229.33	80.000
229.70	6.250
230.08	-137.500
230.45	-157.143
230.82	14.286
231.20	0.000
231.57	64.286
231.95	-85.714
232.32	-140.000
232.69	85.714
233.07	-333.333
233.44	-80.000
233.81	-90.000
234.19	111.111
234.56	29.412
234.93	100.000
235.31	50.000
235.68	0.000
236.05	-30.769
236.43	-5.000
236.80	0.000
237.17	12.500
237.55	25.000
237.92	-51.852
238.29	13.889
238.67	33.333
239.04	0.000
239.41	-12.195
239.79	13.333
240.16	21.951
240.53	0.000
240.91	15.217
241.28	12.698
241.65	28.571
242.02	31.507
242.40	31.667
242.77	13.559
243.14	21.212
243.51	41.250
243.89	37.931
244.26	24.138
244.63	3.571
245.00	30.928
245.38	35.052
245.75	19.101
246.12	23.276
246.49	25.620
246.87	23.077
247.24	22.689
247.61	18.421
247.98	30.081
248.36	30.000
248.73	32.237
249.10	25.325
249.47	29.114
249.84	26.144
250.22	28.235
250.59	30.065
250.96	34.272
251.33	23.256
251.70	31.765
252.08	30.964
252.45	24.752
252.82	31.156
253.19	28.111
253.56	26.636
253.94	32.883
254.31	32.174
254.68	34.211
255.05	25.197
255.42	29.694
255.79	24.710
256.16	27.626
256.54	28.731
256.91	23.194
257.28	27.509
257.65	29.588
258.02	29.787
258.39	29.293
258.76	33.333
259.14	31.229
259.51	28.155
259.88	26.804
260.25	29.739
260.62	29.514
260.99	25.424
261.36	25.342
261.73	28.797
262.10	26.140
262.47	27.301
262.85	31.034
263.22	30.462
263.59	28.972
263.96	32.609
264.33	26.061
264.70	26.190
265.07	31.250
265.44	29.745
265.81	29.379
266.18	28.142
266.55	29.306
266.92	30.570
267.29	31.593
267.66	31.458
268.03	29.058
268.40	31.593
268.77	32.353
269.14	29.736
269.51	30.077
269.88	28.678
270.25	27.551
270.62	27.073
270.99	29.156
271.36	25.428
271.73	30.047
272.10	29.197
272.47	32.151
272.84	28.713
273.21	30.858
273.58	30.602
273.95	29.291
274.32	26.559
274.69	25.792
275.06	29.688
275.43	29.252
275.80	28.698
276.17	29.425
276.54	28.266
276.91	27.851
277.28	30.131
277.65	25.620
278.02	28.723
278.39	31.729
278.76	28.721
279.13	27.178
279.50	28.992
279.87	28.510
280.23	27.527
280.60	28.655
280.97	29.293
281.34	26.923
281.71	31.622
282.08	25.562
282.45	26.223
282.82	26.448
283.19	28.240
283.56	27.746
283.92	27.324
284.29	24.423
284.66	26.744
285.03	24.754
285.40	29.112
285.77	26.011
286.14	27.798
286.51	28.044
286.87	25.777
287.24	26.335
287.61	26.102
287.98	26.667
288.35	26.863
288.72	29.072
289.08	26.562
289.45	27.768
289.82	26.224
290.19	24.232
290.56	23.156
290.93	23.737
291.29	23.421
291.66	22.520
292.03	22.967
292.40	25.484
292.77	23.445
293.13	22.240
293.50	22.762
293.87	23.969
294.24	24.575
294.60	21.610
294.97	23.958
295.34	22.699
295.71	23.249
296.08	20.329
296.44	20.626
296.81	21.667
297.18	22.174
297.55	24.119
297.91	22.603
298.28	22.296
298.65	20.488
299.02	20.081
299.38	19.836
299.75	19.862
300.12	21.073
300.48	19.631
300.85	21.166
301.22	20.649
301.59	21.184
301.95	20.380
302.32	22.698
302.69	21.144
303.05	19.059
303.42	20.922
303.79	19.509
304.15	20.669
304.52	18.906
304.89	18.363
305.25	19.007
305.62	19.487
305.99	19.649
306.35	19.422
306.72	17.885
307.09	18.928
307.45	19.288
307.82	19.444
308.19	21.487
308.55	19.411
308.92	19.063
309.29	20.670
309.65	19.160
310.02	19.362
310.38	18.661
310.75	20.219
311.12	20.022
311.48	19.830
311.85	18.848
312.22	18.354
312.58	20.170
312.95	19.851
313.31	19.979
313.68	20.419
314.05	19.184
314.41	21.340
314.78	18.041
315.14	20.658
315.51	21.222
315.87	19.160
316.24	22.346
316.61	21.161
316.97	22.024
317.34	20.801
317.70	21.893
318.07	22.115
318.43	22.647
318.80	22.822
319.16	23.633
319.53	23.552
319.89	24.213
320.26	24.393
320.62	25.276
320.99	24.217
321.35	25.694
321.72	27.934
322.08	26.385
322.45	27.817
322.81	27.308
323.18	27.478
323.54	28.958
323.91	29.406
324.27	29.785
324.64	31.742
325.00	31.934
325.37	33.609
325.73	32.004
326.10	33.152
326.46	35.605
326.83	33.946
327.19	35.745
327.56	36.577
327.92	37.588
328.29	35.982
328.65	38.868
329.01	39.430
329.38	38.986
329.74	38.999
330.11	41.057
330.47	40.260
330.84	38.750
331.20	44.011
331.56	40.556
331.93	41.461
332.29	43.263
332.66	42.896
333.02	43.494
333.38	42.255
333.75	44.322
334.11	43.330
334.48	45.422
334.84	44.597
335.20	44.099
335.57	43.427
335.93	44.896
336.29	42.910
336.66	44.051
337.02	45.911
337.38	45.556
337.75	45.545
338.11	44.815
338.47	47.172
338.84	47.874
339.20	46.618
339.56	46.055
339.93	47.269
340.29	47.706
340.65	46.864
341.02	47.518
341.38	46.726
341.74	46.113
342.11	47.140
342.47	49.199
342.83	46.713
343.20	47.648
343.56	48.870
343.92	46.590
344.28	48.164
344.65	48.446
345.01	48.055
345.37	48.780
345.73	48.285
346.10	49.525
346.46	49.117
346.82	49.673
347.19	47.298
347.55	48.705
347.91	48.220
348.27	48.424
348.63	51.533
349.00	49.057
349.36	49.460
349.72	50.829
350.08	48.443
350.45	49.401
350.81	49.834
351.17	49.593
351.53	50.286
351.89	50.619
352.26	48.400
352.62	50.000
352.98	49.639
353.34	50.483
353.70	50.405
354.07	51.855
354.43	50.360
354.79	52.766
355.15	49.841
355.51	50.712
355.87	50.243
356.24	50.734
356.60	51.819
356.96	51.984
357.32	50.958
357.68	52.150
358.04	52.423
358.40	50.965
358.77	52.871
359.13	52.922
359.49	50.770
359.85	52.496
360.21	53.110
360.57	50.574
360.93	52.648
361.29	52.568
361.66	53.997
362.02	51.894
362.38	53.542
362.74	52.006
363.10	54.251
363.46	54.559
363.82	53.043
364.18	52.251
364.54	53.015
364.90	54.552
365.26	53.421
365.62	55.328
365.98	53.592
366.35	55.499
366.71	54.472
367.07	53.991
367.43	54.062
367.79	54.770
368.15	53.984
368.51	54.334
368.87	54.056
369.23	52.996
369.59	55.977
369.95	54.985
370.31	54.769
370.67	55.075
371.03	53.846
371.39	55.288
371.75	54.945
372.11	54.993
372.47	55.843
372.83	56.494
373.19	55.706
373.55	55.090
373.91	55.724
374.27	57.264
374.63	56.856
374.99	56.312
375.35	54.318
375.71	56.643
376.07	56.882
376.42	56.735
376.78	56.846
377.14	55.789
377.50	56.640
377.86	56.961
378.22	56.669
378.58	56.667
378.94	57.908
379.30	56.769
379.66	56.928
380.02	57.327
380.38	56.665
380.74	56.673
381.09	57.730
381.45	57.187
381.81	57.804
382.17	57.424
382.53	56.277
382.89	59.071
383.25	59.054
383.61	57.561
383.97	58.286
384.32	57.536
384.68	57.461
385.04	58.027
385.40	57.996
385.76	59.811
386.12	58.215
386.48	58.621
386.83	58.529
387.19	59.402
387.55	60.289
387.91	58.130
388.27	57.204
388.62	58.968
388.98	57.643
389.34	57.964
389.70	58.981
390.06	56.639
390.42	58.873
390.77	60.235
391.13	57.881
391.49	58.344
391.85	59.519
392.20	58.820
392.56	58.868
392.92	58.426
393.28	58.255
393.64	57.177
393.99	60.376
394.35	57.875
394.71	58.621
395.07	58.831
395.42	57.559
395.78	59.414
396.14	56.683
396.50	58.782
396.85	58.339
397.21	58.333
397.57	58.871
397.92	57.579
398.28	57.414
398.64	56.386
399.00	56.998
399.35	56.885
399.71	56.749
400.07	58.162
400.42	57.466
400.78	59.400
401.14	56.987
401.49	57.892
401.85	57.404
402.21	56.687
402.57	57.250
402.92	57.779
403.28	58.020
403.63	58.071
403.99	57.844
404.35	57.651
404.70	56.190
405.06	56.404
405.42	56.308
405.77	56.421
406.13	57.567
406.49	56.661
406.84	58.130
407.20	57.315
407.55	56.214
407.91	57.487
408.27	56.342
408.62	57.292
408.98	56.439
409.34	56.629
409.69	56.008
410.05	54.803
410.40	56.111
410.76	55.428
411.11	55.937
411.47	56.016
411.83	56.058
412.18	58.172
412.54	56.429
412.89	54.495
413.25	54.874
413.60	56.584
413.96	54.724
414.31	54.756
414.67	55.228
415.03	55.060
415.38	54.047
415.74	55.635
416.09	56.368
416.45	55.436
416.80	54.065
417.16	55.732
417.51	55.163
417.87	55.150
418.22	56.541
418.58	54.983
418.93	54.734
419.29	53.393
419.64	55.671
420.00	55.856
420.35	53.791
420.71	53.645
421.06	53.468
421.42	54.387
421.77	55.029
422.12	55.505
422.48	52.842
422.83	52.958
423.19	53.612
423.54	53.498
423.90	53.887
424.25	53.731
424.61	54.774
424.96	53.310
425.31	54.188
425.67	54.988
426.02	55.536
426.38	54.790
426.73	54.237
427.09	54.620
427.44	54.059
427.79	53.565
428.15	54.369
428.50	54.149
428.85	53.010
429.21	53.650
429.56	54.663
429.92	52.953
430.27	52.130
430.62	52.274
430.98	51.752
431.33	54.154
431.68	52.486
432.04	52.990
432.39	52.196
432.74	52.315
433.10	53.621
433.45	53.047
433.80	53.047
434.16	52.853
434.51	51.452
434.86	53.194
435.22	52.328
435.57	51.840
435.92	53.413
436.28	52.415
436.63	52.481
436.98	51.970
437.34	51.906
437.69	53.190
438.04	53.447
438.39	51.619
438.75	53.430
439.10	52.575
439.45	52.587
439.81	52.232
440.16	54.157
440.51	52.418
440.86	53.837
441.22	51.527
441.57	52.263
441.92	52.308
442.27	52.827
442.63	52.195
442.98	51.694
443.33	51.252
443.68	52.149
444.03	51.813
444.39	51.746
444.74	53.010
445.09	52.895
445.44	52.707
445.79	52.811
446.15	50.771
446.50	51.470
446.85	51.488
447.20	52.607
447.55	51.060
447.91	50.874
448.26	50.256
448.61	51.583
448.96	51.750
449.31	52.023
449.66	51.568
450.02	52.025
450.37	51.689
450.72	51.432
451.07	51.203
451.42	50.687
451.77	50.332
452.12	50.897
452.47	50.547
452.83	51.237
453.18	51.360
453.53	52.149
453.88	51.245
454.23	51.690
454.58	51.826
454.93	50.773
455.28	50.540
455.63	50.031
455.98	51.293
456.34	50.192
456.69	50.000
457.04	49.968
457.39	50.972
457.74	50.181
458.09	48.970
458.44	50.614
458.79	48.852
459.14	49.828
459.49	51.284
459.84	48.900
460.19	49.939
460.54	49.756
460.89	50.227
461.24	50.248
461.59	50.534
461.94	49.560
462.29	50.362
462.64	50.565
462.99	48.612
463.34	50.000
463.69	49.743
464.04	48.850
464.39	49.848
464.74	49.509
465.09	48.534
465.44	48.240
465.79	48.073
466.14	49.145
466.49	48.304
466.84	48.780
467.19	49.061
467.54	47.765
467.89	48.895
468.24	48.418
468.59	49.460
468.94	47.365
469.29	48.131
469.64	48.872
469.99	49.685
470.34	47.782
470.68	49.888
471.03	49.257
471.38	46.862
471.73	49.020
472.08	46.676
472.43	47.919
472.78	47.019
473.13	47.143
473.48	47.687
473.83	45.704
474.17	47.668
474.52	47.926
474.87	47.879
475.22	46.553
475.57	46.302
475.92	47.175
476.27	47.439
476.61	47.280
476.96	46.347
477.31	46.187
477.66	46.011
478.01	47.052
478.36	47.495
478.70	48.124
479.05	47.582
479.40	46.900
479.75	45.881
480.10	45.315
480.45	46.450
480.79	46.626
481.14	46.363
481.49	45.369
481.84	45.849
482.19	45.323
482.53	46.043
482.88	45.919
483.23	45.345
483.58	45.283
483.92	44.869
484.27	44.303
484.62	45.495
484.97	44.403
485.31	43.895
485.66	42.826
486.01	43.371
486.36	42.814
486.70	43.802
487.05	43.556
487.40	43.330
487.75	43.493
488.09	42.831
488.44	43.226
488.79	42.436
489.13	44.872
489.48	43.352
489.83	43.318
490.17	43.461
490.52	43.464
490.87	42.989
491.22	43.601
491.56	43.027
491.91	43.164
492.26	44.191
492.60	43.474
492.95	44.368
493.30	42.452
493.64	44.892
493.99	43.188
494.34	43.252
494.68	43.000
495.03	42.482
495.37	43.376
495.72	43.210
496.07	43.659
496.41	42.311
496.76	42.515
497.11	41.733
497.45	42.339
497.80	43.693
498.14	41.977
498.49	43.220
498.84	42.615
499.18	42.821
499.53	43.105
499.87	41.683
500.22	41.840
500.56	41.906
500.91	43.122
501.26	41.671
501.60	41.613
501.95	41.533
502.29	42.131
502.64	42.568
502.98	42.131
503.33	40.874
503.67	40.675
504.02	41.251
504.36	42.058
504.71	40.909
505.06	41.017
505.40	41.168
505.75	41.340
506.09	40.345
506.44	41.786
506.78	41.122
507.13	40.383
507.47	41.044
507.82	41.346
508.16	40.940
508.51	41.815
508.85	41.130
509.19	41.086
509.54	41.180
509.88	41.100
510.23	41.366
510.57	40.513
510.92	40.032
511.26	41.571
511.61	41.254
511.95	40.055
512.30	40.576
512.64	41.347
512.98	40.371
513.33	41.074
513.67	40.875
514.02	41.362
514.36	41.886
514.70	41.667
515.05	41.951
515.39	40.496
515.74	41.437
516.08	40.825
516.42	41.225
516.77	40.550
517.11	40.890
517.46	40.754
517.80	40.584
518.14	39.253
518.49	39.844
518.83	40.401
519.17	40.085
519.52	38.603
519.86	39.976
520.20	39.733
520.55	40.525
520.89	40.088
521.23	39.899
521.58	40.379
521.92	40.705
522.26	40.013
522.61	39.675
522.95	40.331
523.29	39.644
523.64	39.898
523.98	41.089
524.32	38.724
524.66	38.476
525.01	39.156
525.35	39.469
525.69	38.990
526.04	38.558
526.38	40.078
526.72	38.195
527.06	39.364
527.41	40.040
527.75	37.869
528.09	37.874
528.43	40.716
528.78	39.208
529.12	39.161
529.46	38.077
529.80	38.189
530.15	39.670
530.49	37.778
530.83	39.603
531.17	37.609
531.51	39.945
531.86	38.409
532.20	38.344
532.54	39.074
532.88	38.467
533.22	38.374
533.57	37.877
533.91	37.859
534.25	38.411
534.59	37.460
534.93	36.627
535.27	36.929
535.62	35.515
535.96	37.704
536.30	37.995
536.64	38.181
536.98	36.934
537.32	39.260
537.66	37.588
538.01	38.322
538.35	37.240
538.69	37.617
539.03	37.457
539.37	37.483
539.71	37.628
540.05	36.185
540.39	38.296
540.73	36.960
541.07	37.500
541.42	38.239
541.76	35.994
542.10	36.132
542.44	36.762
542.78	36.201
543.12	35.783
543.46	37.135
543.80	35.531
544.14	35.113
544.48	36.509
544.82	36.500
545.16	36.885
545.50	35.447
545.84	36.331
546.18	36.879
546.52	35.472
546.86	35.155
547.20	36.195
547.54	33.993
547.88	35.598
548.22	34.648
548.56	36.148
548.90	35.782
549.24	35.537
549.58	35.825
549.92	34.310
550.26	34.725
550.60	36.580
550.94	35.997
551.28	35.162
551.62	35.769
551.96	35.489
552.30	34.211
552.64	34.626
552.98	35.232
553.32	35.235
553.66	34.543
554.00	35.036
554.34	35.081
554.68	35.472
555.02	35.565
555.36	33.508
555.69	34.652
556.03	34.761
556.37	34.164
556.71	34.874
557.05	34.228
557.39	33.978
557.73	34.558
558.07	35.445
558.41	34.533
558.75	34.295
559.08	33.018
559.42	35.000
559.76	35.468
560.10	34.098
560.44	33.507
560.78	34.545
561.12	33.850
561.45	34.645
561.79	34.664
562.13	34.776
562.47	33.094
562.81	33.213
563.15	33.639
563.48	33.310
563.82	34.729
564.16	34.610
564.50	33.514
564.84	33.333
565.17	33.669
565.51	34.016
565.85	34.156
566.19	33.422
566.52	34.249
566.86	33.740
567.20	33.935
567.54	34.124
567.88	34.036
568.21	33.654
568.55	33.043
568.89	33.932
569.23	33.462
569.56	33.275
569.90	33.171
570.24	32.304
570.57	33.200
570.91	32.625
571.25	32.259
571.59	31.641
571.92	31.407
572.26	31.159
572.60	31.256
572.93	31.409
573.27	30.972
573.61	31.116
573.95	31.759
574.28	30.773
574.62	30.714
574.96	30.541
575.29	30.490
575.63	29.982
575.97	30.306
576.30	30.812
576.64	29.881
576.98	31.120
577.31	30.597
577.65	30.826
577.98	31.002
578.32	30.198
578.66	30.282
578.99	30.323
579.33	30.227
579.67	30.003
580.00	30.025
580.34	30.473
580.67	29.773
581.01	30.355
581.35	30.362
581.68	30.014
582.02	30.446
582.35	29.805
582.69	30.113
583.02	29.887
583.36	31.015
583.70	30.556
584.03	30.720
584.37	30.717
584.70	30.082
585.04	29.275
585.37	29.582
585.71	29.647
586.04	30.383
586.38	29.581
586.72	30.301
587.05	30.589
587.39	30.752
587.72	30.426
588.06	29.947
588.39	29.906
588.73	30.067
589.06	30.431
589.40	30.453
589.73	31.398
590.07	30.702
590.40	30.611
590.73	30.766
591.07	30.619
591.40	30.365
591.74	30.814
592.07	30.519
592.41	31.228
592.74	30.108
593.08	29.060
593.41	30.379
593.75	29.899
594.08	29.523
594.41	29.876
594.75	29.924
595.08	30.609
595.42	30.475
595.75	30.342
596.09	30.219
596.42	29.971
596.75	30.195
597.09	30.114
597.42	29.720
597.75	30.463
598.09	29.380
598.42	29.287
598.76	29.215
599.09	29.768
599.42	29.254
599.76	29.157
600.09	29.789
600.42	29.378
600.76	28.752
601.09	28.626
601.42	28.829
601.76	28.980
602.09	29.167
602.42	29.612
602.76	29.160
603.09	29.070
603.42	30.184
603.76	29.315
604.09	28.595
604.42	29.188
604.76	30.218
605.09	29.205
605.42	29.932
605.75	29.904
606.09	28.917
606.42	29.233
606.75	28.701
607.09	29.890
607.42	28.844
607.75	28.686
608.08	28.841
608.42	29.054
608.75	29.060
609.08	29.048
609.41	29.086
609.75	28.881
610.08	29.656
610.41	28.744
610.74	28.376
611.07	30.284
611.41	29.995
611.74	29.851
612.07	28.961
612.40	29.814
612.73	29.548
613.07	29.303
613.40	29.595
613.73	28.539
614.06	29.605
614.39	28.765
614.72	28.852
615.06	29.665
615.39	28.439
615.72	28.902
616.05	29.106
616.38	28.661
616.71	28.746
617.05	29.339
617.38	29.101
617.71	28.994
618.04	30.413
618.37	29.319
618.70	29.505
619.03	29.861
619.36	28.292
619.69	31.160
620.03	30.679
620.36	30.186
620.69	30.050
621.02	28.517
621.35	29.793
621.68	30.187
622.01	29.500
622.34	30.407
622.67	29.653
623.00	29.250
623.33	30.030
623.66	28.048
623.99	28.744
624.32	28.365
624.65	28.947
624.99	29.044
625.32	28.506
625.65	29.222
625.98	29.412
626.31	28.429
626.64	29.463
626.97	30.628
627.30	29.072
627.63	29.029
627.96	30.548
628.29	29.695
628.62	29.892
628.95	28.958
629.28	28.931
629.61	30.708
629.94	30.108
630.26	29.743
630.59	31.426
630.92	29.846
631.25	27.897
631.58	28.084
631.91	30.044
632.24	30.161
632.57	28.977
632.90	30.961
633.23	28.706
633.56	29.471
633.89	29.716
634.22	31.728
634.55	28.971
634.88	29.502
635.20	29.359
635.53	31.200
635.86	29.259
636.19	29.107
636.52	30.612
636.85	28.660
637.18	27.547
637.51	28.931
637.83	28.515
638.16	31.378
638.49	27.929
638.82	31.053
639.15	27.408
639.48	30.261
639.81	29.289
640.13	29.293
640.46	28.863
640.79	26.951
641.12	29.099
641.45	30.631
641.77	29.926
642.10	31.754
642.43	30.547
642.76	31.683
643.09	28.756
643.41	29.450
643.74	29.325
644.07	30.706
644.40	30.068
644.73	30.823
645.05	29.866
645.38	29.806
645.71	31.028
646.04	32.675
646.36	29.610
646.69	32.194
647.02	29.490
647.35	28.172
647.67	29.250
648.00	31.157
648.33	28.669
648.66	29.153
648.98	27.638
649.31	29.587
649.64	28.100
649.96	27.066
650.29	30.664
650.62	30.940
650.94	29.444
651.27	27.747
651.60	29.009
651.92	29.720
652.25	27.353
652.58	28.000
652.90	29.503
653.23	28.908
653.56	28.257
653.88	27.491
654.21	26.445
654.54	27.504
654.86	30.390
655.19	28.509
655.52	29.567
655.84	26.313
656.17	29.005
656.49	38.660
656.82	39.940
657.15	30.280
657.47	22.647
657.80	16.445
658.13	16.403
658.45	25.164
658.78	25.453
659.10	24.916
659.43	25.136
659.75	25.407
660.08	24.621
660.41	26.660
660.73	25.691
661.06	28.423
661.38	28.767
661.71	25.462
662.03	28.970
662.36	26.593
662.68	26.327
663.01	27.948
663.33	28.538
663.66	25.581
663.98	26.512
664.31	27.079
664.63	27.650
664.96	24.130
665.28	26.490
665.61	27.706
665.93	29.565
666.26	31.887
666.58	25.056
666.91	28.000
667.23	29.009
667.56	26.777
667.88	29.017
668.21	28.878
668.53	28.369
668.86	28.538
669.18	27.358
669.50	24.939
669.83	27.442
670.15	28.205
670.48	27.990
670.80	25.115
671.13	25.727
671.45	27.169
671.77	27.253
672.10	28.911
672.42	25.281
672.75	28.242
673.07	27.013
673.39	29.174
673.72	26.233
674.04	26.250
674.37	27.754
674.69	25.482
675.01	27.333
675.34	26.351
675.66	29.167
675.98	29.047
676.31	27.523
676.63	27.316
676.95	26.818
677.28	29.882
677.60	28.434
677.92	29.587
678.25	27.133
678.57	27.489
678.89	26.471
679.22	28.188
679.54	26.707
679.86	25.447
680.18	26.990
680.51	26.515
680.83	25.447
681.15	25.400
681.48	29.098
681.80	26.860
682.12	28.427
682.44	24.895
682.77	26.711
683.09	28.604
683.41	25.455
683.73	25.346
684.06	27.212
684.38	24.301
684.70	27.015
685.02	24.481
685.34	26.482
685.67	25.141
685.99	28.210
686.31	26.549
686.63	24.675
686.96	24.715
687.28	22.222
687.60	22.243
687.92	26.061
688.24	25.806
688.56	27.293
688.89	25.446
689.21	25.556
689.53	23.434
689.85	26.512
690.17	27.902
690.49	27.896
690.82	22.816
691.14	23.333
691.46	27.570
691.78	26.802
692.10	26.237
692.42	26.623
692.74	24.786
693.06	23.874
693.39	25.566
693.71	24.208
694.03	25.866
694.35	27.804
694.67	27.020
694.99	24.021
695.31	25.587
695.63	28.500
695.95	25.000
696.27	27.720
696.59	28.056
696.91	22.689
697.23	25.707
697.56	25.495
697.88	26.882
698.20	25.285
698.52	25.882
698.84	25.837
699.16	25.750
699.48	24.311
699.80	25.806
700.12	24.528
700.44	27.171
700.76	25.000
701.08	23.333
701.40	28.012
701.72	27.160
702.04	23.432
702.36	24.080
702.68	28.829
703.00	26.364
703.32	29.032
703.64	21.751
703.96	26.377
704.28	24.847
704.60	27.619
704.91	22.397
705.23	26.910
705.55	28.975
705.87	29.964
706.19	26.296
706.51	25.086
706.83	24.437
707.15	22.118
707.47	29.412
707.79	24.219
708.11	27.000
708.43	26.750
708.74	25.065
709.06	28.169
709.38	25.382
709.70	26.036
710.02	24.204
710.34	27.245
710.66	25.000
710.98	23.841
711.29	28.852
711.61	26.441
711.93	30.619
712.25	32.646
712.57	29.670
712.89	21.642
713.20	24.567
713.52	26.481
713.84	24.573
714.16	25.430
714.48	25.484
714.80	26.282
715.11	27.052
715.43	20.690
715.75	25.000
716.07	24.917
716.39	22.148
716.70	21.771
717.02	22.137
717.34	26.316
717.66	29.204
717.97	24.783
718.29	24.686
718.61	29.134
718.93	28.295
719.24	27.376
719.56	28.514
719.88	23.368
720.20	24.242
720.51	23.372
720.83	29.344
721.15	24.370
721.46	20.968
721.78	24.506
722.10	23.792
722.42	24.896
722.73	28.980
723.05	31.020
723.37	28.814
723.68	29.279
724.00	29.487
724.32	21.778
724.63	21.818
724.95	29.694
725.27	26.267
725.58	24.576
725.90	23.810
726.22	27.799
726.53	29.831
726.85	25.843
727.16	26.038
727.48	22.672
727.80	21.457
728.11	24.576
728.43	25.490
728.74	20.968
729.06	25.200
729.38	30.451
729.69	20.717
730.01	18.846
730.32	27.612
730.64	22.615
730.96	26.792
731.27	22.000
731.59	24.068
731.90	21.656
732.22	23.659
732.53	28.239
732.85	23.404
733.16	24.579
733.48	18.705
733.80	21.739
734.11	21.017
734.43	20.962
734.74	25.152
735.06	20.521
735.37	28.399
735.69	25.253
736.00	22.300
736.32	23.490
736.63	26.408
736.95	24.573
737.26	22.064
737.58	17.785
737.89	21.245
738.21	23.684
738.52	27.572
738.83	24.454
739.15	19.651
739.46	25.984
739.78	22.711
740.09	25.490
740.41	26.449
740.72	20.866
741.04	24.291
741.35	23.404
741.66	26.540
741.98	20.918
742.29	23.762
742.61	20.419
742.92	22.275
743.23	22.222
743.55	21.267
743.86	28.708
744.18	24.402
744.49	23.936
744.80	20.652
745.12	27.807
745.43	21.951
745.74	20.833
746.06	22.927
746.37	23.037
746.68	25.118
747.00	22.340
747.31	29.851
747.62	22.330
747.94	22.967
748.25	22.772
748.56	24.044
748.88	18.325
749.19	26.596
749.50	25.123
749.82	21.226
750.13	22.018
750.44	25.188
750.75	24.627
751.07	28.467
751.38	20.690
751.69	23.137
752.01	25.581
752.32	26.693
752.63	21.739
752.94	24.569
753.26	32.218
753.57	24.434
753.88	27.876
754.19	23.750
754.51	24.793
754.82	25.101
755.13	25.000
755.44	28.629
755.75	23.828
756.07	24.514
756.38	24.151
756.69	25.287
757.00	22.333
757.31	25.163
757.63	18.598
757.94	20.833
758.25	20.274
758.56	20.745
758.87	18.980
759.18	23.364
759.50	20.364
759.81	22.408
760.12	23.548
760.43	22.121
760.74	28.086
761.05	22.769
761.36	25.000
761.67	29.091
761.99	23.469
762.30	20.364
762.61	21.344
762.92	21.267
763.23	22.523
763.54	15.421
763.85	22.881
764.16	20.332
764.47	18.548
764.78	21.612
765.10	23.232
765.41	21.136
765.72	26.032
766.03	23.684
766.34	27.737
766.65	21.912
766.96	22.222
767.27	16.489
767.58	17.816
767.89	13.475
768.20	18.182
768.51	23.626
768.82	26.601
769.13	21.659
769.44	18.884
769.75	18.265
770.06	29.310
770.37	23.558
770.68	21.827
770.99	20.814
771.30	23.039
771.61	19.457
771.92	25.862
772.23	22.167
772.54	19.355
772.85	23.457
773.16	20.225
773.47	28.105
773.78	27.451
774.09	21.557
774.39	15.333
774.70	19.108
775.01	33.103
775.32	15.714
775.63	9.917
775.94	18.321
776.25	22.835
776.56	23.333
776.87	27.885
777.18	17.949
777.48	23.276
777.79	13.043
778.10	9.524
778.41	16.216
778.72	23.810
779.03	27.068
779.34	17.730
779.65	28.082
779.95	17.808
780.26	27.586
780.57	13.008
780.88	27.559
781.19	19.828
781.50	17.054
781.80	21.302
782.11	21.384
782.42	17.692
782.73	20.863
783.04	19.259
783.34	18.750
783.65	13.675
783.96	19.672
784.27	19.310
784.57	21.138
784.88	23.437
785.19	24.000
785.50	25.000
785.81	21.552
786.11	24.138
786.42	25.243
786.73	26.364
787.04	22.449
787.34	19.643
787.65	16.190
787.96	25.664
788.26	24.545
788.57	20.513
788.88	25.781
789.19	25.397
789.49	13.043
789.80	19.388
790.11	18.182
790.41	24.545
790.72	23.913
791.03	12.500
791.33	35.000
791.64	15.000
791.95	10.465
792.25	21.277
792.56	16.854
792.87	20.548
793.17	-7.246
793.48	18.667
793.79	12.500
794.09	13.750
794.40	5.660
794.70	15.534
795.01	13.821
795.32	7.692
795.62	19.048
795.93	17.647
796.23	22.642
796.54	21.875
796.85	16.176
797.15	16.901
797.46	19.444
797.76	9.091
798.07	19.767
798.37	9.211
798.68	13.636
798.99	19.753
799.29	27.143
799.60	28.986
799.90	16.000
800.21	9.836
800.51	13.846
800.82	8.475
801.12	24.638
801.43	24.590
801.73	22.222
802.04	8.000
802.34	4.478
802.65	21.154
802.95	14.286
803.26	11.538
803.56	19.608
803.87	0.000
804.17	18.667
804.48	31.746
804.78	22.222
805.09	17.391
805.39	17.778
805.70	11.111
806.00	-7.018
806.30	35.211
806.61	27.143
806.91	9.722
807.22	18.421
807.52	24.000
807.83	-3.636
808.13	23.611
808.43	13.235
808.74	1.493
809.04	8.475
809.35	23.077
809.65	7.813
809.95	-13.514
810.26	2.273
810.56	23.288
810.86	19.048
811.17	18.000
811.47	22.449
811.77	-28.947
812.08	11.364
812.38	15.094
812.69	0.000
812.99	18.182
813.29	10.526
813.59	-2.857
813.90	2.273
814.20	-12.821
814.50	17.308
814.81	13.208
815.11	8.511
815.41	18.644
815.72	23.810
816.02	19.608
816.32	18.750
816.62	2.439
816.93	2.703
817.23	0.000
817.53	10.417
817.84	19.565
818.14	15.385
818.44	0.000
818.74	19.565
819.04	-37.500
819.35	-2.703
819.65	20.588
819.95	-5.556
820.25	16.667
820.56	37.500
820.86	-44.828
821.16	45.000
821.46	21.277
821.76	32.500
822.07	0.000
822.37	-5.405
822.67	15.625
822.97	40.476
823.27	-3.571
823.57	-24.000
823.88	-29.630
824.18	21.429
824.48	23.529
824.78	-25.806
825.08	17.391
825.38	27.273
825.69	-41.667
825.99	-5.263
826.29	-8.333
826.59	26.667
826.89	-42.857
827.19	2.174
827.49	22.500
827.79	20.000
828.09	39.286
828.39	48.485
828.70	59.459
829.00	3.571
829.30	-14.286
829.60	36.667
829.90	18.750
830.20	-2.632
830.50	-3.704
830.80	-8.696
831.10	22.727
831.40	18.182
831.70	25.806
832.00	33.333
832.30	-14.286
832.60	-16.667
832.90	0.000
833.20	-50.000
833.50	30.303
833.80	-3.704
834.10	3.846
834.40	37.500
834.70	-22.222
835.00	36.842
835.30	30.769
835.60	60.000
835.90	45.161
836.20	27.273
836.50	25.000
836.80	-19.231
837.10	-14.286
837.40	-266.667
837.70	-18.182
838.00	-63.636
838.30	8.696
838.60	38.462
838.90	18.182
839.19	-25.000
839.49	40.000
839.79	61.538
840.09	0.000
840.39	35.714
840.69	-21.429
840.99	-3.846
841.29	-52.632
841.59	-110.000
841.88	63.636
842.18	40.000
842.48	18.750
842.78	13.333
843.08	-3.704
843.38	-140.000
843.68	8.696
843.97	6.667
844.27	-80.000
844.57	0.000
844.87	11.111
845.17	-66.667
845.47	-13.333
845.76	-19.048
846.06	29.412
846.36	-40.000
846.66	-107.143
846.96	40.000
847.25	-75.000
847.55	0.000
847.85	-50.000
848.15	-4.545
848.44	-366.667
848.74	-30.000
849.04	3.704
849.34	-54.545
849.63	-166.667
849.93	-280.000
850.23	11.111
850.53	-40.000
850.82	-53.846
851.12	-22.222
851.42	-73.333
851.71	7.692
852.01	-28.571
852.31	-325.000
852.61	27.273
852.90	-45.000
853.20	0.000
853.50	0.000
853.79	13.043
854.09	29.167
854.39	15.789
854.68	20.833
854.98	25.806
855.28	19.231
855.57	5.000
855.87	-5.556
856.17	51.852
856.46	0.000
856.76	-20.000
857.05	-22.222
857.35	56.000
857.65	0.000
857.94	-30.769
858.24	13.793
858.53	27.778
858.83	33.333
859.13	-18.182
859.42	-34.783
859.72	0.000
860.01	-333.333
860.31	16.000
860.60	-9.524
860.90	-133.333
861.20	-33.333
861.49	-650.000
861.79	-66.667
862.08	0.000
862.38	53.333
862.67	-320.000
862.97	33.333
863.26	-41.667
863.56	-11.111
863.85	-733.333
864.15	44.444
864.44	30.000
864.74	71.429
865.03	200.000
865.33	-140.000
865.62	-116.667
865.92	-50.000
866.21	-266.667
866.51	56.250
866.80	-45.455
867.10	-650.000
867.39	108.333
867.69	0.000
867.98	15.385
868.27	-400.000
868.57	-13.333
868.86	50.000
869.16	-100.000
869.45	33.333
869.75	-1500.000
870.04	0.000
870.33	-14.286
870.63	42.857
870.92	233.333
871.22	-160.000
871.51	-200.000
871.80	-11.111
872.10	100.000
>>>>>End Processed Spectral Data<<<<<
