SpectraSuite Data File
++++++++++++++++++++++++++++++++++++
Date: Fri May 15 20:49:43 PDT 2015
User: schluterlab
Dark Spectrum Present: Yes
Reference Spectrum Present: Yes
Number of Sampled Component Spectra: 1
Spectrometers: USB2E3373
Integration Time (usec): 3000 (USB2E3373)
Spectra Averaged: 3 (USB2E3373)
Boxcar Smoothing: 0 (USB2E3373)
Correct for Electrical Dark: No (USB2E3373)
Strobe/Lamp Enabled: No (USB2E3373)
Correct for Detector Non-linearity: No (USB2E3373)
Correct for Stray Light: No (USB2E3373)
Number of Pixels in Processed Spectrum: 2048
>>>>>Begin Processed Spectral Data<<<<<
178.53	0.000
178.91	0.000
179.29	-25.000
179.67	-750.000
180.04	-0.000
180.42	-75.000
180.80	-500.000
181.18	-33.333
181.56	200.000
181.94	-200.000
182.31	-100.000
182.69	-40.000
183.07	-133.333
183.45	-200.000
183.83	283.333
184.20	-81.818
184.58	166.667
184.96	-50.000
185.34	-0.000
185.72	0.000
186.09	53.846
186.47	-400.000
186.85	233.333
187.23	133.333
187.61	500.000
187.98	-33.333
188.36	44.444
188.74	-233.333
189.12	-17.647
189.49	22.222
189.87	0.000
190.25	42.857
190.63	100.000
191.00	-466.667
191.38	15.789
191.76	200.000
192.14	100.000
192.51	500.000
192.89	0.000
193.27	-42.857
193.65	266.667
194.02	181.818
194.40	70.000
194.78	-50.000
195.15	-25.000
195.53	-100.000
195.91	175.000
196.29	-450.000
196.66	69.231
197.04	42.857
197.42	0.000
197.79	-300.000
198.17	-107.692
198.55	1200.000
198.92	-33.333
199.30	-300.000
199.68	140.000
200.05	-233.333
200.43	0.000
200.81	-433.333
201.18	100.000
201.56	600.000
201.94	-900.000
202.31	66.667
202.69	-220.000
203.07	275.000
203.44	100.000
203.82	0.000
204.19	28.571
204.57	-100.000
204.95	75.000
205.32	-20.000
205.70	-100.000
206.08	-150.000
206.45	211.111
206.83	14.286
207.20	-100.000
207.58	200.000
207.96	-200.000
208.33	-70.000
208.71	0.000
209.08	-33.333
209.46	-300.000
209.84	-160.000
210.21	-900.000
210.59	-28.571
210.96	-150.000
211.34	-125.000
211.71	13.333
212.09	-214.286
212.46	-1500.000
212.84	0.000
213.22	60.000
213.59	200.000
213.97	61.538
214.34	36.364
214.72	-183.333
215.09	275.000
215.47	-23.077
215.84	-18.182
216.22	-100.000
216.59	0.000
216.97	100.000
217.34	-200.000
217.72	-320.000
218.09	-62.500
218.47	112.500
218.84	200.000
219.22	-133.333
219.59	-200.000
219.97	166.667
220.34	250.000
220.72	-14.286
221.09	-100.000
221.47	0.000
221.84	-350.000
222.22	-500.000
222.59	54.545
222.97	-41.667
223.34	-333.333
223.72	-50.000
224.09	-4.762
224.46	-28.571
224.84	266.667
225.21	-80.000
225.59	93.333
225.96	-550.000
226.34	250.000
226.71	-142.857
227.08	-66.667
227.46	25.000
227.83	-250.000
228.21	44.444
228.58	-9.091
228.95	-75.000
229.33	140.000
229.70	25.000
230.08	-87.500
230.45	-157.143
230.82	42.857
231.20	6.667
231.57	50.000
231.95	57.143
232.32	-80.000
232.69	14.286
233.07	66.667
233.44	-60.000
233.81	-70.000
234.19	0.000
234.56	-5.882
234.93	200.000
235.31	325.000
235.68	-160.000
236.05	-46.154
236.43	-20.000
236.80	17.647
237.17	40.625
237.55	35.000
237.92	14.815
238.29	2.778
238.67	36.667
239.04	17.647
239.41	0.000
239.79	6.667
240.16	24.390
240.53	34.211
240.91	-8.696
241.28	28.571
241.65	28.571
242.02	34.247
242.40	10.000
242.77	23.729
243.14	16.667
243.51	27.500
243.89	31.034
244.26	21.839
244.63	27.381
245.00	19.588
245.38	19.588
245.75	14.607
246.12	23.276
246.49	23.140
246.87	25.000
247.24	22.689
247.61	23.684
247.98	24.390
248.36	23.750
248.73	17.763
249.10	19.481
249.47	25.949
249.84	25.490
250.22	30.588
250.59	32.026
250.96	28.638
251.33	18.023
251.70	27.059
252.08	27.919
252.45	27.723
252.82	22.613
253.19	31.797
253.56	23.364
253.94	22.973
254.31	22.174
254.68	35.088
255.05	24.409
255.42	29.258
255.79	24.710
256.16	23.735
256.54	32.090
256.91	22.053
257.28	24.907
257.65	24.719
258.02	21.986
258.39	28.620
258.76	26.007
259.14	24.585
259.51	26.214
259.88	29.210
260.25	25.817
260.62	26.389
260.99	25.085
261.36	22.603
261.73	27.215
262.10	29.179
262.47	22.699
262.85	26.646
263.22	27.077
263.59	25.234
263.96	25.155
264.33	26.970
264.70	28.869
265.07	22.917
265.44	26.912
265.81	26.836
266.18	25.956
266.55	28.535
266.92	27.461
267.29	23.238
267.66	26.598
268.03	27.487
268.40	30.548
268.77	28.610
269.14	24.460
269.51	30.334
269.88	25.436
270.25	25.255
270.62	23.415
270.99	26.087
271.36	22.249
271.73	26.056
272.10	27.494
272.47	24.823
272.84	28.218
273.21	26.450
273.58	26.506
273.95	25.858
274.32	25.404
274.69	21.946
275.06	27.902
275.43	24.036
275.80	24.062
276.17	25.287
276.54	23.983
276.91	27.412
277.28	23.144
277.65	28.926
278.02	25.319
278.39	24.070
278.76	24.948
279.13	21.992
279.50	27.311
279.87	23.974
280.23	23.226
280.60	24.951
280.97	26.667
281.34	24.231
281.71	27.721
282.08	25.562
282.45	25.245
282.82	24.324
283.19	23.985
283.56	25.626
283.92	22.581
284.29	21.538
284.66	23.643
285.03	26.916
285.40	24.008
285.77	24.429
286.14	26.173
286.51	26.568
286.87	21.207
287.24	25.414
287.61	21.869
287.98	23.860
288.35	22.877
288.72	22.767
289.08	22.049
289.45	23.726
289.82	24.650
290.19	23.038
290.56	22.470
290.93	24.242
291.29	22.188
291.66	20.787
292.03	20.893
292.40	22.742
292.77	20.893
293.13	19.318
293.50	17.602
293.87	22.137
294.24	21.329
294.60	22.504
294.97	21.429
295.34	20.552
295.71	20.119
296.08	20.329
296.44	19.488
296.81	20.972
297.18	18.261
297.55	21.274
297.91	20.137
298.28	20.449
298.65	19.810
299.02	19.003
299.38	18.057
299.75	18.069
300.12	19.241
300.48	17.655
300.85	19.899
301.22	17.143
301.59	17.500
301.95	19.114
302.32	20.363
302.69	18.905
303.05	17.698
303.42	17.310
303.79	18.692
304.15	19.355
304.52	16.885
304.89	18.246
305.25	19.855
305.62	17.270
305.99	19.064
306.35	17.919
306.72	18.223
307.09	18.928
307.45	18.370
307.82	17.940
308.19	19.280
308.55	18.866
308.92	19.499
309.29	18.324
309.65	18.622
310.02	19.142
310.38	18.441
310.75	19.891
311.12	18.730
311.48	19.618
311.85	18.220
312.22	18.987
312.58	18.577
312.95	18.356
313.31	18.944
313.68	19.267
314.05	19.592
314.41	20.206
314.78	21.031
315.14	20.863
315.51	21.222
315.87	21.209
316.24	20.425
316.61	22.244
316.97	22.024
317.34	21.680
317.70	22.467
318.07	22.500
318.43	21.078
318.80	22.443
319.16	23.145
319.53	24.122
319.89	23.327
320.26	23.077
320.62	24.975
320.99	23.591
321.35	24.974
321.72	27.103
322.08	26.586
322.45	26.193
322.81	26.130
323.18	28.067
323.54	26.641
323.91	26.777
324.27	28.418
324.64	29.494
325.00	29.015
325.37	29.017
325.73	30.009
326.10	29.882
326.46	30.942
326.83	32.108
327.19	32.520
327.56	33.102
327.92	33.539
328.29	32.857
328.65	34.528
329.01	34.099
329.38	36.037
329.74	34.372
330.11	36.052
330.47	35.807
330.84	34.808
331.20	39.068
331.56	36.759
331.93	36.895
332.29	36.755
332.66	36.923
333.02	37.454
333.38	36.664
333.75	39.469
334.11	36.705
334.48	38.894
334.84	39.011
335.20	39.250
335.57	37.715
335.93	39.928
336.29	39.042
336.66	38.965
337.02	38.848
337.38	39.259
337.75	39.364
338.11	40.848
338.47	41.058
338.84	38.355
339.20	40.219
339.56	41.376
339.93	39.302
340.29	41.651
340.65	40.591
341.02	41.489
341.38	39.823
341.74	41.431
342.11	40.035
342.47	41.993
342.83	41.436
343.20	41.376
343.56	42.087
343.92	42.693
344.28	43.296
344.65	41.278
345.01	41.487
345.37	41.632
345.73	42.092
346.10	42.709
346.46	42.893
346.82	41.980
347.19	41.147
347.55	42.774
347.91	42.718
348.27	41.876
348.63	43.782
349.00	43.642
349.36	43.890
349.72	44.527
350.08	44.098
350.45	43.416
350.81	43.106
351.17	42.671
351.53	44.653
351.89	42.279
352.26	42.320
352.62	43.710
352.98	43.293
353.34	41.787
353.70	43.932
354.07	43.387
354.43	43.475
354.79	44.344
355.15	44.444
355.51	43.671
355.87	44.822
356.24	44.535
356.60	44.624
356.96	45.873
357.32	45.048
357.68	44.879
358.04	46.284
358.40	45.498
358.77	46.890
359.13	45.236
359.49	45.069
359.85	45.554
360.21	45.136
360.57	46.672
360.93	46.369
361.29	45.317
361.66	47.100
362.02	46.894
362.38	47.982
362.74	46.707
363.10	48.307
363.46	46.924
363.82	48.986
364.18	47.601
364.54	47.353
364.90	48.387
365.26	48.399
365.62	48.613
365.98	49.267
366.35	50.473
366.71	48.559
367.07	49.637
367.43	48.886
367.79	49.611
368.15	49.892
368.51	50.910
368.87	49.964
369.23	48.953
369.59	51.895
369.95	50.733
370.31	51.734
370.67	51.791
371.03	50.560
371.39	51.058
371.75	52.088
372.11	50.785
372.47	52.367
372.83	53.655
373.19	53.067
373.55	51.986
373.91	52.268
374.27	53.863
374.63	54.056
374.99	53.404
375.35	53.691
375.71	54.476
376.07	55.407
376.42	55.034
376.78	55.302
377.14	54.096
377.50	55.910
377.86	54.819
378.22	55.967
378.58	56.154
378.94	55.135
379.30	55.521
379.66	55.862
380.02	54.506
380.38	55.447
380.74	56.373
381.09	56.380
381.45	56.636
381.81	57.866
382.17	58.376
382.53	58.089
382.89	58.443
383.25	58.867
383.61	58.171
383.97	59.365
384.32	57.911
384.68	59.567
385.04	59.069
385.40	57.685
385.76	61.509
386.12	60.414
386.48	62.005
386.83	60.875
387.19	61.172
387.55	61.481
387.91	61.247
388.27	61.416
388.62	61.296
388.98	61.633
389.34	61.774
389.70	63.393
390.06	61.926
390.42	62.630
390.77	62.917
391.13	62.863
391.49	63.325
391.85	64.198
392.20	62.272
392.56	62.619
392.92	62.889
393.28	63.797
393.64	63.183
393.99	65.956
394.35	64.073
394.71	64.432
395.07	63.294
395.42	64.299
395.78	65.668
396.14	65.385
396.50	66.899
396.85	65.357
397.21	66.416
397.57	65.768
397.92	66.387
398.28	67.356
398.64	65.301
399.00	65.688
399.35	65.576
399.71	65.882
400.07	67.291
400.42	66.707
400.78	68.585
401.14	66.606
401.49	67.600
401.85	66.728
402.21	67.349
402.57	69.438
402.92	67.817
403.28	68.734
403.63	70.429
403.99	69.069
404.35	68.770
404.70	67.024
405.06	68.508
405.42	68.987
405.77	69.611
406.13	70.023
406.49	68.443
406.84	70.905
407.20	70.741
407.55	69.156
407.91	70.120
408.27	70.491
408.62	69.538
408.98	70.055
409.34	70.074
409.69	69.444
410.05	70.012
410.40	69.259
410.76	70.869
411.11	71.000
411.47	71.598
411.83	71.563
412.18	73.874
412.54	71.099
412.89	70.135
413.25	70.457
413.60	72.981
413.96	71.840
414.31	72.256
414.67	71.841
415.03	73.036
415.38	70.692
415.74	73.355
416.09	73.285
416.45	74.072
416.80	72.637
417.16	74.793
417.51	73.218
417.87	73.207
418.22	75.389
418.58	75.652
418.93	75.047
419.29	74.840
419.64	74.401
420.00	76.637
420.35	73.791
420.71	74.787
421.06	74.954
421.42	76.502
421.77	74.335
422.12	76.277
422.48	75.636
422.83	75.464
423.19	76.354
423.54	77.307
423.90	76.678
424.25	77.382
424.61	78.580
424.96	75.668
425.31	79.434
425.67	78.815
426.02	77.621
426.38	80.463
426.73	78.450
427.09	78.734
427.44	80.176
427.79	78.256
428.15	78.034
428.50	78.922
428.85	77.764
429.21	78.834
429.56	81.779
429.92	78.326
430.27	77.293
430.62	79.090
430.98	79.883
431.33	80.231
431.68	79.801
432.04	81.163
432.39	79.920
432.74	79.194
433.10	80.920
433.45	80.346
433.80	81.196
434.16	81.219
434.51	82.151
434.86	82.172
435.22	81.772
435.57	85.402
435.92	82.994
436.28	82.946
436.63	82.658
436.98	82.677
437.34	83.303
437.69	85.092
438.04	83.305
438.39	82.468
438.75	86.885
439.10	84.154
439.45	85.393
439.81	84.893
440.16	86.698
440.51	85.612
440.86	88.036
441.22	84.842
441.57	88.631
441.92	85.834
442.27	86.475
442.63	85.760
442.98	86.502
443.33	86.923
443.68	86.048
444.03	87.332
444.39	86.080
444.74	88.796
445.09	87.862
445.44	88.376
445.79	90.304
446.15	87.665
446.50	87.687
446.85	88.576
447.20	87.070
447.55	88.672
447.91	88.494
448.26	89.414
448.61	88.659
448.96	89.501
449.31	90.405
449.66	88.792
450.02	89.789
450.37	90.516
450.72	88.946
451.07	90.570
451.42	90.137
451.77	90.054
452.12	91.148
452.47	90.084
452.83	90.636
453.18	90.829
453.53	90.645
453.88	92.775
454.23	93.546
454.58	91.562
454.93	92.075
455.28	89.397
455.63	91.816
455.98	92.002
456.34	90.421
456.69	92.630
457.04	92.880
457.39	91.677
457.74	93.229
458.09	90.524
458.44	91.867
458.79	91.148
459.14	92.105
459.49	93.015
459.84	92.442
460.19	92.415
460.54	93.949
460.89	92.670
461.24	92.112
461.59	91.330
461.94	92.516
462.29	93.124
462.64	95.282
462.99	93.297
463.34	92.559
463.69	92.471
464.04	93.220
464.39	91.631
464.74	91.595
465.09	93.013
465.44	93.306
465.79	90.306
466.14	92.189
466.49	91.949
466.84	92.683
467.19	93.429
467.54	92.273
467.89	92.230
468.24	93.127
468.59	93.651
468.94	93.968
469.29	92.459
469.64	93.985
469.99	96.847
470.34	94.881
470.68	98.583
471.03	95.329
471.38	96.077
471.73	95.448
472.08	95.658
472.43	95.235
472.78	96.573
473.13	96.871
473.48	94.528
473.83	93.400
474.17	95.725
474.52	95.022
474.87	94.727
475.22	93.838
475.57	94.015
475.92	94.405
476.27	94.237
476.61	95.197
476.96	91.913
477.31	93.294
477.66	94.270
478.01	95.059
478.36	93.573
478.70	95.215
479.05	93.846
479.40	94.118
479.75	93.118
480.10	94.368
480.45	94.000
480.79	94.814
481.14	95.543
481.49	93.153
481.84	94.353
482.19	93.031
482.53	94.580
482.88	92.697
483.23	93.426
483.58	92.925
483.92	92.885
484.27	92.206
484.62	92.425
484.97	90.962
485.31	88.548
485.66	85.465
486.01	83.775
486.36	83.175
486.70	84.829
487.05	86.263
487.40	87.151
487.75	88.085
488.09	88.937
488.44	89.580
488.79	90.997
489.13	92.228
489.48	92.561
489.83	92.780
490.17	92.989
490.52	94.319
490.87	92.689
491.22	93.553
491.56	93.264
491.91	92.878
492.26	94.944
492.60	92.562
492.95	96.016
493.30	93.454
493.64	94.646
493.99	92.415
494.34	93.398
494.68	94.810
495.03	93.771
495.37	93.327
495.72	93.841
496.07	95.951
496.41	92.123
496.76	92.814
497.11	92.361
497.45	92.792
497.80	95.711
498.14	95.132
498.49	94.058
498.84	93.862
499.18	94.578
499.53	94.990
499.87	93.191
500.22	92.829
500.56	94.755
500.91	94.779
501.26	93.030
501.60	93.901
501.95	93.159
502.29	94.140
502.64	94.160
502.98	93.883
503.33	92.267
503.67	92.675
504.02	94.135
504.36	93.271
504.71	92.929
505.06	93.709
505.40	94.619
505.75	96.546
506.09	93.817
506.44	95.996
506.78	95.051
507.13	96.070
507.47	93.420
507.82	96.100
508.16	95.563
508.51	95.383
508.85	97.593
509.19	96.381
509.54	96.086
509.88	95.361
510.23	97.149
510.57	96.686
510.92	94.350
511.26	96.727
511.61	96.975
511.95	96.767
512.30	97.838
512.64	95.659
512.98	96.912
513.33	97.258
513.67	97.499
514.02	98.799
514.36	99.543
514.70	99.009
515.05	100.823
515.39	98.642
515.74	101.078
516.08	99.701
516.42	100.707
516.77	99.824
517.11	101.721
517.46	100.958
517.80	99.523
518.14	101.164
518.49	99.820
518.83	100.365
519.17	99.939
519.52	98.046
519.86	99.760
520.20	100.608
520.55	102.189
520.89	100.565
521.23	101.267
521.58	99.811
521.92	101.218
522.26	102.407
522.61	102.273
522.95	103.709
523.29	102.287
523.64	103.558
523.98	103.824
524.32	101.997
524.66	102.945
525.01	102.922
525.35	101.491
525.69	103.502
526.04	102.315
526.38	102.140
526.72	101.570
527.06	101.232
527.41	103.562
527.75	100.804
528.09	100.664
528.43	104.524
528.78	102.376
529.12	101.548
529.46	101.689
529.80	100.633
530.15	102.970
530.49	103.232
530.83	103.625
531.17	101.880
531.51	103.283
531.86	100.952
532.20	102.296
532.54	102.519
532.88	102.533
533.22	101.747
533.57	101.180
533.91	101.371
534.25	102.018
534.59	101.090
534.93	99.245
535.27	98.096
535.62	99.870
535.96	100.326
536.30	98.879
536.64	102.550
536.98	100.488
537.32	103.343
537.66	101.613
538.01	102.587
538.35	101.110
538.69	98.602
539.03	97.608
539.37	100.538
539.71	99.455
540.05	99.728
540.39	99.584
540.73	99.163
541.07	99.793
541.42	98.185
541.76	101.239
542.10	100.757
542.44	99.444
542.78	98.211
543.12	99.313
543.46	99.374
543.80	100.694
544.14	98.064
544.48	99.134
544.82	99.590
545.16	99.317
545.50	99.533
545.84	100.000
546.18	100.922
546.52	100.721
546.86	98.706
547.20	99.213
547.54	97.527
547.88	98.981
548.22	97.699
548.56	97.230
548.90	99.933
549.24	98.003
549.58	97.391
549.92	99.857
550.26	100.733
550.60	101.933
550.94	102.763
551.28	101.855
551.62	103.231
551.96	100.752
552.30	100.365
552.64	98.519
552.98	99.156
553.32	99.001
553.66	100.581
554.00	102.482
554.34	101.773
554.68	98.378
555.02	100.818
555.36	101.346
555.69	100.733
556.03	100.071
556.37	100.427
556.71	100.722
557.05	101.491
557.39	99.703
557.73	100.300
558.07	102.112
558.41	103.446
558.75	103.118
559.08	104.098
559.42	103.968
559.76	104.083
560.10	100.994
560.44	99.032
560.78	99.510
561.12	100.071
561.45	100.141
561.79	100.630
562.13	99.645
562.47	100.144
562.81	99.712
563.15	98.660
563.48	100.495
563.82	100.000
564.16	99.721
564.50	98.176
564.84	98.461
565.17	96.848
565.51	100.273
565.85	98.834
566.19	99.536
566.52	98.928
566.86	96.272
567.20	95.330
567.54	96.715
567.88	96.368
568.21	96.097
568.55	95.924
568.89	92.659
569.23	92.874
569.56	89.799
569.90	90.012
570.24	86.304
570.57	87.818
570.91	87.208
571.25	85.728
571.59	83.401
571.92	82.607
572.26	83.907
572.60	83.566
572.93	83.025
573.27	83.103
573.61	82.697
573.95	82.496
574.28	81.939
574.62	81.770
574.96	80.529
575.29	80.313
575.63	79.425
575.97	80.564
576.30	81.642
576.64	80.371
576.98	81.158
577.31	81.126
577.65	79.335
577.98	79.163
578.32	78.060
578.66	78.272
578.99	79.200
579.33	78.666
579.67	79.031
580.00	80.506
580.34	80.075
580.67	79.179
581.01	79.659
581.35	78.273
581.68	77.662
582.02	78.308
582.35	77.307
582.69	77.892
583.02	78.787
583.36	79.868
583.70	80.997
584.03	82.402
584.37	83.145
584.70	81.621
585.04	79.870
585.37	79.533
585.71	79.610
586.04	79.677
586.38	81.088
586.72	82.009
587.05	81.427
587.39	81.717
587.72	83.406
588.06	81.317
588.39	81.942
588.73	82.112
589.06	84.638
589.40	82.924
589.73	84.301
590.07	84.894
590.40	85.294
590.73	87.026
591.07	87.320
591.40	87.533
591.74	87.602
592.07	88.404
592.41	86.882
592.74	85.583
593.08	82.536
593.41	82.306
593.75	82.401
594.08	81.600
594.41	83.443
594.75	84.427
595.08	84.449
595.42	84.247
595.75	85.730
596.09	85.575
596.42	86.358
596.75	87.700
597.09	86.241
597.42	87.489
597.75	86.853
598.09	85.740
598.42	86.643
598.76	85.500
599.09	84.696
599.42	83.327
599.76	83.409
600.09	83.107
600.42	83.321
600.76	82.801
601.09	83.969
601.42	84.606
601.76	85.193
602.09	85.107
602.42	86.858
602.76	86.121
603.09	87.002
603.42	87.584
603.76	86.129
604.09	85.298
604.42	86.464
604.76	88.429
605.09	86.106
605.42	86.275
605.75	85.639
606.09	85.520
606.42	84.237
606.75	85.758
607.09	85.319
607.42	85.290
607.75	85.924
608.08	85.669
608.42	84.696
608.75	87.229
609.08	89.188
609.41	89.086
609.75	87.298
610.08	88.817
610.41	85.894
610.74	87.275
611.07	89.871
611.41	88.687
611.74	88.966
612.07	88.116
612.40	88.895
612.73	91.751
613.07	88.920
613.40	89.278
613.73	91.046
614.06	89.594
614.39	89.509
614.72	87.227
615.06	90.112
615.39	86.408
615.72	88.482
616.05	89.218
616.38	89.060
616.71	90.887
617.05	91.353
617.38	90.823
617.71	90.881
618.04	93.968
618.37	92.497
618.70	94.719
619.03	94.306
619.36	95.152
619.69	98.408
620.03	95.909
620.36	95.923
620.69	93.433
621.02	95.642
621.35	100.830
621.68	101.786
622.01	99.417
622.34	98.404
622.67	97.871
623.00	94.717
623.33	94.284
623.66	96.111
623.99	95.159
624.32	96.502
624.65	94.662
624.99	96.012
625.32	95.224
625.65	97.329
625.98	99.919
626.31	97.007
626.64	100.433
626.97	99.651
627.30	98.687
627.63	99.393
627.96	99.910
628.29	103.238
628.62	102.753
628.95	103.106
629.28	105.746
629.61	102.493
629.94	103.617
630.26	104.545
630.59	106.452
630.92	104.615
631.25	102.462
631.58	106.828
631.91	108.114
632.24	108.257
632.57	107.955
632.90	110.558
633.23	110.000
633.56	115.995
633.89	110.604
634.22	110.494
634.55	112.452
634.88	109.323
635.20	107.821
635.53	112.933
635.86	110.533
636.19	110.091
636.52	109.821
636.85	106.700
637.18	107.925
637.51	107.547
637.83	110.118
638.16	115.007
638.49	109.673
638.82	111.053
639.15	108.005
639.48	111.829
639.81	110.042
640.13	112.410
640.46	112.682
640.79	114.138
641.12	115.214
641.45	115.015
641.77	112.444
642.10	119.115
642.43	116.238
642.76	117.162
643.09	116.317
643.41	116.505
643.74	113.839
644.07	117.406
644.40	120.270
644.73	119.615
645.05	117.114
645.38	117.989
645.71	119.149
646.04	121.185
646.36	117.908
646.69	120.683
647.02	123.629
647.35	123.507
647.67	119.378
648.00	122.201
648.33	113.481
648.66	117.119
648.98	114.573
649.31	116.033
649.64	110.518
649.96	109.887
650.29	117.036
650.62	112.650
650.94	120.370
651.27	121.043
651.60	116.757
651.92	114.860
652.25	115.098
652.58	113.167
652.90	115.952
653.23	110.924
653.56	110.829
653.88	110.481
654.21	112.609
654.54	112.224
654.86	116.808
655.19	105.263
655.52	92.647
655.84	74.349
656.17	78.949
656.49	100.000
656.82	100.000
657.15	91.062
657.47	63.257
657.80	47.972
658.13	47.930
658.45	74.935
658.78	75.569
659.10	75.730
659.43	78.879
659.75	82.141
660.08	85.793
660.41	92.441
660.73	101.381
661.06	107.452
661.38	111.155
661.71	112.526
662.03	119.528
662.36	122.637
662.68	115.708
663.01	122.052
663.33	120.882
663.66	119.767
663.98	119.535
664.31	117.058
664.63	119.816
664.96	118.696
665.28	115.894
665.61	119.264
665.93	115.870
666.26	116.703
666.58	121.700
666.91	123.765
667.23	122.170
667.56	123.223
667.88	123.501
668.21	125.060
668.53	125.532
668.86	118.160
669.18	116.981
669.50	121.308
669.83	120.698
670.15	116.783
670.48	120.096
670.80	118.433
671.13	114.541
671.45	114.612
671.77	113.519
672.10	109.109
672.42	106.180
672.75	104.973
673.07	106.798
673.39	104.954
673.72	108.087
674.04	113.750
674.37	113.136
674.69	113.704
675.01	116.444
675.34	110.135
675.66	116.435
675.98	113.525
676.31	114.450
676.63	119.240
676.95	114.773
677.28	117.882
677.60	119.759
677.92	112.844
678.25	110.722
678.57	112.121
678.89	113.235
679.22	116.555
679.54	104.618
679.86	102.982
680.18	111.262
680.51	103.030
680.83	107.753
681.15	109.600
681.48	108.811
681.80	109.711
682.12	108.266
682.44	106.904
682.77	111.700
683.09	113.272
683.41	109.318
683.73	111.060
684.06	110.619
684.38	106.667
684.70	114.161
685.02	104.149
685.34	102.964
685.67	102.627
685.99	100.542
686.31	100.177
686.63	99.629
686.96	100.000
687.28	103.636
687.60	100.380
687.92	107.071
688.24	104.234
688.56	107.424
688.89	108.259
689.21	109.111
689.53	108.121
689.85	105.349
690.17	106.250
690.49	108.038
690.82	114.078
691.14	109.524
691.46	107.710
691.78	104.730
692.10	103.441
692.42	99.134
692.74	100.427
693.06	102.928
693.39	107.466
693.71	105.430
694.03	104.157
694.35	106.542
694.67	106.818
694.99	108.355
695.31	110.444
695.63	106.250
695.95	105.556
696.27	105.440
696.59	114.167
696.91	112.045
697.23	105.141
697.56	109.406
697.88	98.280
698.20	101.822
698.52	105.176
698.84	102.392
699.16	103.000
699.48	104.010
699.80	102.978
700.12	108.356
700.44	106.162
700.76	108.140
701.08	107.576
701.40	112.651
701.72	114.506
702.04	119.142
702.36	116.722
702.68	112.012
703.00	112.727
703.32	109.971
703.64	100.282
703.96	105.507
704.28	109.816
704.60	110.476
704.91	109.148
705.23	113.953
705.55	116.254
705.87	114.440
706.19	122.222
706.51	107.216
706.83	109.325
707.15	105.296
707.47	102.521
707.79	101.823
708.11	98.250
708.43	100.500
708.74	99.742
709.06	104.507
709.38	106.116
709.70	107.396
710.02	107.325
710.34	108.359
710.66	104.487
710.98	107.947
711.29	111.803
711.61	111.525
711.93	105.863
712.25	106.529
712.57	113.187
712.89	110.448
713.20	110.381
713.52	104.530
713.84	103.754
714.16	108.247
714.48	103.226
714.80	101.282
715.11	100.608
715.43	96.238
715.75	109.000
716.07	101.993
716.39	103.020
716.70	106.273
717.02	109.160
717.34	117.409
717.66	122.124
717.97	114.783
718.29	107.113
718.61	109.055
718.93	109.302
719.24	107.224
719.56	110.040
719.88	97.251
720.20	110.606
720.51	102.682
720.83	105.019
721.15	109.244
721.46	107.258
721.78	102.372
722.10	99.257
722.42	108.714
722.73	102.857
723.05	107.755
723.37	112.288
723.68	114.865
724.00	98.291
724.32	105.333
724.63	110.909
724.95	109.170
725.27	111.060
725.58	111.017
725.90	99.603
726.22	101.931
726.53	92.542
726.85	94.382
727.16	104.528
727.48	100.000
727.80	103.239
728.11	102.542
728.43	99.608
728.74	96.774
729.06	100.400
729.38	98.872
729.69	98.805
730.01	91.923
730.32	97.761
730.64	94.700
730.96	104.906
731.27	94.333
731.59	95.932
731.90	92.038
732.22	92.429
732.53	91.030
732.85	94.681
733.16	94.949
733.48	93.525
733.80	90.942
734.11	90.847
734.43	94.158
734.74	87.273
735.06	93.160
735.37	84.290
735.69	91.246
736.00	92.683
736.32	89.262
736.63	91.901
736.95	88.396
737.26	93.594
737.58	87.584
737.89	93.407
738.21	93.609
738.52	99.588
738.83	100.437
739.15	94.760
739.46	95.669
739.78	91.575
740.09	82.353
740.41	89.855
740.72	99.606
741.04	95.547
741.35	94.894
741.66	96.209
741.98	103.571
742.29	100.000
742.61	100.524
742.92	96.682
743.23	92.130
743.55	95.023
743.86	103.349
744.18	98.565
744.49	100.532
744.80	103.261
745.12	106.417
745.43	94.634
745.74	109.896
746.06	98.537
746.37	101.571
746.68	93.839
747.00	101.064
747.31	107.960
747.62	93.204
747.94	99.043
748.25	105.446
748.56	104.372
748.88	108.901
749.19	101.596
749.50	102.956
749.82	93.396
750.13	104.587
750.44	92.857
750.75	92.910
751.07	91.971
751.38	91.188
751.69	92.157
752.01	93.023
752.32	89.641
752.63	93.676
752.94	96.552
753.26	98.745
753.57	100.452
753.88	96.460
754.19	93.750
754.51	92.149
754.82	90.688
755.13	100.417
755.44	94.758
755.75	94.141
756.07	92.607
756.38	89.434
756.69	89.272
757.00	82.000
757.31	83.660
757.63	81.707
757.94	78.889
758.25	75.068
758.56	76.330
758.87	75.354
759.18	79.128
759.50	85.455
759.81	86.957
760.12	84.516
760.43	80.000
760.74	83.951
761.05	80.615
761.36	77.841
761.67	81.818
761.99	85.034
762.30	81.091
762.61	84.190
762.92	89.593
763.23	92.342
763.54	91.121
763.85	90.678
764.16	81.328
764.47	80.645
764.78	84.982
765.10	82.155
765.41	78.549
765.72	76.190
766.03	82.331
766.34	82.847
766.65	85.657
766.96	95.455
767.27	90.426
767.58	89.655
767.89	103.546
768.20	87.500
768.51	85.714
768.82	89.163
769.13	80.645
769.44	82.403
769.75	85.388
770.06	84.483
770.37	89.904
770.68	87.817
770.99	80.995
771.30	91.667
771.61	86.425
771.92	82.328
772.23	88.177
772.54	82.258
772.85	95.062
773.16	88.764
773.47	103.268
773.78	98.039
774.09	78.443
774.39	89.333
774.70	83.439
775.01	94.483
775.32	86.429
775.63	90.083
775.94	94.656
776.25	94.488
776.56	91.667
776.87	108.654
777.18	90.598
777.48	93.966
777.79	86.087
778.10	94.286
778.41	91.892
778.72	94.444
779.03	86.466
779.34	92.199
779.65	86.301
779.95	86.986
780.26	89.655
780.57	76.423
780.88	92.126
781.19	82.759
781.50	90.698
781.80	76.923
782.11	68.553
782.42	93.077
782.73	86.331
783.04	91.852
783.34	79.167
783.65	82.906
783.96	86.885
784.27	75.862
784.57	84.553
784.88	79.687
785.19	98.000
785.50	110.000
785.81	82.759
786.11	85.345
786.42	87.379
786.73	89.091
787.04	93.878
787.34	82.143
787.65	81.905
787.96	75.221
788.26	97.273
788.57	75.214
788.88	84.375
789.19	73.810
789.49	79.130
789.80	87.755
790.11	80.808
790.41	77.273
790.72	98.913
791.03	82.955
791.33	110.000
791.64	83.750
791.95	87.209
792.25	88.298
792.56	77.528
792.87	86.301
793.17	108.696
793.48	89.333
793.79	83.750
794.09	120.000
794.40	71.698
794.70	84.466
795.01	72.358
795.32	68.376
795.62	78.095
795.93	92.157
796.23	75.472
796.54	67.708
796.85	100.000
797.15	87.324
797.46	80.556
797.76	95.455
798.07	73.256
798.37	81.579
798.68	84.848
798.99	71.605
799.29	95.714
799.60	78.261
799.90	77.333
800.21	100.000
800.51	86.154
800.82	91.525
801.12	81.159
801.43	90.164
801.73	92.063
802.04	86.000
802.34	88.060
802.65	78.846
802.95	85.714
803.26	92.308
803.56	105.882
803.87	93.478
804.17	73.333
804.48	84.127
804.78	77.778
805.09	93.478
805.39	86.667
805.70	100.000
806.00	59.649
806.30	76.056
806.61	85.714
806.91	73.611
807.22	94.737
807.52	80.000
807.83	69.091
808.13	69.444
808.43	67.647
808.74	73.134
809.04	88.136
809.35	88.462
809.65	67.188
809.95	91.892
810.26	56.818
810.56	54.795
810.86	119.048
811.17	88.000
811.47	81.633
811.77	84.211
812.08	54.545
812.38	81.132
812.69	75.000
812.99	48.485
813.29	102.632
813.59	48.571
813.90	72.727
814.20	79.487
814.50	55.769
814.81	75.472
815.11	91.489
815.41	88.136
815.72	85.714
816.02	90.196
816.32	66.667
816.62	82.927
816.93	67.568
817.23	71.429
817.53	93.750
817.84	84.783
818.14	63.462
818.44	71.053
818.74	115.217
819.04	37.500
819.35	86.486
819.65	82.353
819.95	86.111
820.25	80.952
820.56	82.500
820.86	89.655
821.16	102.500
821.46	76.596
821.76	62.500
822.07	72.093
822.37	54.054
822.67	62.500
822.97	90.476
823.27	53.571
823.57	68.000
823.88	51.852
824.18	100.000
824.48	82.353
824.78	74.194
825.08	104.348
825.38	81.818
825.69	79.167
825.99	50.000
826.29	58.333
826.59	146.667
826.89	71.429
827.19	65.217
827.49	55.000
827.79	82.857
828.09	85.714
828.39	90.909
828.70	89.189
829.00	50.000
829.30	66.667
829.60	80.000
829.90	103.125
830.20	55.263
830.50	66.667
830.80	69.565
831.10	72.727
831.40	75.758
831.70	100.000
832.00	104.762
832.30	47.619
832.60	116.667
832.90	68.966
833.20	55.000
833.50	75.758
833.80	62.963
834.10	107.692
834.40	46.875
834.70	155.556
835.00	84.211
835.30	92.308
835.60	100.000
835.90	61.290
836.20	77.273
836.50	71.429
836.80	3.846
837.10	28.571
837.40	133.333
837.70	72.727
838.00	72.727
838.30	56.522
838.60	61.538
838.90	90.909
839.19	46.429
839.49	73.333
839.79	15.385
840.09	41.667
840.39	78.571
840.69	71.429
840.99	57.692
841.29	-36.842
841.59	80.000
841.88	172.727
842.18	130.000
842.48	68.750
842.78	26.667
843.08	33.333
843.38	30.000
843.68	39.130
843.97	133.333
844.27	20.000
844.57	85.000
844.87	83.333
845.17	61.905
845.47	80.000
845.76	28.571
846.06	76.471
846.36	90.000
846.66	14.286
846.96	86.667
847.25	-50.000
847.55	157.143
847.85	112.500
848.15	77.273
848.44	-100.000
848.74	50.000
849.04	40.741
849.34	118.182
849.63	116.667
849.93	80.000
850.23	55.556
850.53	190.000
850.82	7.692
851.12	0.000
851.42	106.667
851.71	50.000
852.01	14.286
852.31	-250.000
852.61	90.909
852.90	45.000
853.20	-15.789
853.50	41.667
853.79	65.217
854.09	120.833
854.39	57.895
854.68	75.000
854.98	70.968
855.28	65.385
855.57	15.000
855.87	55.556
856.17	59.259
856.46	100.000
856.76	73.333
857.05	122.222
857.35	16.000
857.65	77.778
857.94	7.692
858.24	55.172
858.53	105.556
858.83	59.259
859.13	40.909
859.42	21.739
859.72	75.000
860.01	66.667
860.31	56.000
860.60	33.333
860.90	0.000
861.20	13.333
861.49	0.000
861.79	0.000
862.08	70.000
862.38	113.333
862.67	60.000
862.97	83.333
863.26	25.000
863.56	27.778
863.85	-233.333
864.15	33.333
864.44	-60.000
864.74	42.857
865.03	-25.000
865.33	-180.000
865.62	100.000
865.92	83.333
866.21	-133.333
866.51	56.250
866.80	54.545
867.10	150.000
867.39	116.667
867.69	0.000
867.98	61.538
868.27	-133.333
868.57	93.333
868.86	38.889
869.16	69.231
869.45	60.000
869.75	-800.000
870.04	0.000
870.33	-142.857
870.63	28.571
870.92	300.000
871.22	-120.000
871.51	-500.000
871.80	144.444
872.10	433.333
>>>>>End Processed Spectral Data<<<<<
