SpectraSuite Data File
++++++++++++++++++++++++++++++++++++
Date: Fri May 15 20:31:50 PDT 2015
User: schluterlab
Dark Spectrum Present: Yes
Reference Spectrum Present: Yes
Number of Sampled Component Spectra: 1
Spectrometers: USB2E3373
Integration Time (usec): 3000 (USB2E3373)
Spectra Averaged: 3 (USB2E3373)
Boxcar Smoothing: 0 (USB2E3373)
Correct for Electrical Dark: No (USB2E3373)
Strobe/Lamp Enabled: No (USB2E3373)
Correct for Detector Non-linearity: No (USB2E3373)
Correct for Stray Light: No (USB2E3373)
Number of Pixels in Processed Spectrum: 2048
>>>>>Begin Processed Spectral Data<<<<<
178.53	0.000
178.91	0.000
179.29	37.500
179.67	-800.000
180.04	42.857
180.42	75.000
180.80	0.000
181.18	-66.667
181.56	650.000
181.94	0.000
182.31	300.000
182.69	-160.000
183.07	-66.667
183.45	220.000
183.83	100.000
184.20	9.091
184.58	44.444
184.96	-50.000
185.34	100.000
185.72	-500.000
186.09	184.615
186.47	-500.000
186.85	233.333
187.23	166.667
187.61	300.000
187.98	-433.333
188.36	22.222
188.74	0.000
189.12	47.059
189.49	44.444
189.87	0.000
190.25	14.286
190.63	-250.000
191.00	-66.667
191.38	26.316
191.76	300.000
192.14	100.000
192.51	-100.000
192.89	11.111
193.27	-114.286
193.65	83.333
194.02	209.091
194.40	70.000
194.78	12.500
195.15	-50.000
195.53	-112.500
195.91	375.000
196.29	-100.000
196.66	176.923
197.04	171.429
197.42	-122.222
197.79	-100.000
198.17	-38.462
198.55	1900.000
198.92	-433.333
199.30	-200.000
199.68	-340.000
200.05	-233.333
200.43	0.000
200.81	100.000
201.18	0.000
201.56	1200.000
201.94	-350.000
202.31	100.000
202.69	-240.000
203.07	275.000
203.44	-200.000
203.82	0.000
204.19	14.286
204.57	-100.000
204.95	225.000
205.32	-30.000
205.70	57.143
206.08	-300.000
206.45	111.111
206.83	42.857
207.20	28.571
207.58	200.000
207.96	-433.333
208.33	-80.000
208.71	-50.000
209.08	-183.333
209.46	-1400.000
209.84	20.000
210.21	-800.000
210.59	-14.286
210.96	-33.333
211.34	100.000
211.71	-40.000
212.09	-100.000
212.46	-1500.000
212.84	0.000
213.22	-10.000
213.59	600.000
213.97	100.000
214.34	54.545
214.72	-66.667
215.09	500.000
215.47	0.000
215.84	-81.818
216.22	-366.667
216.59	-62.500
216.97	-400.000
217.34	25.000
217.72	-160.000
218.09	-37.500
218.47	150.000
218.84	-300.000
219.22	-100.000
219.59	80.000
219.97	266.667
220.34	175.000
220.72	28.571
221.09	-300.000
221.47	-400.000
221.84	-900.000
222.22	-700.000
222.59	63.636
222.97	58.333
223.34	-233.333
223.72	-57.143
224.09	4.762
224.46	3.571
224.84	500.000
225.21	0.000
225.59	-26.667
225.96	-150.000
226.34	250.000
226.71	-71.429
227.08	66.667
227.46	0.000
227.83	-1050.000
228.21	-55.556
228.58	72.727
228.95	-12.500
229.33	180.000
229.70	6.250
230.08	-25.000
230.45	-157.143
230.82	-85.714
231.20	-13.333
231.57	42.857
231.95	85.714
232.32	-90.000
232.69	71.429
233.07	-66.667
233.44	-40.000
233.81	-90.000
234.19	55.556
234.56	5.882
234.93	300.000
235.31	-75.000
235.68	-280.000
236.05	-61.538
236.43	-25.000
236.80	11.765
237.17	25.000
237.55	-25.000
237.92	-18.519
238.29	-5.556
238.67	3.333
239.04	11.765
239.41	-36.585
239.79	23.333
240.16	26.829
240.53	23.684
240.91	-4.348
241.28	11.111
241.65	41.071
242.02	23.288
242.40	38.333
242.77	25.424
243.14	6.061
243.51	20.000
243.89	28.736
244.26	16.092
244.63	29.762
245.00	30.928
245.38	15.464
245.75	12.360
246.12	18.103
246.49	30.579
246.87	25.962
247.24	17.647
247.61	18.421
247.98	19.512
248.36	20.625
248.73	26.316
249.10	25.974
249.47	24.051
249.84	27.451
250.22	25.294
250.59	19.608
250.96	27.700
251.33	26.163
251.70	27.647
252.08	24.365
252.45	21.287
252.82	28.141
253.19	29.032
253.56	20.093
253.94	20.721
254.31	27.391
254.68	28.070
255.05	26.378
255.42	25.764
255.79	28.958
256.16	20.623
256.54	26.866
256.91	24.335
257.28	26.394
257.65	22.097
258.02	25.532
258.39	21.886
258.76	30.403
259.14	24.917
259.51	26.537
259.88	23.368
260.25	24.183
260.62	29.514
260.99	23.729
261.36	25.000
261.73	23.734
262.10	26.140
262.47	28.528
262.85	22.884
263.22	27.077
263.59	25.857
263.96	30.124
264.33	27.576
264.70	24.702
265.07	27.083
265.44	28.045
265.81	26.836
266.18	28.962
266.55	25.964
266.92	26.684
267.29	25.587
267.66	25.831
268.03	30.890
268.40	25.587
268.77	27.540
269.14	27.578
269.51	23.650
269.88	23.691
270.25	22.959
270.62	24.390
270.99	23.274
271.36	26.895
271.73	28.404
272.10	24.088
272.47	27.660
272.84	26.733
273.21	26.218
273.58	26.265
273.95	28.146
274.32	24.942
274.69	24.208
275.06	25.446
275.43	26.304
275.80	25.828
276.17	26.437
276.54	24.411
276.91	25.658
277.28	24.454
277.65	26.446
278.02	24.255
278.39	28.228
278.76	24.948
279.13	23.029
279.50	24.790
279.87	25.702
280.23	24.086
280.60	25.146
280.97	26.061
281.34	25.000
281.71	27.515
282.08	25.153
282.45	25.245
282.82	24.324
283.19	24.758
283.56	25.241
283.92	22.770
284.29	24.231
284.66	24.612
285.03	23.772
285.40	24.008
285.77	24.253
286.14	24.188
286.51	26.015
286.87	21.207
287.24	25.599
287.61	23.280
287.98	24.211
288.35	24.783
288.72	24.518
289.08	21.354
289.45	21.968
289.82	25.350
290.19	21.843
290.56	20.926
290.93	20.034
291.29	22.188
291.66	22.992
292.03	21.053
292.40	20.000
292.77	21.531
293.13	19.643
293.50	19.423
293.87	20.000
294.24	20.402
294.60	20.268
294.97	19.643
295.34	19.632
295.71	18.331
296.08	19.432
296.44	17.070
296.81	19.861
297.18	20.580
297.55	20.596
297.91	20.274
298.28	20.053
298.65	18.589
299.02	19.542
299.38	17.784
299.75	17.517
300.12	18.848
300.48	18.050
300.85	18.631
301.22	16.753
301.59	17.763
301.95	19.873
302.32	18.807
302.69	17.413
303.05	17.946
303.42	19.054
303.79	19.860
304.15	19.116
304.52	16.052
304.89	15.673
305.25	17.433
305.62	16.336
305.99	16.725
306.35	17.341
306.72	15.861
307.09	18.586
307.45	17.451
307.82	16.319
308.19	16.841
308.55	17.884
308.92	19.499
309.29	17.765
309.65	16.577
310.02	16.832
310.38	18.441
310.75	18.033
311.12	16.577
311.48	16.755
311.85	17.068
312.22	15.928
312.58	17.622
312.95	17.930
313.31	16.977
313.68	17.487
314.05	18.878
314.41	18.351
314.78	18.454
315.14	20.041
315.51	18.737
315.87	19.467
316.24	21.739
316.61	20.374
316.97	20.833
317.34	20.117
317.70	20.554
318.07	21.923
318.43	22.647
318.80	21.117
319.16	21.973
319.53	23.172
319.89	23.031
320.26	23.583
320.62	24.072
320.99	24.113
321.35	24.974
321.72	25.961
322.08	28.097
322.45	27.513
322.81	27.308
323.18	28.165
323.54	29.537
323.91	29.309
324.27	30.762
324.64	31.273
325.00	31.478
325.37	34.068
325.73	33.726
326.10	34.968
326.46	36.951
326.83	36.920
327.19	38.535
327.56	37.619
327.92	40.053
328.29	40.179
328.65	42.075
329.01	41.452
329.38	42.581
329.74	42.965
330.11	43.188
330.47	42.764
330.84	43.846
331.20	47.053
331.56	44.722
331.93	47.854
332.29	47.846
332.66	48.416
333.02	48.885
333.38	47.113
333.75	48.626
334.11	49.060
334.48	49.501
334.84	49.725
335.20	50.869
335.57	50.861
335.93	52.123
336.29	52.762
336.66	50.863
337.02	52.323
337.38	50.463
337.75	52.818
338.11	51.939
338.47	53.011
338.84	53.050
339.20	53.199
339.56	54.037
339.93	53.715
340.29	55.229
340.65	54.391
341.02	53.812
341.38	54.248
341.74	52.473
342.11	53.206
342.47	53.737
342.83	54.412
343.20	56.446
343.56	56.522
343.92	56.156
344.28	55.764
344.65	55.613
345.01	55.143
345.37	55.088
345.73	56.234
346.10	57.118
346.46	56.266
346.82	56.301
347.19	56.692
347.55	56.391
347.91	55.825
348.27	56.669
348.63	58.092
349.00	55.701
349.36	57.024
349.72	57.877
350.08	56.639
350.45	57.542
350.81	57.475
351.17	57.003
351.53	57.878
351.89	55.822
352.26	56.560
352.62	57.177
352.98	57.028
353.34	56.039
353.70	58.576
354.07	56.452
354.43	58.287
354.79	57.803
355.15	58.730
355.51	58.070
355.87	58.172
356.24	58.238
356.60	56.589
356.96	58.016
357.32	57.827
357.68	58.640
358.04	60.582
358.40	58.762
358.77	58.692
359.13	59.087
359.49	59.707
359.85	58.658
360.21	58.852
360.57	58.761
360.93	59.607
361.29	59.894
361.66	58.150
362.02	61.136
362.38	59.787
362.74	59.727
363.10	60.873
363.46	60.860
363.82	60.781
364.18	58.229
364.54	59.632
364.90	59.355
365.26	60.844
365.62	61.679
365.98	61.217
366.35	62.709
366.71	61.715
367.07	61.030
367.43	59.669
367.79	61.343
368.15	61.378
368.51	60.961
368.87	62.599
369.23	60.361
369.59	61.880
369.95	63.710
370.31	61.055
370.67	62.313
371.03	62.883
371.39	62.509
371.75	63.590
372.11	61.555
372.47	63.388
372.83	62.527
373.19	62.126
373.55	61.949
373.91	60.547
374.27	62.934
374.63	62.383
374.99	62.340
375.35	62.256
375.71	64.336
376.07	62.851
376.42	63.537
376.78	64.094
377.14	62.221
377.50	62.815
377.86	62.115
378.22	64.199
378.58	64.167
378.94	62.067
379.30	63.319
379.66	63.448
380.02	62.845
380.38	63.055
380.74	63.615
381.09	64.479
381.45	63.303
381.81	64.528
382.17	63.832
382.53	63.898
382.89	65.788
383.25	65.028
383.61	65.183
383.97	65.397
384.32	62.977
384.68	64.396
385.04	65.196
385.40	64.717
385.76	66.478
386.12	65.783
386.48	65.900
386.83	65.568
387.19	65.018
387.55	65.621
387.91	63.631
388.27	65.018
388.62	65.261
388.98	64.764
389.34	65.959
389.70	65.693
390.06	64.821
390.42	65.155
390.77	64.748
391.13	63.934
391.49	65.912
391.85	66.082
392.20	65.348
392.56	65.353
392.92	65.355
393.28	65.861
393.64	65.526
393.99	66.959
394.35	65.908
394.71	65.262
395.07	65.116
395.42	65.452
395.78	67.296
396.14	65.889
396.50	66.646
396.85	64.713
397.21	66.040
397.57	64.702
397.92	65.189
398.28	66.322
398.64	63.012
399.00	66.084
399.35	64.447
399.71	64.503
400.07	66.264
400.42	65.912
400.78	66.810
401.14	65.941
401.49	65.396
401.85	65.753
402.21	64.157
402.57	66.812
402.92	65.621
403.28	65.664
403.63	66.330
403.99	66.582
404.35	65.896
404.70	64.702
405.06	64.865
405.42	63.891
405.77	64.439
406.13	66.007
406.49	64.950
406.84	67.543
407.20	65.924
407.55	66.194
407.91	65.174
408.27	67.240
408.62	65.354
408.98	64.633
409.34	66.914
409.69	65.504
410.05	63.054
410.40	65.309
410.76	65.259
411.11	66.250
411.47	65.812
411.83	65.662
412.18	65.766
412.54	65.793
412.89	64.840
413.25	65.704
413.60	65.217
413.96	64.233
414.31	65.793
414.67	64.785
415.03	64.581
415.38	64.948
415.74	64.886
416.09	65.317
416.45	65.834
416.80	65.697
417.16	66.298
417.51	66.622
417.87	64.211
418.22	66.127
418.58	65.217
418.93	65.956
419.29	63.700
419.64	65.716
420.00	66.562
420.35	64.776
420.71	64.824
421.06	63.966
421.42	64.123
421.77	65.896
422.12	65.267
422.48	64.754
422.83	64.559
423.19	65.463
423.54	65.197
423.90	65.194
424.25	66.820
424.61	65.851
424.96	64.402
425.31	67.533
425.67	66.608
426.02	65.960
426.38	65.435
426.73	66.283
427.09	66.772
427.44	67.059
427.79	66.058
428.15	66.080
428.50	65.475
428.85	65.663
429.21	64.856
429.56	68.140
429.92	65.434
430.27	64.211
430.62	65.081
430.98	66.614
431.33	65.037
431.68	64.521
432.04	67.300
432.39	65.374
432.74	65.183
433.10	66.897
433.45	67.204
433.80	66.338
434.16	64.100
434.51	66.022
434.86	67.073
435.22	65.788
435.57	67.311
435.92	67.126
436.28	66.786
436.63	66.343
436.98	66.280
437.34	66.304
437.69	66.249
438.04	67.179
438.39	66.768
438.75	67.699
439.10	66.667
439.45	68.716
439.81	66.667
440.16	68.171
440.51	67.045
440.86	68.580
441.22	66.007
441.57	65.673
441.92	68.258
442.27	67.073
442.63	65.953
442.98	66.973
443.33	66.555
443.68	67.056
444.03	66.120
444.39	66.060
444.74	69.064
445.09	68.040
445.44	67.920
445.79	69.314
446.15	67.126
446.50	67.221
446.85	67.960
447.20	66.788
447.55	67.467
447.91	68.190
448.26	67.501
448.61	67.933
448.96	68.904
449.31	67.977
449.66	67.364
450.02	68.910
450.37	68.880
450.72	67.869
451.07	68.987
451.42	68.040
451.77	68.113
452.12	67.703
452.47	68.191
452.83	68.787
453.18	68.691
453.53	69.785
453.88	69.581
454.23	69.269
454.58	70.151
454.93	69.265
455.28	67.619
455.63	69.312
455.98	68.010
456.34	68.582
456.69	69.695
457.04	71.014
457.39	69.320
457.74	69.105
458.09	67.275
458.44	68.812
458.79	68.123
459.14	69.108
459.49	68.537
459.84	68.246
460.19	67.840
460.54	69.804
460.89	68.295
461.24	69.503
461.59	66.865
461.94	67.610
462.29	68.456
462.64	69.302
462.99	69.262
463.34	68.289
463.69	68.340
464.04	68.220
464.39	68.223
464.74	69.202
465.09	69.183
465.44	68.609
465.79	66.723
466.14	69.156
466.49	66.993
466.84	68.233
467.19	68.461
467.54	68.391
467.89	68.793
468.24	67.275
468.59	68.190
468.94	66.984
469.29	70.164
469.64	69.446
469.99	71.759
470.34	68.805
470.68	71.887
471.03	71.054
471.38	70.114
471.73	69.398
472.08	68.928
472.43	69.799
472.78	69.088
473.13	69.864
473.48	69.381
473.83	67.808
474.17	69.624
474.52	69.432
474.87	69.273
475.22	70.592
475.57	68.944
475.92	68.568
476.27	68.393
476.61	70.660
476.96	67.485
477.31	69.335
477.66	68.034
478.01	68.725
478.36	67.375
478.70	69.440
479.05	69.396
479.40	69.369
479.75	67.153
480.10	67.435
480.45	68.000
480.79	68.077
481.14	69.928
481.49	68.030
481.84	69.064
482.19	67.587
482.53	68.297
482.88	66.826
483.23	68.282
483.58	67.925
483.92	67.328
484.27	67.320
484.62	67.010
484.97	66.294
485.31	64.559
485.66	62.037
486.01	62.601
486.36	61.743
486.70	62.595
487.05	64.150
487.40	63.392
487.75	64.169
488.09	64.957
488.44	64.615
488.79	65.895
489.13	67.228
489.48	66.396
489.83	67.489
490.17	66.921
490.52	68.545
490.87	67.515
491.22	68.386
491.56	67.789
491.91	67.830
492.26	68.887
492.60	67.994
492.95	69.110
493.30	66.634
493.64	70.039
493.99	68.261
494.34	67.282
494.68	68.429
495.03	67.251
495.37	68.057
495.72	69.308
496.07	68.341
496.41	66.981
496.76	66.928
497.11	66.884
497.45	67.399
497.80	68.315
498.14	67.114
498.49	67.547
498.84	66.417
499.18	68.574
499.53	68.552
499.87	66.877
500.22	67.409
500.56	67.726
500.91	68.022
501.26	66.139
501.60	66.257
501.95	67.103
502.29	67.409
502.64	66.940
502.98	66.946
503.33	65.994
503.67	65.928
504.02	66.764
504.36	67.343
504.71	66.162
505.06	66.281
505.40	67.107
505.75	67.526
506.09	66.346
506.44	66.735
506.78	67.500
507.13	67.580
507.47	66.997
507.82	68.536
508.16	67.723
508.51	68.625
508.85	66.824
509.19	68.068
509.54	68.043
509.88	67.368
510.23	68.424
510.57	68.520
510.92	66.151
511.26	67.649
511.61	67.932
511.95	69.041
512.30	68.404
512.64	67.056
512.98	66.536
513.33	68.830
513.67	68.960
514.02	67.563
514.36	68.857
514.70	68.357
515.05	69.976
515.39	68.418
515.74	69.940
516.08	69.038
516.42	68.963
516.77	68.227
517.11	70.504
517.46	68.701
517.80	68.594
518.14	69.320
518.49	67.788
518.83	68.834
519.17	68.163
519.52	69.153
519.86	68.187
520.20	68.530
520.55	67.542
520.89	69.824
521.23	69.728
521.58	68.391
521.92	69.038
522.26	68.120
522.61	68.247
522.95	70.464
523.29	67.916
523.64	68.107
523.98	68.308
524.32	69.523
524.66	70.359
525.01	69.805
525.35	70.512
525.69	69.091
526.04	69.048
526.38	69.585
526.72	67.822
527.06	68.093
527.41	69.063
527.75	69.772
528.09	69.302
528.43	69.007
528.78	68.581
529.12	67.742
529.46	67.251
529.80	66.054
530.15	69.571
530.49	67.744
530.83	68.536
531.17	66.488
531.51	68.331
531.86	65.262
532.20	67.154
532.54	67.393
532.88	67.967
533.22	67.003
533.57	65.727
533.91	66.841
534.25	66.276
534.59	65.298
534.93	65.639
535.27	64.277
535.62	65.068
535.96	65.492
536.30	65.303
536.64	67.609
536.98	65.017
537.32	68.492
537.66	66.269
538.01	66.783
538.35	66.158
538.69	64.913
539.03	64.798
539.37	64.603
539.71	64.485
540.05	63.272
540.39	64.612
540.73	65.132
541.07	64.572
541.42	64.113
541.76	65.244
542.10	63.937
542.44	65.601
542.78	61.390
543.12	63.805
543.46	63.978
543.80	64.053
544.14	61.415
544.48	61.426
544.82	65.140
545.16	64.413
545.50	62.550
545.84	64.377
546.18	64.965
546.52	63.663
546.86	63.911
547.20	63.448
547.54	61.201
547.88	62.772
548.22	61.538
548.56	61.346
548.90	62.332
549.24	64.325
549.58	62.553
549.92	62.831
550.26	63.370
550.60	64.833
550.94	64.451
551.28	65.533
551.62	65.077
551.96	62.556
552.30	62.500
552.64	61.354
552.98	61.955
553.32	62.981
553.66	62.192
554.00	62.847
554.34	63.737
554.68	63.127
555.02	63.616
555.36	61.930
555.69	62.564
556.03	60.742
556.37	61.068
556.71	61.877
557.05	61.894
557.39	63.346
557.73	62.294
558.07	63.650
558.41	62.481
558.75	61.185
559.08	62.411
559.42	62.143
559.76	62.690
560.10	61.697
560.44	61.206
560.78	61.189
561.12	60.790
561.45	60.436
561.79	59.874
562.13	60.539
562.47	59.640
562.81	60.159
563.15	59.450
563.48	59.194
563.82	60.124
564.16	59.610
564.50	59.324
564.84	58.902
565.17	58.484
565.51	59.904
565.85	59.396
566.19	59.881
566.52	58.981
566.86	58.869
567.20	56.600
567.54	58.212
567.88	58.348
568.21	56.109
568.55	55.707
568.89	55.647
569.23	54.502
569.56	52.977
569.90	52.862
570.24	50.651
570.57	51.782
570.91	51.203
571.25	49.918
571.59	48.770
571.92	48.237
572.26	48.188
572.60	48.217
572.93	49.231
573.27	49.216
573.61	48.419
573.95	48.088
574.28	46.743
574.62	46.377
574.96	46.298
575.29	46.492
575.63	45.659
575.97	46.788
576.30	46.584
576.64	45.748
576.98	46.435
577.31	47.039
577.65	46.216
577.98	44.273
578.32	45.235
578.66	44.616
578.99	45.227
579.33	44.492
579.67	44.739
580.00	44.962
580.34	45.672
580.67	44.955
581.01	44.909
581.35	44.057
581.68	43.928
582.02	43.513
582.35	43.417
582.69	43.455
583.02	43.495
583.36	44.571
583.70	45.042
584.03	46.038
584.37	45.737
584.70	45.055
585.04	44.197
585.37	44.595
585.71	44.211
586.04	44.276
586.38	44.572
586.72	45.366
587.05	45.176
587.39	45.178
587.72	45.052
588.06	44.810
588.39	44.660
588.73	44.811
589.06	46.021
589.40	45.455
589.73	46.440
590.07	46.639
590.40	47.407
590.73	47.323
591.07	47.328
591.40	47.596
591.74	48.281
592.07	48.701
592.41	47.571
592.74	46.834
593.08	43.626
593.41	44.020
593.75	44.684
594.08	44.422
594.41	45.779
594.75	44.771
595.08	45.289
595.42	45.344
595.75	45.625
596.09	45.778
596.42	46.341
596.75	46.936
597.09	46.788
597.42	47.154
597.75	47.641
598.09	45.360
598.42	45.984
598.76	45.045
599.09	44.511
599.42	44.146
599.76	43.755
600.09	43.326
600.42	43.973
600.76	43.796
601.09	44.695
601.42	43.909
601.76	44.819
602.09	44.101
602.42	45.872
602.76	44.992
603.09	44.186
603.42	46.363
603.76	43.750
604.09	44.512
604.42	45.093
604.76	47.085
605.09	45.612
605.42	45.056
605.75	44.002
606.09	44.544
606.42	44.412
606.75	44.242
607.09	44.132
607.42	44.085
607.75	44.449
608.08	44.789
608.42	44.815
608.75	45.735
609.08	45.491
609.41	45.482
609.75	44.657
610.08	45.831
610.41	44.831
610.74	44.807
611.07	46.202
611.41	47.172
611.74	46.482
612.07	43.683
612.40	46.007
612.73	46.045
613.07	45.838
613.40	45.842
613.73	44.600
614.06	45.576
614.39	46.024
614.72	45.098
615.06	46.034
615.39	43.886
615.72	44.456
616.05	44.916
616.38	44.786
616.71	46.544
617.05	46.325
617.38	46.323
617.71	46.981
618.04	47.302
618.37	46.974
618.70	47.987
619.03	47.639
619.36	47.757
619.69	49.886
620.03	48.503
620.36	48.069
620.69	47.537
621.02	47.859
621.35	51.452
621.68	52.211
622.01	49.583
622.34	48.843
622.67	49.054
623.00	50.153
623.33	49.009
623.66	47.943
623.99	48.109
624.32	47.909
624.65	46.692
624.99	47.856
625.32	46.854
625.65	48.782
625.98	49.154
626.31	49.044
626.64	51.820
626.97	51.134
627.30	50.525
627.63	49.653
627.96	50.494
628.29	52.174
628.62	51.426
628.95	51.603
629.28	52.520
629.61	51.346
629.94	51.711
630.26	51.383
630.59	52.445
630.92	51.897
631.25	50.872
631.58	54.626
631.91	52.412
632.24	53.784
632.57	54.659
632.90	53.144
633.23	55.647
633.56	56.549
633.89	54.624
634.22	54.321
634.55	54.638
634.88	56.066
635.20	55.513
635.53	56.000
635.86	55.137
636.19	57.439
636.52	53.699
636.85	54.467
637.18	53.208
637.51	53.459
637.83	55.716
638.16	57.299
638.49	52.861
638.82	55.000
639.15	56.038
639.48	55.296
639.81	56.904
640.13	55.411
640.46	55.977
640.79	55.228
641.12	56.130
641.45	55.255
641.77	56.444
642.10	58.926
642.43	57.235
642.76	58.086
643.09	57.027
643.41	57.120
643.74	55.848
644.07	57.800
644.40	59.122
644.73	59.895
645.05	57.550
645.38	60.141
645.71	58.156
646.04	60.503
646.36	59.043
646.69	59.173
647.02	62.949
647.35	61.194
647.67	62.888
648.00	60.075
648.33	56.655
648.66	56.780
648.98	53.266
649.31	54.050
649.64	53.689
649.96	53.647
650.29	55.707
650.62	55.043
650.94	59.259
651.27	58.659
651.60	58.378
651.92	56.818
652.25	54.885
652.58	55.333
652.90	54.889
653.23	52.605
653.56	52.284
653.88	54.467
654.21	50.088
654.54	52.971
654.86	54.839
655.19	50.000
655.52	43.576
655.84	33.811
656.17	35.706
656.49	47.826
656.82	48.986
657.15	37.199
657.47	28.320
657.80	20.884
658.13	20.765
658.45	33.061
658.78	33.070
659.10	32.716
659.43	34.430
659.75	35.520
660.08	38.276
660.41	43.412
660.73	47.790
661.06	51.300
661.38	55.577
661.71	55.647
662.03	58.155
662.36	58.022
662.68	58.407
663.01	60.699
663.33	58.701
663.66	56.977
663.98	59.535
664.31	56.716
664.63	53.917
664.96	53.478
665.28	56.071
665.61	55.844
665.93	55.435
666.26	58.568
666.58	54.586
666.91	57.882
667.23	58.019
667.56	62.085
667.88	54.916
668.21	58.473
668.53	56.501
668.86	58.491
669.18	57.075
669.50	53.027
669.83	56.512
670.15	53.380
670.48	57.416
670.80	56.912
671.13	53.468
671.45	52.740
671.77	56.652
672.10	52.673
672.42	51.311
672.75	50.089
673.07	50.984
673.39	48.624
673.72	46.746
674.04	51.458
674.37	52.542
674.69	52.248
675.01	54.667
675.34	52.477
675.66	56.250
675.98	54.989
676.31	53.899
676.63	53.682
676.95	52.727
677.28	57.412
677.60	57.349
677.92	53.670
678.25	53.392
678.57	51.082
678.89	50.000
679.22	53.020
679.54	50.602
679.86	48.310
680.18	51.068
680.51	44.886
680.83	49.304
681.15	51.200
681.48	49.795
681.80	51.446
682.12	48.992
682.44	46.025
682.77	49.227
683.09	53.089
683.41	50.682
683.73	50.230
684.06	53.761
684.38	48.817
684.70	49.020
685.02	50.622
685.34	47.826
685.67	46.904
685.99	46.293
686.31	43.186
686.63	48.980
686.96	46.768
687.28	44.848
687.60	42.966
687.92	45.859
688.24	51.008
688.56	48.908
688.89	50.223
689.21	50.889
689.53	50.116
689.85	47.674
690.17	50.446
690.49	50.118
690.82	50.243
691.14	50.000
691.46	48.832
691.78	47.072
692.10	46.022
692.42	48.701
692.74	44.444
693.06	48.874
693.39	43.439
693.71	44.796
694.03	44.573
694.35	46.495
694.67	51.768
694.99	48.564
695.31	52.480
695.63	49.750
695.95	48.485
696.27	49.482
696.59	52.500
696.91	51.261
697.23	47.301
697.56	46.782
697.88	46.237
698.20	45.330
698.52	44.471
698.84	49.522
699.16	45.500
699.48	45.614
699.80	48.883
700.12	46.361
700.44	47.619
700.76	50.872
701.08	49.091
701.40	46.386
701.72	56.173
702.04	51.815
702.36	55.184
702.68	48.949
703.00	51.515
703.32	48.680
703.64	43.785
703.96	47.246
704.28	48.773
704.60	47.619
704.91	43.849
705.23	50.498
705.55	56.184
705.87	53.069
706.19	55.185
706.51	49.485
706.83	52.090
707.15	47.664
707.47	44.258
707.79	42.708
708.11	48.000
708.43	46.500
708.74	44.186
709.06	49.014
709.38	48.318
709.70	46.154
710.02	50.637
710.34	50.464
710.66	42.949
710.98	42.715
711.29	47.869
711.61	49.153
711.93	47.883
712.25	48.110
712.57	53.480
712.89	50.000
713.20	47.059
713.52	45.296
713.84	49.488
714.16	42.612
714.48	47.742
714.80	50.321
715.11	43.161
715.43	45.141
715.75	43.000
716.07	44.850
716.39	49.664
716.70	46.863
717.02	50.382
717.34	45.749
717.66	56.637
717.97	50.000
718.29	51.046
718.61	51.181
718.93	48.450
719.24	47.148
719.56	51.406
719.88	46.048
720.20	45.076
720.51	47.126
720.83	47.104
721.15	47.899
721.46	53.629
721.78	45.059
722.10	42.007
722.42	45.228
722.73	45.714
723.05	51.837
723.37	52.966
723.68	53.153
724.00	44.017
724.32	44.444
724.63	45.455
724.95	46.725
725.27	48.387
725.58	49.153
725.90	40.873
726.22	42.857
726.53	41.695
726.85	43.820
727.16	47.170
727.48	40.081
727.80	46.154
728.11	45.763
728.43	45.882
728.74	39.919
729.06	49.200
729.38	47.744
729.69	45.817
730.01	38.846
730.32	41.045
730.64	42.403
730.96	43.396
731.27	40.000
731.59	40.000
731.90	37.261
732.22	39.432
732.53	43.854
732.85	42.553
733.16	44.108
733.48	38.489
733.80	44.928
734.11	36.610
734.43	38.832
734.74	40.606
735.06	36.808
735.37	35.347
735.69	41.751
736.00	39.721
736.32	40.604
736.63	43.310
736.95	40.273
737.26	41.281
737.58	33.893
737.89	42.491
738.21	35.338
738.52	44.856
738.83	43.231
739.15	45.415
739.46	43.701
739.78	40.659
740.09	37.255
740.41	36.957
740.72	40.157
741.04	38.462
741.35	40.426
741.66	48.341
741.98	42.857
742.29	36.634
742.61	45.550
742.92	36.967
743.23	36.111
743.55	42.081
743.86	37.799
744.18	43.062
744.49	45.745
744.80	42.935
745.12	48.128
745.43	40.000
745.74	47.396
746.06	42.439
746.37	45.026
746.68	46.445
747.00	46.277
747.31	45.274
747.62	45.146
747.94	48.325
748.25	38.119
748.56	46.448
748.88	52.356
749.19	54.787
749.50	43.842
749.82	37.264
750.13	38.991
750.44	43.233
750.75	43.284
751.07	41.971
751.38	36.398
751.69	37.647
752.01	41.473
752.32	39.044
752.63	38.735
752.94	42.241
753.26	43.933
753.57	43.891
753.88	41.593
754.19	39.583
754.51	42.975
754.82	41.296
755.13	45.417
755.44	44.758
755.75	43.359
756.07	40.467
756.38	39.623
756.69	37.548
757.00	35.667
757.31	36.601
757.63	31.707
757.94	35.000
758.25	32.055
758.56	32.713
758.87	34.844
759.18	34.268
759.50	35.273
759.81	38.796
760.12	35.484
760.43	33.636
760.74	35.802
761.05	35.385
761.36	30.966
761.67	35.758
761.99	38.095
762.30	35.273
762.61	32.016
762.92	35.294
763.23	40.541
763.54	34.579
763.85	37.288
764.16	39.834
764.47	39.113
764.78	36.630
765.10	37.710
765.41	34.069
765.72	34.921
766.03	30.075
766.34	34.672
766.65	43.028
766.96	44.444
767.27	37.234
767.58	39.080
767.89	39.007
768.20	38.068
768.51	45.055
768.82	40.887
769.13	33.180
769.44	33.476
769.75	37.443
770.06	31.034
770.37	34.135
770.68	35.025
770.99	31.222
771.30	45.098
771.61	35.747
771.92	34.483
772.23	38.916
772.54	36.559
772.85	43.827
773.16	42.135
773.47	47.059
773.78	39.216
774.09	37.126
774.39	32.000
774.70	42.038
775.01	50.345
775.32	47.143
775.63	38.017
775.94	44.275
776.25	42.520
776.56	44.167
776.87	42.308
777.18	30.769
777.48	35.345
777.79	32.174
778.10	44.762
778.41	35.135
778.72	31.746
779.03	44.361
779.34	32.624
779.65	41.781
779.95	32.877
780.26	35.172
780.57	34.146
780.88	37.795
781.19	35.345
781.50	37.984
781.80	36.095
782.11	32.075
782.42	37.692
782.73	30.216
783.04	34.815
783.34	41.667
783.65	27.350
783.96	34.426
784.27	37.241
784.57	36.585
784.88	46.094
785.19	40.000
785.50	47.000
785.81	42.241
786.11	44.828
786.42	41.748
786.73	39.091
787.04	40.816
787.34	29.464
787.65	31.429
787.96	25.664
788.26	36.364
788.57	41.026
788.88	36.719
789.19	31.746
789.49	38.261
789.80	40.816
790.11	31.313
790.41	23.636
790.72	38.043
791.03	35.227
791.33	38.750
791.64	45.000
791.95	41.860
792.25	42.553
792.56	44.944
792.87	30.137
793.17	30.435
793.48	46.667
793.79	33.750
794.09	51.250
794.40	25.472
794.70	33.981
795.01	27.642
795.32	35.897
795.62	41.905
795.93	30.392
796.23	32.075
796.54	40.625
796.85	39.706
797.15	32.394
797.46	47.222
797.76	31.818
798.07	38.372
798.37	30.263
798.68	45.455
798.99	38.272
799.29	34.286
799.60	40.580
799.90	44.000
800.21	42.623
800.51	26.154
800.82	35.593
801.12	40.580
801.43	21.311
801.73	19.048
802.04	24.000
802.34	37.313
802.65	28.846
802.95	39.286
803.26	34.615
803.56	41.176
803.87	17.391
804.17	45.333
804.48	46.032
804.78	48.148
805.09	47.826
805.39	31.111
805.70	40.741
806.00	10.526
806.30	25.352
806.61	38.571
806.91	15.278
807.22	38.158
807.52	36.000
807.83	41.818
808.13	20.833
808.43	39.706
808.74	20.896
809.04	30.508
809.35	23.077
809.65	37.500
809.95	32.432
810.26	31.818
810.56	35.616
810.86	33.333
811.17	30.000
811.47	44.898
811.77	18.421
812.08	18.182
812.38	15.094
812.69	17.500
812.99	39.394
813.29	26.316
813.59	0.000
813.90	2.273
814.20	48.718
814.50	38.462
814.81	35.849
815.11	27.660
815.41	42.373
815.72	21.429
816.02	39.216
816.32	31.250
816.62	7.317
816.93	27.027
817.23	37.143
817.53	29.167
817.84	30.435
818.14	38.462
818.44	7.895
818.74	30.435
819.04	15.000
819.35	24.324
819.65	17.647
819.95	-2.778
820.25	28.571
820.56	42.500
820.86	0.000
821.16	47.500
821.46	55.319
821.76	70.000
822.07	25.581
822.37	10.811
822.67	53.125
822.97	35.714
823.27	-10.714
823.57	36.000
823.88	3.704
824.18	57.143
824.48	23.529
824.78	29.032
825.08	47.826
825.38	27.273
825.69	-16.667
825.99	15.789
826.29	16.667
826.59	40.000
826.89	-23.810
827.19	19.565
827.49	7.500
827.79	31.429
828.09	10.714
828.39	42.424
828.70	81.081
829.00	32.143
829.30	9.524
829.60	-3.333
829.90	21.875
830.20	10.526
830.50	-14.815
830.80	4.348
831.10	50.000
831.40	39.394
831.70	35.484
832.00	100.000
832.30	-23.810
832.60	58.333
832.90	27.586
833.20	15.000
833.50	51.515
833.80	0.000
834.10	15.385
834.40	53.125
834.70	-88.889
835.00	52.632
835.30	46.154
835.60	46.667
835.90	45.161
836.20	54.545
836.50	28.571
836.80	-19.231
837.10	17.857
837.40	-300.000
837.70	81.818
838.00	-81.818
838.30	0.000
838.60	-7.692
838.90	9.091
839.19	28.571
839.49	50.000
839.79	23.077
840.09	-16.667
840.39	100.000
840.69	-3.571
840.99	-19.231
841.29	-57.895
841.59	-60.000
841.88	72.727
842.18	20.000
842.48	37.500
842.78	13.333
843.08	40.741
843.38	-110.000
843.68	8.696
843.97	33.333
844.27	-40.000
844.57	65.000
844.87	-5.556
845.17	-33.333
845.47	20.000
845.76	38.095
846.06	23.529
846.36	40.000
846.66	-35.714
846.96	-6.667
847.25	-112.500
847.55	7.143
847.85	37.500
848.15	-9.091
848.44	-533.333
848.74	20.000
849.04	70.370
849.34	81.818
849.63	-200.000
849.93	-240.000
850.23	5.556
850.53	130.000
850.82	-23.077
851.12	0.000
851.42	26.667
851.71	-11.538
852.01	50.000
852.31	-125.000
852.61	-72.727
852.90	-35.000
853.20	15.789
853.50	50.000
853.79	-4.348
854.09	25.000
854.39	47.368
854.68	0.000
854.98	19.355
855.28	15.385
855.57	15.000
855.87	-16.667
856.17	37.037
856.46	57.143
856.76	-26.667
857.05	211.111
857.35	-8.000
857.65	5.556
857.94	-69.231
858.24	55.172
858.53	38.889
858.83	7.407
859.13	0.000
859.42	8.696
859.72	175.000
860.01	-866.667
860.31	12.000
860.60	42.857
860.90	33.333
861.20	-53.333
861.49	-150.000
861.79	40.000
862.08	30.000
862.38	120.000
862.67	-180.000
862.97	33.333
863.26	-41.667
863.56	-33.333
863.85	-366.667
864.15	33.333
864.44	-40.000
864.74	50.000
865.03	-0.000
865.33	-200.000
865.62	200.000
865.92	-25.000
866.21	-200.000
866.51	6.250
866.80	-90.909
867.10	-450.000
867.39	75.000
867.69	0.000
867.98	-38.462
868.27	-400.000
868.57	40.000
868.86	11.111
869.16	-53.846
869.45	26.667
869.75	-1100.000
870.04	0.000
870.33	-114.286
870.63	80.952
870.92	233.333
871.22	-140.000
871.51	0.000
871.80	0.000
872.10	566.667
>>>>>End Processed Spectral Data<<<<<
