SpectraSuite Data File
++++++++++++++++++++++++++++++++++++
Date: Fri May 15 20:34:10 PDT 2015
User: schluterlab
Dark Spectrum Present: Yes
Reference Spectrum Present: Yes
Number of Sampled Component Spectra: 1
Spectrometers: USB2E3373
Integration Time (usec): 3000 (USB2E3373)
Spectra Averaged: 3 (USB2E3373)
Boxcar Smoothing: 0 (USB2E3373)
Correct for Electrical Dark: No (USB2E3373)
Strobe/Lamp Enabled: No (USB2E3373)
Correct for Detector Non-linearity: No (USB2E3373)
Correct for Stray Light: No (USB2E3373)
Number of Pixels in Processed Spectrum: 2048
>>>>>Begin Processed Spectral Data<<<<<
178.53	0.000
178.91	0.000
179.29	0.000
179.67	-100.000
180.04	71.429
180.42	100.000
180.80	-800.000
181.18	333.333
181.56	550.000
181.94	0.000
182.31	600.000
182.69	-260.000
183.07	-500.000
183.45	-160.000
183.83	133.333
184.20	9.091
184.58	88.889
184.96	-225.000
185.34	-33.333
185.72	-450.000
186.09	123.077
186.47	-800.000
186.85	166.667
187.23	222.222
187.61	100.000
187.98	-400.000
188.36	-44.444
188.74	-400.000
189.12	5.882
189.49	22.222
189.87	0.000
190.25	42.857
190.63	-150.000
191.00	-500.000
191.38	-31.579
191.76	50.000
192.14	100.000
192.51	300.000
192.89	-22.222
193.27	-228.571
193.65	216.667
194.02	63.636
194.40	-20.000
194.78	-175.000
195.15	0.000
195.53	-100.000
195.91	400.000
196.29	-125.000
196.66	69.231
197.04	171.429
197.42	-33.333
197.79	-733.333
198.17	-115.385
198.55	1100.000
198.92	-366.667
199.30	400.000
199.68	-140.000
200.05	-466.667
200.43	0.000
200.81	-233.333
201.18	-66.667
201.56	1200.000
201.94	-100.000
202.31	100.000
202.69	-160.000
203.07	150.000
203.44	100.000
203.82	0.000
204.19	0.000
204.57	-600.000
204.95	187.500
205.32	-80.000
205.70	28.571
206.08	-100.000
206.45	44.444
206.83	21.429
207.20	-157.143
207.58	1000.000
207.96	-300.000
208.33	-240.000
208.71	-25.000
209.08	-300.000
209.46	-600.000
209.84	-60.000
210.21	-600.000
210.59	-128.571
210.96	-166.667
211.34	-275.000
211.71	13.333
212.09	-214.286
212.46	-1500.000
212.84	0.000
213.22	120.000
213.59	300.000
213.97	7.692
214.34	54.545
214.72	-133.333
215.09	450.000
215.47	-84.615
215.84	-63.636
216.22	-300.000
216.59	-212.500
216.97	-50.000
217.34	-25.000
217.72	-280.000
218.09	-100.000
218.47	262.500
218.84	-700.000
219.22	-66.667
219.59	-160.000
219.97	566.667
220.34	400.000
220.72	-142.857
221.09	25.000
221.47	-200.000
221.84	-950.000
222.22	-950.000
222.59	36.364
222.97	-25.000
223.34	-300.000
223.72	14.286
224.09	-19.048
224.46	14.286
224.84	433.333
225.21	-110.000
225.59	-13.333
225.96	-350.000
226.34	475.000
226.71	-14.286
227.08	50.000
227.46	12.500
227.83	-600.000
228.21	-166.667
228.58	36.364
228.95	-62.500
229.33	190.000
229.70	-93.750
230.08	-100.000
230.45	-42.857
230.82	0.000
231.20	-86.667
231.57	7.143
231.95	-42.857
232.32	-110.000
232.69	28.571
233.07	-33.333
233.44	-160.000
233.81	-130.000
234.19	-66.667
234.56	-70.588
234.93	500.000
235.31	-300.000
235.68	-360.000
236.05	-100.000
236.43	-35.000
236.80	0.000
237.17	-12.500
237.55	-55.000
237.92	-55.556
238.29	-5.556
238.67	20.000
239.04	-17.647
239.41	2.439
239.79	-43.333
240.16	0.000
240.53	-28.947
240.91	-34.783
241.28	-14.286
241.65	0.000
242.02	12.329
242.40	-13.333
242.77	-18.644
243.14	-31.818
243.51	0.000
243.89	14.943
244.26	0.000
244.63	-1.190
245.00	3.093
245.38	-5.155
245.75	-12.360
246.12	-10.345
246.49	0.000
246.87	-1.923
247.24	-22.689
247.61	-2.632
247.98	-13.008
248.36	-5.625
248.73	-1.316
249.10	-6.494
249.47	-3.797
249.84	-2.614
250.22	-1.176
250.59	-5.229
250.96	6.573
251.33	-11.628
251.70	-4.706
252.08	-1.015
252.45	-1.485
252.82	-3.518
253.19	0.000
253.56	-5.607
253.94	-2.252
254.31	0.000
254.68	-1.316
255.05	1.181
255.42	-3.057
255.79	2.317
256.16	0.778
256.54	1.866
256.91	-1.141
257.28	1.487
257.65	-0.749
258.02	-1.418
258.39	3.367
258.76	0.366
259.14	0.332
259.51	-0.971
259.88	-0.687
260.25	0.654
260.62	0.347
260.99	-0.339
261.36	-2.397
261.73	0.949
262.10	-0.912
262.47	-1.534
262.85	-2.821
263.22	1.231
263.59	1.246
263.96	1.553
264.33	2.727
264.70	-2.083
265.07	-0.595
265.44	2.266
265.81	1.130
266.18	1.093
266.55	2.057
266.92	1.554
267.29	3.133
267.66	-1.279
268.03	-0.262
268.40	-0.522
268.77	3.209
269.14	0.719
269.51	2.057
269.88	-0.249
270.25	-2.296
270.62	-3.659
270.99	-4.348
271.36	0.244
271.73	-0.235
272.10	1.703
272.47	0.946
272.84	-1.238
273.21	0.000
273.58	-0.964
273.95	3.890
274.32	0.000
274.69	-0.226
275.06	-0.893
275.43	1.134
275.80	1.766
276.17	-0.920
276.54	2.141
276.91	-0.439
277.28	-2.183
277.65	3.926
278.02	0.213
278.39	0.000
278.76	1.468
279.13	-1.660
279.50	2.941
279.87	1.080
280.23	-1.720
280.60	1.559
280.97	0.404
281.34	-0.962
281.71	2.259
282.08	-0.613
282.45	-0.196
282.82	-0.772
283.19	1.741
283.56	1.349
283.92	-1.328
284.29	-0.385
284.66	0.194
285.03	0.982
285.40	0.000
285.77	0.351
286.14	1.986
286.51	2.030
286.87	1.280
287.24	0.921
287.61	-1.235
287.98	2.982
288.35	1.213
288.72	0.525
289.08	0.347
289.45	0.703
289.82	0.874
290.19	-0.171
290.56	-0.686
290.93	-1.347
291.29	0.462
291.66	0.630
292.03	1.116
292.40	1.290
292.77	-0.957
293.13	-2.110
293.50	-1.214
293.87	0.763
294.24	2.782
294.60	1.341
294.97	3.869
295.34	-0.460
295.71	1.192
296.08	0.149
296.44	-0.996
296.81	0.833
297.18	0.290
297.55	1.626
297.91	0.274
298.28	3.166
298.65	1.221
299.02	0.809
299.38	-2.873
299.75	0.414
300.12	0.785
300.48	-0.395
300.85	0.887
301.22	0.519
301.59	0.921
301.95	2.278
302.32	2.335
302.69	0.622
303.05	0.619
303.42	0.747
303.79	0.584
304.15	0.836
304.52	0.476
304.89	0.819
305.25	-0.121
305.62	-0.117
305.99	0.702
306.35	0.694
306.72	0.225
307.09	2.052
307.45	1.148
307.82	0.463
308.19	0.813
308.55	1.527
308.92	1.634
309.29	-0.670
309.65	1.615
310.02	2.310
310.38	1.098
310.75	0.000
311.12	0.538
311.48	2.121
311.85	1.257
312.22	1.160
312.58	2.442
312.95	1.708
313.31	2.484
313.68	2.723
314.05	2.041
314.41	2.062
314.78	1.753
315.14	2.467
315.51	3.934
315.87	2.357
316.24	3.741
316.61	3.937
316.97	4.167
317.34	4.102
317.70	4.398
318.07	3.173
318.43	3.922
318.80	4.830
319.16	5.078
319.53	6.173
319.89	6.496
320.26	6.478
320.62	6.820
320.99	6.681
321.35	7.400
321.72	8.204
322.08	7.351
322.45	8.629
322.81	7.957
323.18	8.832
323.54	9.170
323.91	10.127
324.27	10.840
324.64	11.236
325.00	13.047
325.37	13.039
325.73	12.783
326.10	13.715
326.46	13.901
326.83	15.136
327.19	14.385
327.56	15.378
327.92	15.933
328.29	16.161
328.65	15.849
329.01	15.533
329.38	17.327
329.74	16.903
330.11	16.589
330.47	17.904
330.84	17.404
331.20	20.057
331.56	18.148
331.93	19.269
332.29	20.165
332.66	19.276
333.02	20.632
333.38	18.698
333.75	20.971
334.11	20.054
334.48	21.034
334.84	20.879
335.20	20.677
335.57	20.762
335.93	21.048
336.29	21.087
336.66	19.528
337.02	19.888
337.38	20.556
337.75	21.364
338.11	21.641
338.47	20.985
338.84	21.627
339.20	20.658
339.56	21.101
339.93	21.397
340.29	22.569
340.65	22.043
341.02	21.809
341.38	22.035
341.74	21.643
342.11	21.577
342.47	21.886
342.83	21.194
343.20	21.341
343.56	20.957
343.92	21.701
344.28	21.947
344.65	21.848
345.01	21.953
345.37	21.867
345.73	21.674
346.10	22.778
346.46	22.119
346.82	21.440
347.19	20.948
347.55	20.969
347.91	23.463
348.27	22.070
348.63	22.232
349.00	20.837
349.36	21.696
349.72	21.559
350.08	21.721
350.45	22.346
350.81	21.927
351.17	21.661
351.53	22.204
351.89	21.057
352.26	20.960
352.62	22.339
352.98	21.365
353.34	20.370
353.70	22.492
354.07	21.855
354.43	21.217
354.79	21.552
355.15	21.667
355.51	21.598
355.87	21.845
356.24	20.147
356.60	21.908
356.96	21.905
357.32	21.565
357.68	21.423
358.04	21.325
358.40	20.659
358.77	22.568
359.13	20.256
359.49	20.801
359.85	21.607
360.21	22.249
360.57	21.041
360.93	21.029
361.29	20.695
361.66	21.787
362.02	21.061
362.38	21.630
362.74	20.893
363.10	21.896
363.46	21.349
363.82	22.164
364.18	21.033
364.54	21.103
364.90	20.789
365.26	21.033
365.62	21.606
365.98	20.601
366.35	21.049
366.71	21.212
367.07	22.642
367.43	21.423
367.79	21.767
368.15	21.249
368.51	21.486
368.87	20.459
369.23	21.444
369.59	21.793
369.95	22.067
370.31	21.604
370.67	22.239
371.03	22.031
371.39	21.152
371.75	21.099
372.11	21.255
372.47	21.524
372.83	21.363
373.19	21.755
373.55	20.939
373.91	21.238
374.27	22.041
374.63	22.254
374.99	21.844
375.35	22.423
375.71	21.538
376.07	21.348
376.42	22.041
376.78	21.611
377.14	21.327
377.50	21.912
377.86	20.884
378.22	20.932
378.58	21.795
378.94	20.857
379.30	21.896
379.66	21.317
380.02	21.091
380.38	21.181
380.74	21.125
381.09	22.393
381.45	20.979
381.81	21.221
382.17	21.193
382.53	21.049
382.89	21.155
383.25	21.593
383.61	22.012
383.97	21.143
384.32	21.576
384.68	21.486
385.04	20.466
385.40	20.224
385.76	22.138
386.12	21.281
386.48	21.711
386.83	20.672
387.19	21.795
387.55	22.146
387.91	21.210
388.27	21.245
388.62	22.530
388.98	21.915
389.34	21.924
389.70	21.877
390.06	21.020
390.42	20.661
390.77	21.321
391.13	20.744
391.49	21.151
391.85	21.118
392.20	21.532
392.56	21.551
392.92	21.668
393.28	20.873
393.64	20.901
393.99	21.630
394.35	20.873
394.71	22.158
395.07	20.239
395.42	20.644
395.78	21.107
396.14	21.690
396.50	21.940
396.85	21.442
397.21	21.742
397.57	20.690
397.92	21.210
398.28	21.149
398.64	20.542
399.00	21.445
399.35	20.316
399.71	21.195
400.07	21.161
400.42	20.808
400.78	20.882
401.14	21.779
401.49	21.501
401.85	21.450
402.21	21.265
402.57	21.062
402.92	20.201
403.28	21.429
403.63	20.933
403.99	20.918
404.35	20.924
404.70	20.714
405.06	20.329
405.42	20.945
405.77	20.337
406.13	21.013
406.49	20.367
406.84	21.271
407.20	21.132
407.55	19.768
407.91	19.719
408.27	20.204
408.62	21.477
408.98	20.826
409.34	20.942
409.69	20.543
410.05	20.320
410.40	19.938
410.76	20.205
411.11	20.687
411.47	20.579
411.83	19.397
412.18	20.013
412.54	20.225
412.89	20.135
413.25	20.397
413.60	19.938
413.96	18.896
414.31	20.488
414.67	20.013
415.03	19.308
415.38	20.627
415.74	20.651
416.09	19.987
416.45	19.176
416.80	20.026
417.16	20.856
417.51	19.520
417.87	19.817
418.22	20.402
418.58	19.933
418.93	20.251
419.29	18.758
419.64	19.896
420.00	20.592
420.35	20.239
420.71	20.170
421.06	20.074
421.42	19.772
421.77	20.058
422.12	19.183
422.48	18.841
422.83	19.722
423.19	19.808
423.54	18.695
423.90	19.317
424.25	19.059
424.61	20.135
424.96	19.744
425.31	20.855
425.67	20.364
426.02	19.965
426.38	19.599
426.73	20.278
427.09	20.759
427.44	20.765
427.79	19.387
428.15	19.721
428.50	19.685
428.85	19.779
429.21	20.430
429.56	20.431
429.92	20.134
430.27	20.201
430.62	19.655
430.98	19.427
431.33	20.242
431.68	19.414
432.04	19.676
432.39	19.624
432.74	19.723
433.10	20.057
433.45	19.594
433.80	19.269
434.16	18.781
434.51	19.301
434.86	19.977
435.22	19.405
435.57	19.401
435.92	20.000
436.28	19.499
436.63	19.624
436.98	20.336
437.34	19.480
437.69	20.334
438.04	19.886
438.39	18.998
438.75	19.672
439.10	20.034
439.45	20.207
439.81	19.511
440.16	19.952
440.51	20.239
440.86	21.390
441.22	19.457
441.57	19.757
441.92	20.462
442.27	19.789
442.63	20.289
442.98	19.414
443.33	19.811
443.68	20.584
444.03	21.560
444.39	20.364
444.74	20.346
445.09	19.933
445.44	20.057
445.79	21.661
446.15	19.548
446.50	19.190
446.85	19.447
447.20	20.021
447.55	20.536
447.91	20.417
448.26	20.546
448.61	21.013
448.96	19.736
449.31	18.960
449.66	19.861
450.02	20.536
450.37	20.747
450.72	20.447
451.07	20.063
451.42	19.663
451.77	20.133
452.12	19.378
452.47	19.446
452.83	19.965
453.18	19.861
453.53	19.848
453.88	19.186
454.23	20.098
454.58	20.718
454.93	19.974
455.28	19.937
455.63	20.521
455.98	21.046
456.34	20.945
456.69	19.886
457.04	20.290
457.39	19.198
457.74	19.166
458.09	19.188
458.44	19.368
458.79	19.216
459.14	20.366
459.49	20.836
459.84	20.023
460.19	19.964
460.54	19.804
460.89	20.852
461.24	19.379
461.59	20.071
461.94	20.000
462.29	20.084
462.64	20.199
462.99	19.905
463.34	19.611
463.69	20.142
464.04	20.097
464.39	19.830
464.74	20.184
465.09	19.526
465.44	19.850
465.79	19.331
466.14	20.068
466.49	19.034
466.84	19.750
467.19	19.587
467.54	20.051
467.89	19.204
468.24	19.830
468.59	19.683
468.94	19.556
469.29	19.541
469.64	19.617
469.99	19.131
470.34	19.522
470.68	19.761
471.03	19.887
471.38	19.258
471.73	18.557
472.08	18.521
472.43	17.919
472.78	18.437
473.13	19.728
473.48	19.088
473.83	18.618
474.17	19.819
474.52	18.890
474.87	18.909
475.22	18.975
475.57	19.029
475.92	19.254
476.27	19.208
476.61	19.213
476.96	18.349
477.31	18.496
477.66	18.764
478.01	18.248
478.36	18.791
478.70	18.543
479.05	18.846
479.40	18.654
479.75	17.831
480.10	17.972
480.45	18.550
480.79	18.882
481.14	18.391
481.49	17.685
481.84	17.423
482.19	17.914
482.53	18.417
482.88	17.566
483.23	17.514
483.58	17.594
483.92	17.473
484.27	17.639
484.62	17.705
484.97	17.164
485.31	16.908
485.66	16.658
486.01	16.853
486.36	16.692
486.70	17.405
487.05	16.931
487.40	17.089
487.75	17.070
488.09	17.367
488.44	16.850
488.79	17.295
489.13	16.867
489.48	17.187
489.83	17.534
490.17	17.483
490.52	16.767
490.87	16.844
491.22	17.240
491.56	16.793
491.91	16.205
492.26	17.307
492.60	16.939
492.95	17.314
493.30	17.245
493.64	16.994
493.99	16.715
494.34	16.748
494.68	17.381
495.03	16.837
495.37	17.664
495.72	17.062
496.07	16.537
496.41	16.085
496.76	16.490
497.11	15.743
497.45	16.563
497.80	16.196
498.14	16.344
498.49	15.795
498.84	16.866
499.18	15.964
499.53	17.262
499.87	15.905
500.22	15.826
500.56	16.238
500.91	15.663
501.26	15.620
501.60	15.789
501.95	15.963
502.29	15.545
502.64	15.975
502.98	15.590
503.33	16.042
503.67	15.133
504.02	15.640
504.36	16.081
504.71	15.707
505.06	15.752
505.40	15.076
505.75	15.773
506.09	15.357
506.44	15.400
506.78	15.459
507.13	15.512
507.47	14.151
507.82	15.011
508.16	15.214
508.51	15.635
508.85	15.175
509.19	14.848
509.54	15.335
509.88	14.941
510.23	15.600
510.57	15.660
510.92	13.859
511.26	14.130
511.61	14.741
511.95	15.671
512.30	14.024
512.64	14.802
512.98	14.879
513.33	14.997
513.67	14.099
514.02	15.732
514.36	15.086
514.70	14.627
515.05	14.512
515.39	14.699
515.74	15.210
516.08	14.943
516.42	15.724
516.77	14.862
517.11	14.243
517.46	14.662
517.80	14.779
518.14	14.513
518.49	14.784
518.83	14.156
519.17	13.766
519.52	13.144
519.86	14.526
520.20	13.730
520.55	13.634
520.89	14.617
521.23	13.680
521.58	14.196
521.92	13.718
522.26	13.598
522.61	14.286
522.95	14.106
523.29	14.422
523.64	13.850
523.98	14.452
524.32	13.660
524.66	14.020
525.01	14.091
525.35	14.323
525.69	12.862
526.04	13.294
526.38	14.267
526.72	13.538
527.06	14.267
527.41	13.918
527.75	12.265
528.09	13.555
528.43	14.112
528.78	12.673
529.12	13.742
529.46	13.190
529.80	13.616
530.15	14.653
530.49	12.727
530.83	13.817
531.17	12.895
531.51	12.859
531.86	12.101
532.20	12.596
532.54	13.002
532.88	13.210
533.22	12.970
533.57	13.893
533.91	12.663
534.25	13.151
534.59	12.508
534.93	12.335
535.27	12.500
535.62	12.703
535.96	12.916
536.30	12.665
536.64	13.232
536.98	12.056
537.32	13.158
537.66	13.394
538.01	13.287
538.35	11.997
538.69	12.117
539.03	12.577
539.37	13.190
539.71	12.474
540.05	12.220
540.39	12.258
540.73	12.971
541.07	12.155
541.42	13.172
541.76	12.319
542.10	11.838
542.44	12.161
542.78	11.356
543.12	12.225
543.46	12.378
543.80	11.728
544.14	11.749
544.48	12.458
544.82	11.893
545.16	11.885
545.50	12.550
545.84	12.535
546.18	12.837
546.52	11.536
546.86	11.071
547.20	12.089
547.54	11.166
547.88	11.481
548.22	11.243
548.56	11.939
548.90	11.321
549.24	10.606
549.58	12.482
549.92	12.223
550.26	10.842
550.60	11.822
550.94	12.024
551.28	11.747
551.62	11.385
551.96	10.827
552.30	10.819
552.64	10.367
552.98	11.392
553.32	11.555
553.66	11.393
554.00	10.876
554.34	11.004
554.68	11.431
555.02	11.533
555.36	11.144
555.69	10.110
556.03	9.850
556.37	10.320
556.71	11.047
557.05	10.664
557.39	9.814
557.73	10.645
558.07	12.368
558.41	10.720
558.75	10.678
559.08	10.638
559.42	10.635
559.76	10.168
560.10	10.703
560.44	10.722
560.78	11.119
561.12	10.790
561.45	10.611
561.79	10.224
562.13	10.007
562.47	10.144
562.81	10.375
563.15	11.001
563.48	10.396
563.82	11.393
564.16	10.376
564.50	9.932
564.84	10.107
565.17	10.798
565.51	10.861
565.85	9.739
566.19	10.544
566.52	10.590
566.86	10.026
567.20	9.651
567.54	10.097
567.88	10.486
568.21	10.520
568.55	9.402
568.89	10.832
569.23	9.966
569.56	9.764
569.90	9.582
570.24	9.527
570.57	9.782
570.91	9.620
571.25	9.142
571.59	9.467
571.92	9.511
572.26	9.149
572.60	9.488
572.93	9.350
573.27	9.248
573.61	9.039
573.95	9.066
574.28	9.163
574.62	8.899
574.96	8.901
575.29	8.884
575.63	8.500
575.97	8.891
576.30	9.137
576.64	8.636
576.98	9.241
577.31	8.749
577.65	8.899
577.98	9.172
578.32	8.613
578.66	8.532
578.99	8.610
579.33	8.718
579.67	9.008
580.00	8.759
580.34	8.632
580.67	8.482
581.01	8.453
581.35	8.915
581.68	8.797
582.02	8.754
582.35	8.654
582.69	8.629
583.02	8.737
583.36	8.469
583.70	9.086
584.03	8.590
584.37	9.260
584.70	8.709
585.04	8.135
585.37	8.403
585.71	8.516
586.04	8.548
586.38	8.376
586.72	8.465
587.05	8.492
587.39	8.834
587.72	8.830
588.06	8.608
588.39	8.659
588.73	8.669
589.06	9.002
589.40	8.538
589.73	8.981
590.07	9.026
590.40	8.591
590.73	8.773
591.07	8.821
591.40	8.014
591.74	9.367
592.07	8.998
592.41	9.011
592.74	8.403
593.08	7.999
593.41	8.105
593.75	8.080
594.08	8.617
594.41	8.224
594.75	8.435
595.08	7.870
595.42	8.465
595.75	8.524
596.09	8.561
596.42	7.772
596.75	8.925
597.09	8.702
597.42	7.814
597.75	8.887
598.09	8.601
598.42	7.807
598.76	8.108
599.09	8.373
599.42	8.071
599.76	8.315
600.09	8.371
600.42	8.529
600.76	7.987
601.09	7.595
601.42	7.638
601.76	8.297
602.09	7.838
602.42	8.551
602.76	8.149
603.09	8.679
603.42	8.236
603.76	7.419
604.09	8.222
604.42	7.614
604.76	8.456
605.09	8.227
605.42	8.217
605.75	8.275
606.09	7.389
606.42	7.756
606.75	8.095
607.09	8.747
607.42	8.197
607.75	7.504
608.08	7.547
608.42	7.995
608.75	8.241
609.08	8.371
609.41	8.020
609.75	7.611
610.08	7.738
610.41	8.019
610.74	7.362
611.07	7.855
611.41	7.888
611.74	8.902
612.07	7.976
612.40	9.136
612.73	7.514
613.07	7.593
613.40	8.807
613.73	7.722
614.06	8.514
614.39	8.122
614.72	8.067
615.06	7.877
615.39	7.915
615.72	8.235
616.05	7.933
616.38	7.521
616.71	7.951
617.05	8.338
617.38	7.920
617.71	7.673
618.04	8.000
618.37	8.512
618.70	8.053
619.03	8.333
619.36	7.019
619.69	8.567
620.03	8.546
620.36	7.654
620.69	8.423
621.02	8.410
621.35	8.133
621.68	9.014
622.01	7.833
622.34	9.417
622.67	8.754
623.00	8.423
623.33	8.079
623.66	7.853
623.99	7.791
624.32	7.681
624.65	7.218
624.99	8.051
625.32	7.961
625.65	8.798
625.98	8.058
626.31	7.814
626.64	8.406
626.97	8.464
627.30	8.144
627.63	9.532
627.96	8.266
628.29	7.771
628.62	8.555
628.95	8.717
629.28	8.367
629.61	8.275
629.94	8.309
630.26	7.905
630.59	7.700
630.92	10.051
631.25	9.333
631.58	6.278
631.91	7.346
632.24	6.651
632.57	8.409
632.90	6.999
633.23	8.353
633.56	8.438
633.89	7.275
634.22	9.383
634.55	9.149
634.88	6.130
635.20	9.615
635.53	7.200
635.86	7.802
636.19	9.056
636.52	8.546
636.85	6.328
637.18	7.547
637.51	7.925
637.83	6.570
638.16	10.232
638.49	7.084
638.82	8.553
639.15	7.191
639.48	8.391
639.81	8.089
640.13	8.369
640.46	6.997
640.79	7.364
641.12	8.272
641.45	7.808
641.77	9.630
642.10	9.953
642.43	6.752
642.76	9.901
643.09	8.885
643.41	7.929
643.74	6.919
644.07	8.867
644.40	9.122
644.73	9.107
645.05	8.725
645.38	5.291
645.71	7.092
646.04	7.002
646.36	8.688
646.69	8.813
647.02	7.372
647.35	9.142
647.67	8.958
648.00	8.582
648.33	7.679
648.66	8.814
648.98	6.030
649.31	6.777
649.64	7.378
649.96	6.159
650.29	8.007
650.62	7.863
650.94	9.259
651.27	5.400
651.60	7.748
651.92	8.741
652.25	6.039
652.58	8.667
652.90	9.262
653.23	7.059
653.56	5.584
653.88	6.014
654.21	5.429
654.54	6.112
654.86	8.659
655.19	7.310
655.52	8.669
655.84	6.436
656.17	7.375
656.49	9.627
656.82	10.247
657.15	7.983
657.47	5.809
657.80	4.388
658.13	4.436
658.45	6.286
658.78	6.479
659.10	6.538
659.43	6.799
659.75	7.351
660.08	6.828
660.41	6.639
660.73	8.564
661.06	8.492
661.38	6.262
661.71	5.955
662.03	9.442
662.36	5.714
662.68	6.858
663.01	6.550
663.33	5.568
663.66	4.186
663.98	4.651
664.31	7.676
664.63	6.221
664.96	4.783
665.28	5.298
665.61	7.792
665.93	7.391
666.26	5.423
666.58	5.145
666.91	7.294
667.23	12.264
667.56	7.346
667.88	5.036
668.21	7.876
668.53	9.220
668.86	8.491
669.18	7.547
669.50	5.811
669.83	8.140
670.15	8.858
670.48	7.177
670.80	6.221
671.13	7.830
671.45	4.338
671.77	7.082
672.10	6.535
672.42	6.367
672.75	9.059
673.07	9.302
673.39	7.156
673.72	4.142
674.04	5.833
674.37	6.992
674.69	5.782
675.01	9.333
675.34	6.306
675.66	5.787
675.98	7.095
676.31	6.422
676.63	5.938
676.95	7.955
677.28	9.176
677.60	7.470
677.92	6.881
678.25	6.565
678.57	6.277
678.89	7.143
679.22	5.817
679.54	7.229
679.86	5.169
680.18	6.408
680.51	6.439
680.83	6.958
681.15	7.400
681.48	7.377
681.80	9.298
682.12	6.048
682.44	6.485
682.77	7.726
683.09	6.407
683.41	6.818
683.73	6.912
684.06	5.973
684.38	2.581
684.70	6.100
685.02	6.639
685.34	4.545
685.67	5.066
685.99	7.776
686.31	7.965
686.63	5.566
686.96	5.323
687.28	3.434
687.60	5.894
687.92	7.273
688.24	4.032
688.56	8.734
688.89	6.250
689.21	8.444
689.53	5.104
689.85	4.186
690.17	7.366
690.49	5.437
690.82	5.583
691.14	2.143
691.46	6.308
691.78	4.730
692.10	7.097
692.42	5.628
692.74	6.410
693.06	6.532
693.39	3.620
693.71	3.620
694.03	4.850
694.35	7.710
694.67	6.566
694.99	2.872
695.31	6.789
695.63	7.500
695.95	5.808
696.27	5.699
696.59	9.167
696.91	4.762
697.23	5.656
697.56	4.208
697.88	7.097
698.20	4.556
698.52	6.118
698.84	4.306
699.16	2.500
699.48	6.266
699.80	8.437
700.12	5.660
700.44	7.563
700.76	4.360
701.08	3.030
701.40	7.229
701.72	9.259
702.04	6.271
702.36	7.023
702.68	5.405
703.00	6.667
703.32	6.158
703.64	5.932
703.96	7.536
704.28	5.521
704.60	5.714
704.91	6.309
705.23	4.983
705.55	9.894
705.87	5.776
706.19	2.593
706.51	4.811
706.83	8.682
707.15	1.869
707.47	7.003
707.79	3.646
708.11	6.750
708.43	8.500
708.74	7.235
709.06	6.479
709.38	7.034
709.70	5.917
710.02	5.096
710.34	8.359
710.66	3.205
710.98	1.325
711.29	5.246
711.61	7.797
711.93	4.886
712.25	8.935
712.57	8.425
712.89	1.866
713.20	10.035
713.52	3.833
713.84	7.509
714.16	2.749
714.48	4.194
714.80	5.128
715.11	5.471
715.43	2.821
715.75	5.333
716.07	1.329
716.39	5.369
716.70	1.845
717.02	8.397
717.34	6.073
717.66	5.310
717.97	3.043
718.29	4.184
718.61	6.693
718.93	6.202
719.24	4.943
719.56	2.410
719.88	7.216
720.20	3.788
720.51	0.766
720.83	3.475
721.15	7.563
721.46	4.839
721.78	0.395
722.10	2.602
722.42	1.245
722.73	3.673
723.05	9.388
723.37	8.475
723.68	8.108
724.00	4.701
724.32	3.556
724.63	1.818
724.95	6.114
725.27	4.147
725.58	0.424
725.90	1.984
726.22	6.178
726.53	5.424
726.85	2.247
727.16	7.547
727.48	4.453
727.80	5.263
728.11	0.847
728.43	2.745
728.74	1.613
729.06	2.000
729.38	10.150
729.69	3.984
730.01	0.385
730.32	10.075
730.64	9.187
730.96	3.396
731.27	5.000
731.59	4.746
731.90	7.325
732.22	8.202
732.53	7.309
732.85	2.837
733.16	8.081
733.48	1.079
733.80	5.797
734.11	5.763
734.43	7.904
734.74	5.455
735.06	4.886
735.37	9.970
735.69	11.111
736.00	3.136
736.32	7.047
736.63	2.817
736.95	7.850
737.26	2.135
737.58	1.342
737.89	8.059
738.21	5.639
738.52	5.761
738.83	0.873
739.15	0.873
739.46	8.661
739.78	1.832
740.09	4.902
740.41	5.435
740.72	2.362
741.04	8.502
741.35	3.830
741.66	2.370
741.98	4.592
742.29	8.911
742.61	3.665
742.92	0.000
743.23	0.463
743.55	7.240
743.86	2.871
744.18	5.263
744.49	2.128
744.80	4.348
745.12	8.556
745.43	-1.463
745.74	4.688
746.06	2.439
746.37	3.141
746.68	9.479
747.00	-3.191
747.31	9.453
747.62	3.883
747.94	6.220
748.25	6.931
748.56	-1.093
748.88	1.571
749.19	8.511
749.50	5.419
749.82	-0.472
750.13	3.670
750.44	10.150
750.75	7.836
751.07	7.664
751.38	5.364
751.69	4.706
752.01	5.814
752.32	1.594
752.63	1.186
752.94	-1.724
753.26	12.552
753.57	4.977
753.88	3.982
754.19	0.417
754.51	-1.240
754.82	1.215
755.13	8.750
755.44	3.629
755.75	8.203
756.07	1.946
756.38	4.528
756.69	3.831
757.00	4.667
757.31	4.902
757.63	3.354
757.94	5.556
758.25	5.479
758.56	4.521
758.87	1.983
759.18	3.738
759.50	3.273
759.81	4.013
760.12	3.871
760.43	3.939
760.74	4.938
761.05	3.077
761.36	7.102
761.67	8.182
761.99	5.102
762.30	1.091
762.61	7.905
762.92	5.882
763.23	4.955
763.54	0.935
763.85	6.356
764.16	2.905
764.47	1.613
764.78	3.297
765.10	7.071
765.41	3.155
765.72	3.810
766.03	0.752
766.34	5.839
766.65	6.375
766.96	6.061
767.27	3.723
767.58	2.299
767.89	-2.128
768.20	6.250
768.51	9.890
768.82	-0.985
769.13	0.461
769.44	0.858
769.75	1.370
770.06	6.466
770.37	3.365
770.68	4.569
770.99	6.335
771.30	1.961
771.61	3.167
771.92	6.466
772.23	5.419
772.54	4.301
772.85	1.852
773.16	1.124
773.47	4.575
773.78	10.458
774.09	1.796
774.39	-2.667
774.70	8.917
775.01	12.414
775.32	7.857
775.63	-0.826
775.94	0.763
776.25	2.362
776.56	-10.000
776.87	-6.731
777.18	-2.564
777.48	4.310
777.79	3.478
778.10	-6.667
778.41	-9.910
778.72	0.000
779.03	-1.504
779.34	7.092
779.65	13.014
779.95	2.740
780.26	-2.069
780.57	-9.756
780.88	0.000
781.19	1.724
781.50	4.651
781.80	2.367
782.11	-0.629
782.42	-0.769
782.73	0.000
783.04	1.481
783.34	-2.083
783.65	-11.111
783.96	0.820
784.27	3.448
784.57	0.813
784.88	5.469
785.19	8.000
785.50	6.000
785.81	9.483
786.11	1.724
786.42	-2.913
786.73	8.182
787.04	3.061
787.34	0.893
787.65	-0.952
787.96	0.000
788.26	7.273
788.57	-4.274
788.88	10.156
789.19	3.175
789.49	5.217
789.80	-10.204
790.11	-1.010
790.41	-3.636
790.72	10.870
791.03	-2.273
791.33	6.250
791.64	-3.750
791.95	-1.163
792.25	-12.766
792.56	2.247
792.87	-10.959
793.17	-10.145
793.48	-12.000
793.79	-7.500
794.09	-2.500
794.40	2.830
794.70	-11.650
795.01	-4.878
795.32	-6.838
795.62	-14.286
795.93	-2.941
796.23	9.434
796.54	3.125
796.85	-8.824
797.15	-19.718
797.46	2.778
797.76	1.515
798.07	-2.326
798.37	5.263
798.68	-3.030
798.99	-6.173
799.29	-11.429
799.60	-13.043
799.90	6.667
800.21	-9.836
800.51	-4.615
800.82	-6.780
801.12	2.899
801.43	8.197
801.73	7.937
802.04	12.000
802.34	-4.478
802.65	9.615
802.95	-26.786
803.26	-15.385
803.56	0.000
803.87	-45.652
804.17	2.667
804.48	6.349
804.78	5.556
805.09	-21.739
805.39	0.000
805.70	16.667
806.00	-24.561
806.30	2.817
806.61	4.286
806.91	-5.556
807.22	-2.632
807.52	4.000
807.83	-27.273
808.13	-4.167
808.43	-7.353
808.74	-13.433
809.04	-8.475
809.35	-7.692
809.65	1.563
809.95	-70.270
810.26	-29.545
810.56	6.849
810.86	-2.381
811.17	-6.000
811.47	-6.122
811.77	-7.895
812.08	2.273
812.38	0.000
812.69	-5.000
812.99	-33.333
813.29	-28.947
813.59	-40.000
813.90	-11.364
814.20	-38.462
814.50	-1.923
814.81	-9.434
815.11	-8.511
815.41	1.695
815.72	-21.429
816.02	31.373
816.32	-6.250
816.62	-24.390
816.93	-27.027
817.23	14.286
817.53	-2.083
817.84	8.696
818.14	1.923
818.44	-28.947
818.74	13.043
819.04	-25.000
819.35	-2.703
819.65	-50.000
819.95	-13.889
820.25	-28.571
820.56	10.000
820.86	-51.724
821.16	5.000
821.46	21.277
821.76	-7.500
822.07	-2.326
822.37	-37.838
822.67	-21.875
822.97	-14.286
823.27	-32.143
823.57	-40.000
823.88	-33.333
824.18	25.000
824.48	-35.294
824.78	-9.677
825.08	-39.130
825.38	0.000
825.69	-25.000
825.99	-5.263
826.29	-25.000
826.59	-106.667
826.89	-66.667
827.19	19.565
827.49	-7.500
827.79	2.857
828.09	3.571
828.39	-9.091
828.70	2.703
829.00	-25.000
829.30	-71.429
829.60	-6.667
829.90	-9.375
830.20	-13.158
830.50	-33.333
830.80	-43.478
831.10	-50.000
831.40	18.182
831.70	19.355
832.00	0.000
832.30	-71.429
832.60	-33.333
832.90	-10.345
833.20	-5.000
833.50	30.303
833.80	-22.222
834.10	7.692
834.40	12.500
834.70	-111.111
835.00	-68.421
835.30	11.538
835.60	-66.667
835.90	25.806
836.20	-50.000
836.50	10.714
836.80	-76.923
837.10	3.571
837.40	-366.667
837.70	-9.091
838.00	-109.091
838.30	-8.696
838.60	-84.615
838.90	-40.909
839.19	-28.571
839.49	-36.667
839.79	-100.000
840.09	-158.333
840.39	14.286
840.69	-28.571
840.99	-34.615
841.29	-73.684
841.59	-150.000
841.88	-136.364
842.18	-50.000
842.48	6.250
842.78	13.333
843.08	-7.407
843.38	-200.000
843.68	13.043
843.97	-26.667
844.27	-40.000
844.57	5.000
844.87	-50.000
845.17	-14.286
845.47	-46.667
845.76	-33.333
846.06	-41.176
846.36	-140.000
846.66	-35.714
846.96	-66.667
847.25	-137.500
847.55	-7.143
847.85	-150.000
848.15	-50.000
848.44	-700.000
848.74	-40.000
849.04	25.926
849.34	-109.091
849.63	-216.667
849.93	-360.000
850.23	-88.889
850.53	-20.000
850.82	-107.692
851.12	-122.222
851.42	-73.333
851.71	-11.538
852.01	7.143
852.31	-250.000
852.61	-63.636
852.90	-20.000
853.20	26.316
853.50	-58.333
853.79	-34.783
854.09	-12.500
854.39	-52.632
854.68	-37.500
854.98	-9.677
855.28	-7.692
855.57	-45.000
855.87	-61.111
856.17	7.407
856.46	-128.571
856.76	-86.667
857.05	-77.778
857.35	-8.000
857.65	5.556
857.94	-92.308
858.24	13.793
858.53	0.000
858.83	3.704
859.13	4.545
859.42	-17.391
859.72	-100.000
860.01	-600.000
860.31	4.000
860.60	-52.381
860.90	-666.667
861.20	-20.000
861.49	-400.000
861.79	6.667
862.08	-40.000
862.38	20.000
862.67	-320.000
862.97	-83.333
863.26	-50.000
863.56	22.222
863.85	-466.667
864.15	27.778
864.44	-100.000
864.74	-50.000
865.03	375.000
865.33	-280.000
865.62	-200.000
865.92	-100.000
866.21	-283.333
866.51	25.000
866.80	-45.455
867.10	-450.000
867.39	-58.333
867.69	0.000
867.98	7.692
868.27	-166.667
868.57	13.333
868.86	-22.222
869.16	-76.923
869.45	33.333
869.75	-1800.000
870.04	0.000
870.33	-171.429
870.63	-9.524
870.92	566.667
871.22	-340.000
871.51	-900.000
871.80	0.000
872.10	300.000
>>>>>End Processed Spectral Data<<<<<
