SpectraSuite Data File
++++++++++++++++++++++++++++++++++++
Date: Fri May 15 21:05:38 PDT 2015
User: schluterlab
Dark Spectrum Present: Yes
Reference Spectrum Present: Yes
Number of Sampled Component Spectra: 1
Spectrometers: USB2E3373
Integration Time (usec): 3000 (USB2E3373)
Spectra Averaged: 3 (USB2E3373)
Boxcar Smoothing: 0 (USB2E3373)
Correct for Electrical Dark: No (USB2E3373)
Strobe/Lamp Enabled: No (USB2E3373)
Correct for Detector Non-linearity: No (USB2E3373)
Correct for Stray Light: No (USB2E3373)
Number of Pixels in Processed Spectrum: 2048
>>>>>Begin Processed Spectral Data<<<<<
178.53	0.000
178.91	0.000
179.29	62.500
179.67	-1050.000
180.04	-0.000
180.42	25.000
180.80	-200.000
181.18	-200.000
181.56	650.000
181.94	-300.000
182.31	600.000
182.69	40.000
183.07	-433.333
183.45	-240.000
183.83	116.667
184.20	72.727
184.58	177.778
184.96	-0.000
185.34	300.000
185.72	-150.000
186.09	192.308
186.47	-400.000
186.85	150.000
187.23	177.778
187.61	200.000
187.98	-300.000
188.36	-11.111
188.74	-333.333
189.12	41.176
189.49	22.222
189.87	0.000
190.25	42.857
190.63	-50.000
191.00	-400.000
191.38	-42.105
191.76	-200.000
192.14	100.000
192.51	-400.000
192.89	-133.333
193.27	28.571
193.65	183.333
194.02	154.545
194.40	-60.000
194.78	-112.500
195.15	16.667
195.53	-125.000
195.91	175.000
196.29	-250.000
196.66	192.308
197.04	200.000
197.42	-66.667
197.79	-433.333
198.17	-53.846
198.55	1400.000
198.92	-133.333
199.30	-1000.000
199.68	-100.000
200.05	-400.000
200.43	0.000
200.81	-366.667
201.18	-266.667
201.56	2100.000
201.94	-200.000
202.31	400.000
202.69	-340.000
203.07	250.000
203.44	-100.000
203.82	0.000
204.19	7.143
204.57	-566.667
204.95	37.500
205.32	-40.000
205.70	-57.143
206.08	-100.000
206.45	144.444
206.83	0.000
207.20	-185.714
207.58	400.000
207.96	-433.333
208.33	-40.000
208.71	-250.000
209.08	-216.667
209.46	-400.000
209.84	-140.000
210.21	-800.000
210.59	28.571
210.96	33.333
211.34	25.000
211.71	66.667
212.09	-214.286
212.46	-1700.000
212.84	0.000
213.22	40.000
213.59	550.000
213.97	92.308
214.34	-54.545
214.72	-266.667
215.09	400.000
215.47	-53.846
215.84	9.091
216.22	-133.333
216.59	-100.000
216.97	-300.000
217.34	25.000
217.72	-140.000
218.09	-12.500
218.47	137.500
218.84	-600.000
219.22	-122.222
219.59	-340.000
219.97	500.000
220.34	375.000
220.72	-42.857
221.09	-175.000
221.47	-200.000
221.84	-550.000
222.22	-1050.000
222.59	0.000
222.97	16.667
223.34	-100.000
223.72	-85.714
224.09	38.095
224.46	21.429
224.84	600.000
225.21	-120.000
225.59	-46.667
225.96	-350.000
226.34	200.000
226.71	-185.714
227.08	-33.333
227.46	-112.500
227.83	-900.000
228.21	22.222
228.58	9.091
228.95	-87.500
229.33	220.000
229.70	-6.250
230.08	-150.000
230.45	-85.714
230.82	85.714
231.20	-80.000
231.57	57.143
231.95	-14.286
232.32	-130.000
232.69	14.286
233.07	-33.333
233.44	-160.000
233.81	-200.000
234.19	22.222
234.56	-23.529
234.93	50.000
235.31	0.000
235.68	-200.000
236.05	30.769
236.43	-50.000
236.80	-35.294
237.17	18.750
237.55	-15.000
237.92	-14.815
238.29	8.333
238.67	16.667
239.04	-2.941
239.41	0.000
239.79	0.000
240.16	9.756
240.53	-2.632
240.91	-2.174
241.28	23.810
241.65	32.143
242.02	34.247
242.40	35.000
242.77	16.949
243.14	1.515
243.51	28.750
243.89	26.437
244.26	17.241
244.63	22.619
245.00	25.773
245.38	30.928
245.75	15.730
246.12	26.724
246.49	28.926
246.87	28.846
247.24	18.487
247.61	28.070
247.98	28.455
248.36	24.375
248.73	35.526
249.10	31.169
249.47	31.646
249.84	29.412
250.22	30.588
250.59	31.373
250.96	34.272
251.33	26.744
251.70	37.647
252.08	36.548
252.45	29.703
252.82	34.673
253.19	29.954
253.56	23.364
253.94	29.279
254.31	30.000
254.68	39.035
255.05	30.709
255.42	33.624
255.79	32.432
256.16	35.409
256.54	30.970
256.91	31.179
257.28	33.086
257.65	34.082
258.02	32.979
258.39	30.976
258.76	37.363
259.14	31.894
259.51	34.951
259.88	33.333
260.25	33.333
260.62	38.542
260.99	32.203
261.36	29.110
261.73	33.861
262.10	32.523
262.47	30.675
262.85	31.975
263.22	35.692
263.59	35.514
263.96	36.646
264.33	37.273
264.70	34.524
265.07	34.524
265.44	36.827
265.81	33.616
266.18	36.612
266.55	35.476
266.92	35.233
267.29	34.726
267.66	33.760
268.03	32.199
268.40	32.898
268.77	37.701
269.14	34.053
269.51	34.704
269.88	31.920
270.25	35.714
270.62	31.707
270.99	31.458
271.36	31.051
271.73	35.211
272.10	31.630
272.47	33.806
272.84	34.901
273.21	31.323
273.58	36.627
273.95	34.554
274.32	30.485
274.69	28.733
275.06	36.830
275.43	32.200
275.80	33.113
276.17	33.563
276.54	31.478
276.91	32.895
277.28	33.188
277.65	33.264
278.02	35.106
278.39	32.166
278.76	32.914
279.13	28.631
279.50	35.294
279.87	35.637
280.23	33.118
280.60	31.579
280.97	33.535
281.34	28.846
281.71	33.265
282.08	30.879
282.45	29.941
282.82	31.660
283.19	31.141
283.56	32.563
283.92	30.740
284.29	32.500
284.66	30.233
285.03	33.399
285.40	33.081
285.77	26.714
286.14	30.866
286.51	33.026
286.87	30.530
287.24	30.939
287.61	28.748
287.98	33.860
288.35	29.983
288.72	31.524
289.08	26.910
289.45	30.580
289.82	30.769
290.19	29.522
290.56	28.473
290.93	28.114
291.29	26.965
291.66	29.921
292.03	28.549
292.40	28.226
292.77	28.070
293.13	23.539
293.50	24.431
293.87	27.786
294.24	26.275
294.60	26.677
294.97	23.512
295.34	25.920
295.71	25.335
296.08	26.457
296.44	24.182
296.81	25.694
297.18	25.217
297.55	26.694
297.91	25.205
298.28	27.968
298.65	25.102
299.02	25.472
299.38	22.845
299.75	22.897
300.12	22.382
300.48	24.242
300.85	24.968
301.22	22.727
301.59	20.789
301.95	22.658
302.32	23.606
302.69	23.259
303.05	23.391
303.42	23.163
303.79	22.664
304.15	23.297
304.52	21.284
304.89	20.819
305.25	22.397
305.62	21.237
305.99	23.041
306.35	21.156
306.72	21.935
307.09	22.235
307.45	23.421
307.82	21.644
308.19	23.345
308.55	21.483
308.92	22.876
309.29	21.006
309.65	20.667
310.02	22.002
310.38	21.295
310.75	22.077
311.12	20.775
311.48	20.891
311.85	20.733
312.22	20.570
312.58	20.913
312.95	21.878
313.31	20.290
313.68	19.372
314.05	20.612
314.41	21.546
314.78	20.515
315.14	21.891
315.51	21.843
315.87	21.209
316.24	22.649
316.61	21.752
316.97	21.528
317.34	20.898
317.70	20.076
318.07	20.192
318.43	20.490
318.80	20.170
319.16	22.363
319.53	21.368
319.89	19.980
320.26	20.445
320.62	21.966
320.99	19.937
321.35	20.658
321.72	21.599
322.08	20.342
322.45	20.000
322.81	21.218
323.18	19.333
323.54	20.270
323.91	20.351
324.27	20.020
324.64	19.850
325.00	20.894
325.37	21.579
325.73	19.674
326.10	20.890
326.46	21.525
326.83	21.435
327.19	20.139
327.56	21.286
327.92	20.687
328.29	20.625
328.65	20.000
329.01	19.945
329.38	20.369
329.74	19.452
330.11	20.297
330.47	19.295
330.84	20.385
331.20	22.053
331.56	19.630
331.93	20.365
332.29	20.165
332.66	19.729
333.02	20.725
333.38	20.073
333.75	20.055
334.11	20.143
334.48	20.490
334.84	20.055
335.20	20.769
335.57	19.855
335.93	20.416
336.29	19.613
336.66	18.619
337.02	19.238
337.38	18.241
337.75	20.000
338.11	19.657
338.47	18.704
338.84	20.240
339.20	18.007
339.56	20.275
339.93	19.785
340.29	18.716
340.65	19.892
341.02	19.858
341.38	18.496
341.74	18.110
342.11	18.891
342.47	18.950
342.83	20.069
343.20	18.554
343.56	19.217
343.92	19.309
344.28	21.093
344.65	19.430
345.01	18.928
345.37	19.849
345.73	19.833
346.10	19.500
346.46	20.185
346.82	17.840
347.19	18.703
347.55	18.964
347.91	18.770
348.27	19.240
348.63	19.165
349.00	19.114
349.36	18.121
349.72	20.315
350.08	19.344
350.45	19.314
350.81	18.355
351.17	17.834
351.53	18.449
351.89	18.497
352.26	18.240
352.62	19.677
352.98	18.394
353.34	18.035
353.70	17.880
354.07	18.468
354.43	18.655
354.79	18.415
355.15	19.286
355.51	18.275
355.87	18.366
356.24	18.842
356.60	17.785
356.96	18.730
357.32	17.812
357.68	18.217
358.04	17.367
358.40	18.087
358.77	19.219
359.13	18.175
359.49	17.797
359.85	18.175
360.21	18.979
360.57	17.751
360.93	19.592
361.29	17.900
361.66	17.712
362.02	18.939
362.38	18.126
362.74	17.790
363.10	18.736
363.46	17.272
363.82	18.107
364.18	18.450
364.54	17.206
364.90	18.136
365.26	18.268
365.62	18.759
365.98	18.109
366.35	18.354
366.71	17.295
367.07	19.158
367.43	18.692
367.79	17.385
368.15	18.090
368.51	18.281
368.87	17.373
369.23	17.906
369.59	17.930
369.95	17.815
370.31	18.353
370.67	17.537
371.03	17.774
371.39	16.630
371.75	18.242
372.11	17.832
372.47	17.825
372.83	17.317
373.19	17.689
373.55	15.668
373.91	18.215
374.27	17.364
374.63	18.378
374.99	16.454
375.35	17.409
375.71	17.552
376.07	16.573
376.42	17.619
376.78	18.322
377.14	18.009
377.50	16.202
377.86	17.537
378.22	17.358
378.58	16.923
378.94	17.265
379.30	17.280
379.66	18.370
380.02	17.535
380.38	17.103
380.74	16.816
381.09	18.098
381.45	17.309
381.81	17.458
382.17	17.069
382.53	15.990
382.89	17.263
383.25	17.113
383.61	17.561
383.97	16.571
384.32	17.261
384.68	16.842
385.04	16.299
385.40	15.744
385.76	17.736
386.12	17.464
386.48	17.561
386.83	15.853
387.19	17.338
387.55	18.005
387.91	17.482
388.27	16.178
388.62	17.873
388.98	16.329
389.34	16.989
389.70	17.899
390.06	16.551
390.42	16.580
390.77	17.332
391.13	15.763
391.49	16.494
391.85	17.089
392.20	16.008
392.56	16.783
392.92	17.557
393.28	15.979
393.64	17.297
393.99	17.492
394.35	16.129
394.71	16.731
395.07	16.719
395.42	15.301
395.78	16.938
396.14	16.898
396.50	16.550
396.85	16.227
397.21	16.855
397.57	16.552
397.92	16.717
398.28	17.299
398.64	15.783
399.00	17.325
399.35	15.463
399.71	16.944
400.07	17.412
400.42	16.095
400.78	16.840
401.14	16.213
401.49	16.617
401.85	16.880
402.21	16.928
402.57	16.750
402.92	15.872
403.28	17.231
403.63	16.520
403.99	16.327
404.35	16.802
404.70	16.964
405.06	16.099
405.42	15.662
405.77	15.921
406.13	15.832
406.49	16.578
406.84	17.298
407.20	17.219
407.55	15.776
407.91	16.243
408.27	15.997
408.62	17.908
408.98	16.697
409.34	16.667
409.69	16.344
410.05	15.764
410.40	16.543
410.76	17.008
411.11	16.438
411.47	16.437
411.83	15.756
412.18	17.181
412.54	16.729
412.89	16.071
413.25	16.546
413.60	16.522
413.96	16.012
414.31	17.317
414.67	15.523
415.03	15.712
415.38	16.319
415.74	16.547
416.09	16.329
416.45	16.205
416.80	16.523
417.16	16.298
417.51	16.522
417.87	16.102
418.22	16.451
418.58	16.589
418.93	16.614
419.29	15.301
419.64	15.100
420.00	17.443
420.35	16.119
420.71	16.464
421.06	15.408
421.42	15.986
421.77	16.243
422.12	16.402
422.48	15.918
422.83	16.357
423.19	15.971
423.54	15.638
423.90	16.843
424.25	16.131
424.61	15.973
424.96	16.783
425.31	16.638
425.67	16.021
426.02	17.609
426.38	16.781
426.73	16.646
427.09	16.899
427.44	17.000
427.79	15.439
428.15	16.626
428.50	16.233
428.85	15.295
429.21	16.582
429.56	16.065
429.92	16.846
430.27	16.341
430.62	16.100
430.98	15.924
431.33	16.667
431.68	15.803
432.04	16.042
432.39	15.117
432.74	15.755
433.10	16.724
433.45	15.591
433.80	17.121
434.16	16.066
434.51	16.183
434.86	16.551
435.22	16.826
435.57	16.656
435.92	16.886
436.28	15.683
436.63	15.744
436.98	15.817
437.34	15.789
437.69	16.816
438.04	16.182
438.39	15.944
438.75	15.726
439.10	15.959
439.45	16.372
439.81	16.024
440.16	16.568
440.51	16.657
440.86	16.435
441.22	16.063
441.57	16.060
441.92	17.051
442.27	16.741
442.63	17.452
442.98	16.198
443.33	15.748
443.68	16.817
444.03	16.841
444.39	16.429
444.74	17.113
445.09	16.481
445.44	17.151
445.79	17.380
446.15	16.850
446.50	15.641
446.85	16.472
447.20	16.528
447.55	17.578
447.91	16.808
448.26	17.587
448.61	17.386
448.96	17.613
449.31	16.069
449.66	16.667
450.02	16.600
450.37	17.190
450.72	16.609
451.07	17.468
451.42	16.916
451.77	17.239
452.12	16.089
452.47	16.420
452.83	16.843
453.18	16.509
453.53	17.573
453.88	17.122
454.23	17.271
454.58	17.632
454.93	17.784
455.28	16.000
455.63	17.669
455.98	17.739
456.34	17.688
456.69	18.107
457.04	17.643
457.39	16.586
457.74	16.929
458.09	16.892
458.44	17.086
458.79	16.471
459.14	17.162
459.49	17.552
459.84	16.920
460.19	16.687
460.54	17.054
460.89	16.989
461.24	16.584
461.59	17.696
461.94	17.484
462.29	18.396
462.64	17.807
462.99	18.483
463.34	17.455
463.69	17.053
464.04	17.070
464.39	18.072
464.74	17.178
465.09	17.654
465.44	17.773
465.79	17.007
466.14	17.845
466.49	17.539
466.84	18.025
467.19	17.397
467.54	17.752
467.89	16.298
468.24	17.275
468.59	17.905
468.94	17.460
469.29	18.230
469.64	18.660
469.99	17.309
470.34	16.655
470.68	18.419
471.03	17.127
471.38	17.047
471.73	17.717
472.08	16.825
472.43	17.114
472.78	16.998
473.13	16.803
473.48	16.938
473.83	16.874
474.17	17.293
474.52	16.592
474.87	17.333
475.22	17.145
475.57	17.674
475.92	17.937
476.27	18.102
476.61	18.287
476.96	17.791
477.31	17.956
477.66	16.685
478.01	16.957
478.36	16.830
478.70	17.238
479.05	18.242
479.40	17.647
479.75	17.466
480.10	17.665
480.45	17.600
480.79	18.026
481.14	17.982
481.49	16.995
481.84	17.326
482.19	17.587
482.53	17.794
482.88	17.566
483.23	17.514
483.58	17.925
483.92	17.377
484.27	17.183
484.62	17.436
484.97	16.833
485.31	17.088
485.66	17.759
486.01	17.835
486.36	17.626
486.70	17.550
487.05	17.378
487.40	17.141
487.75	16.620
488.09	16.255
488.44	16.575
488.79	16.660
489.13	17.027
489.48	17.059
489.83	17.265
490.17	17.258
490.52	17.506
490.87	16.983
491.22	16.953
491.56	17.173
491.91	17.352
492.26	17.890
492.60	17.514
492.95	18.200
493.30	16.952
493.64	17.289
493.99	17.488
494.34	16.990
494.68	17.810
495.03	17.275
495.37	17.664
495.72	17.113
496.07	17.854
496.41	17.170
496.76	17.227
497.11	17.513
497.45	17.995
497.80	17.861
498.14	17.288
498.49	17.166
498.84	17.814
499.18	17.620
499.53	18.006
499.87	17.364
500.22	17.359
500.56	17.297
500.91	16.918
501.26	17.301
501.60	17.757
501.95	17.710
502.29	17.918
502.64	17.616
502.98	17.267
503.33	17.051
503.67	16.916
504.02	16.911
504.36	17.763
504.71	17.020
505.06	17.111
505.40	17.766
505.75	17.423
506.09	17.486
506.44	17.556
506.78	17.959
507.13	17.839
507.47	17.650
507.82	17.201
508.16	18.331
508.51	17.786
508.85	17.164
509.19	16.764
509.54	18.123
509.88	17.853
510.23	16.998
510.57	17.584
510.92	17.217
511.26	17.785
511.61	17.822
511.95	17.315
512.30	17.572
512.64	17.251
512.98	16.901
513.33	18.467
513.67	17.055
514.02	18.421
514.36	18.400
514.70	18.357
515.05	18.566
515.39	17.887
515.74	18.802
516.08	17.753
516.42	18.257
516.77	18.081
517.11	17.923
517.46	18.372
517.80	18.653
518.14	18.555
518.49	18.029
518.83	17.072
519.17	16.919
519.52	17.703
519.86	17.107
520.20	17.983
520.55	17.136
520.89	17.942
521.23	18.049
521.58	18.170
521.92	18.141
522.26	17.502
522.61	18.701
522.95	18.742
523.29	18.170
523.64	19.060
523.98	17.952
524.32	17.719
524.66	17.670
525.01	18.442
525.35	18.665
525.69	16.835
526.04	16.138
526.38	17.704
526.72	17.789
527.06	17.704
527.41	18.206
527.75	18.164
528.09	18.405
528.43	17.691
528.78	18.152
529.12	18.387
529.46	17.739
529.80	17.796
530.15	18.482
530.49	17.912
530.83	17.784
531.17	17.797
531.51	18.536
531.86	17.743
532.20	17.954
532.54	17.155
532.88	18.207
533.22	18.952
533.57	17.890
533.91	18.342
534.25	18.815
534.59	17.640
534.93	17.432
535.27	17.069
535.62	17.822
535.96	18.004
536.30	18.206
536.64	18.194
536.98	17.491
537.32	17.852
537.66	18.724
538.01	17.762
538.35	17.822
538.69	17.909
539.03	18.250
539.37	18.170
539.71	18.132
540.05	18.058
540.39	18.560
540.73	17.643
541.07	18.025
541.42	17.675
541.76	18.445
542.10	17.756
542.44	18.207
542.78	17.068
543.12	17.514
543.46	18.915
543.80	18.251
544.14	16.956
544.48	17.388
544.82	17.840
545.16	18.033
545.50	18.024
545.84	17.918
546.18	18.865
546.52	18.241
546.86	16.679
547.20	17.811
547.54	17.385
547.88	18.207
548.22	17.554
548.56	17.612
548.90	17.655
549.24	17.837
549.58	19.111
549.92	16.869
550.26	18.388
550.60	18.439
550.94	18.447
551.28	19.088
551.62	18.077
551.96	18.045
552.30	18.202
552.64	17.560
552.98	17.581
553.32	17.760
553.66	16.909
554.00	18.175
554.34	18.021
554.68	17.552
555.02	18.601
555.36	17.801
555.69	16.777
556.03	16.845
556.37	17.367
556.71	17.040
557.05	17.748
557.39	17.323
557.73	17.841
558.07	18.250
558.41	18.606
558.75	18.394
559.08	18.991
559.42	17.698
559.76	18.094
560.10	17.049
560.44	18.019
560.78	18.462
561.12	17.489
561.45	19.606
561.79	18.207
562.13	17.885
562.47	17.842
562.81	18.156
563.15	17.772
563.48	17.327
563.82	19.218
564.16	17.340
564.50	17.635
564.84	18.742
565.17	17.371
565.51	18.716
565.85	17.695
566.19	18.037
566.52	17.761
566.86	18.766
567.20	16.999
567.54	17.944
567.88	18.161
568.21	18.213
568.55	17.391
568.89	18.429
569.23	17.862
569.56	17.863
569.90	18.473
570.24	17.119
570.57	17.673
570.91	18.299
571.25	17.560
571.59	17.471
571.92	17.244
572.26	17.421
572.60	17.178
572.93	17.446
573.27	17.053
573.61	17.035
573.95	17.668
574.28	17.585
574.62	16.908
574.96	17.452
575.29	17.113
575.63	16.947
575.97	16.942
576.30	16.671
576.64	16.397
576.98	17.297
577.31	17.474
577.65	17.706
577.98	17.117
578.32	17.122
578.66	16.484
578.99	16.706
579.33	16.712
579.67	16.780
580.00	17.215
580.34	16.716
580.67	16.642
581.01	17.171
581.35	17.183
581.68	17.477
582.02	17.122
582.35	17.103
582.69	17.141
583.02	16.727
583.36	17.270
583.70	17.212
584.03	17.459
584.37	17.674
584.70	17.005
585.04	17.124
585.37	17.568
585.71	17.798
586.04	16.717
586.38	17.178
586.72	17.245
587.05	17.678
587.39	17.724
587.72	17.687
588.06	17.714
588.39	16.947
588.73	17.369
589.06	17.678
589.40	17.594
589.73	17.744
590.07	18.089
590.40	17.454
590.73	17.792
591.07	17.939
591.40	17.142
591.74	18.235
592.07	18.414
592.41	17.845
592.74	17.802
593.08	17.499
593.41	17.825
593.75	17.632
594.08	17.611
594.41	17.722
594.75	17.214
595.08	18.010
595.42	17.593
595.75	17.987
596.09	17.905
596.42	18.024
596.75	17.762
597.09	17.585
597.42	17.525
597.75	17.820
598.09	17.519
598.42	17.464
598.76	17.804
599.09	17.748
599.42	17.772
599.76	17.532
600.09	17.459
600.42	18.006
600.76	17.311
601.09	17.252
601.42	17.117
601.76	17.388
602.09	17.327
602.42	18.071
602.76	17.699
603.09	17.650
603.42	18.269
603.76	17.419
604.09	17.861
604.42	17.809
604.76	18.336
605.09	17.322
605.42	17.698
605.75	17.863
606.09	17.962
606.42	17.389
606.75	17.662
607.09	18.374
607.42	17.235
607.75	17.362
608.08	17.385
608.42	17.634
608.75	17.831
609.08	17.738
609.41	17.970
609.75	17.440
610.08	18.872
610.41	17.343
610.74	17.894
611.07	17.933
611.41	17.540
611.74	18.550
612.07	17.077
612.40	17.888
612.73	17.797
613.07	18.166
613.40	18.053
613.73	17.907
614.06	17.807
614.39	18.443
614.72	17.647
615.06	18.156
615.39	17.303
615.72	17.869
616.05	18.771
616.38	16.923
616.71	17.859
617.05	17.603
617.38	18.039
617.71	17.547
618.04	17.524
618.37	18.033
618.70	17.888
619.03	19.167
619.36	17.221
619.69	17.892
620.03	18.627
620.36	18.670
620.69	17.844
621.02	17.661
621.35	18.091
621.68	18.197
622.01	17.167
622.34	18.835
622.67	17.981
623.00	18.300
623.33	18.216
623.66	18.624
623.99	18.381
624.32	18.023
624.65	17.218
624.99	18.134
625.32	17.286
625.65	18.068
625.98	18.533
626.31	17.041
626.64	18.804
626.97	19.023
627.30	17.513
627.63	19.237
627.96	18.059
628.29	18.039
628.62	18.879
628.95	18.437
629.28	18.750
629.61	18.345
629.94	17.791
630.26	18.182
630.59	19.667
630.92	18.359
631.25	17.949
631.58	18.392
631.91	17.982
632.24	17.431
632.57	19.091
632.90	18.624
633.23	18.706
633.56	17.254
633.89	18.372
634.22	18.642
634.55	17.916
634.88	17.625
635.20	18.462
635.53	20.267
635.86	18.205
636.19	19.017
636.52	19.133
636.85	17.990
637.18	18.616
637.51	17.736
637.83	18.922
638.16	19.782
638.49	17.030
638.82	18.289
639.15	17.775
639.48	18.569
639.81	19.526
640.13	18.615
640.46	17.930
640.79	16.937
641.12	18.907
641.45	19.520
641.77	20.148
642.10	19.747
642.43	17.042
642.76	20.462
643.09	19.548
643.41	18.932
643.74	16.969
644.07	20.033
644.40	19.932
644.73	17.338
645.05	17.785
645.38	20.282
645.71	17.376
646.04	20.646
646.36	19.681
646.69	20.863
647.02	18.904
647.35	20.149
647.67	20.293
648.00	19.590
648.33	19.795
648.66	18.136
648.98	17.755
649.31	18.678
649.64	17.896
649.96	18.639
650.29	19.080
650.62	18.120
650.94	17.407
651.27	17.505
651.60	20.360
651.92	19.056
652.25	19.538
652.58	17.667
652.90	20.069
653.23	18.824
653.56	17.936
653.88	18.557
654.21	16.637
654.54	17.997
654.86	19.864
655.19	19.737
655.52	20.124
655.84	19.292
656.17	21.289
656.49	27.899
656.82	27.547
657.15	20.295
657.47	14.897
657.80	11.060
658.13	10.731
658.45	15.596
658.78	15.513
659.10	14.703
659.43	14.647
659.75	15.343
660.08	14.966
660.41	15.526
660.73	16.298
661.06	19.064
661.38	19.765
661.71	16.632
662.03	18.884
662.36	19.560
662.68	15.929
663.01	22.052
663.33	20.186
663.66	13.953
663.98	18.372
664.31	18.550
664.63	18.203
664.96	14.565
665.28	17.881
665.61	18.831
665.93	19.783
666.26	20.174
666.58	16.331
666.91	19.529
667.23	17.453
667.56	20.853
667.88	18.705
668.21	18.616
668.53	20.331
668.86	17.689
669.18	15.802
669.50	17.918
669.83	19.302
670.15	18.415
670.48	18.421
670.80	18.433
671.13	16.555
671.45	15.297
671.77	21.245
672.10	17.822
672.42	16.667
672.75	19.005
673.07	19.678
673.39	18.716
673.72	15.385
674.04	17.292
674.37	16.314
674.69	18.844
675.01	17.556
675.34	18.243
675.66	17.130
675.98	18.625
676.31	17.431
676.63	19.240
676.95	15.909
677.28	20.941
677.60	20.000
677.92	18.119
678.25	19.256
678.57	21.645
678.89	17.647
679.22	16.555
679.54	18.474
679.86	19.682
680.18	18.252
680.51	17.424
680.83	18.688
681.15	18.000
681.48	21.311
681.80	19.008
682.12	20.161
682.44	17.782
682.77	18.543
683.09	19.908
683.41	16.364
683.73	19.124
684.06	19.027
684.38	15.914
684.70	19.172
685.02	15.975
685.34	15.810
685.67	16.323
685.99	19.711
686.31	20.354
686.63	17.996
686.96	16.730
687.28	16.768
687.60	16.730
687.92	17.576
688.24	18.347
688.56	18.559
688.89	14.955
689.21	19.333
689.53	14.617
689.85	18.837
690.17	17.634
690.49	18.676
690.82	17.718
691.14	18.095
691.46	18.224
691.78	18.243
692.10	17.204
692.42	17.100
692.74	19.444
693.06	18.694
693.39	16.290
693.71	16.742
694.03	15.935
694.35	17.523
694.67	17.424
694.99	14.883
695.31	16.710
695.63	17.250
695.95	14.394
696.27	15.544
696.59	18.333
696.91	19.048
697.23	15.167
697.56	18.317
697.88	20.215
698.20	14.579
698.52	16.235
698.84	15.550
699.16	16.250
699.48	17.794
699.80	18.610
700.12	17.251
700.44	21.289
700.76	16.279
701.08	18.788
701.40	18.072
701.72	20.679
702.04	14.191
702.36	18.060
702.68	22.523
703.00	16.667
703.32	18.768
703.64	14.689
703.96	15.652
704.28	14.724
704.60	16.825
704.91	13.565
705.23	16.279
705.55	19.081
705.87	15.162
706.19	20.000
706.51	19.244
706.83	17.685
707.15	14.019
707.47	19.048
707.79	17.969
708.11	15.750
708.43	18.500
708.74	17.054
709.06	20.563
709.38	15.902
709.70	16.864
710.02	14.968
710.34	18.885
710.66	12.500
710.98	17.219
711.29	19.672
711.61	13.559
711.93	17.915
712.25	21.306
712.57	16.484
712.89	14.925
713.20	16.609
713.52	18.118
713.84	18.430
714.16	15.464
714.48	22.581
714.80	18.269
715.11	19.149
715.43	15.987
715.75	15.333
716.07	14.618
716.39	18.121
716.70	15.867
717.02	14.504
717.34	17.814
717.66	18.142
717.97	14.348
718.29	18.410
718.61	20.866
718.93	18.992
719.24	15.589
719.56	16.867
719.88	18.213
720.20	15.909
720.51	12.644
720.83	16.988
721.15	20.168
721.46	16.129
721.78	13.834
722.10	15.242
722.42	14.938
722.73	15.102
723.05	21.224
723.37	19.492
723.68	18.018
724.00	17.521
724.32	16.444
724.63	12.273
724.95	15.721
725.27	19.355
725.58	16.525
725.90	12.302
726.22	16.216
726.53	19.322
726.85	17.978
727.16	18.491
727.48	14.980
727.80	17.814
728.11	13.559
728.43	12.941
728.74	12.097
729.06	15.200
729.38	20.677
729.69	15.936
730.01	13.077
730.32	20.896
730.64	15.194
730.96	21.887
731.27	18.333
731.59	15.932
731.90	17.834
732.22	19.874
732.53	19.934
732.85	18.085
733.16	22.559
733.48	9.353
733.80	14.855
734.11	16.949
734.43	18.213
734.74	17.273
735.06	15.635
735.37	19.033
735.69	19.529
736.00	16.028
736.32	13.758
736.63	19.366
736.95	13.993
737.26	15.302
737.58	15.436
737.89	18.315
738.21	13.158
738.52	14.403
738.83	17.031
739.15	16.594
739.46	23.228
739.78	13.187
740.09	17.974
740.41	18.478
740.72	9.055
741.04	17.409
741.35	13.191
741.66	11.374
741.98	16.327
742.29	17.822
742.61	15.183
742.92	10.427
743.23	12.963
743.55	16.742
743.86	10.526
744.18	15.789
744.49	13.830
744.80	15.217
745.12	17.112
745.43	13.659
745.74	20.833
746.06	16.098
746.37	16.754
746.68	24.645
747.00	15.957
747.31	17.910
747.62	14.078
747.94	10.526
748.25	14.356
748.56	18.033
748.88	14.136
749.19	18.085
749.50	17.241
749.82	9.906
750.13	9.633
750.44	22.180
750.75	21.269
751.07	24.453
751.38	17.625
751.69	16.863
752.01	17.054
752.32	16.733
752.63	15.415
752.94	11.207
753.26	24.686
753.57	17.195
753.88	17.257
754.19	13.333
754.51	15.702
754.82	16.194
755.13	19.167
755.44	21.774
755.75	15.625
756.07	18.677
756.38	14.340
756.69	16.475
757.00	17.667
757.31	18.627
757.63	16.159
757.94	14.167
758.25	18.082
758.56	15.426
758.87	14.448
759.18	16.199
759.50	16.000
759.81	15.050
760.12	18.710
760.43	17.576
760.74	17.901
761.05	14.462
761.36	15.057
761.67	18.485
761.99	18.367
762.30	11.636
762.61	15.415
762.92	13.575
763.23	12.613
763.54	10.748
763.85	18.644
764.16	13.693
764.47	12.903
764.78	16.117
765.10	17.508
765.41	16.404
765.72	14.286
766.03	17.669
766.34	20.073
766.65	20.717
766.96	16.162
767.27	18.085
767.58	9.195
767.89	7.092
768.20	14.205
768.51	12.637
768.82	12.808
769.13	15.668
769.44	15.880
769.75	11.872
770.06	15.948
770.37	16.346
770.68	18.782
770.99	18.552
771.30	14.706
771.61	12.670
771.92	18.534
772.23	18.227
772.54	15.591
772.85	10.494
773.16	15.730
773.47	18.954
773.78	16.340
774.09	14.371
774.39	12.000
774.70	14.013
775.01	21.379
775.32	15.000
775.63	10.744
775.94	12.977
776.25	13.386
776.56	19.167
776.87	14.423
777.18	11.111
777.48	12.931
777.79	5.217
778.10	4.762
778.41	18.919
778.72	11.111
779.03	14.286
779.34	8.511
779.65	14.384
779.95	8.219
780.26	22.069
780.57	-0.813
780.88	10.236
781.19	14.655
781.50	18.605
781.80	17.160
782.11	13.208
782.42	18.462
782.73	14.388
783.04	18.519
783.34	16.667
783.65	1.709
783.96	13.934
784.27	12.414
784.57	16.260
784.88	17.969
785.19	9.000
785.50	21.000
785.81	10.345
786.11	13.793
786.42	6.796
786.73	20.000
787.04	3.061
787.34	18.750
787.65	9.524
787.96	10.619
788.26	1.818
788.57	14.530
788.88	23.438
789.19	23.810
789.49	11.304
789.80	7.143
790.11	7.071
790.41	9.091
790.72	13.043
791.03	10.227
791.33	12.500
791.64	-1.250
791.95	15.116
792.25	7.447
792.56	7.865
792.87	9.589
793.17	5.797
793.48	13.333
793.79	13.750
794.09	16.250
794.40	1.887
794.70	6.796
795.01	15.447
795.32	11.111
795.62	11.429
795.93	13.725
796.23	13.208
796.54	7.292
796.85	5.882
797.15	9.859
797.46	22.222
797.76	18.182
798.07	24.419
798.37	-1.316
798.68	-7.576
798.99	7.407
799.29	12.857
799.60	15.942
799.90	14.667
800.21	6.557
800.51	13.846
800.82	28.814
801.12	17.391
801.43	21.311
801.73	30.159
802.04	0.000
802.34	19.403
802.65	25.000
802.95	-10.714
803.26	15.385
803.56	3.922
803.87	4.348
804.17	13.333
804.48	31.746
804.78	1.852
805.09	0.000
805.39	-15.556
805.70	3.704
806.00	-5.263
806.30	11.268
806.61	18.571
806.91	-11.111
807.22	15.789
807.52	14.667
807.83	0.000
808.13	18.056
808.43	1.471
808.74	7.463
809.04	-3.390
809.35	-1.923
809.65	14.062
809.95	-24.324
810.26	4.545
810.56	0.000
810.86	16.667
811.17	-2.000
811.47	22.449
811.77	-10.526
812.08	13.636
812.38	26.415
812.69	7.500
812.99	15.152
813.29	5.263
813.59	-5.714
813.90	9.091
814.20	-28.205
814.50	28.846
814.81	15.094
815.11	-19.149
815.41	30.508
815.72	-11.905
816.02	0.000
816.32	8.333
816.62	-9.756
816.93	18.919
817.23	-17.143
817.53	35.417
817.84	-17.391
818.14	-13.462
818.44	-18.421
818.74	39.130
819.04	-12.500
819.35	0.000
819.65	-8.824
819.95	-11.111
820.25	-2.381
820.56	-10.000
820.86	-65.517
821.16	30.000
821.46	4.255
821.76	-5.000
822.07	9.302
822.37	-16.216
822.67	-28.125
822.97	35.714
823.27	7.143
823.57	0.000
823.88	-51.852
824.18	50.000
824.48	11.765
824.78	19.355
825.08	-8.696
825.38	-12.121
825.69	-16.667
825.99	-7.895
826.29	-11.111
826.59	33.333
826.89	-47.619
827.19	-2.174
827.49	2.500
827.79	20.000
828.09	-10.714
828.39	12.121
828.70	10.811
829.00	-14.286
829.30	-28.571
829.60	0.000
829.90	-9.375
830.20	-10.526
830.50	-25.926
830.80	-17.391
831.10	22.727
831.40	21.212
831.70	6.452
832.00	23.810
832.30	-28.571
832.60	58.333
832.90	-20.690
833.20	10.000
833.50	9.091
833.80	-22.222
834.10	11.538
834.40	-12.500
834.70	-55.556
835.00	-21.053
835.30	46.154
835.60	20.000
835.90	0.000
836.20	-9.091
836.50	21.429
836.80	-38.462
837.10	-21.429
837.40	-366.667
837.70	36.364
838.00	-136.364
838.30	8.696
838.60	-53.846
838.90	-18.182
839.19	-32.143
839.49	50.000
839.79	-76.923
840.09	-66.667
840.39	32.143
840.69	-3.571
840.99	-42.308
841.29	-5.263
841.59	-90.000
841.88	-9.091
842.18	-40.000
842.48	-75.000
842.78	-40.000
843.08	18.519
843.38	-190.000
843.68	13.043
843.97	-40.000
844.27	-60.000
844.57	-10.000
844.87	-27.778
845.17	-28.571
845.47	-6.667
845.76	-52.381
846.06	17.647
846.36	-80.000
846.66	0.000
846.96	-13.333
847.25	-175.000
847.55	21.429
847.85	-50.000
848.15	-13.636
848.44	-533.333
848.74	35.000
849.04	29.630
849.34	-100.000
849.63	-100.000
849.93	-200.000
850.23	-11.111
850.53	0.000
850.82	-115.385
851.12	-155.556
851.42	-6.667
851.71	-42.308
852.01	-71.429
852.31	-25.000
852.61	-109.091
852.90	-5.000
853.20	15.789
853.50	25.000
853.79	-13.043
854.09	33.333
854.39	-31.579
854.68	-29.167
854.98	16.129
855.28	3.846
855.57	-25.000
855.87	50.000
856.17	25.926
856.46	-28.571
856.76	13.333
857.05	22.222
857.35	24.000
857.65	0.000
857.94	-15.385
858.24	17.241
858.53	22.222
858.83	11.111
859.13	-22.727
859.42	-43.478
859.72	-225.000
860.01	-333.333
860.31	12.000
860.60	-9.524
860.90	-466.667
861.20	-100.000
861.49	-1100.000
861.79	-60.000
862.08	-20.000
862.38	13.333
862.67	-140.000
862.97	-83.333
863.26	-8.333
863.56	33.333
863.85	-600.000
864.15	5.556
864.44	-70.000
864.74	35.714
865.03	375.000
865.33	-320.000
865.62	-33.333
865.92	-50.000
866.21	-133.333
866.51	-50.000
866.80	-109.091
867.10	-450.000
867.39	83.333
867.69	0.000
867.98	23.077
868.27	-366.667
868.57	-46.667
868.86	22.222
869.16	-100.000
869.45	6.667
869.75	-1300.000
870.04	0.000
870.33	-71.429
870.63	-33.333
870.92	566.667
871.22	-300.000
871.51	-1300.000
871.80	-11.111
872.10	466.667
>>>>>End Processed Spectral Data<<<<<
