SpectraSuite Data File
++++++++++++++++++++++++++++++++++++
Date: Fri May 15 21:11:12 PDT 2015
User: schluterlab
Dark Spectrum Present: Yes
Reference Spectrum Present: Yes
Number of Sampled Component Spectra: 1
Spectrometers: USB2E3373
Integration Time (usec): 3000 (USB2E3373)
Spectra Averaged: 3 (USB2E3373)
Boxcar Smoothing: 0 (USB2E3373)
Correct for Electrical Dark: No (USB2E3373)
Strobe/Lamp Enabled: No (USB2E3373)
Correct for Detector Non-linearity: No (USB2E3373)
Correct for Stray Light: No (USB2E3373)
Number of Pixels in Processed Spectrum: 2048
>>>>>Begin Processed Spectral Data<<<<<
178.53	0.000
178.91	0.000
179.29	12.500
179.67	-900.000
180.04	100.000
180.42	-75.000
180.80	-100.000
181.18	100.000
181.56	450.000
181.94	-50.000
182.31	200.000
182.69	20.000
183.07	-200.000
183.45	-200.000
183.83	266.667
184.20	0.000
184.58	122.222
184.96	-225.000
185.34	33.333
185.72	-550.000
186.09	115.385
186.47	-300.000
186.85	200.000
187.23	100.000
187.61	600.000
187.98	-200.000
188.36	55.556
188.74	-333.333
189.12	76.471
189.49	16.667
189.87	0.000
190.25	35.714
190.63	-350.000
191.00	166.667
191.38	-5.263
191.76	450.000
192.14	125.000
192.51	-200.000
192.89	22.222
193.27	-142.857
193.65	-16.667
194.02	136.364
194.40	100.000
194.78	-187.500
195.15	0.000
195.53	-12.500
195.91	75.000
196.29	-75.000
196.66	46.154
197.04	128.571
197.42	0.000
197.79	-200.000
198.17	-107.692
198.55	1400.000
198.92	-433.333
199.30	-300.000
199.68	-240.000
200.05	-233.333
200.43	0.000
200.81	33.333
201.18	-233.333
201.56	1200.000
201.94	-200.000
202.31	133.333
202.69	-80.000
203.07	200.000
203.44	-700.000
203.82	0.000
204.19	57.143
204.57	-333.333
204.95	125.000
205.32	60.000
205.70	-71.429
206.08	-50.000
206.45	133.333
206.83	0.000
207.20	-71.429
207.58	600.000
207.96	-133.333
208.33	-20.000
208.71	-100.000
209.08	-33.333
209.46	-500.000
209.84	-60.000
210.21	200.000
210.59	85.714
210.96	33.333
211.34	125.000
211.71	46.667
212.09	-157.143
212.46	-1900.000
212.84	0.000
213.22	10.000
213.59	800.000
213.97	61.538
214.34	18.182
214.72	-133.333
215.09	450.000
215.47	-15.385
215.84	-45.455
216.22	-333.333
216.59	-100.000
216.97	-200.000
217.34	50.000
217.72	-280.000
218.09	25.000
218.47	50.000
218.84	-400.000
219.22	-111.111
219.59	-220.000
219.97	533.333
220.34	100.000
220.72	0.000
221.09	-325.000
221.47	400.000
221.84	-250.000
222.22	-750.000
222.59	27.273
222.97	-33.333
223.34	-366.667
223.72	-7.143
224.09	23.810
224.46	-3.571
224.84	766.667
225.21	-10.000
225.59	-13.333
225.96	50.000
226.34	325.000
226.71	-114.286
227.08	-83.333
227.46	25.000
227.83	-600.000
228.21	-11.111
228.58	-54.545
228.95	-75.000
229.33	20.000
229.70	-18.750
230.08	0.000
230.45	-100.000
230.82	157.143
231.20	-33.333
231.57	42.857
231.95	-114.286
232.32	-70.000
232.69	57.143
233.07	100.000
233.44	-100.000
233.81	-120.000
234.19	33.333
234.56	-11.765
234.93	700.000
235.31	25.000
235.68	-380.000
236.05	-15.385
236.43	-30.000
236.80	-35.294
237.17	6.250
237.55	0.000
237.92	-14.815
238.29	-5.556
238.67	33.333
239.04	-20.588
239.41	-21.951
239.79	-16.667
240.16	0.000
240.53	2.632
240.91	8.696
241.28	0.000
241.65	8.929
242.02	13.699
242.40	20.000
242.77	8.475
243.14	1.515
243.51	10.000
243.89	11.494
244.26	10.345
244.63	13.095
245.00	13.402
245.38	12.371
245.75	1.124
246.12	1.724
246.49	14.876
246.87	20.192
247.24	-1.681
247.61	0.877
247.98	13.821
248.36	8.750
248.73	10.526
249.10	9.740
249.47	6.329
249.84	8.497
250.22	4.706
250.59	7.843
250.96	12.207
251.33	11.047
251.70	15.294
252.08	11.168
252.45	14.851
252.82	12.060
253.19	14.747
253.56	10.748
253.94	12.613
254.31	15.217
254.68	15.789
255.05	11.024
255.42	10.480
255.79	13.127
256.16	15.953
256.54	14.179
256.91	9.506
257.28	11.152
257.65	9.363
258.02	10.284
258.39	14.478
258.76	17.216
259.14	13.953
259.51	10.680
259.88	14.433
260.25	14.379
260.62	12.847
260.99	8.136
261.36	8.219
261.73	13.608
262.10	14.286
262.47	10.736
262.85	11.599
263.22	13.846
263.59	14.330
263.96	14.907
264.33	14.242
264.70	8.631
265.07	11.310
265.44	15.864
265.81	12.994
266.18	13.115
266.55	14.139
266.92	13.472
267.29	13.055
267.66	15.345
268.03	12.827
268.40	10.966
268.77	16.310
269.14	13.669
269.51	14.396
269.88	16.209
270.25	15.561
270.62	12.439
270.99	11.765
271.36	12.958
271.73	13.850
272.10	13.625
272.47	15.366
272.84	11.634
273.21	12.993
273.58	16.386
273.95	16.934
274.32	13.164
274.69	12.670
275.06	16.071
275.43	13.605
275.80	12.362
276.17	12.644
276.54	14.133
276.91	13.377
277.28	11.572
277.65	10.537
278.02	14.043
278.39	13.348
278.76	13.836
279.13	8.091
279.50	15.336
279.87	15.983
280.23	13.118
280.60	14.230
280.97	14.949
281.34	10.769
281.71	16.222
282.08	12.474
282.45	13.699
282.82	11.004
283.19	14.507
283.56	12.909
283.92	12.334
284.29	12.115
284.66	10.853
285.03	10.806
285.40	14.367
285.77	13.533
286.14	11.913
286.51	14.207
286.87	12.066
287.24	12.155
287.61	11.817
287.98	16.316
288.35	14.731
288.72	12.960
289.08	12.500
289.45	12.830
289.82	12.762
290.19	12.628
290.56	12.007
290.93	10.774
291.29	10.786
291.66	11.339
292.03	12.121
292.40	11.613
292.77	10.526
293.13	9.253
293.50	11.077
293.87	13.435
294.24	11.901
294.60	11.177
294.97	10.119
295.34	9.509
295.71	11.028
296.08	10.015
296.44	9.673
296.81	10.278
297.18	9.420
297.55	12.060
297.91	10.274
298.28	12.269
298.65	10.312
299.02	9.973
299.38	8.345
299.75	9.931
300.12	9.162
300.48	9.750
300.85	10.773
301.22	10.000
301.59	9.079
301.95	10.127
302.32	11.025
302.69	10.075
303.05	10.149
303.42	9.091
303.79	9.463
304.15	11.350
304.52	8.918
304.89	8.421
305.25	9.806
305.62	7.701
305.99	9.708
306.35	10.520
306.72	8.211
307.09	9.578
307.45	10.563
307.82	9.606
308.19	10.801
308.55	8.833
308.92	10.349
309.29	8.827
309.65	9.473
310.02	9.131
310.38	9.440
310.75	10.710
311.12	8.719
311.48	9.014
311.85	10.052
312.22	8.755
312.58	8.811
312.95	8.645
313.31	9.420
313.68	9.110
314.05	10.204
314.41	10.412
314.78	9.175
315.14	11.716
315.51	9.420
315.87	11.168
316.24	11.426
316.61	11.713
316.97	11.806
317.34	11.621
317.70	12.906
318.07	12.500
318.43	12.647
318.80	12.500
319.16	13.672
319.53	14.625
319.89	13.091
320.26	13.968
320.62	14.845
320.99	14.301
321.35	15.622
321.72	15.161
322.08	16.314
322.45	16.751
322.81	16.306
323.18	16.192
323.54	18.340
323.91	17.722
324.27	19.727
324.64	20.974
325.00	20.803
325.37	22.681
325.73	22.937
326.10	24.160
326.46	24.753
326.83	25.547
327.19	25.371
327.56	27.107
327.92	29.754
328.29	27.589
328.65	29.811
329.01	29.320
329.38	30.876
329.74	33.239
330.11	33.272
330.47	32.375
330.84	34.231
331.20	35.837
331.56	34.444
331.93	36.073
332.29	36.755
332.66	37.014
333.02	38.104
333.38	36.755
333.75	39.194
334.11	37.243
334.48	40.254
334.84	41.209
335.20	39.982
335.57	38.350
335.93	40.470
336.29	41.344
336.66	40.781
337.02	41.264
337.38	40.833
337.75	42.182
338.11	42.651
338.47	42.518
338.84	42.237
339.20	41.499
339.56	44.037
339.93	43.330
340.29	42.385
340.65	43.280
341.02	43.351
341.38	43.805
341.74	43.728
342.11	42.201
342.47	45.018
342.83	43.080
343.20	44.948
343.56	44.870
343.92	43.490
344.28	44.577
344.65	44.041
345.01	44.771
345.37	43.061
345.73	44.937
346.10	44.866
346.46	43.482
346.82	43.944
347.19	44.638
347.55	45.280
347.91	44.822
348.27	43.977
348.63	45.911
349.00	46.103
349.36	45.470
349.72	47.181
350.08	44.836
350.45	44.852
350.81	45.764
351.17	44.788
351.53	46.612
351.89	45.087
352.26	44.000
352.62	45.565
352.98	45.141
353.34	45.250
353.70	45.793
354.07	46.048
354.43	45.156
354.79	46.573
355.15	45.794
355.51	46.361
355.87	45.793
356.24	45.759
356.60	45.513
356.96	46.032
357.32	44.968
357.68	44.722
358.04	47.415
358.40	45.900
358.77	46.013
359.13	46.437
359.49	44.761
359.85	46.256
360.21	47.049
360.57	45.754
360.93	46.369
361.29	46.224
361.66	47.727
362.02	47.273
362.38	46.763
362.74	46.101
363.10	48.533
363.46	46.924
363.82	46.732
364.18	46.347
364.54	47.132
364.90	46.738
365.26	46.579
365.62	46.934
365.98	47.141
366.35	46.540
366.71	46.859
367.07	47.097
367.43	46.945
367.79	47.915
368.15	46.375
368.51	46.176
368.87	46.805
369.23	45.632
369.59	46.866
369.95	47.214
370.31	47.977
370.67	47.313
371.03	46.527
371.39	47.192
371.75	45.861
372.11	46.790
372.47	47.855
372.83	47.339
373.19	46.648
373.55	47.004
373.91	46.076
374.27	46.846
374.63	47.739
374.99	45.248
375.35	47.493
375.71	50.000
376.07	47.542
376.42	46.190
376.78	46.577
377.14	45.972
377.50	46.813
377.86	46.787
378.22	46.522
378.58	46.346
378.94	47.196
379.30	46.725
379.66	48.840
380.02	46.597
380.38	45.770
380.74	45.841
381.09	46.994
381.45	47.401
381.81	46.700
382.17	47.335
382.53	46.783
382.89	47.395
383.25	47.604
383.61	46.890
383.97	47.365
384.32	46.154
384.68	47.616
385.04	47.059
385.40	47.480
385.76	48.365
386.12	49.030
386.48	47.254
386.83	48.129
387.19	46.215
387.55	47.804
387.91	47.861
388.27	47.192
388.62	47.703
388.98	46.286
389.34	47.096
389.70	46.489
390.06	46.318
390.42	46.373
390.77	47.744
391.13	46.784
391.49	47.219
391.85	46.979
392.20	46.704
392.56	47.171
392.92	46.800
393.28	46.462
393.64	46.066
393.99	47.335
394.35	47.628
394.71	46.935
395.07	46.323
395.42	45.477
395.78	46.580
396.14	46.154
396.50	46.544
396.85	47.521
397.21	46.491
397.57	45.956
397.92	45.776
398.28	46.609
398.64	45.482
399.00	46.501
399.35	45.598
399.71	45.434
400.07	46.191
400.42	46.512
400.78	47.275
401.14	46.945
401.49	46.635
401.85	46.374
402.21	46.627
402.57	46.500
402.92	46.236
403.28	46.805
403.63	47.100
403.99	45.791
404.35	46.846
404.70	44.702
405.06	44.477
405.42	45.059
405.77	45.671
406.13	45.809
406.49	45.175
406.84	45.844
407.20	45.996
407.55	45.460
407.91	45.321
408.27	45.443
408.62	44.923
408.98	45.348
409.34	45.539
409.69	44.703
410.05	44.951
410.40	45.494
410.76	44.632
411.11	44.687
411.47	45.168
411.83	44.256
412.18	44.788
412.54	44.507
412.89	44.766
413.25	45.187
413.60	45.839
413.96	44.417
414.31	45.061
414.67	44.644
415.03	45.206
415.38	44.191
415.74	45.147
416.09	44.742
416.45	44.700
416.80	44.878
417.16	45.442
417.51	44.704
417.87	44.394
418.22	45.466
418.58	45.552
418.93	45.643
419.29	43.854
419.64	45.561
420.00	45.781
420.35	43.881
420.71	45.322
421.06	44.874
421.42	44.832
421.77	44.682
422.12	45.176
422.48	44.938
422.83	44.548
423.19	44.582
423.54	45.326
423.90	44.641
424.25	45.695
424.61	45.410
424.96	45.645
425.31	45.696
425.67	45.892
426.02	45.583
426.38	46.963
426.73	45.642
427.09	47.405
427.44	45.941
427.79	46.494
428.15	46.541
428.50	45.730
428.85	44.410
429.21	46.293
429.56	45.714
429.92	45.300
430.27	46.266
430.62	45.478
430.98	46.178
431.33	45.373
431.68	44.532
432.04	46.171
432.39	45.123
432.74	45.881
433.10	46.437
433.45	46.296
433.80	44.980
434.16	45.097
434.51	46.129
434.86	46.225
435.22	47.056
435.57	47.536
435.92	47.246
436.28	46.154
436.63	46.948
436.98	46.929
437.34	46.763
437.69	48.062
438.04	47.521
438.39	45.632
438.75	47.237
439.10	46.576
439.45	45.892
439.81	46.055
440.16	49.109
440.51	47.343
440.86	48.640
441.22	46.776
441.57	46.302
441.92	47.901
442.27	48.392
442.63	48.019
442.98	48.191
443.33	47.579
443.68	48.488
444.03	48.882
444.39	48.549
444.74	49.498
445.09	49.165
445.44	49.174
445.79	48.840
446.15	47.632
446.50	48.253
446.85	49.256
447.20	48.592
447.55	48.549
447.91	50.141
448.26	48.947
448.61	49.626
448.96	49.971
449.31	50.000
449.66	48.258
450.02	49.059
450.37	49.970
450.72	49.714
451.07	50.570
451.42	50.187
451.77	49.608
452.12	48.983
452.47	49.388
452.83	48.528
453.18	50.664
453.53	50.442
453.88	49.545
454.23	49.846
454.58	51.259
454.93	50.709
455.28	49.143
455.63	50.527
455.98	51.954
456.34	49.872
456.69	51.970
457.04	51.670
457.39	51.762
457.74	51.088
458.09	50.029
458.44	49.971
458.79	50.196
459.14	50.915
459.49	50.687
459.84	51.269
460.19	50.303
460.54	51.039
460.89	51.705
461.24	51.553
461.59	49.881
461.94	51.635
462.29	51.327
462.64	52.558
462.99	51.388
463.34	50.070
463.69	50.901
464.04	51.029
464.39	49.970
464.74	49.571
465.09	50.281
465.44	50.721
465.79	48.356
466.14	50.000
466.49	50.431
466.84	51.101
467.19	51.314
467.54	51.022
467.89	51.864
468.24	50.669
468.59	50.794
468.94	50.921
469.29	51.869
469.64	51.059
469.99	52.768
470.34	51.809
470.68	52.498
471.03	51.805
471.38	52.996
471.73	53.501
472.08	51.696
472.43	52.819
472.78	52.159
473.13	52.245
473.48	51.010
473.83	51.681
474.17	52.332
474.52	51.244
474.87	52.303
475.22	51.495
475.57	50.988
475.92	51.783
476.27	52.154
476.61	51.968
476.96	51.590
477.31	51.055
477.66	50.674
478.01	51.993
478.36	50.599
478.70	52.202
479.05	51.978
479.40	52.199
479.75	51.773
480.10	51.920
480.45	51.350
480.79	51.863
481.14	52.715
481.49	51.232
481.84	51.979
482.19	51.356
482.53	51.559
482.88	50.453
483.23	50.864
483.58	50.566
483.92	51.597
484.27	50.410
484.62	51.098
484.97	50.083
485.31	49.855
485.66	47.555
486.01	47.162
486.36	47.087
486.70	47.604
487.05	48.358
487.40	49.043
487.75	49.211
488.09	49.753
488.44	50.688
488.79	50.168
489.13	51.162
489.48	50.834
489.83	51.076
490.17	51.371
490.52	51.316
490.87	50.208
491.22	52.961
491.56	51.186
491.91	51.052
492.26	52.309
492.60	51.440
492.95	52.533
493.30	52.076
493.64	52.063
493.99	52.077
494.34	51.214
494.68	52.000
495.03	50.998
495.37	52.699
495.72	52.549
496.07	52.098
496.41	51.038
496.76	50.898
497.11	51.327
497.45	52.029
497.80	53.027
498.14	51.167
498.49	52.514
498.84	52.046
499.18	52.359
499.53	52.431
499.87	51.605
500.22	51.484
500.56	51.790
500.91	52.861
501.26	50.766
501.60	52.189
501.95	50.849
502.29	51.186
502.64	52.654
502.98	52.689
503.33	50.384
503.67	52.627
504.02	51.906
504.36	52.152
504.71	51.667
505.06	52.290
505.40	52.183
505.75	51.959
506.09	51.343
506.44	52.669
506.78	52.347
507.13	52.223
507.47	50.966
507.82	52.350
508.16	51.083
508.51	52.781
508.85	52.172
509.19	52.954
509.54	52.279
509.88	51.834
510.23	54.008
510.57	52.539
510.92	50.160
511.26	51.828
511.61	52.695
511.95	53.096
512.30	53.492
512.64	52.254
512.98	52.948
513.33	53.330
513.67	52.814
514.02	54.119
514.36	54.457
514.70	54.662
515.05	54.054
515.39	53.542
515.74	55.030
516.08	53.317
516.42	53.887
516.77	54.593
517.11	53.412
517.46	54.279
517.80	53.516
518.14	53.276
518.49	52.043
518.83	54.192
519.17	53.548
519.52	54.233
519.86	53.782
520.20	53.827
520.55	53.471
520.89	53.450
521.23	53.642
521.58	54.953
521.92	54.679
522.26	53.936
522.61	53.961
522.95	56.358
523.29	54.003
523.64	54.130
523.98	54.569
524.32	52.706
524.66	54.289
525.01	55.195
525.35	54.375
525.69	53.872
526.04	53.571
526.38	53.826
526.72	52.714
527.06	52.659
527.41	54.156
527.75	53.351
528.09	53.555
528.43	55.908
528.78	53.135
529.12	53.355
529.46	52.632
529.80	53.198
530.15	54.455
530.49	53.805
530.83	54.651
531.17	52.989
531.51	53.830
531.86	52.685
532.20	53.445
532.54	54.118
532.88	54.141
533.22	53.091
533.57	53.408
533.91	51.762
534.25	53.125
534.59	51.123
534.93	51.542
535.27	51.206
535.62	52.366
535.96	52.511
536.30	51.715
536.64	53.205
536.98	52.822
537.32	53.485
537.66	53.366
538.01	52.378
538.35	53.121
538.69	50.466
539.03	51.606
539.37	52.826
539.71	52.215
540.05	50.916
540.39	52.424
540.73	52.232
541.07	50.967
541.42	52.487
541.76	53.544
542.10	52.856
542.44	51.008
542.78	50.791
543.12	50.275
543.46	50.626
543.80	51.908
544.14	50.601
544.48	51.632
544.82	50.034
545.16	51.639
545.50	50.334
545.84	51.416
546.18	51.773
546.52	51.190
546.86	50.827
547.20	51.073
547.54	48.057
547.88	50.543
548.22	49.901
548.56	49.208
548.90	50.539
549.24	49.931
549.58	50.000
549.92	50.965
550.26	50.842
550.60	52.119
550.94	51.382
551.28	51.391
551.62	52.231
551.96	51.579
552.30	49.708
552.64	49.718
552.98	49.719
553.32	50.071
553.66	48.839
554.00	50.949
554.34	51.329
554.68	50.590
555.02	50.595
555.36	50.187
555.69	49.670
556.03	49.036
556.37	49.537
556.71	48.736
557.05	51.305
557.39	49.294
557.73	49.025
558.07	50.754
558.41	51.991
558.75	50.818
559.08	51.064
559.42	51.429
559.76	51.401
560.10	49.465
560.44	48.995
560.78	49.021
561.12	49.788
561.45	50.597
561.79	49.230
562.13	49.184
562.47	48.489
562.81	50.144
563.15	49.295
563.48	49.364
563.82	48.799
564.16	49.025
564.50	47.432
564.84	47.256
565.17	48.290
565.51	49.112
565.85	48.560
566.19	48.939
566.52	47.922
566.86	48.779
567.20	47.447
567.54	47.141
567.88	47.452
568.21	47.907
568.55	46.576
568.89	45.175
569.23	45.113
569.56	44.177
569.90	45.067
570.24	43.134
570.57	43.236
570.91	42.733
571.25	41.795
571.59	41.078
571.92	40.593
572.26	40.882
572.60	40.930
572.93	41.199
573.27	41.442
573.61	40.782
573.95	40.524
574.28	40.201
574.62	39.359
574.96	39.342
575.29	39.652
575.63	38.689
575.97	39.848
576.30	39.724
576.64	39.391
576.98	40.000
577.31	39.273
577.65	39.908
577.98	39.518
578.32	38.936
578.66	38.319
578.99	38.606
579.33	38.596
579.67	38.430
580.00	39.241
580.34	39.303
580.67	38.501
581.01	39.049
581.35	38.286
581.68	37.985
582.02	37.713
582.35	38.366
582.69	38.177
583.02	38.411
583.36	38.301
583.70	39.408
584.03	39.867
584.37	39.610
584.70	38.791
585.04	38.446
585.37	38.084
585.71	38.953
586.04	38.225
586.38	37.983
586.72	39.397
587.05	39.399
587.39	38.776
587.72	39.147
588.06	39.303
588.39	38.963
588.73	39.499
589.06	39.628
589.40	39.889
589.73	40.745
590.07	41.163
590.40	39.706
590.73	41.722
591.07	40.755
591.40	41.852
591.74	40.995
592.07	41.605
592.41	42.049
592.74	40.422
593.08	39.399
593.41	38.814
593.75	39.189
594.08	38.998
594.41	39.083
594.75	39.008
595.08	40.144
595.42	39.603
595.75	39.992
596.09	39.601
596.42	40.513
596.75	40.320
597.09	40.957
597.42	41.102
597.75	41.640
598.09	39.611
598.42	39.531
598.76	39.382
599.09	38.942
599.42	38.386
599.76	38.337
600.09	38.348
600.42	38.476
600.76	38.224
601.09	38.740
601.42	38.817
601.76	38.507
602.09	38.985
602.42	39.975
602.76	39.516
603.09	39.950
603.42	40.008
603.76	38.589
604.09	39.206
604.42	39.425
604.76	39.564
605.09	40.128
605.42	39.503
605.75	39.667
606.09	39.618
606.42	38.032
606.75	38.874
607.09	38.989
607.42	39.123
607.75	38.810
608.08	39.308
608.42	38.922
608.75	40.482
609.08	39.661
609.41	39.645
609.75	39.919
610.08	39.291
610.41	38.599
610.74	39.737
611.07	39.897
611.41	40.062
611.74	41.365
612.07	40.525
612.40	40.372
612.73	40.734
613.07	40.382
613.40	39.278
613.73	39.564
614.06	39.900
614.39	40.553
614.72	39.608
615.06	39.888
615.39	39.083
615.72	38.159
616.05	39.385
616.38	39.487
616.71	40.306
617.05	40.704
617.38	40.666
617.71	40.252
618.04	42.095
618.37	42.497
618.70	41.518
619.03	42.986
619.36	41.679
619.69	42.456
620.03	42.221
620.36	41.774
620.69	42.113
621.02	42.202
621.35	44.066
621.68	43.367
622.01	42.917
622.34	42.777
622.67	42.823
623.00	42.113
623.33	41.768
623.66	41.286
623.99	41.377
624.32	41.217
624.65	41.353
624.99	42.814
625.32	41.547
625.65	42.419
625.98	44.722
626.31	41.480
626.64	42.981
626.97	42.147
627.30	43.870
627.63	43.501
627.96	43.666
628.29	44.588
628.62	44.543
628.95	44.489
629.28	46.774
629.61	44.367
629.94	44.184
630.26	43.676
630.59	44.745
630.92	44.103
631.25	44.923
631.58	46.696
631.91	45.504
632.24	45.757
632.57	45.909
632.90	46.856
633.23	46.706
633.56	46.851
633.89	47.226
634.22	47.778
634.55	48.030
634.88	45.977
635.20	46.667
635.53	48.533
635.86	46.164
636.19	47.995
636.52	47.959
636.85	45.782
637.18	46.164
637.51	48.805
637.83	48.620
638.16	48.568
638.49	46.185
638.82	48.158
639.15	47.761
639.48	48.693
639.81	47.280
640.13	47.619
640.46	46.356
640.79	47.275
641.12	49.188
641.45	46.547
641.77	46.222
642.10	49.605
642.43	48.392
642.76	50.990
643.09	49.919
643.41	49.353
643.74	47.941
644.07	49.589
644.40	49.831
644.73	51.489
645.05	49.497
645.38	50.617
645.71	49.468
646.04	51.706
646.36	48.404
646.69	52.518
647.02	50.284
647.35	50.000
647.67	48.995
648.00	49.627
648.33	48.805
648.66	48.475
648.98	45.394
649.31	47.769
649.64	46.311
649.96	45.381
650.29	48.893
650.62	47.692
650.94	50.926
651.27	47.672
651.60	47.387
651.92	47.902
652.25	47.602
652.58	47.000
652.90	44.425
653.23	45.210
653.56	43.486
653.88	46.735
654.21	45.534
654.54	44.822
654.86	48.387
655.19	45.029
655.52	39.861
655.84	32.271
656.17	33.893
656.49	44.986
656.82	46.499
657.15	35.742
657.47	27.170
657.80	20.015
658.13	20.184
658.45	30.993
658.78	31.514
659.10	31.734
659.43	32.224
659.75	33.991
660.08	34.828
660.41	40.143
660.73	40.331
661.06	45.061
661.38	45.793
661.71	44.969
662.03	50.215
662.36	51.429
662.68	45.796
663.01	50.218
663.33	48.956
663.66	47.209
663.98	48.140
664.31	45.842
664.63	48.387
664.96	45.000
665.28	43.929
665.61	48.485
665.93	48.261
666.26	47.072
666.58	47.427
666.91	48.941
667.23	49.292
667.56	51.185
667.88	47.482
668.21	47.971
668.53	49.409
668.86	50.000
669.18	46.226
669.50	48.426
669.83	46.744
670.15	48.485
670.48	47.608
670.80	47.465
671.13	47.651
671.45	44.521
671.77	49.571
672.10	44.356
672.42	44.757
672.75	45.471
673.07	45.617
673.39	43.670
673.72	41.617
674.04	45.000
674.37	45.339
674.69	43.683
675.01	49.333
675.34	47.072
675.66	46.991
675.98	47.450
676.31	47.477
676.63	47.031
676.95	46.136
677.28	47.529
677.60	48.434
677.92	45.183
678.25	45.295
678.57	43.290
678.89	45.168
679.22	44.519
679.54	42.771
679.86	41.948
680.18	45.243
680.51	42.992
680.83	40.755
681.15	43.800
681.48	44.262
681.80	44.835
682.12	41.331
682.44	40.167
682.77	43.709
683.09	43.478
683.41	43.636
683.73	43.088
684.06	44.469
684.38	41.505
684.70	43.355
685.02	41.909
685.34	42.095
685.67	42.214
685.99	38.879
686.31	40.531
686.63	38.590
686.96	38.023
687.28	38.788
687.60	38.973
687.92	43.030
688.24	41.734
688.56	41.266
688.89	44.196
689.21	43.778
689.53	44.548
689.85	39.767
690.17	43.080
690.49	44.444
690.82	40.291
691.14	42.143
691.46	42.991
691.78	44.144
692.10	44.946
692.42	40.693
692.74	42.094
693.06	42.117
693.39	39.367
693.71	39.593
694.03	39.030
694.35	44.159
694.67	42.424
694.99	41.253
695.31	44.909
695.63	41.250
695.95	40.657
696.27	45.078
696.59	45.278
696.91	45.658
697.23	42.159
697.56	42.574
697.88	41.935
698.20	41.230
698.52	38.824
698.84	40.670
699.16	40.500
699.48	43.108
699.80	40.695
700.12	40.970
700.44	45.378
700.76	42.733
701.08	44.848
701.40	42.771
701.72	48.765
702.04	46.205
702.36	45.485
702.68	44.444
703.00	41.515
703.32	43.695
703.64	39.548
703.96	41.739
704.28	43.252
704.60	41.587
704.91	40.379
705.23	44.518
705.55	48.057
705.87	47.653
706.19	44.444
706.51	40.893
706.83	40.193
707.15	39.875
707.47	40.616
707.79	38.802
708.11	39.250
708.43	38.000
708.74	41.085
709.06	44.225
709.38	40.673
709.70	41.716
710.02	42.994
710.34	38.390
710.66	35.577
710.98	38.411
711.29	44.262
711.61	38.305
711.93	41.042
712.25	46.048
712.57	47.253
712.89	41.418
713.20	42.215
713.52	40.418
713.84	40.273
714.16	42.955
714.48	39.032
714.80	44.551
715.11	40.426
715.43	36.050
715.75	41.333
716.07	37.542
716.39	39.933
716.70	36.900
717.02	37.786
717.34	41.700
717.66	42.478
717.97	40.435
718.29	48.117
718.61	43.701
718.93	44.186
719.24	40.684
719.56	41.767
719.88	38.144
720.20	36.742
720.51	38.697
720.83	44.402
721.15	44.118
721.46	42.742
721.78	36.759
722.10	37.175
722.42	36.515
722.73	44.082
723.05	43.265
723.37	39.831
723.68	40.541
724.00	38.889
724.32	39.556
724.63	37.273
724.95	37.555
725.27	45.622
725.58	45.339
725.90	37.698
726.22	40.541
726.53	39.661
726.85	43.071
727.16	37.736
727.48	35.223
727.80	39.271
728.11	42.797
728.43	36.863
728.74	33.468
729.06	41.600
729.38	42.105
729.69	37.052
730.01	36.154
730.32	37.313
730.64	31.095
730.96	44.151
731.27	36.000
731.59	32.542
731.90	33.121
732.22	37.539
732.53	36.877
732.85	35.816
733.16	34.343
733.48	34.173
733.80	36.594
734.11	34.915
734.43	34.021
734.74	37.273
735.06	35.179
735.37	36.858
735.69	37.374
736.00	33.449
736.32	32.215
736.63	33.099
736.95	37.543
737.26	34.520
737.58	33.557
737.89	32.601
738.21	32.331
738.52	38.272
738.83	37.118
739.15	32.751
739.46	38.976
739.78	30.769
740.09	33.007
740.41	33.696
740.72	30.709
741.04	34.413
741.35	31.489
741.66	37.441
741.98	38.265
742.29	42.574
742.61	39.267
742.92	28.910
743.23	31.481
743.55	41.629
743.86	38.278
744.18	39.713
744.49	43.085
744.80	36.413
745.12	43.850
745.43	38.049
745.74	39.583
746.06	32.683
746.37	35.079
746.68	33.649
747.00	32.447
747.31	44.279
747.62	36.408
747.94	35.885
748.25	37.624
748.56	39.891
748.88	36.649
749.19	44.149
749.50	36.946
749.82	24.057
750.13	34.404
750.44	40.226
750.75	35.821
751.07	37.956
751.38	37.548
751.69	32.941
752.01	36.822
752.32	31.076
752.63	37.154
752.94	29.741
753.26	41.004
753.57	41.629
753.88	38.496
754.19	30.417
754.51	33.471
754.82	35.628
755.13	38.750
755.44	33.468
755.75	35.547
756.07	29.572
756.38	30.566
756.69	32.184
757.00	34.333
757.31	30.065
757.63	31.707
757.94	30.833
758.25	29.863
758.56	27.660
758.87	28.329
759.18	30.530
759.50	31.273
759.81	31.438
760.12	28.387
760.43	29.697
760.74	31.481
761.05	32.000
761.36	33.807
761.67	30.303
761.99	32.313
762.30	30.545
762.61	32.411
762.92	36.652
763.23	34.234
763.54	33.178
763.85	32.627
764.16	34.855
764.47	31.855
764.78	26.007
765.10	33.670
765.41	33.438
765.72	29.206
766.03	30.451
766.34	34.672
766.65	35.060
766.96	34.343
767.27	35.106
767.58	32.759
767.89	34.043
768.20	34.091
768.51	29.121
768.82	32.512
769.13	30.876
769.44	28.755
769.75	31.050
770.06	34.914
770.37	37.981
770.68	31.980
770.99	32.127
771.30	35.784
771.61	31.674
771.92	34.483
772.23	35.961
772.54	34.946
772.85	33.951
773.16	30.899
773.47	42.484
773.78	30.065
774.09	31.138
774.39	30.000
774.70	35.032
775.01	33.793
775.32	32.857
775.63	33.884
775.94	29.771
776.25	37.795
776.56	27.500
776.87	31.731
777.18	29.915
777.48	30.172
777.79	23.478
778.10	36.190
778.41	36.036
778.72	35.714
779.03	31.579
779.34	36.879
779.65	34.932
779.95	21.918
780.26	33.103
780.57	30.894
780.88	25.984
781.19	25.862
781.50	34.109
781.80	30.178
782.11	23.899
782.42	35.385
782.73	29.496
783.04	31.111
783.34	28.472
783.65	21.368
783.96	28.689
784.27	34.483
784.57	31.707
784.88	32.031
785.19	36.000
785.50	37.000
785.81	31.897
786.11	36.207
786.42	25.243
786.73	28.182
787.04	23.469
787.34	30.357
787.65	27.619
787.96	26.549
788.26	29.091
788.57	35.897
788.88	29.687
789.19	26.190
789.49	29.565
789.80	33.673
790.11	24.242
790.41	20.909
790.72	34.783
791.03	40.909
791.33	41.250
791.64	28.750
791.95	27.907
792.25	34.043
792.56	42.697
792.87	19.178
793.17	24.638
793.48	33.333
793.79	20.000
794.09	33.750
794.40	30.189
794.70	26.214
795.01	21.138
795.32	23.932
795.62	30.476
795.93	26.471
796.23	29.245
796.54	32.292
796.85	17.647
797.15	33.803
797.46	36.111
797.76	37.879
798.07	26.744
798.37	18.421
798.68	12.121
798.99	29.630
799.29	28.571
799.60	26.087
799.90	16.000
800.21	44.262
800.51	27.692
800.82	25.424
801.12	39.130
801.43	36.066
801.73	22.222
802.04	26.000
802.34	26.866
802.65	40.385
802.95	12.500
803.26	13.462
803.56	27.451
803.87	10.870
804.17	37.333
804.48	44.444
804.78	24.074
805.09	23.913
805.39	11.111
805.70	22.222
806.00	1.754
806.30	19.718
806.61	27.143
806.91	-1.389
807.22	35.526
807.52	33.333
807.83	5.455
808.13	25.000
808.43	36.765
808.74	22.388
809.04	25.424
809.35	-13.462
809.65	18.750
809.95	5.405
810.26	9.091
810.56	31.507
810.86	19.048
811.17	24.000
811.47	8.163
811.77	18.421
812.08	15.909
812.38	16.981
812.69	25.000
812.99	18.182
813.29	21.053
813.59	-2.857
813.90	18.182
814.20	10.256
814.50	38.462
814.81	22.642
815.11	12.766
815.41	38.983
815.72	16.667
816.02	23.529
816.32	31.250
816.62	41.463
816.93	10.811
817.23	-17.143
817.53	29.167
817.84	17.391
818.14	32.692
818.44	15.789
818.74	28.261
819.04	7.500
819.35	5.405
819.65	-11.765
819.95	0.000
820.25	23.810
820.56	25.000
820.86	-13.793
821.16	62.500
821.46	25.532
821.76	55.000
822.07	39.535
822.37	-10.811
822.67	9.375
822.97	47.619
823.27	7.143
823.57	-4.000
823.88	-7.407
824.18	50.000
824.48	38.235
824.78	9.677
825.08	30.435
825.38	30.303
825.69	8.333
825.99	15.789
826.29	-2.778
826.59	73.333
826.89	-4.762
827.19	15.217
827.49	20.000
827.79	34.286
828.09	10.714
828.39	21.212
828.70	40.541
829.00	0.000
829.30	28.571
829.60	-6.667
829.90	43.750
830.20	10.526
830.50	-11.111
830.80	-8.696
831.10	36.364
831.40	27.273
831.70	61.290
832.00	47.619
832.30	0.000
832.60	33.333
832.90	6.897
833.20	30.000
833.50	12.121
833.80	18.519
834.10	38.462
834.40	25.000
834.70	44.444
835.00	0.000
835.30	80.769
835.60	-20.000
835.90	22.581
836.20	22.727
836.50	17.857
836.80	0.000
837.10	0.000
837.40	-100.000
837.70	22.727
838.00	-109.091
838.30	-8.696
838.60	-107.692
838.90	0.000
839.19	10.714
839.49	63.333
839.79	46.154
840.09	-8.333
840.39	46.429
840.69	-17.857
840.99	3.846
841.29	-21.053
841.59	-150.000
841.88	-9.091
842.18	20.000
842.48	-18.750
842.78	-13.333
843.08	3.704
843.38	-110.000
843.68	21.739
843.97	73.333
844.27	-26.667
844.57	55.000
844.87	5.556
845.17	-9.524
845.47	60.000
845.76	-23.810
846.06	94.118
846.36	30.000
846.66	-71.429
846.96	46.667
847.25	-175.000
847.55	85.714
847.85	-25.000
848.15	-4.545
848.44	33.333
848.74	25.000
849.04	29.630
849.34	9.091
849.63	-83.333
849.93	-340.000
850.23	22.222
850.53	140.000
850.82	23.077
851.12	22.222
851.42	0.000
851.71	23.077
852.01	71.429
852.31	50.000
852.61	-27.273
852.90	-25.000
853.20	21.053
853.50	-41.667
853.79	17.391
854.09	37.500
854.39	5.263
854.68	33.333
854.98	45.161
855.28	15.385
855.57	20.000
855.87	50.000
856.17	33.333
856.46	35.714
856.76	20.000
857.05	66.667
857.35	28.000
857.65	38.889
857.94	53.846
858.24	37.931
858.53	-22.222
858.83	3.704
859.13	40.909
859.42	0.000
859.72	-250.000
860.01	-266.667
860.31	48.000
860.60	-4.762
860.90	-266.667
861.20	-93.333
861.49	-350.000
861.79	-26.667
862.08	40.000
862.38	60.000
862.67	-160.000
862.97	183.333
863.26	-25.000
863.56	55.556
863.85	-400.000
864.15	55.556
864.44	-80.000
864.74	42.857
865.03	175.000
865.33	-300.000
865.62	-33.333
865.92	-66.667
866.21	-100.000
866.51	50.000
866.80	-27.273
867.10	-200.000
867.39	16.667
867.69	0.000
867.98	7.692
868.27	-233.333
868.57	93.333
868.86	55.556
869.16	-7.692
869.45	13.333
869.75	-1500.000
870.04	0.000
870.33	-28.571
870.63	61.905
870.92	-66.667
871.22	-200.000
871.51	0.000
871.80	44.444
872.10	400.000
>>>>>End Processed Spectral Data<<<<<
