SpectraSuite Data File
++++++++++++++++++++++++++++++++++++
Date: Fri May 15 20:36:52 PDT 2015
User: schluterlab
Dark Spectrum Present: Yes
Reference Spectrum Present: Yes
Number of Sampled Component Spectra: 1
Spectrometers: USB2E3373
Integration Time (usec): 3000 (USB2E3373)
Spectra Averaged: 3 (USB2E3373)
Boxcar Smoothing: 0 (USB2E3373)
Correct for Electrical Dark: No (USB2E3373)
Strobe/Lamp Enabled: No (USB2E3373)
Correct for Detector Non-linearity: No (USB2E3373)
Correct for Stray Light: No (USB2E3373)
Number of Pixels in Processed Spectrum: 2048
>>>>>Begin Processed Spectral Data<<<<<
178.53	0.000
178.91	0.000
179.29	62.500
179.67	-750.000
180.04	-100.000
180.42	-175.000
180.80	300.000
181.18	-133.333
181.56	550.000
181.94	-200.000
182.31	400.000
182.69	-200.000
183.07	-200.000
183.45	-200.000
183.83	66.667
184.20	-145.455
184.58	155.556
184.96	50.000
185.34	433.333
185.72	-350.000
186.09	53.846
186.47	-400.000
186.85	100.000
187.23	111.111
187.61	-500.000
187.98	-400.000
188.36	66.667
188.74	-166.667
189.12	-5.882
189.49	27.778
189.87	0.000
190.25	150.000
190.63	-100.000
191.00	-33.333
191.38	-5.263
191.76	400.000
192.14	225.000
192.51	-50.000
192.89	-44.444
193.27	-42.857
193.65	166.667
194.02	172.727
194.40	-10.000
194.78	-112.500
195.15	33.333
195.53	-50.000
195.91	400.000
196.29	-75.000
196.66	53.846
197.04	100.000
197.42	-77.778
197.79	-400.000
198.17	-76.923
198.55	1600.000
198.92	-133.333
199.30	800.000
199.68	40.000
200.05	-100.000
200.43	0.000
200.81	0.000
201.18	-33.333
201.56	1600.000
201.94	-100.000
202.31	-33.333
202.69	-400.000
203.07	150.000
203.44	100.000
203.82	0.000
204.19	-21.429
204.57	-200.000
204.95	237.500
205.32	20.000
205.70	-100.000
206.08	-125.000
206.45	77.778
206.83	28.571
207.20	-157.143
207.58	400.000
207.96	-166.667
208.33	-110.000
208.71	-75.000
209.08	-166.667
209.46	-100.000
209.84	-200.000
210.21	-500.000
210.59	-71.429
210.96	-83.333
211.34	-175.000
211.71	0.000
212.09	-71.429
212.46	-1400.000
212.84	0.000
213.22	10.000
213.59	400.000
213.97	38.462
214.34	-72.727
214.72	-50.000
215.09	300.000
215.47	-84.615
215.84	-90.909
216.22	-333.333
216.59	-50.000
216.97	500.000
217.34	-200.000
217.72	-220.000
218.09	12.500
218.47	250.000
218.84	-400.000
219.22	-44.444
219.59	20.000
219.97	266.667
220.34	150.000
220.72	14.286
221.09	-200.000
221.47	400.000
221.84	-500.000
222.22	-350.000
222.59	9.091
222.97	16.667
223.34	-66.667
223.72	-50.000
224.09	-14.286
224.46	39.286
224.84	466.667
225.21	-70.000
225.59	-40.000
225.96	-400.000
226.34	325.000
226.71	-14.286
227.08	-16.667
227.46	25.000
227.83	-800.000
228.21	-11.111
228.58	36.364
228.95	-62.500
229.33	100.000
229.70	68.750
230.08	-62.500
230.45	-85.714
230.82	71.429
231.20	20.000
231.57	21.429
231.95	-14.286
232.32	-150.000
232.69	92.857
233.07	133.333
233.44	-40.000
233.81	-170.000
234.19	-11.111
234.56	-17.647
234.93	150.000
235.31	-50.000
235.68	-220.000
236.05	-30.769
236.43	-5.000
236.80	-17.647
237.17	18.750
237.55	15.000
237.92	40.741
238.29	19.444
238.67	66.667
239.04	2.941
239.41	2.439
239.79	-6.667
240.16	73.171
240.53	15.789
240.91	10.870
241.28	47.619
241.65	39.286
242.02	24.658
242.40	50.000
242.77	45.763
243.14	36.364
243.51	30.000
243.89	55.172
244.26	19.540
244.63	46.429
245.00	28.866
245.38	39.175
245.75	31.461
246.12	27.586
246.49	34.711
246.87	44.231
247.24	33.613
247.61	33.333
247.98	31.707
248.36	36.250
248.73	46.053
249.10	31.169
249.47	44.937
249.84	41.176
250.22	37.647
250.59	36.601
250.96	44.131
251.33	43.023
251.70	41.176
252.08	39.086
252.45	43.564
252.82	37.688
253.19	40.092
253.56	35.981
253.94	35.586
254.31	38.696
254.68	40.789
255.05	42.126
255.42	41.485
255.79	41.699
256.16	40.856
256.54	40.299
256.91	35.741
257.28	38.662
257.65	41.948
258.02	40.780
258.39	41.077
258.76	42.491
259.14	39.535
259.51	36.893
259.88	40.206
260.25	36.601
260.62	40.625
260.99	38.305
261.36	38.014
261.73	38.924
262.10	38.906
262.47	40.184
262.85	39.498
263.22	39.077
263.59	39.252
263.96	41.925
264.33	41.818
264.70	38.095
265.07	43.452
265.44	43.343
265.81	37.571
266.18	38.525
266.55	41.645
266.92	38.601
267.29	41.253
267.66	39.642
268.03	40.838
268.40	41.775
268.77	41.444
269.14	40.288
269.51	39.846
269.88	41.147
270.25	36.480
270.62	37.073
270.99	39.898
271.36	37.408
271.73	36.150
272.10	37.470
272.47	39.007
272.84	39.109
273.21	39.211
273.58	38.072
273.95	38.673
274.32	36.721
274.69	34.389
275.06	42.188
275.43	36.054
275.80	36.203
276.17	34.253
276.54	38.972
276.91	39.254
277.28	38.210
277.65	37.190
278.02	38.723
278.39	37.418
278.76	37.107
279.13	34.855
279.50	39.496
279.87	38.877
280.23	33.763
280.60	34.698
280.97	38.990
281.34	36.538
281.71	41.068
282.08	35.992
282.45	37.965
282.82	37.452
283.19	34.429
283.56	37.765
283.92	36.433
284.29	34.808
284.66	36.240
285.03	35.953
285.40	35.917
285.77	34.271
286.14	38.267
286.51	37.269
286.87	34.186
287.24	35.912
287.61	36.684
287.98	35.439
288.35	34.489
288.72	36.077
289.08	32.986
289.45	35.325
289.82	32.343
290.19	31.741
290.56	32.247
290.93	33.838
291.29	31.895
291.66	33.228
292.03	32.855
292.40	32.581
292.77	33.014
293.13	31.169
293.50	30.956
293.87	30.840
294.24	31.685
294.60	28.614
294.97	29.911
295.34	31.748
295.71	28.763
296.08	30.942
296.44	29.018
296.81	27.917
297.18	29.275
297.55	31.572
297.91	28.219
298.28	30.343
298.65	27.951
299.02	26.280
299.38	26.949
299.75	29.517
300.12	27.749
300.48	28.327
300.85	29.151
301.22	27.662
301.59	29.211
301.95	28.481
302.32	27.756
302.69	26.368
303.05	27.970
303.42	26.401
303.79	28.505
304.15	28.076
304.52	26.635
304.89	27.135
305.25	27.724
305.62	25.904
305.99	26.667
306.35	26.936
306.72	26.209
307.09	26.910
307.45	28.014
307.82	26.736
308.19	28.804
308.55	25.627
308.92	28.322
309.29	28.045
309.65	26.695
310.02	28.053
310.38	28.211
310.75	28.306
311.12	28.525
311.48	27.466
311.85	26.911
312.22	27.004
312.58	28.344
312.95	27.215
313.31	27.743
313.68	27.853
314.05	28.980
314.41	29.278
314.78	28.247
315.14	29.085
315.51	29.917
315.87	29.201
316.24	31.951
316.61	30.709
316.97	31.548
317.34	31.055
317.70	31.644
318.07	32.019
318.43	32.451
318.80	31.534
319.16	34.766
319.53	33.808
319.89	32.283
320.26	33.502
320.62	33.801
320.99	34.551
321.35	34.738
321.72	34.476
322.08	36.455
322.45	37.360
322.81	36.149
323.18	36.310
323.54	37.355
323.91	36.709
324.27	36.133
324.64	39.981
325.00	39.872
325.37	39.027
325.73	38.713
326.10	40.690
326.46	39.910
326.83	41.382
327.19	41.674
327.56	42.745
327.92	43.046
328.29	43.214
328.65	43.396
329.01	43.290
329.38	44.055
329.74	42.493
330.11	43.837
330.47	42.857
330.84	45.000
331.20	47.243
331.56	44.722
331.93	46.301
332.29	47.479
332.66	45.792
333.02	45.818
333.38	43.813
333.75	46.795
334.11	43.957
334.48	45.422
334.84	46.062
335.20	46.203
335.57	45.150
335.93	45.890
336.29	47.514
336.66	45.141
337.02	45.725
337.38	46.204
337.75	45.636
338.11	45.987
338.47	45.712
338.84	48.706
339.20	45.978
339.56	46.055
339.93	45.748
340.29	46.330
340.65	46.147
341.02	46.720
341.38	45.575
341.74	45.671
342.11	46.274
342.47	47.153
342.83	46.453
343.20	45.296
343.56	47.043
343.92	47.121
344.28	47.395
344.65	45.855
345.01	45.981
345.37	46.678
345.73	47.950
346.10	48.059
346.46	46.426
346.82	46.481
347.19	46.384
347.55	47.786
347.91	47.735
348.27	45.998
348.63	46.848
349.00	46.924
349.36	47.714
349.72	46.932
350.08	47.459
350.45	47.486
350.81	47.508
351.17	48.127
351.53	47.673
351.89	46.903
352.26	45.280
352.62	47.661
352.98	47.068
353.34	45.572
353.70	48.463
354.07	47.984
354.43	47.958
354.79	47.647
355.15	46.667
355.51	48.813
355.87	47.735
356.24	45.514
356.60	48.181
356.96	47.619
357.32	45.767
357.68	47.146
358.04	46.607
358.40	46.383
358.77	47.847
359.13	47.958
359.49	47.535
359.85	48.128
360.21	48.086
360.57	46.825
360.93	47.655
361.29	47.130
361.66	47.649
362.02	49.015
362.38	49.048
362.74	48.297
363.10	48.984
363.46	49.222
363.82	49.737
364.18	48.930
364.54	48.676
364.90	47.599
365.26	47.671
365.62	50.365
365.98	48.607
366.35	50.255
366.71	50.998
367.07	50.000
367.43	50.036
367.79	49.823
368.15	48.959
368.51	51.129
368.87	49.246
369.23	50.325
369.59	50.656
369.95	49.927
370.31	51.084
370.67	50.672
371.03	48.245
371.39	51.131
371.75	49.817
372.11	50.428
372.47	51.997
372.83	50.390
373.19	50.642
373.55	50.253
373.91	50.252
374.27	52.516
374.63	50.897
374.99	51.489
375.35	52.577
375.71	51.958
376.07	52.037
376.42	51.769
376.78	52.282
377.14	52.674
377.50	52.523
377.86	53.079
378.22	53.031
378.58	52.756
378.94	53.182
379.30	52.589
379.66	53.480
380.02	51.747
380.38	52.587
380.74	52.304
381.09	53.988
381.45	53.517
381.81	52.869
382.17	54.251
382.53	54.029
382.89	55.556
383.25	53.516
383.61	54.939
383.97	54.032
384.32	53.971
384.68	55.418
385.04	55.208
385.40	54.823
385.76	56.164
386.12	55.433
386.48	57.471
386.83	55.358
387.19	55.556
387.55	56.462
387.91	56.479
388.27	55.495
388.62	57.017
388.98	56.538
389.34	57.402
389.70	57.241
390.06	56.828
390.42	57.707
390.77	57.292
391.13	56.116
391.49	58.344
391.85	57.895
392.20	57.878
392.56	59.568
392.92	58.133
393.28	58.785
393.64	58.078
393.99	60.000
394.35	58.887
394.71	60.089
395.07	58.517
395.42	57.195
395.78	61.368
396.14	60.025
396.50	60.114
396.85	60.077
397.21	60.777
397.57	59.310
397.92	59.617
398.28	61.149
398.64	58.434
399.00	61.117
399.35	60.102
399.71	60.310
400.07	62.636
400.42	59.670
400.78	62.217
401.14	61.525
401.49	61.108
401.85	61.304
402.21	62.289
402.57	62.313
402.92	61.731
403.28	63.972
403.63	63.871
403.99	64.094
404.35	63.148
404.70	62.262
405.06	61.927
405.42	63.456
405.77	63.858
406.13	63.912
406.49	63.233
406.84	64.976
407.20	64.238
407.55	64.649
407.91	63.770
408.27	64.308
408.62	64.985
408.98	65.065
409.34	64.994
409.69	64.793
410.05	63.300
410.40	65.123
410.76	66.224
411.11	66.750
411.47	66.338
411.83	66.478
412.18	67.375
412.54	65.980
412.89	66.256
413.25	67.389
413.60	67.205
413.96	65.767
414.31	66.829
414.67	66.389
415.03	67.244
415.38	67.428
415.74	66.580
416.09	67.015
416.45	68.467
416.80	68.341
417.16	69.268
417.51	68.621
417.87	66.493
418.22	69.041
418.58	69.565
418.93	69.404
419.29	67.350
419.64	68.179
420.00	69.395
420.35	68.597
420.71	68.226
421.06	69.306
421.42	70.192
421.77	68.960
422.12	67.934
422.48	69.139
422.83	69.374
423.19	69.639
423.54	70.312
423.90	69.788
424.25	69.862
424.61	70.073
424.96	70.441
425.31	71.982
425.67	71.362
426.02	71.731
426.38	72.323
426.73	71.065
427.09	73.228
427.44	71.412
427.79	72.363
428.15	71.238
428.50	72.380
428.85	70.393
429.21	71.817
429.56	73.100
429.92	71.700
430.27	70.777
430.62	70.727
430.98	72.930
431.33	71.767
431.68	70.487
432.04	73.002
432.39	70.565
432.74	72.520
433.10	72.011
433.45	71.983
433.80	73.302
434.16	71.856
434.51	72.366
434.86	74.971
435.22	72.350
435.57	73.986
435.92	73.353
436.28	71.556
436.63	73.189
436.98	72.827
437.34	72.474
437.69	74.240
438.04	73.732
438.39	72.755
438.75	74.681
439.10	73.062
439.45	73.220
439.81	72.294
440.16	75.772
440.51	74.448
440.86	76.616
441.22	73.473
441.57	75.000
441.92	75.341
442.27	75.166
442.63	74.197
442.98	74.210
443.33	73.734
443.68	73.899
444.03	75.161
444.39	75.258
444.74	76.310
445.09	76.670
445.44	74.644
445.79	75.812
446.15	74.670
446.50	75.430
446.85	75.770
447.20	75.130
447.55	76.618
447.91	74.958
448.26	74.616
448.61	75.417
448.96	76.764
449.31	74.855
449.66	74.390
450.02	75.014
450.37	76.704
450.72	75.601
451.07	77.025
451.42	75.406
451.77	75.708
452.12	75.837
452.47	76.948
452.83	77.091
453.18	75.901
453.53	76.738
453.88	77.110
454.23	76.152
454.58	76.763
454.93	76.869
455.28	73.778
455.63	76.007
455.98	77.330
456.34	76.692
456.69	76.811
457.04	76.812
457.39	76.185
457.74	76.421
458.09	74.632
458.44	76.126
458.79	75.238
459.14	76.201
459.49	76.537
459.84	74.958
460.19	74.939
460.54	75.978
460.89	75.227
461.24	76.211
461.59	75.950
461.94	75.912
462.29	77.624
462.64	78.472
462.99	77.183
463.34	75.869
463.69	75.097
464.04	77.421
464.39	75.136
464.74	74.724
465.09	75.296
465.44	75.880
465.79	72.732
466.14	75.200
466.49	76.078
466.84	76.205
467.19	76.220
467.54	73.755
467.89	75.805
468.24	75.547
468.59	76.762
468.94	76.635
469.29	76.721
469.64	75.325
469.99	78.486
470.34	76.041
470.68	78.896
471.03	77.990
471.38	76.534
471.73	78.081
472.08	77.951
472.43	77.651
472.78	74.846
473.13	77.619
473.48	76.678
473.83	75.778
474.17	77.461
474.52	77.856
474.87	75.758
475.22	76.083
475.57	75.720
475.92	76.632
476.27	76.484
476.61	76.794
476.96	74.456
477.31	77.285
477.66	75.787
478.01	76.923
478.36	76.797
478.70	77.597
479.05	76.484
479.40	75.146
479.75	76.434
480.10	75.422
480.45	75.650
480.79	78.348
481.14	77.100
481.49	75.419
481.84	77.510
482.19	75.865
482.53	76.355
482.88	75.131
483.23	74.856
483.58	75.613
483.92	75.460
484.27	74.613
484.62	76.289
484.97	73.964
485.31	72.905
485.66	69.291
486.01	69.358
486.36	69.137
486.70	70.559
487.05	71.432
487.40	71.846
487.75	73.183
488.09	73.208
488.44	74.347
488.79	74.374
489.13	75.801
489.48	74.476
489.83	74.888
490.17	75.461
490.52	75.704
490.87	75.428
491.22	76.457
491.56	75.759
491.91	76.099
492.26	77.686
492.60	76.104
492.95	77.619
493.30	75.330
493.64	76.130
493.99	75.942
494.34	75.194
494.68	76.524
495.03	75.912
495.37	75.466
495.72	77.234
496.07	76.488
496.41	76.368
496.76	75.910
497.11	74.709
497.45	76.229
497.80	78.759
498.14	75.310
498.49	76.536
498.84	75.798
499.18	75.703
499.53	76.587
499.87	74.805
500.22	76.409
500.56	77.660
500.91	76.707
501.26	75.482
501.60	75.848
501.95	75.400
502.29	76.659
502.64	75.820
502.98	75.777
503.33	74.111
503.67	75.952
504.02	75.904
504.36	75.903
504.71	75.758
505.06	75.340
505.40	75.482
505.75	76.237
506.09	75.418
506.44	78.029
506.78	77.296
507.13	75.698
507.47	76.084
507.82	77.030
508.16	77.496
508.51	78.227
508.85	76.347
509.19	77.382
509.54	77.909
509.88	77.131
510.23	78.214
510.57	76.430
510.92	76.812
511.26	76.978
511.61	77.723
511.95	77.260
512.30	76.718
512.64	77.629
512.98	77.765
513.33	77.057
513.67	78.511
514.02	78.661
514.36	78.286
514.70	79.545
515.05	80.670
515.39	79.457
515.74	80.958
516.08	79.438
516.42	80.683
516.77	80.047
517.11	79.407
517.46	79.832
517.80	79.321
518.14	79.731
518.49	77.764
518.83	79.222
519.17	78.714
519.52	77.916
519.86	78.571
520.20	78.797
520.55	79.862
520.89	80.427
521.23	80.431
521.58	80.946
521.92	80.833
522.26	79.831
522.61	81.299
522.95	82.252
523.29	79.797
523.64	79.670
523.98	80.881
524.32	80.155
524.66	82.458
525.01	79.740
525.35	81.400
525.69	81.751
526.04	80.754
526.38	81.323
526.72	78.875
527.06	78.923
527.41	79.881
527.75	80.295
528.09	79.601
528.43	81.972
528.78	81.320
529.12	80.258
529.46	80.637
529.80	79.861
530.15	82.310
530.49	80.943
530.83	83.174
531.17	78.711
531.51	82.011
531.86	81.713
532.20	80.724
532.54	80.667
532.88	81.862
533.22	79.435
533.57	79.030
533.91	80.548
534.25	80.339
534.59	79.346
534.93	77.911
535.27	79.569
535.62	78.872
535.96	78.669
536.30	79.947
536.64	81.875
536.98	80.418
537.32	80.299
537.66	79.593
538.01	80.420
538.35	79.958
538.69	79.095
539.03	79.016
539.37	79.879
539.71	78.596
540.05	78.683
540.39	80.055
540.73	80.962
541.07	79.696
541.42	79.368
541.76	80.730
542.10	79.147
542.44	79.083
542.78	78.458
543.12	78.915
543.46	78.442
543.80	80.708
544.14	76.502
544.48	77.482
544.82	80.383
545.16	79.098
545.50	76.769
545.84	79.958
546.18	79.291
546.52	78.731
546.86	78.936
547.20	80.544
547.54	77.032
547.88	77.921
548.22	76.529
548.56	75.528
548.90	77.426
549.24	78.857
549.58	77.080
549.92	78.270
550.26	78.974
550.60	79.108
550.94	80.433
551.28	79.985
551.62	81.000
551.96	79.549
552.30	77.485
552.64	77.292
552.98	77.637
553.32	77.175
553.66	78.229
554.00	78.248
554.34	79.394
554.68	77.139
555.02	79.836
555.36	77.861
555.69	77.582
556.03	77.159
556.37	77.011
556.71	79.422
557.05	77.852
557.39	78.216
557.73	78.861
558.07	79.412
558.41	79.096
558.75	79.267
559.08	79.827
559.42	80.159
559.76	80.144
560.10	78.517
560.44	78.034
560.78	77.063
561.12	78.068
561.45	77.442
561.79	77.381
562.13	77.999
562.47	76.619
562.81	76.657
563.15	75.670
563.48	75.813
563.82	76.596
564.16	77.855
564.50	75.946
564.84	75.703
565.17	75.050
565.51	77.186
565.85	77.092
566.19	76.326
566.52	76.340
566.86	76.542
567.20	75.093
567.54	74.209
567.88	74.575
568.21	74.095
568.55	74.022
568.89	71.663
569.23	72.075
569.56	70.184
569.90	70.686
570.24	66.022
570.57	69.418
570.91	68.247
571.25	66.985
571.59	66.054
571.92	64.919
572.26	65.610
572.60	65.612
572.93	65.861
573.27	65.517
573.61	65.483
573.95	65.784
574.28	64.062
574.62	63.488
574.96	63.451
575.29	63.377
575.63	62.296
575.97	62.971
576.30	63.762
576.64	62.675
576.98	64.015
577.31	63.701
577.65	63.761
577.98	62.743
578.32	62.252
578.66	61.509
578.99	62.541
579.33	62.628
579.67	62.604
580.00	63.266
580.34	63.234
580.67	62.760
581.01	62.896
581.35	61.563
581.68	61.523
582.02	61.020
582.35	60.557
582.69	61.005
583.02	61.824
583.36	63.378
583.70	64.200
584.03	64.860
584.37	64.625
584.70	63.297
585.04	62.772
585.37	61.720
585.71	61.343
586.04	62.683
586.38	61.776
586.72	62.324
587.05	63.200
587.39	63.405
587.72	63.423
588.06	62.801
588.39	63.771
588.73	64.683
589.06	65.851
589.40	64.431
589.73	65.024
590.07	65.748
590.40	66.680
590.73	67.051
591.07	66.115
591.40	66.741
591.74	67.014
592.07	66.976
592.41	65.150
592.74	63.919
593.08	61.858
593.41	62.471
593.75	62.807
594.08	62.616
594.41	63.428
594.75	64.389
595.08	63.678
595.42	64.336
595.75	64.101
596.09	63.995
596.42	65.358
596.75	66.252
597.09	66.150
597.42	65.537
597.75	66.285
598.09	64.871
598.42	64.305
598.76	63.921
599.09	63.742
599.42	62.865
599.76	62.603
600.09	62.670
600.42	62.699
600.76	61.590
601.09	62.557
601.42	62.162
601.76	63.438
602.09	64.026
602.42	65.080
602.76	64.346
603.09	64.576
603.42	65.092
603.76	63.992
604.09	63.183
604.42	63.452
604.76	64.486
605.09	65.448
605.42	63.883
605.75	63.704
606.09	63.227
606.42	62.927
606.75	63.247
607.09	63.956
607.42	63.226
607.75	63.321
608.08	64.061
608.42	63.180
608.75	65.108
609.08	65.421
609.41	66.548
609.75	65.020
610.08	65.402
610.41	64.444
610.74	64.066
611.07	65.840
611.41	65.957
611.74	66.151
612.07	65.096
612.40	66.904
612.73	67.345
613.07	65.467
613.40	65.153
613.73	65.585
614.06	65.721
614.39	66.949
614.72	65.714
615.06	66.257
615.39	64.902
615.72	64.316
616.05	64.469
616.38	64.729
616.71	66.483
617.05	66.461
617.38	67.316
617.71	67.736
618.04	66.921
618.37	67.213
618.70	68.185
619.03	70.833
619.36	68.524
619.69	70.584
620.03	71.001
620.36	70.029
620.69	69.236
621.02	69.266
621.35	72.531
621.68	72.619
622.01	70.833
622.34	69.673
622.67	71.530
623.00	68.913
623.33	67.988
623.66	67.988
623.99	69.138
624.32	69.658
624.65	68.045
624.99	70.354
625.32	68.613
625.65	69.442
625.98	71.072
626.31	70.574
626.64	72.184
626.97	71.553
627.30	72.417
627.63	71.837
627.96	72.327
628.29	72.340
628.62	73.648
628.95	75.551
629.28	75.302
629.61	74.377
629.94	74.976
630.26	75.198
630.59	76.171
630.92	75.897
631.25	72.410
631.58	78.414
631.91	76.754
632.24	76.147
632.57	75.795
632.90	77.817
633.23	76.235
633.56	78.967
633.89	78.545
634.22	81.358
634.55	80.178
634.88	77.650
635.20	79.487
635.53	82.933
635.86	77.373
636.19	79.819
636.52	78.061
636.85	75.186
637.18	76.604
637.51	76.855
637.83	77.398
638.16	80.628
638.49	76.431
638.82	79.868
639.15	76.934
639.48	78.542
639.81	77.685
640.13	82.395
640.46	80.466
640.79	81.149
641.12	78.287
641.45	81.381
641.77	80.444
642.10	83.254
642.43	81.833
642.76	81.683
643.09	84.491
643.41	79.935
643.74	82.537
644.07	81.445
644.40	81.588
644.73	83.363
645.05	84.060
645.38	86.067
645.71	82.270
646.04	84.201
646.36	84.220
646.69	81.115
647.02	87.524
647.35	85.261
647.67	83.181
648.00	84.515
648.33	78.669
648.66	81.356
648.98	78.224
649.31	79.669
649.64	76.295
649.96	78.120
650.29	80.068
650.62	79.316
650.94	80.741
651.27	82.682
651.60	80.180
651.92	80.594
652.25	77.975
652.58	77.500
652.90	81.132
653.23	77.479
653.56	77.834
653.88	76.289
654.21	78.109
654.54	76.740
654.86	78.608
655.19	75.146
655.52	65.867
655.84	52.656
656.17	55.974
656.49	75.588
656.82	78.484
657.15	60.987
657.47	46.265
657.80	34.824
658.13	34.601
658.45	54.585
658.78	54.714
659.10	55.724
659.43	56.817
659.75	60.286
660.08	62.345
660.41	66.496
660.73	71.823
661.06	77.470
661.38	78.669
661.71	77.207
662.03	86.052
662.36	82.857
662.68	82.080
663.01	81.878
663.33	84.455
663.66	81.628
663.98	83.256
664.31	81.876
664.63	82.488
664.96	75.652
665.28	78.366
665.61	81.602
665.93	81.522
666.26	81.128
666.58	78.523
666.91	82.353
667.23	83.726
667.56	81.043
667.88	82.014
668.21	85.680
668.53	85.579
668.86	79.245
669.18	82.075
669.50	80.872
669.83	79.070
670.15	79.254
670.48	80.861
670.80	80.876
671.13	79.642
671.45	77.854
671.77	75.966
672.10	76.040
672.42	74.157
672.75	72.647
673.07	73.345
673.39	73.761
673.72	71.598
674.04	75.625
674.37	78.178
674.69	76.874
675.01	78.889
675.34	76.351
675.66	79.398
675.98	78.271
676.31	78.899
676.63	80.760
676.95	75.682
677.28	80.706
677.60	80.000
677.92	77.982
678.25	76.368
678.57	75.974
678.89	76.050
679.22	77.852
679.54	69.679
679.86	71.571
680.18	74.369
680.51	71.212
680.83	72.167
681.15	73.000
681.48	73.156
681.80	73.554
682.12	71.573
682.44	74.059
682.77	74.614
683.09	75.515
683.41	67.955
683.73	74.194
684.06	75.664
684.38	69.032
684.70	75.817
685.02	74.066
685.34	68.577
685.67	68.668
685.99	68.535
686.31	69.027
686.63	70.501
686.96	69.392
687.28	68.889
687.60	65.970
687.92	74.545
688.24	67.944
688.56	71.397
688.89	72.768
689.21	71.556
689.53	70.302
689.85	71.860
690.17	72.321
690.49	74.941
690.82	71.602
691.14	70.238
691.46	72.897
691.78	71.847
692.10	68.172
692.42	70.563
692.74	68.162
693.06	72.973
693.39	68.326
693.71	68.778
694.03	71.132
694.35	71.028
694.67	72.222
694.99	68.930
695.31	73.629
695.63	72.000
695.95	71.717
696.27	69.948
696.59	73.889
696.91	75.350
697.23	67.609
697.56	69.059
697.88	66.667
698.20	69.021
698.52	67.294
698.84	64.354
699.16	65.250
699.48	68.922
699.80	67.494
700.12	73.585
700.44	71.709
700.76	68.023
701.08	72.121
701.40	70.482
701.72	75.000
702.04	78.878
702.36	73.579
702.68	66.667
703.00	71.515
703.32	68.622
703.64	66.384
703.96	74.783
704.28	69.939
704.60	72.063
704.91	71.609
705.23	72.425
705.55	77.385
705.87	77.978
706.19	78.889
706.51	72.509
706.83	71.383
707.15	72.586
707.47	69.188
707.79	65.365
708.11	62.500
708.43	62.000
708.74	63.824
709.06	70.141
709.38	67.584
709.70	66.568
710.02	67.516
710.34	69.040
710.66	66.026
710.98	66.556
711.29	68.525
711.61	72.542
711.93	66.124
712.25	72.852
712.57	73.993
712.89	75.000
713.20	67.474
713.52	65.157
713.84	70.307
714.16	65.979
714.48	69.032
714.80	66.026
715.11	66.261
715.43	63.009
715.75	66.000
716.07	65.116
716.39	65.772
716.70	65.314
717.02	68.321
717.34	72.874
717.66	77.434
717.97	70.870
718.29	75.732
718.61	72.441
718.93	68.992
719.24	69.582
719.56	73.896
719.88	64.605
720.20	69.318
720.51	70.881
720.83	68.726
721.15	69.748
721.46	72.984
721.78	65.217
722.10	64.312
722.42	64.315
722.73	70.612
723.05	75.102
723.37	68.220
723.68	77.928
724.00	71.368
724.32	71.111
724.63	65.455
724.95	68.122
725.27	65.899
725.58	64.407
725.90	65.079
726.22	66.795
726.53	57.627
726.85	66.667
727.16	66.792
727.48	63.563
727.80	68.421
728.11	64.831
728.43	63.137
728.74	60.887
729.06	60.000
729.38	63.534
729.69	62.948
730.01	60.000
730.32	61.194
730.64	59.364
730.96	64.906
731.27	59.333
731.59	58.305
731.90	59.236
732.22	60.252
732.53	64.120
732.85	62.057
733.16	64.646
733.48	57.554
733.80	60.507
734.11	58.305
734.43	62.543
734.74	60.303
735.06	57.655
735.37	60.121
735.69	62.626
736.00	56.098
736.32	58.725
736.63	57.746
736.95	58.020
737.26	54.093
737.58	57.718
737.89	59.707
738.21	60.526
738.52	62.963
738.83	60.262
739.15	64.629
739.46	63.780
739.78	56.410
740.09	62.418
740.41	58.696
740.72	53.937
741.04	65.587
741.35	63.830
741.66	61.137
741.98	71.429
742.29	67.327
742.61	69.634
742.92	56.872
743.23	57.870
743.55	60.633
743.86	61.244
744.18	60.287
744.49	60.638
744.80	61.413
745.12	71.123
745.43	58.537
745.74	66.667
746.06	57.561
746.37	70.681
746.68	62.559
747.00	63.298
747.31	63.184
747.62	58.738
747.94	62.201
748.25	62.376
748.56	65.574
748.88	71.728
749.19	63.298
749.50	66.010
749.82	58.019
750.13	56.422
750.44	56.015
750.75	63.433
751.07	60.219
751.38	58.238
751.69	56.863
752.01	62.016
752.32	56.972
752.63	62.451
752.94	60.345
753.26	64.017
753.57	55.204
753.88	57.965
754.19	59.167
754.51	56.612
754.82	56.275
755.13	62.083
755.44	61.694
755.75	60.937
756.07	53.307
756.38	60.000
756.69	50.192
757.00	56.333
757.31	52.288
757.63	50.610
757.94	50.556
758.25	48.767
758.56	50.266
758.87	45.609
759.18	52.336
759.50	53.455
759.81	57.191
760.12	56.129
760.43	47.273
760.74	52.160
761.05	55.077
761.36	50.000
761.67	53.030
761.99	54.762
762.30	53.455
762.61	51.779
762.92	59.276
763.23	53.604
763.54	58.411
763.85	61.441
764.16	49.378
764.47	55.242
764.78	47.985
765.10	55.219
765.41	49.842
765.72	50.159
766.03	47.744
766.34	52.555
766.65	51.793
766.96	60.101
767.27	55.851
767.58	45.402
767.89	69.504
768.20	55.114
768.51	58.791
768.82	48.768
769.13	50.691
769.44	56.652
769.75	51.142
770.06	53.017
770.37	54.808
770.68	54.315
770.99	52.036
771.30	56.863
771.61	53.394
771.92	51.724
772.23	57.635
772.54	54.301
772.85	52.469
773.16	56.742
773.47	66.667
773.78	63.399
774.09	53.293
774.39	50.667
774.70	52.229
775.01	59.310
775.32	57.143
775.63	51.240
775.94	57.252
776.25	56.693
776.56	58.333
776.87	57.692
777.18	55.556
777.48	61.207
777.79	53.043
778.10	49.524
778.41	67.568
778.72	58.730
779.03	52.632
779.34	58.156
779.65	49.315
779.95	47.260
780.26	51.724
780.57	42.276
780.88	57.480
781.19	59.483
781.50	58.140
781.80	50.888
782.11	47.170
782.42	53.846
782.73	50.360
783.04	48.889
783.34	53.472
783.65	50.427
783.96	50.000
784.27	51.724
784.57	60.163
784.88	51.562
785.19	64.000
785.50	68.000
785.81	56.034
786.11	52.586
786.42	47.573
786.73	60.000
787.04	52.041
787.34	49.107
787.65	53.333
787.96	58.407
788.26	55.455
788.57	54.701
788.88	52.344
789.19	48.413
789.49	57.391
789.80	51.020
790.11	55.556
790.41	46.364
790.72	60.870
791.03	52.273
791.33	71.250
791.64	67.500
791.95	54.651
792.25	56.383
792.56	50.562
792.87	71.233
793.17	53.623
793.48	60.000
793.79	45.000
794.09	71.250
794.40	57.547
794.70	41.748
795.01	48.780
795.32	39.316
795.62	52.381
795.93	51.961
796.23	54.717
796.54	57.292
796.85	57.353
797.15	54.930
797.46	69.444
797.76	72.727
798.07	47.674
798.37	38.158
798.68	48.485
798.99	45.679
799.29	62.857
799.60	53.623
799.90	61.333
800.21	60.656
800.51	44.615
800.82	47.458
801.12	50.725
801.43	60.656
801.73	44.444
802.04	44.000
802.34	55.224
802.65	59.615
802.95	55.357
803.26	55.769
803.56	66.667
803.87	43.478
804.17	50.667
804.48	50.794
804.78	55.556
805.09	58.696
805.39	55.556
805.70	68.519
806.00	29.825
806.30	36.620
806.61	54.286
806.91	31.944
807.22	68.421
807.52	49.333
807.83	29.091
808.13	33.333
808.43	57.353
808.74	44.776
809.04	45.763
809.35	42.308
809.65	40.625
809.95	8.108
810.26	47.727
810.56	49.315
810.86	64.286
811.17	40.000
811.47	44.898
811.77	39.474
812.08	50.000
812.38	37.736
812.69	25.000
812.99	69.697
813.29	18.421
813.59	45.714
813.90	52.273
814.20	43.590
814.50	67.308
814.81	62.264
815.11	14.894
815.41	42.373
815.72	19.048
816.02	49.020
816.32	60.417
816.62	78.049
816.93	32.432
817.23	20.000
817.53	60.417
817.84	52.174
818.14	36.538
818.44	60.526
818.74	52.174
819.04	27.500
819.35	62.162
819.65	26.471
819.95	36.111
820.25	33.333
820.56	60.000
820.86	-13.793
821.16	45.000
821.46	46.809
821.76	55.000
822.07	51.163
822.37	27.027
822.67	53.125
822.97	71.429
823.27	50.000
823.57	56.000
823.88	37.037
824.18	60.714
824.48	58.824
824.78	48.387
825.08	43.478
825.38	51.515
825.69	33.333
825.99	36.842
826.29	38.889
826.59	100.000
826.89	-19.048
827.19	56.522
827.49	47.500
827.79	40.000
828.09	57.143
828.39	69.697
828.70	75.676
829.00	60.714
829.30	19.048
829.60	23.333
829.90	46.875
830.20	23.684
830.50	37.037
830.80	30.435
831.10	22.727
831.40	27.273
831.70	54.839
832.00	42.857
832.30	38.095
832.60	16.667
832.90	44.828
833.20	55.000
833.50	18.182
833.80	14.815
834.10	42.308
834.40	40.625
834.70	66.667
835.00	-5.263
835.30	69.231
835.60	80.000
835.90	29.032
836.20	63.636
836.50	82.143
836.80	-7.692
837.10	-21.429
837.40	66.667
837.70	59.091
838.00	-18.182
838.30	34.783
838.60	38.462
838.90	27.273
839.19	50.000
839.49	70.000
839.79	92.308
840.09	-16.667
840.39	60.714
840.69	53.571
840.99	15.385
841.29	15.789
841.59	-10.000
841.88	9.091
842.18	110.000
842.48	56.250
842.78	46.667
843.08	-11.111
843.38	-130.000
843.68	43.478
843.97	93.333
844.27	-13.333
844.57	5.000
844.87	55.556
845.17	19.048
845.47	6.667
845.76	-9.524
846.06	29.412
846.36	80.000
846.66	7.143
846.96	40.000
847.25	-50.000
847.55	121.429
847.85	-50.000
848.15	13.636
848.44	-300.000
848.74	20.000
849.04	51.852
849.34	45.455
849.63	100.000
849.93	-180.000
850.23	-11.111
850.53	-10.000
850.82	-23.077
851.12	0.000
851.42	80.000
851.71	-11.538
852.01	57.143
852.31	125.000
852.61	-9.091
852.90	25.000
853.20	52.632
853.50	-33.333
853.79	26.087
854.09	33.333
854.39	31.579
854.68	0.000
854.98	48.387
855.28	76.923
855.57	25.000
855.87	61.111
856.17	33.333
856.46	7.143
856.76	0.000
857.05	133.333
857.35	20.000
857.65	33.333
857.94	123.077
858.24	6.897
858.53	22.222
858.83	14.815
859.13	18.182
859.42	4.348
859.72	-100.000
860.01	-300.000
860.31	-24.000
860.60	9.524
860.90	-133.333
861.20	13.333
861.49	-550.000
861.79	-53.333
862.08	20.000
862.38	93.333
862.67	-140.000
862.97	-50.000
863.26	-25.000
863.56	55.556
863.85	-166.667
864.15	0.000
864.44	-30.000
864.74	0.000
865.03	75.000
865.33	-40.000
865.62	16.667
865.92	16.667
866.21	-216.667
866.51	-25.000
866.80	45.455
867.10	300.000
867.39	41.667
867.69	0.000
867.98	15.385
868.27	-500.000
868.57	80.000
868.86	50.000
869.16	-46.154
869.45	-13.333
869.75	-300.000
870.04	0.000
870.33	-100.000
870.63	23.810
870.92	266.667
871.22	-80.000
871.51	-900.000
871.80	100.000
872.10	266.667
>>>>>End Processed Spectral Data<<<<<
