SpectraSuite Data File
++++++++++++++++++++++++++++++++++++
Date: Fri May 15 20:41:22 PDT 2015
User: schluterlab
Dark Spectrum Present: Yes
Reference Spectrum Present: Yes
Number of Sampled Component Spectra: 1
Spectrometers: USB2E3373
Integration Time (usec): 3000 (USB2E3373)
Spectra Averaged: 3 (USB2E3373)
Boxcar Smoothing: 0 (USB2E3373)
Correct for Electrical Dark: No (USB2E3373)
Strobe/Lamp Enabled: No (USB2E3373)
Correct for Detector Non-linearity: No (USB2E3373)
Correct for Stray Light: No (USB2E3373)
Number of Pixels in Processed Spectrum: 2048
>>>>>Begin Processed Spectral Data<<<<<
178.53	0.000
178.91	0.000
179.29	175.000
179.67	-250.000
180.04	28.571
180.42	0.000
180.80	-500.000
181.18	-166.667
181.56	-50.000
181.94	250.000
182.31	1300.000
182.69	60.000
183.07	-366.667
183.45	-140.000
183.83	250.000
184.20	-36.364
184.58	88.889
184.96	100.000
185.34	-0.000
185.72	-300.000
186.09	115.385
186.47	0.000
186.85	116.667
187.23	144.444
187.61	300.000
187.98	-33.333
188.36	77.778
188.74	200.000
189.12	-5.882
189.49	0.000
189.87	0.000
190.25	57.143
190.63	-250.000
191.00	0.000
191.38	15.789
191.76	300.000
192.14	100.000
192.51	150.000
192.89	-44.444
193.27	-171.429
193.65	100.000
194.02	118.182
194.40	60.000
194.78	-62.500
195.15	16.667
195.53	-87.500
195.91	375.000
196.29	-75.000
196.66	69.231
197.04	185.714
197.42	-22.222
197.79	-366.667
198.17	-84.615
198.55	1100.000
198.92	66.667
199.30	-700.000
199.68	-120.000
200.05	0.000
200.43	0.000
200.81	-166.667
201.18	-133.333
201.56	900.000
201.94	-450.000
202.31	-133.333
202.69	-140.000
203.07	275.000
203.44	700.000
203.82	0.000
204.19	57.143
204.57	-433.333
204.95	125.000
205.32	-70.000
205.70	28.571
206.08	-75.000
206.45	155.556
206.83	7.143
207.20	14.286
207.58	900.000
207.96	-433.333
208.33	-90.000
208.71	-50.000
209.08	-16.667
209.46	-1400.000
209.84	-260.000
210.21	-1200.000
210.59	-200.000
210.96	-33.333
211.34	-225.000
211.71	-26.667
212.09	-42.857
212.46	-1100.000
212.84	0.000
213.22	60.000
213.59	50.000
213.97	38.462
214.34	18.182
214.72	33.333
215.09	275.000
215.47	-38.462
215.84	-100.000
216.22	-200.000
216.59	-25.000
216.97	100.000
217.34	-100.000
217.72	-20.000
218.09	62.500
218.47	112.500
218.84	-100.000
219.22	0.000
219.59	0.000
219.97	333.333
220.34	125.000
220.72	-157.143
221.09	25.000
221.47	50.000
221.84	-650.000
222.22	-650.000
222.59	36.364
222.97	0.000
223.34	-133.333
223.72	-64.286
224.09	-14.286
224.46	42.857
224.84	200.000
225.21	0.000
225.59	53.333
225.96	-500.000
226.34	375.000
226.71	-57.143
227.08	133.333
227.46	-137.500
227.83	-850.000
228.21	111.111
228.58	54.545
228.95	-87.500
229.33	100.000
229.70	0.000
230.08	-137.500
230.45	-57.143
230.82	42.857
231.20	-6.667
231.57	21.429
231.95	-28.571
232.32	-70.000
232.69	0.000
233.07	-66.667
233.44	-80.000
233.81	-30.000
234.19	-33.333
234.56	29.412
234.93	250.000
235.31	-175.000
235.68	-60.000
236.05	46.154
236.43	-55.000
236.80	-17.647
237.17	3.125
237.55	-20.000
237.92	11.111
238.29	11.111
238.67	6.667
239.04	2.941
239.41	-26.829
239.79	13.333
240.16	19.512
240.53	-21.053
240.91	-17.391
241.28	11.111
241.65	33.929
242.02	23.288
242.40	13.333
242.77	23.729
243.14	-1.515
243.51	5.000
243.89	27.586
244.26	1.149
244.63	0.000
245.00	9.278
245.38	13.402
245.75	0.000
246.12	10.345
246.49	10.744
246.87	8.654
247.24	5.882
247.61	-0.877
247.98	12.195
248.36	9.375
248.73	7.237
249.10	8.442
249.47	13.291
249.84	13.725
250.22	10.000
250.59	20.915
250.96	18.779
251.33	14.535
251.70	8.824
252.08	13.198
252.45	8.416
252.82	11.558
253.19	13.825
253.56	10.748
253.94	11.712
254.31	11.739
254.68	17.105
255.05	11.024
255.42	13.974
255.79	13.514
256.16	13.619
256.54	15.299
256.91	12.928
257.28	12.268
257.65	11.610
258.02	9.574
258.39	16.835
258.76	14.286
259.14	17.940
259.51	12.621
259.88	14.433
260.25	11.765
260.62	17.361
260.99	11.525
261.36	10.959
261.73	14.241
262.10	15.502
262.47	13.804
262.85	12.226
263.22	13.538
263.59	13.084
263.96	13.665
264.33	10.606
264.70	11.012
265.07	16.071
265.44	16.714
265.81	13.559
266.18	13.661
266.55	15.424
266.92	15.285
267.29	11.749
267.66	13.043
268.03	13.613
268.40	11.227
268.77	16.578
269.14	11.990
269.51	14.396
269.88	12.968
270.25	12.755
270.62	11.707
270.99	12.020
271.36	13.203
271.73	16.197
272.10	13.382
272.47	13.712
272.84	14.604
273.21	13.457
273.58	14.940
273.95	13.043
274.32	10.162
274.69	11.312
275.06	14.509
275.43	13.152
275.80	13.687
276.17	11.724
276.54	12.634
276.91	16.009
277.28	13.100
277.65	15.289
278.02	12.553
278.39	13.348
278.76	15.094
279.13	12.241
279.50	14.286
279.87	15.119
280.23	12.473
280.60	13.645
280.97	14.545
281.34	10.385
281.71	14.784
282.08	12.883
282.45	12.916
282.82	10.811
283.19	12.573
283.56	11.368
283.92	11.575
284.29	11.731
284.66	12.597
285.03	11.788
285.40	10.586
285.77	11.599
286.14	12.274
286.51	15.867
286.87	10.603
287.24	10.497
287.61	9.524
287.98	13.158
288.35	12.132
288.72	10.858
289.08	11.458
289.45	12.302
289.82	14.510
290.19	12.287
290.56	9.949
290.93	10.606
291.29	9.861
291.66	11.024
292.03	10.845
292.40	10.645
292.77	9.888
293.13	9.903
293.50	9.712
293.87	12.214
294.24	9.583
294.60	11.177
294.97	11.310
295.34	9.663
295.71	10.581
296.08	10.613
296.44	8.393
296.81	11.111
297.18	10.580
297.55	11.518
297.91	8.493
298.28	11.741
298.65	8.820
299.02	9.030
299.38	8.071
299.75	8.138
300.12	7.723
300.48	8.432
300.85	9.125
301.22	9.481
301.59	8.684
301.95	10.127
302.32	10.895
302.69	9.204
303.05	9.158
303.42	9.838
303.79	9.579
304.15	10.394
304.52	8.918
304.89	8.772
305.25	9.564
305.62	7.935
305.99	8.187
306.35	9.480
306.72	8.549
307.09	9.806
307.45	9.759
307.82	9.606
308.19	10.685
308.55	8.724
308.92	10.240
309.29	9.944
309.65	9.473
310.02	9.351
310.38	9.879
310.75	9.945
311.12	9.473
311.48	9.756
311.85	9.948
312.22	9.705
312.58	11.359
312.95	9.178
313.31	8.592
313.68	10.157
314.05	10.918
314.41	10.412
314.78	10.928
315.14	13.258
315.51	12.112
315.87	11.373
316.24	13.650
316.61	12.008
316.97	13.095
317.34	12.012
317.70	12.333
318.07	13.462
318.43	13.333
318.80	12.879
319.16	14.258
319.53	14.530
319.89	13.386
320.26	14.980
320.62	15.446
320.99	14.927
321.35	15.108
321.72	17.445
322.08	17.321
322.45	16.650
322.81	16.994
323.18	16.683
323.54	16.023
323.91	17.429
324.27	18.555
324.64	19.288
325.00	17.883
325.37	20.386
325.73	17.498
326.10	20.254
326.46	20.807
326.83	20.210
327.19	21.011
327.56	22.328
327.92	22.183
328.29	21.071
328.65	23.302
329.01	23.254
329.38	22.396
329.74	21.907
330.11	22.614
330.47	23.191
330.84	23.558
331.20	25.095
331.56	23.426
331.93	24.658
332.29	24.290
332.66	23.529
333.02	23.978
333.38	23.831
333.75	25.092
334.11	22.919
334.48	24.841
334.84	25.733
335.20	22.232
335.57	23.481
335.93	23.758
336.29	24.217
336.66	24.160
337.02	24.071
337.38	23.056
337.75	24.818
338.11	24.076
338.47	25.091
338.84	25.323
339.20	25.960
339.56	23.853
339.93	26.052
340.29	24.862
340.65	25.538
341.02	25.266
341.38	24.690
341.74	24.823
342.11	22.617
342.47	24.555
342.83	25.087
343.20	25.087
343.56	26.261
343.92	24.624
344.28	24.594
344.65	24.352
345.01	23.163
345.37	25.315
345.73	25.858
346.10	26.402
346.46	23.465
346.82	23.895
347.19	24.190
347.55	22.723
347.91	24.919
348.27	24.737
348.63	24.361
349.00	25.103
349.36	25.603
349.72	25.539
350.08	25.000
350.45	25.379
350.81	23.754
351.17	25.081
351.53	25.878
351.89	24.360
352.26	24.240
352.62	24.677
352.98	25.221
353.34	25.604
353.70	24.838
354.07	25.403
354.43	23.779
354.79	24.855
355.15	25.952
355.51	24.842
355.87	24.515
356.24	24.225
356.60	24.818
356.96	25.159
357.32	25.479
357.68	24.081
358.04	24.798
358.40	25.000
358.77	26.396
359.13	25.220
359.49	24.499
359.85	24.883
360.21	25.518
360.57	25.555
360.93	25.567
361.29	24.622
361.66	26.567
362.02	25.455
362.38	26.352
362.74	26.192
363.10	26.712
363.46	25.945
363.82	26.597
364.18	25.092
364.54	25.221
364.90	25.663
365.26	26.638
365.62	27.445
365.98	25.806
366.35	27.604
366.71	26.755
367.07	27.576
367.43	26.240
367.79	25.866
368.15	26.849
368.51	26.875
368.87	26.059
369.23	25.993
369.59	26.385
369.95	27.933
370.31	27.384
370.67	27.164
371.03	26.736
371.39	26.550
371.75	26.154
372.11	26.106
372.47	27.441
372.83	27.324
373.19	28.103
373.55	26.137
373.91	27.718
374.27	27.498
374.63	26.920
374.99	26.879
375.35	27.159
375.71	28.112
376.07	27.388
376.42	26.667
376.78	27.651
377.14	27.014
377.50	27.224
377.86	27.175
378.22	27.186
378.58	27.628
378.94	27.221
379.30	27.199
379.66	28.088
380.02	27.223
380.38	28.058
380.74	27.349
381.09	28.282
381.45	27.339
381.81	28.378
382.17	28.236
382.53	28.732
382.89	27.558
383.25	27.629
383.61	27.683
383.97	26.794
384.32	27.142
384.68	26.997
385.04	26.777
385.40	26.073
385.76	28.050
386.12	28.525
386.48	28.608
386.83	27.901
387.19	28.022
387.55	27.980
387.91	28.362
388.27	28.083
388.62	28.131
388.98	27.379
389.34	28.482
389.70	28.589
390.06	27.879
390.42	27.850
390.77	28.058
391.13	27.869
391.49	27.361
391.85	28.655
392.20	27.809
392.56	27.781
392.92	27.481
393.28	27.476
393.64	27.748
393.99	28.464
394.35	26.945
394.71	27.586
395.07	28.473
395.42	27.505
395.78	28.599
396.14	27.491
396.50	27.838
396.85	28.654
397.21	28.947
397.57	27.837
397.92	27.142
398.28	28.966
398.64	27.229
399.00	27.709
399.35	27.257
399.71	27.685
400.07	28.356
400.42	28.274
400.78	28.781
401.14	28.312
401.49	27.576
401.85	27.666
402.21	27.530
402.57	27.875
402.92	27.980
403.28	28.321
403.63	27.932
403.99	27.870
404.35	28.607
404.70	27.440
405.06	27.027
405.42	28.465
405.77	27.891
406.13	27.881
406.49	28.064
406.84	28.240
407.20	28.417
407.55	28.075
407.91	28.610
408.27	27.661
408.62	28.308
408.98	27.603
409.34	27.819
409.69	27.390
410.05	27.525
410.40	27.593
410.76	28.287
411.11	27.562
411.47	28.271
411.83	27.997
412.18	28.378
412.54	27.653
412.89	26.601
413.25	27.677
413.60	28.758
413.96	27.975
414.31	28.049
414.67	28.352
415.03	28.762
415.38	27.154
415.74	27.948
416.09	28.217
416.45	28.359
416.80	28.751
417.16	28.798
417.51	28.448
417.87	27.379
418.22	27.591
418.58	27.692
418.93	28.777
419.29	26.825
419.64	28.062
420.00	28.652
420.35	27.642
420.71	28.493
421.06	27.747
421.42	28.005
421.77	27.861
422.12	28.377
422.48	28.045
422.83	28.074
423.19	28.047
423.54	27.807
423.90	27.915
424.25	28.817
424.61	27.846
424.96	28.049
425.31	28.538
425.67	28.521
426.02	28.386
426.38	29.430
426.73	28.935
427.09	29.051
427.44	29.059
427.79	28.049
428.15	28.277
428.50	29.194
428.85	28.440
429.21	28.636
429.56	28.787
429.92	28.146
430.27	27.920
430.62	28.542
430.98	27.495
431.33	29.075
431.68	28.362
432.04	29.067
432.39	28.237
432.74	28.503
433.10	30.115
433.45	29.331
433.80	28.555
434.16	27.701
434.51	28.441
434.86	29.384
435.22	28.996
435.57	29.570
435.92	29.281
436.28	28.980
436.63	28.922
436.98	29.085
437.34	29.099
437.69	29.756
438.04	30.085
438.39	28.528
438.75	29.630
439.10	29.598
439.45	30.310
439.81	29.358
440.16	30.344
440.51	30.746
440.86	31.057
441.22	29.525
441.57	29.746
441.92	30.640
442.27	30.432
442.63	30.782
442.98	30.327
443.33	30.273
443.68	30.027
444.03	30.303
444.39	30.694
444.74	31.327
445.09	30.401
445.44	29.915
445.79	31.511
446.15	29.626
446.50	29.839
446.85	30.393
447.20	30.553
447.55	30.469
447.91	31.810
448.26	31.645
448.61	31.434
448.96	30.866
449.31	30.347
449.66	30.604
450.02	30.918
450.37	31.239
450.72	31.558
451.07	32.025
451.42	31.586
451.77	30.802
452.12	31.758
452.47	31.230
452.83	31.272
453.18	31.562
453.53	32.933
453.88	32.665
454.23	32.760
454.58	32.494
454.93	32.152
455.28	32.190
455.63	32.362
455.98	32.351
456.34	30.651
456.69	31.321
457.04	32.766
457.39	32.078
457.74	32.527
458.09	31.666
458.44	31.422
458.79	31.092
459.14	31.350
459.49	31.821
459.84	31.134
460.19	31.917
460.54	32.518
460.89	32.159
461.24	32.857
461.59	33.076
461.94	31.761
462.29	32.630
462.64	32.625
462.99	32.972
463.34	31.572
463.69	31.725
464.04	31.538
464.39	31.716
464.74	32.270
465.09	32.938
465.44	31.506
465.79	32.256
466.14	32.098
466.49	31.340
466.84	32.481
467.19	33.104
467.54	31.801
467.89	32.596
468.24	31.813
468.59	33.587
468.94	32.000
469.29	33.639
469.64	32.946
469.99	34.828
470.34	33.584
470.68	33.930
471.03	33.616
471.38	33.595
471.73	33.543
472.08	32.904
472.43	33.758
472.78	33.242
473.13	33.605
473.48	33.550
473.83	33.126
474.17	33.614
474.52	34.014
474.87	33.636
475.22	32.947
475.57	32.185
475.92	34.504
476.27	32.945
476.61	33.507
476.96	33.408
477.31	34.397
477.66	33.596
478.01	34.812
478.36	33.551
478.70	34.475
479.05	34.396
479.40	35.082
479.75	33.525
480.10	33.487
480.45	33.600
480.79	34.491
481.14	33.248
481.49	32.857
481.84	34.073
482.19	33.957
482.53	33.669
482.88	33.317
483.23	32.965
483.58	33.302
483.92	33.398
484.27	33.820
484.62	32.586
484.97	32.007
485.31	32.153
485.66	30.226
486.01	29.817
486.36	29.711
486.70	30.270
487.05	31.025
487.40	31.593
487.75	31.521
488.09	31.737
488.44	31.878
488.79	32.835
489.13	33.854
489.48	32.835
489.83	34.081
490.17	33.213
490.52	34.042
490.87	33.919
491.22	34.384
491.56	33.634
491.91	33.413
492.26	33.836
492.60	33.589
492.95	34.727
493.30	33.024
493.64	34.528
493.99	34.396
494.34	34.029
494.68	33.714
495.03	33.674
495.37	34.936
495.72	33.367
496.07	34.683
496.41	33.632
496.76	34.040
497.11	32.790
497.45	34.129
497.80	34.712
498.14	34.078
498.49	33.773
498.84	34.082
499.18	34.940
499.53	34.127
499.87	33.755
500.22	33.927
500.56	34.241
500.91	33.082
501.26	33.910
501.60	33.940
501.95	34.789
502.29	34.673
502.64	34.797
502.98	34.238
503.33	33.862
503.67	33.831
504.02	34.213
504.36	35.032
504.71	33.788
505.06	34.021
505.40	35.431
505.75	35.876
506.09	34.617
506.44	36.088
506.78	34.694
507.13	35.109
507.47	35.405
507.82	34.776
508.16	35.816
508.51	35.572
508.85	35.845
509.19	35.232
509.54	35.335
509.88	35.868
510.23	36.794
510.57	36.398
510.92	35.394
511.26	36.116
511.61	36.524
511.95	35.507
512.30	36.475
512.64	36.672
512.98	36.833
513.33	36.821
513.67	37.464
514.02	37.700
514.36	37.086
514.70	37.179
515.05	37.662
515.39	37.898
515.74	39.281
516.08	37.776
516.42	38.810
516.77	38.268
517.11	37.864
517.46	39.019
517.80	38.677
518.14	38.212
518.49	37.981
518.83	39.186
519.17	38.205
519.52	38.544
519.86	38.355
520.20	39.793
520.55	39.024
520.89	40.527
521.23	38.759
521.58	40.820
521.92	40.385
522.26	39.297
522.61	40.390
522.95	41.656
523.29	39.327
523.64	40.978
523.98	40.765
524.32	39.820
524.66	40.845
525.01	40.584
525.35	41.218
525.69	41.077
526.04	39.947
526.38	42.023
526.72	40.288
527.06	40.402
527.41	41.029
527.75	41.086
528.09	40.997
528.43	42.674
528.78	41.584
529.12	41.097
529.46	40.091
529.80	40.722
530.15	41.584
530.49	41.886
530.83	41.860
531.17	40.967
531.51	42.339
531.86	41.604
532.20	40.223
532.54	41.593
532.88	42.916
533.22	41.398
533.57	41.153
533.91	40.535
534.25	42.253
534.59	40.924
534.93	40.025
535.27	41.180
535.62	41.737
535.96	41.357
536.30	42.942
536.64	43.074
536.98	41.603
537.32	41.963
537.66	43.408
538.01	41.748
538.35	41.193
538.69	41.345
539.03	41.558
539.37	42.261
539.71	41.104
540.05	42.770
540.39	40.859
540.73	43.096
541.07	41.506
541.42	42.204
541.76	42.808
542.10	41.569
542.44	42.391
542.78	40.399
543.12	41.346
543.46	41.725
543.80	42.748
544.14	40.788
544.48	41.173
544.82	41.900
545.16	42.077
545.50	41.989
545.84	42.068
546.18	41.702
546.52	41.096
546.86	41.912
547.20	41.273
547.54	40.919
547.88	40.217
548.22	40.039
548.56	40.172
548.90	40.836
549.24	40.496
549.58	40.762
549.92	41.101
550.26	42.491
550.60	41.115
550.94	42.494
551.28	42.427
551.62	43.231
551.96	42.857
552.30	41.301
552.64	40.550
552.98	40.577
553.32	42.225
553.66	41.147
554.00	41.752
554.34	42.393
554.68	41.077
555.02	41.964
555.36	42.184
555.69	40.952
556.03	40.685
556.37	40.712
556.71	40.939
557.05	40.716
557.39	40.074
557.73	42.129
558.07	41.252
558.41	42.037
558.75	41.777
559.08	42.238
559.42	42.143
559.76	41.633
560.10	39.602
560.44	40.655
560.78	41.189
561.12	40.762
561.45	41.040
561.79	40.616
562.13	41.519
562.47	40.360
562.81	40.778
563.15	41.044
563.48	40.665
563.82	40.631
564.16	40.738
564.50	39.189
564.84	39.357
565.17	39.772
565.51	40.779
565.85	40.741
566.19	40.517
566.52	40.818
566.86	39.781
567.20	39.228
567.54	38.139
567.88	38.899
568.21	39.027
568.55	37.500
568.89	36.910
569.23	37.747
569.56	35.989
569.90	35.648
570.24	35.132
570.57	35.382
570.91	34.820
571.25	33.180
571.59	33.448
571.92	32.919
572.26	33.122
572.60	33.550
572.93	32.978
573.27	33.292
573.61	33.174
573.95	32.769
574.28	32.203
574.62	31.986
574.96	32.112
575.29	31.878
575.63	31.226
575.97	31.662
576.30	32.274
576.64	31.762
576.98	32.329
577.31	31.728
577.65	31.674
577.98	31.445
578.32	30.949
578.66	30.948
578.99	31.259
579.33	31.776
579.67	30.734
580.00	32.051
580.34	31.343
580.67	30.935
581.01	31.196
581.35	30.771
581.68	30.781
582.02	30.262
582.35	30.158
582.69	30.600
583.02	31.104
583.36	30.494
583.70	31.412
584.03	31.387
584.37	32.242
584.70	31.511
585.04	30.544
585.37	30.786
585.71	30.165
586.04	31.089
586.38	30.648
586.72	31.306
587.05	31.051
587.39	30.724
587.72	32.340
588.06	30.999
588.39	31.074
588.73	30.830
589.06	31.703
589.40	32.285
589.73	32.530
590.07	32.742
590.40	32.624
590.73	32.949
591.07	32.655
591.40	33.259
591.74	33.529
592.07	33.442
592.41	32.730
592.74	31.581
593.08	30.807
593.41	31.499
593.75	30.455
594.08	30.587
594.41	31.441
594.75	31.336
595.08	31.404
595.42	31.873
595.75	31.656
596.09	31.548
596.42	32.410
596.75	33.126
597.09	31.344
597.42	32.159
597.75	32.203
598.09	32.141
598.42	32.491
598.76	32.046
599.09	31.250
599.42	30.201
599.76	30.963
600.09	30.468
600.42	30.212
600.76	30.349
601.09	30.267
601.42	30.631
601.76	30.250
602.09	30.693
602.42	31.466
602.76	31.112
603.09	31.894
603.42	31.814
603.76	30.444
604.09	30.215
604.42	31.218
604.76	30.619
605.09	31.261
605.42	31.512
605.75	31.918
606.09	30.403
606.42	29.775
606.75	30.476
607.09	30.681
607.42	30.483
607.75	30.284
608.08	30.144
608.42	29.968
608.75	31.952
609.08	31.241
609.41	31.675
609.75	31.401
610.08	30.504
610.41	29.710
610.74	30.814
611.07	31.525
611.41	31.759
611.74	31.450
612.07	30.889
612.40	31.400
612.73	31.977
613.07	31.159
613.40	30.635
613.73	31.449
614.06	31.386
614.39	31.134
614.72	30.868
615.06	31.173
615.39	30.404
615.72	30.301
616.05	30.279
616.38	29.744
616.71	31.376
617.05	32.304
617.38	30.798
617.71	31.572
618.04	31.937
618.37	31.589
618.70	32.607
619.03	33.750
619.36	32.127
619.69	33.738
620.03	33.528
620.36	31.617
620.69	32.263
621.02	32.569
621.35	33.610
621.68	33.333
622.01	33.417
622.34	33.679
622.67	33.991
623.00	32.006
623.33	32.698
623.66	31.788
623.99	31.770
624.32	33.764
624.65	31.654
624.99	32.506
625.32	31.160
625.65	33.543
625.98	32.877
626.31	32.003
626.64	34.402
626.97	34.555
627.30	33.100
627.63	34.229
627.96	33.603
628.29	33.950
628.62	35.300
628.95	34.970
629.28	35.484
629.61	34.197
629.94	34.702
630.26	35.079
630.59	35.796
630.92	34.769
631.25	33.846
631.58	36.674
631.91	34.539
632.24	36.124
632.57	36.705
632.90	34.282
633.23	34.824
633.56	37.154
633.89	35.265
634.22	36.790
634.55	36.976
634.88	37.165
635.20	34.872
635.53	36.933
635.86	36.281
636.19	36.740
636.52	34.949
636.85	34.739
637.18	35.220
637.51	35.346
637.83	36.137
638.16	38.745
638.49	32.834
638.82	37.500
639.15	37.585
639.48	37.552
639.81	37.099
640.13	36.797
640.46	36.297
640.79	38.881
641.12	36.928
641.45	36.937
641.77	37.481
642.10	39.336
642.43	36.656
642.76	37.624
643.09	39.257
643.41	35.761
643.74	37.232
644.07	37.110
644.40	39.189
644.73	38.354
645.05	37.416
645.38	39.506
645.71	37.411
646.04	38.420
646.36	38.121
646.69	39.388
647.02	41.021
647.35	36.940
647.67	36.197
648.00	38.806
648.33	37.372
648.66	37.458
648.98	34.338
649.31	36.529
649.64	32.339
649.96	35.656
650.29	35.605
650.62	36.923
650.94	36.667
651.27	33.333
651.60	35.495
651.92	35.490
652.25	35.879
652.58	37.167
652.90	38.422
653.23	37.143
653.56	34.518
653.88	38.144
654.21	34.326
654.54	35.823
654.86	36.333
655.19	34.064
655.52	29.412
655.84	23.064
656.17	24.636
656.49	32.580
656.82	33.799
657.15	25.654
657.47	19.291
657.80	14.613
658.13	14.227
658.45	22.658
658.78	23.014
659.10	23.345
659.43	24.231
659.75	26.048
660.08	27.241
660.41	28.498
660.73	31.354
661.06	34.662
661.38	32.290
661.71	34.702
662.03	36.266
662.36	37.802
662.68	36.726
663.01	40.393
663.33	39.443
663.66	35.349
663.98	33.256
664.31	37.313
664.63	35.253
664.96	34.348
665.28	33.775
665.61	36.147
665.93	36.739
666.26	36.443
666.58	36.465
666.91	35.765
667.23	37.736
667.56	36.019
667.88	40.048
668.21	33.174
668.53	39.243
668.86	38.443
669.18	36.321
669.50	35.351
669.83	35.581
670.15	36.830
670.48	35.167
670.80	36.406
671.13	36.465
671.45	32.192
671.77	36.695
672.10	35.644
672.42	32.022
672.75	34.458
673.07	35.599
673.39	32.844
673.72	30.966
674.04	32.708
674.37	34.110
674.69	31.692
675.01	31.778
675.34	33.784
675.66	34.028
675.98	35.477
676.31	33.257
676.63	33.729
676.95	30.000
677.28	36.941
677.60	36.386
677.92	34.404
678.25	35.667
678.57	32.684
678.89	32.983
679.22	32.886
679.54	31.124
679.86	31.610
680.18	32.427
680.51	33.523
680.83	30.219
681.15	32.400
681.48	34.631
681.80	33.471
682.12	32.863
682.44	31.381
682.77	33.113
683.09	32.265
683.41	32.955
683.73	35.023
684.06	33.407
684.38	31.613
684.70	32.026
685.02	31.120
685.34	30.435
685.67	30.019
685.99	28.210
686.31	28.673
686.63	31.354
686.96	27.757
687.28	29.091
687.60	26.806
687.92	32.929
688.24	29.839
688.56	33.406
688.89	31.696
689.21	34.667
689.53	31.090
689.85	30.930
690.17	31.473
690.49	32.624
690.82	31.068
691.14	27.857
691.46	32.944
691.78	31.081
692.10	30.108
692.42	30.736
692.74	29.487
693.06	29.505
693.39	28.281
693.71	27.149
694.03	30.485
694.35	33.645
694.67	29.293
694.99	32.898
695.31	32.115
695.63	28.750
695.95	28.788
696.27	31.347
696.59	35.556
696.91	31.653
697.23	27.506
697.56	32.178
697.88	31.183
698.20	30.296
698.52	28.000
698.84	27.512
699.16	26.500
699.48	28.571
699.80	28.288
700.12	33.962
700.44	31.933
700.76	24.419
701.08	29.394
701.40	31.928
701.72	40.123
702.04	30.033
702.36	30.435
702.68	30.631
703.00	30.909
703.32	31.965
703.64	26.271
703.96	29.565
704.28	29.755
704.60	31.429
704.91	28.076
705.23	35.216
705.55	37.809
705.87	35.740
706.19	32.222
706.51	33.677
706.83	32.154
707.15	24.922
707.47	30.252
707.79	29.688
708.11	26.250
708.43	27.500
708.74	26.873
709.06	30.141
709.38	32.416
709.70	31.657
710.02	28.344
710.34	35.294
710.66	27.564
710.98	30.132
711.29	30.820
711.61	29.153
711.93	32.899
712.25	37.113
712.57	28.205
712.89	29.851
713.20	30.796
713.52	30.314
713.84	24.232
714.16	29.210
714.48	29.677
714.80	30.769
715.11	27.660
715.43	28.213
715.75	26.000
716.07	26.578
716.39	26.846
716.70	26.199
717.02	26.336
717.34	35.223
717.66	34.513
717.97	32.174
718.29	30.962
718.61	30.315
718.93	26.744
719.24	26.996
719.56	27.711
719.88	30.928
720.20	31.439
720.51	27.969
720.83	31.274
721.15	31.513
721.46	27.419
721.78	28.854
722.10	28.253
722.42	22.822
722.73	29.388
723.05	33.878
723.37	27.966
723.68	31.982
724.00	30.342
724.32	29.333
724.63	32.273
724.95	28.384
725.27	24.424
725.58	28.814
725.90	23.016
726.22	30.116
726.53	26.102
726.85	28.090
727.16	30.566
727.48	25.506
727.80	25.911
728.11	28.390
728.43	25.490
728.74	27.016
729.06	27.200
729.38	28.571
729.69	21.912
730.01	24.615
730.32	27.239
730.64	30.389
730.96	30.189
731.27	24.000
731.59	27.119
731.90	24.522
732.22	26.498
732.53	26.246
732.85	28.014
733.16	29.630
733.48	25.540
733.80	25.000
734.11	25.424
734.43	26.117
734.74	27.273
735.06	20.847
735.37	26.586
735.69	25.926
736.00	23.345
736.32	28.859
736.63	25.352
736.95	29.010
737.26	25.623
737.58	22.483
737.89	23.077
738.21	25.940
738.52	25.103
738.83	24.891
739.15	24.017
739.46	28.740
739.78	23.077
740.09	21.569
740.41	27.536
740.72	17.717
741.04	25.911
741.35	27.234
741.66	24.645
741.98	30.612
742.29	29.703
742.61	23.037
742.92	18.009
743.23	18.519
743.55	28.054
743.86	26.316
744.18	29.665
744.49	21.277
744.80	26.087
745.12	31.551
745.43	27.805
745.74	27.604
746.06	29.268
746.37	28.796
746.68	31.754
747.00	28.723
747.31	29.353
747.62	24.272
747.94	23.923
748.25	25.248
748.56	28.415
748.88	24.607
749.19	25.000
749.50	28.079
749.82	25.000
750.13	22.936
750.44	28.947
750.75	27.985
751.07	27.737
751.38	28.352
751.69	22.745
752.01	28.295
752.32	24.303
752.63	22.925
752.94	23.707
753.26	27.197
753.57	26.697
753.88	23.451
754.19	27.500
754.51	23.554
754.82	23.077
755.13	27.083
755.44	28.226
755.75	25.000
756.07	22.957
756.38	21.887
756.69	20.690
757.00	25.333
757.31	25.490
757.63	21.951
757.94	23.611
758.25	21.096
758.56	23.670
758.87	19.263
759.18	22.118
759.50	22.909
759.81	27.425
760.12	21.613
760.43	26.364
760.74	22.531
761.05	24.923
761.36	21.307
761.67	22.424
761.99	27.551
762.30	22.909
762.61	24.901
762.92	25.792
763.23	23.423
763.54	23.364
763.85	25.847
764.16	20.332
764.47	19.355
764.78	18.315
765.10	21.212
765.41	23.028
765.72	21.587
766.03	19.549
766.34	19.708
766.65	25.896
766.96	24.242
767.27	24.468
767.58	19.540
767.89	23.404
768.20	30.114
768.51	24.725
768.82	21.675
769.13	16.590
769.44	22.747
769.75	21.005
770.06	22.414
770.37	23.558
770.68	26.396
770.99	21.719
771.30	22.549
771.61	24.434
771.92	27.155
772.23	23.645
772.54	19.892
772.85	26.543
773.16	22.472
773.47	33.333
773.78	27.451
774.09	24.551
774.39	26.000
774.70	36.306
775.01	23.448
775.32	27.857
775.63	14.876
775.94	19.847
776.25	18.898
776.56	25.000
776.87	25.000
777.18	23.932
777.48	21.552
777.79	21.739
778.10	24.762
778.41	22.523
778.72	25.397
779.03	18.797
779.34	23.404
779.65	31.507
779.95	19.863
780.26	27.586
780.57	27.642
780.88	20.472
781.19	22.414
781.50	26.357
781.80	20.118
782.11	20.755
782.42	19.231
782.73	15.108
783.04	30.370
783.34	11.806
783.65	9.402
783.96	22.951
784.27	24.828
784.57	26.829
784.88	26.563
785.19	22.000
785.50	23.000
785.81	24.138
786.11	23.276
786.42	22.330
786.73	31.818
787.04	27.551
787.34	19.643
787.65	16.190
787.96	12.389
788.26	28.182
788.57	20.513
788.88	30.469
789.19	12.698
789.49	7.826
789.80	18.367
790.11	19.192
790.41	22.727
790.72	18.478
791.03	27.273
791.33	22.500
791.64	16.250
791.95	32.558
792.25	18.085
792.56	21.348
792.87	16.438
793.17	15.942
793.48	25.333
793.79	17.500
794.09	25.000
794.40	16.981
794.70	25.243
795.01	14.634
795.32	15.385
795.62	28.571
795.93	32.353
796.23	25.472
796.54	28.125
796.85	19.118
797.15	16.901
797.46	22.222
797.76	46.970
798.07	29.070
798.37	25.000
798.68	7.576
798.99	25.926
799.29	22.857
799.60	8.696
799.90	22.667
800.21	24.590
800.51	20.000
800.82	30.508
801.12	24.638
801.43	34.426
801.73	22.222
802.04	12.000
802.34	11.940
802.65	30.769
802.95	10.714
803.26	17.308
803.56	23.529
803.87	8.696
804.17	18.667
804.48	39.683
804.78	25.926
805.09	36.957
805.39	8.889
805.70	18.519
806.00	14.035
806.30	16.901
806.61	30.000
806.91	0.000
807.22	26.316
807.52	21.333
807.83	5.455
808.13	31.944
808.43	30.882
808.74	29.851
809.04	16.949
809.35	19.231
809.65	26.563
809.95	2.703
810.26	-6.818
810.56	23.288
810.86	33.333
811.17	44.000
811.47	16.327
811.77	2.632
812.08	22.727
812.38	30.189
812.69	17.500
812.99	30.303
813.29	23.684
813.59	-8.571
813.90	20.455
814.20	-7.692
814.50	21.154
814.81	15.094
815.11	10.638
815.41	33.898
815.72	30.952
816.02	25.490
816.32	29.167
816.62	12.195
816.93	2.703
817.23	-5.714
817.53	22.917
817.84	23.913
818.14	25.000
818.44	5.263
818.74	30.435
819.04	-2.500
819.35	32.432
819.65	14.706
819.95	30.556
820.25	19.048
820.56	30.000
820.86	-27.586
821.16	35.000
821.46	23.404
821.76	17.500
822.07	20.930
822.37	-2.703
822.67	25.000
822.97	30.952
823.27	7.143
823.57	-16.000
823.88	-18.519
824.18	32.143
824.48	0.000
824.78	16.129
825.08	-13.043
825.38	21.212
825.69	12.500
825.99	21.053
826.29	19.444
826.59	6.667
826.89	-23.810
827.19	36.957
827.49	12.500
827.79	28.571
828.09	32.143
828.39	15.152
828.70	18.919
829.00	-28.571
829.30	-19.048
829.60	-3.333
829.90	59.375
830.20	18.421
830.50	25.926
830.80	30.435
831.10	40.909
831.40	15.152
831.70	22.581
832.00	9.524
832.30	-23.810
832.60	-41.667
832.90	10.345
833.20	-45.000
833.50	54.545
833.80	-7.407
834.10	19.231
834.40	12.500
834.70	-11.111
835.00	26.316
835.30	53.846
835.60	53.333
835.90	19.355
836.20	0.000
836.50	17.857
836.80	0.000
837.10	67.857
837.40	166.667
837.70	36.364
838.00	-118.182
838.30	-52.174
838.60	-15.385
838.90	27.273
839.19	10.714
839.49	30.000
839.79	23.077
840.09	-41.667
840.39	-3.571
840.69	32.143
840.99	19.231
841.29	-31.579
841.59	-90.000
841.88	18.182
842.18	-40.000
842.48	31.250
842.78	20.000
843.08	11.111
843.38	-80.000
843.68	13.043
843.97	113.333
844.27	0.000
844.57	25.000
844.87	-16.667
845.17	-19.048
845.47	26.667
845.76	4.762
846.06	35.294
846.36	-50.000
846.66	0.000
846.96	46.667
847.25	25.000
847.55	121.429
847.85	12.500
848.15	22.727
848.44	-233.333
848.74	5.000
849.04	25.926
849.34	-36.364
849.63	-50.000
849.93	-160.000
850.23	16.667
850.53	60.000
850.82	-15.385
851.12	-66.667
851.42	20.000
851.71	7.692
852.01	-7.143
852.31	-350.000
852.61	-36.364
852.90	10.000
853.20	-5.263
853.50	-50.000
853.79	13.043
854.09	83.333
854.39	-31.579
854.68	-8.333
854.98	22.581
855.28	34.615
855.57	-15.000
855.87	-5.556
856.17	37.037
856.46	42.857
856.76	46.667
857.05	-33.333
857.35	72.000
857.65	5.556
857.94	53.846
858.24	55.172
858.53	77.778
858.83	44.444
859.13	22.727
859.42	17.391
859.72	-75.000
860.01	-333.333
860.31	12.000
860.60	23.810
860.90	-300.000
861.20	-53.333
861.49	-250.000
861.79	13.333
862.08	-10.000
862.38	106.667
862.67	40.000
862.97	0.000
863.26	50.000
863.56	5.556
863.85	-366.667
864.15	-16.667
864.44	10.000
864.74	78.571
865.03	-100.000
865.33	-140.000
865.62	183.333
865.92	41.667
866.21	-116.667
866.51	75.000
866.80	9.091
867.10	-250.000
867.39	0.000
867.69	0.000
867.98	-46.154
868.27	-133.333
868.57	20.000
868.86	16.667
869.16	0.000
869.45	40.000
869.75	-1400.000
870.04	0.000
870.33	-14.286
870.63	28.571
870.92	-133.333
871.22	-280.000
871.51	-100.000
871.80	0.000
872.10	400.000
>>>>>End Processed Spectral Data<<<<<
