SpectraSuite Data File
++++++++++++++++++++++++++++++++++++
Date: Fri May 15 20:46:34 PDT 2015
User: schluterlab
Dark Spectrum Present: Yes
Reference Spectrum Present: Yes
Number of Sampled Component Spectra: 1
Spectrometers: USB2E3373
Integration Time (usec): 3000 (USB2E3373)
Spectra Averaged: 3 (USB2E3373)
Boxcar Smoothing: 0 (USB2E3373)
Correct for Electrical Dark: No (USB2E3373)
Strobe/Lamp Enabled: No (USB2E3373)
Correct for Detector Non-linearity: No (USB2E3373)
Correct for Stray Light: No (USB2E3373)
Number of Pixels in Processed Spectrum: 2048
>>>>>Begin Processed Spectral Data<<<<<
178.53	0.000
178.91	0.000
179.29	112.500
179.67	-350.000
180.04	-42.857
180.42	75.000
180.80	-400.000
181.18	100.000
181.56	500.000
181.94	200.000
182.31	600.000
182.69	-140.000
183.07	-300.000
183.45	-20.000
183.83	200.000
184.20	-27.273
184.58	155.556
184.96	-0.000
185.34	33.333
185.72	-350.000
186.09	138.462
186.47	-400.000
186.85	266.667
187.23	166.667
187.61	100.000
187.98	-33.333
188.36	33.333
188.74	-133.333
189.12	0.000
189.49	33.333
189.87	0.000
190.25	21.429
190.63	150.000
191.00	-200.000
191.38	31.579
191.76	0.000
192.14	-25.000
192.51	-700.000
192.89	-44.444
193.27	-257.143
193.65	83.333
194.02	200.000
194.40	20.000
194.78	-50.000
195.15	8.333
195.53	-62.500
195.91	525.000
196.29	-300.000
196.66	115.385
197.04	171.429
197.42	-111.111
197.79	-366.667
198.17	-107.692
198.55	200.000
198.92	-266.667
199.30	-900.000
199.68	80.000
200.05	-166.667
200.43	0.000
200.81	-300.000
201.18	-33.333
201.56	700.000
201.94	200.000
202.31	-33.333
202.69	-320.000
203.07	225.000
203.44	200.000
203.82	0.000
204.19	-14.286
204.57	-466.667
204.95	125.000
205.32	-80.000
205.70	-71.429
206.08	-200.000
206.45	133.333
206.83	50.000
207.20	-100.000
207.58	-0.000
207.96	-200.000
208.33	-20.000
208.71	-200.000
209.08	-166.667
209.46	-1100.000
209.84	-180.000
210.21	-1600.000
210.59	-71.429
210.96	-83.333
211.34	-175.000
211.71	33.333
212.09	-100.000
212.46	-1600.000
212.84	0.000
213.22	60.000
213.59	350.000
213.97	38.462
214.34	27.273
214.72	-166.667
215.09	350.000
215.47	-53.846
215.84	-90.909
216.22	-400.000
216.59	50.000
216.97	-200.000
217.34	-100.000
217.72	-340.000
218.09	0.000
218.47	112.500
218.84	-1000.000
219.22	-88.889
219.59	-100.000
219.97	400.000
220.34	250.000
220.72	0.000
221.09	-225.000
221.47	0.000
221.84	-450.000
222.22	-800.000
222.59	45.455
222.97	25.000
223.34	-166.667
223.72	-21.429
224.09	4.762
224.46	-3.571
224.84	233.333
225.21	0.000
225.59	-6.667
225.96	-400.000
226.34	275.000
226.71	42.857
227.08	-100.000
227.46	12.500
227.83	-700.000
228.21	-55.556
228.58	-18.182
228.95	-87.500
229.33	150.000
229.70	31.250
230.08	-75.000
230.45	42.857
230.82	114.286
231.20	33.333
231.57	-7.143
231.95	-128.571
232.32	50.000
232.69	7.143
233.07	-266.667
233.44	-220.000
233.81	-200.000
234.19	100.000
234.56	52.941
234.93	650.000
235.31	25.000
235.68	-280.000
236.05	-7.692
236.43	-60.000
236.80	-41.176
237.17	15.625
237.55	-20.000
237.92	14.815
238.29	22.222
238.67	36.667
239.04	32.353
239.41	-26.829
239.79	-3.333
240.16	24.390
240.53	10.526
240.91	43.478
241.28	4.762
241.65	21.429
242.02	32.877
242.40	28.333
242.77	27.119
243.14	13.636
243.51	33.750
243.89	44.828
244.26	24.138
244.63	22.619
245.00	24.742
245.38	26.804
245.75	19.101
246.12	17.241
246.49	22.314
246.87	25.000
247.24	15.966
247.61	22.807
247.98	21.951
248.36	19.375
248.73	26.974
249.10	22.727
249.47	32.278
249.84	24.837
250.22	29.412
250.59	35.948
250.96	33.333
251.33	23.256
251.70	27.059
252.08	24.873
252.45	16.832
252.82	22.613
253.19	35.023
253.56	27.103
253.94	31.081
254.31	27.826
254.68	26.754
255.05	24.016
255.42	28.821
255.79	27.413
256.16	29.572
256.54	29.478
256.91	26.236
257.28	26.394
257.65	23.221
258.02	28.369
258.39	25.253
258.76	32.967
259.14	32.890
259.51	23.948
259.88	26.460
260.25	28.758
260.62	26.736
260.99	25.424
261.36	24.315
261.73	27.215
262.10	31.307
262.47	28.528
262.85	28.840
263.22	28.308
263.59	27.726
263.96	31.677
264.33	29.697
264.70	30.655
265.07	26.488
265.44	27.762
265.81	28.531
266.18	28.689
266.55	29.306
266.92	29.793
267.29	29.765
267.66	26.854
268.03	29.319
268.40	27.415
268.77	33.155
269.14	26.619
269.51	29.563
269.88	27.182
270.25	26.276
270.62	28.293
270.99	25.831
271.36	28.606
271.73	28.404
272.10	29.197
272.47	26.950
272.84	27.970
273.21	25.522
273.58	26.988
273.95	27.689
274.32	25.404
274.69	23.756
275.06	27.232
275.43	29.932
275.80	29.801
276.17	25.517
276.54	26.767
276.91	28.728
277.28	25.546
277.65	29.545
278.02	24.043
278.39	24.508
278.76	27.883
279.13	24.066
279.50	27.311
279.87	29.590
280.23	24.731
280.60	28.850
280.97	31.313
281.34	28.269
281.71	29.979
282.08	24.744
282.45	26.027
282.82	26.448
283.19	28.046
283.56	27.168
283.92	25.617
284.29	25.192
284.66	25.581
285.03	25.933
285.40	25.331
285.77	26.538
286.14	26.534
286.51	27.122
286.87	27.605
287.24	27.072
287.61	26.279
287.98	25.614
288.35	25.650
288.72	25.394
289.08	23.958
289.45	25.308
289.82	25.000
290.19	24.744
290.56	24.357
290.93	25.589
291.29	23.575
291.66	25.512
292.03	24.083
292.40	23.871
292.77	22.807
293.13	19.968
293.50	21.244
293.87	22.290
294.24	22.257
294.60	22.206
294.97	22.768
295.34	19.325
295.71	21.013
296.08	23.019
296.44	21.195
296.81	20.972
297.18	22.174
297.55	22.222
297.91	20.411
298.28	22.559
298.65	18.725
299.02	21.024
299.38	18.878
299.75	20.552
300.12	19.372
300.48	20.685
300.85	19.392
301.22	19.221
301.59	19.737
301.95	20.127
302.32	20.233
302.69	19.776
303.05	19.183
303.42	18.804
303.79	19.393
304.15	20.550
304.52	19.382
304.89	17.544
305.25	18.886
305.62	17.386
305.99	18.713
306.35	19.306
306.72	17.885
307.09	18.814
307.45	18.485
307.82	19.329
308.19	20.093
308.55	19.738
308.92	19.935
309.29	18.994
309.65	18.515
310.02	17.932
310.38	18.880
310.75	19.344
311.12	17.653
311.48	17.285
311.85	17.696
312.22	17.511
312.58	17.516
312.95	17.823
313.31	17.598
313.68	18.115
314.05	17.959
314.41	17.526
314.78	18.866
315.14	19.836
315.51	19.358
315.87	19.057
316.24	20.728
316.61	20.177
316.97	19.643
317.34	19.238
317.70	20.650
318.07	18.365
318.43	20.588
318.80	18.466
319.16	20.020
319.53	19.658
319.89	19.587
320.26	19.939
320.62	20.863
320.99	18.894
321.35	20.966
321.72	22.015
322.08	22.256
322.45	23.959
322.81	23.281
323.18	22.375
323.54	22.587
323.91	23.369
324.27	23.633
324.64	24.438
325.00	22.719
325.37	24.518
325.73	23.663
326.10	24.614
326.46	26.637
326.83	25.284
327.19	25.981
327.56	25.630
327.92	26.761
328.29	25.893
328.65	25.755
329.01	26.195
329.38	28.018
329.74	28.045
330.11	27.804
330.47	26.623
330.84	27.212
331.20	29.183
331.56	29.167
331.93	29.406
332.29	29.056
332.66	28.326
333.02	28.439
333.38	29.056
333.75	28.297
334.11	29.991
334.48	31.097
334.84	30.861
335.20	28.637
335.57	30.372
335.93	29.539
336.29	28.821
336.66	29.973
337.02	28.996
337.38	29.259
337.75	28.909
338.11	30.929
338.47	30.474
338.84	30.776
339.20	29.707
339.56	30.642
339.93	30.260
340.29	31.376
340.65	29.928
341.02	31.117
341.38	30.619
341.74	28.975
342.11	28.683
342.47	31.317
342.83	32.266
343.20	31.185
343.56	30.087
343.92	30.647
344.28	31.085
344.65	30.656
345.01	30.856
345.37	28.764
345.73	31.213
346.10	31.406
346.46	31.960
346.82	30.687
347.19	29.426
347.55	30.911
347.91	30.259
348.27	31.285
348.63	30.750
349.00	30.927
349.36	30.507
349.72	31.343
350.08	32.377
350.45	30.088
350.81	31.229
351.17	30.619
351.53	31.429
351.89	30.718
352.26	30.080
352.62	31.613
352.98	29.558
353.34	30.274
353.70	31.634
354.07	30.161
354.43	31.785
354.79	31.214
355.15	31.587
355.51	32.437
355.87	31.392
356.24	29.772
356.60	30.962
356.96	30.794
357.32	31.070
357.68	31.118
358.04	29.968
358.40	30.788
358.77	30.223
359.13	30.184
359.49	29.969
359.85	31.201
360.21	30.223
360.57	30.069
360.93	31.694
361.29	30.816
361.66	31.113
362.02	31.970
362.38	31.302
362.74	31.945
363.10	31.678
363.46	32.839
363.82	33.434
364.18	32.177
364.54	31.691
364.90	30.681
365.26	31.659
365.62	32.847
365.98	31.378
366.35	32.629
366.71	32.520
367.07	32.366
367.43	30.913
367.79	32.367
368.15	31.228
368.51	31.974
368.87	31.371
369.23	31.047
369.59	32.143
369.95	32.918
370.31	32.948
370.67	31.716
371.03	31.516
371.39	31.145
371.75	31.355
372.11	31.669
372.47	32.618
372.83	32.150
373.19	32.382
373.55	30.903
373.91	32.325
374.27	31.963
374.63	31.874
374.99	32.199
375.35	33.008
375.71	34.685
376.07	32.514
376.42	32.653
376.78	32.819
377.14	31.889
377.50	33.134
377.86	34.806
378.22	33.886
378.58	33.077
378.94	32.325
379.30	33.188
379.66	34.169
380.02	32.863
380.38	32.806
380.74	32.735
381.09	33.497
381.45	33.394
381.81	32.819
382.17	32.931
382.53	33.229
382.89	33.082
383.25	33.603
383.61	32.927
383.97	32.635
384.32	33.083
384.68	33.375
385.04	33.333
385.40	33.105
385.76	33.836
386.12	35.123
386.48	34.674
386.83	34.559
387.19	34.005
387.55	34.003
387.91	33.985
388.27	33.211
388.62	33.480
388.98	33.640
389.34	34.541
389.70	34.866
390.06	33.417
390.42	33.225
390.77	34.532
391.13	33.354
391.49	34.541
391.85	34.178
392.20	33.773
392.56	34.774
392.92	33.823
393.28	34.611
393.64	35.195
393.99	35.925
394.35	34.535
394.71	34.802
395.07	33.815
395.42	33.333
395.78	34.332
396.14	34.805
396.50	35.003
396.85	35.029
397.21	35.150
397.57	35.298
397.92	33.613
398.28	34.828
398.64	32.711
399.00	35.158
399.35	33.860
399.71	34.348
400.07	35.611
400.42	35.312
400.78	34.538
401.14	34.120
401.49	34.723
401.85	34.857
402.21	34.699
402.57	36.438
402.92	34.755
403.28	34.586
403.63	35.183
403.99	34.439
404.35	35.353
404.70	33.571
405.06	34.430
405.42	33.623
405.77	34.805
406.13	34.342
406.49	34.873
406.84	35.330
407.20	35.581
407.55	33.741
407.91	34.024
408.27	34.226
408.62	35.323
408.98	34.812
409.34	35.626
409.69	34.561
410.05	34.052
410.40	34.691
410.76	34.017
411.11	34.312
411.47	34.845
411.83	34.212
412.18	34.749
412.54	35.081
412.89	33.436
413.25	35.078
413.60	33.602
413.96	34.294
414.31	34.878
414.67	35.022
415.03	34.820
415.38	33.812
415.74	35.700
416.09	34.422
416.45	35.246
416.80	33.774
417.16	35.497
417.51	34.510
417.87	34.550
418.22	36.075
418.58	35.585
418.93	34.859
419.29	34.059
419.64	34.802
420.00	35.202
420.35	33.612
420.71	34.812
421.06	34.807
421.42	34.435
421.77	35.434
422.12	35.585
422.48	34.867
422.83	34.629
423.19	34.989
423.54	34.098
423.90	34.099
424.25	35.017
424.61	36.353
424.96	35.075
425.31	34.893
425.67	35.739
426.02	35.630
426.38	36.381
426.73	35.593
427.09	35.823
427.44	35.412
427.79	35.003
428.15	35.194
428.50	34.525
428.85	34.214
429.21	35.993
429.56	35.040
429.92	35.799
430.27	34.887
430.62	34.135
430.98	35.138
431.33	35.331
431.68	34.328
432.04	36.389
432.39	34.626
432.74	34.576
433.10	35.747
433.45	34.110
433.80	34.939
434.16	34.072
434.51	35.376
434.86	35.598
435.22	36.175
435.57	35.496
435.92	36.886
436.28	34.824
436.63	34.683
436.98	34.762
437.34	36.177
437.69	36.673
438.04	35.328
438.39	35.370
438.75	35.883
439.10	35.257
439.45	36.153
439.81	35.474
440.16	37.173
440.51	36.657
440.86	38.308
441.22	35.747
441.57	36.148
441.92	36.779
442.27	36.364
442.63	37.580
442.98	36.646
443.33	36.004
443.68	36.552
444.03	36.811
444.39	37.186
444.74	36.845
445.09	38.307
445.44	38.917
445.79	38.267
446.15	36.894
446.50	37.271
446.85	37.513
447.20	37.122
447.55	38.560
447.91	38.184
448.26	37.735
448.61	38.400
448.96	38.325
449.31	38.324
449.66	38.269
450.02	37.878
450.37	38.826
450.72	38.946
451.07	38.671
451.42	37.578
451.77	38.939
452.12	37.978
452.47	37.733
452.83	39.105
453.18	39.152
453.53	39.128
453.88	39.405
454.23	39.090
454.58	40.113
454.93	39.691
455.28	37.651
455.63	38.066
455.98	38.966
456.34	38.825
456.69	39.517
457.04	39.509
457.39	39.368
457.74	39.601
458.09	38.258
458.44	39.087
458.79	38.880
459.14	39.817
459.49	38.925
459.84	39.425
460.19	40.231
460.54	40.342
460.89	39.716
461.24	39.565
461.59	39.430
461.94	38.931
462.29	40.109
462.64	39.668
462.99	39.946
463.34	40.195
463.69	40.090
464.04	40.073
464.39	39.903
464.74	39.755
465.09	40.299
465.44	39.354
465.79	39.286
466.14	40.479
466.49	38.873
466.84	39.857
467.19	40.551
467.54	39.911
467.89	39.672
468.24	39.964
468.59	41.206
468.94	39.619
469.29	39.738
469.64	40.875
469.99	40.785
470.34	40.137
470.68	41.387
471.03	40.552
471.38	41.013
471.73	42.157
472.08	40.434
472.43	40.872
472.78	40.781
473.13	40.680
473.48	39.805
473.83	40.909
474.17	41.969
474.52	40.204
474.87	40.909
475.22	40.574
475.57	39.752
475.92	41.690
476.27	42.142
476.61	41.435
476.96	41.049
477.31	41.644
477.66	41.685
478.01	41.157
478.36	40.414
478.70	41.707
479.05	41.429
479.40	41.653
479.75	40.250
480.10	41.270
480.45	40.700
480.79	41.742
481.14	41.393
481.49	41.626
481.84	41.506
482.19	40.645
482.53	41.535
482.88	40.764
483.23	40.499
483.58	40.425
483.92	40.949
484.27	40.428
484.62	40.879
484.97	40.796
485.31	38.981
485.66	37.507
486.01	38.617
486.36	37.924
486.70	38.973
487.05	40.027
487.40	39.685
487.75	40.310
488.09	39.957
488.44	40.646
488.79	40.979
489.13	41.186
489.48	41.129
489.83	41.076
490.17	40.584
490.52	41.709
490.87	40.259
491.22	42.359
491.56	40.702
491.91	41.205
492.26	42.489
492.60	41.219
492.95	42.892
493.30	40.791
493.64	42.534
493.99	41.353
494.34	41.165
494.68	41.190
495.03	40.973
495.37	42.100
495.72	42.605
496.07	42.390
496.41	41.368
496.76	41.363
497.11	40.801
497.45	42.959
497.80	43.290
498.14	42.971
498.49	41.595
498.84	41.317
499.18	42.018
499.53	41.865
499.87	41.877
500.22	42.483
500.56	42.461
500.91	42.570
501.26	42.017
501.60	41.761
501.95	42.892
502.29	42.131
502.64	42.664
502.98	43.118
503.33	42.507
503.67	41.831
504.02	42.082
504.36	42.207
504.71	41.313
505.06	42.325
505.40	41.980
505.75	42.732
506.09	43.183
506.44	44.097
506.78	42.857
507.13	43.485
507.47	41.828
507.82	42.895
508.16	43.370
508.51	42.655
508.85	43.014
509.19	43.427
509.54	43.324
509.88	43.581
510.23	44.164
510.57	43.560
510.92	41.311
511.26	43.699
511.61	44.059
511.95	44.219
512.30	44.069
512.64	43.072
512.98	43.683
513.33	44.320
513.67	43.832
514.02	46.281
514.36	45.657
514.70	45.105
515.05	45.182
515.39	45.750
515.74	45.569
516.08	45.906
516.42	44.346
516.77	45.933
517.11	46.172
517.46	46.260
517.80	46.186
518.14	45.560
518.49	45.853
518.83	46.294
519.17	43.481
519.52	44.819
519.86	45.858
520.20	46.416
520.55	44.966
520.89	46.299
521.23	47.055
521.58	47.319
521.92	46.603
522.26	46.584
522.61	46.948
522.95	47.483
523.29	46.506
523.64	47.903
523.98	46.727
524.32	46.972
524.66	46.351
525.01	47.208
525.35	45.431
525.69	46.801
526.04	46.230
526.38	48.119
526.72	47.024
527.06	47.406
527.41	48.087
527.75	46.314
528.09	45.847
528.43	49.021
528.78	46.601
529.12	46.452
529.46	46.264
529.80	46.105
530.15	46.931
530.49	46.599
530.83	46.785
531.17	47.011
531.51	46.238
531.86	47.111
532.20	45.372
532.54	47.583
532.88	47.502
533.22	47.715
533.57	46.265
533.91	46.867
534.25	48.047
534.59	46.055
534.93	46.381
535.27	46.827
535.62	46.144
535.96	47.228
536.30	46.042
536.64	46.864
536.98	47.108
537.32	47.013
537.66	47.546
538.01	47.133
538.35	46.810
538.69	46.605
539.03	45.455
539.37	46.972
539.71	46.012
540.05	46.300
540.39	46.537
540.73	48.815
541.07	47.030
541.42	46.976
541.76	46.662
542.10	46.249
542.44	46.213
542.78	45.492
543.12	44.918
543.46	47.288
543.80	46.912
544.14	45.794
544.48	46.302
544.82	46.685
545.16	46.380
545.50	45.327
545.84	47.167
546.18	46.738
546.52	46.431
546.86	46.441
547.20	46.280
547.54	46.714
547.88	46.128
548.22	43.918
548.56	45.646
548.90	45.620
549.24	44.835
549.58	46.615
549.92	45.818
550.26	45.714
550.60	47.138
550.94	46.826
551.28	45.286
551.62	47.077
551.96	46.992
552.30	46.272
552.64	45.487
552.98	45.288
553.32	45.435
553.66	46.299
554.00	46.569
554.34	46.233
554.68	45.870
555.02	46.131
555.36	46.298
555.69	46.081
556.03	46.253
556.37	46.263
556.71	47.437
557.05	47.651
557.39	45.874
557.73	47.151
558.07	46.983
558.41	45.559
558.75	47.233
559.08	46.651
559.42	47.937
559.76	47.958
560.10	46.177
560.44	45.570
560.78	45.874
561.12	45.628
561.45	47.013
561.79	46.148
562.13	46.061
562.47	45.612
562.81	44.813
563.15	45.910
563.48	46.181
563.82	45.985
564.16	45.961
564.50	44.392
564.84	44.779
565.17	44.668
565.51	46.311
565.85	45.610
566.19	46.485
566.52	45.576
566.86	46.144
567.20	45.143
567.54	45.681
567.88	45.518
568.21	45.814
568.55	43.913
568.89	45.380
569.23	44.102
569.56	43.958
569.90	43.524
570.24	42.240
570.57	42.873
570.91	41.861
571.25	41.236
571.59	41.358
571.92	40.533
572.26	41.123
572.60	40.682
572.93	41.042
573.27	40.721
573.61	40.513
573.95	40.497
574.28	40.731
574.62	40.325
574.96	39.691
575.29	40.232
575.63	39.544
575.97	39.875
576.30	40.568
576.64	39.285
576.98	40.309
577.31	40.796
577.65	39.931
577.98	39.222
578.32	39.187
578.66	38.964
578.99	39.799
579.33	39.870
579.67	39.087
580.00	39.924
580.34	40.124
580.67	39.763
581.01	40.058
581.35	39.126
581.68	38.536
582.02	39.659
582.35	38.904
582.69	40.066
583.02	39.778
583.36	39.721
583.70	41.329
584.03	40.840
584.37	41.700
584.70	40.192
585.04	39.171
585.37	39.484
585.71	39.496
586.04	39.889
586.38	39.370
586.72	39.455
587.05	40.728
587.39	40.006
587.72	40.705
588.06	40.299
588.39	40.815
588.73	40.598
589.06	40.574
589.40	41.445
589.73	41.621
590.07	41.579
590.40	41.254
590.73	42.834
591.07	42.239
591.40	41.897
591.74	42.398
592.07	42.161
592.41	41.873
592.74	40.263
593.08	38.561
593.41	40.033
593.75	39.189
594.08	39.787
594.41	40.320
594.75	40.305
595.08	40.598
595.42	41.112
595.75	41.269
596.09	41.595
596.42	41.587
596.75	41.563
597.09	41.276
597.42	41.554
597.75	41.136
598.09	40.516
598.42	41.471
598.76	40.583
599.09	40.224
599.42	38.992
599.76	39.804
600.09	40.121
600.42	40.637
600.76	38.893
601.09	38.969
601.42	40.227
601.76	41.127
602.09	40.429
602.42	41.070
602.76	41.214
603.09	42.068
603.42	40.970
603.76	40.484
604.09	40.178
604.42	40.821
604.76	42.279
605.09	41.316
605.42	41.129
605.75	40.849
606.09	40.382
606.42	40.742
606.75	39.827
607.09	40.484
607.42	39.920
607.75	41.163
608.08	39.937
608.42	40.612
608.75	41.735
609.08	41.654
609.41	41.117
609.75	40.373
610.08	41.238
610.41	40.386
610.74	39.785
611.07	41.292
611.41	40.893
611.74	42.537
612.07	40.953
612.40	41.083
612.73	40.904
613.07	41.395
613.40	41.685
613.73	40.515
614.06	42.293
614.39	41.173
614.72	41.008
615.06	39.832
615.39	40.229
615.72	40.258
616.05	41.788
616.38	39.829
616.71	41.468
617.05	41.754
617.38	40.981
617.71	42.327
618.04	42.730
618.37	41.992
618.70	42.772
619.03	42.639
619.36	42.764
619.69	43.366
620.03	43.462
620.36	43.419
620.69	42.113
621.02	42.125
621.35	44.813
621.68	44.643
622.01	43.917
622.34	42.698
622.67	43.060
623.00	42.956
623.33	41.768
623.66	42.259
623.99	41.831
624.32	42.433
624.65	41.955
624.99	42.739
625.32	41.850
625.65	44.305
625.98	43.674
626.31	41.978
626.64	44.281
626.97	45.288
627.30	45.009
627.63	43.414
627.96	44.025
628.29	44.126
628.62	44.346
628.95	44.589
629.28	44.657
629.61	44.666
629.94	47.214
630.26	44.565
630.59	45.161
630.92	45.231
631.25	44.103
631.58	44.934
631.91	45.066
632.24	45.872
632.57	45.795
632.90	45.789
633.23	44.235
633.56	45.214
633.89	45.869
634.22	46.049
634.55	45.235
634.88	45.211
635.20	46.026
635.53	46.133
635.86	46.294
636.19	46.442
636.52	45.663
636.85	46.278
637.18	44.025
637.51	45.660
637.83	45.466
638.16	47.067
638.49	46.866
638.82	47.368
639.15	46.404
639.48	46.630
639.81	45.467
640.13	46.032
640.46	46.793
640.79	46.244
641.12	44.461
641.45	45.796
641.77	45.481
642.10	48.657
642.43	46.302
642.76	48.020
643.09	47.819
643.41	45.307
643.74	45.799
644.07	48.440
644.40	47.466
644.73	45.184
645.05	46.644
645.38	45.150
645.71	47.163
646.04	49.372
646.36	48.759
646.69	49.281
647.02	47.637
647.35	47.575
647.67	45.887
648.00	48.881
648.33	48.976
648.66	45.932
648.98	42.881
649.31	45.455
649.64	45.526
649.96	42.301
650.29	45.826
650.62	47.179
650.94	47.778
651.27	46.927
651.60	45.946
651.92	45.804
652.25	43.162
652.58	43.000
652.90	48.027
653.23	46.555
653.56	44.839
653.88	44.674
654.21	43.257
654.54	44.652
654.86	44.652
655.19	43.860
655.52	41.331
655.84	34.057
656.17	36.924
656.49	49.710
656.82	52.606
657.15	41.007
657.47	31.113
657.80	23.211
658.13	23.194
658.45	36.543
658.78	37.204
659.10	36.700
659.43	37.722
659.75	39.023
660.08	39.379
660.41	42.084
660.73	43.646
661.06	46.447
661.38	44.227
661.71	44.148
662.03	48.927
662.36	47.033
662.68	48.673
663.01	48.035
663.33	50.348
663.66	47.442
663.98	47.907
664.31	46.055
664.63	43.779
664.96	45.000
665.28	42.605
665.61	46.104
665.93	48.043
666.26	44.685
666.58	42.282
666.91	46.118
667.23	45.519
667.56	49.289
667.88	48.441
668.21	46.062
668.53	47.281
668.86	45.283
669.18	44.104
669.50	42.857
669.83	42.326
670.15	44.522
670.48	43.780
670.80	44.700
671.13	43.848
671.45	39.954
671.77	44.206
672.10	40.594
672.42	42.509
672.75	42.806
673.07	43.470
673.39	43.486
673.72	40.237
674.04	42.708
674.37	45.551
674.69	41.970
675.01	45.333
675.34	43.018
675.66	45.370
675.98	41.463
676.31	45.413
676.63	42.043
676.95	40.455
677.28	46.353
677.60	48.434
677.92	41.972
678.25	40.919
678.57	42.641
678.89	42.857
679.22	42.282
679.54	41.566
679.86	39.960
680.18	42.330
680.51	40.152
680.83	40.954
681.15	39.200
681.48	44.672
681.80	43.802
682.12	42.339
682.44	39.121
682.77	40.618
683.09	44.394
683.41	41.364
683.73	41.475
684.06	43.584
684.38	40.430
684.70	42.048
685.02	40.456
685.34	38.735
685.67	40.713
685.99	41.410
686.31	38.938
686.63	38.033
686.96	37.452
687.28	39.596
687.60	38.593
687.92	43.434
688.24	39.718
688.56	42.795
688.89	39.955
689.21	39.778
689.53	38.051
689.85	38.605
690.17	44.196
690.49	43.499
690.82	40.291
691.14	39.286
691.46	43.692
691.78	39.189
692.10	40.430
692.42	38.745
692.74	38.675
693.06	39.640
693.39	36.425
693.71	34.842
694.03	39.723
694.35	39.720
694.67	40.909
694.99	40.731
695.31	41.775
695.63	41.250
695.95	37.626
696.27	40.415
696.59	40.556
696.91	37.255
697.23	41.131
697.56	41.337
697.88	41.075
698.20	38.497
698.52	34.824
698.84	38.038
699.16	40.500
699.48	43.108
699.80	39.206
700.12	41.509
700.44	40.056
700.76	39.535
701.08	42.121
701.40	37.048
701.72	41.049
702.04	39.604
702.36	41.137
702.68	41.742
703.00	39.394
703.32	38.123
703.64	38.418
703.96	40.580
704.28	38.037
704.60	40.952
704.91	36.909
705.23	39.203
705.55	41.343
705.87	40.072
706.19	44.074
706.51	39.519
706.83	41.479
707.15	36.449
707.47	35.854
707.79	35.677
708.11	39.250
708.43	38.500
708.74	39.535
709.06	38.028
709.38	38.226
709.70	40.533
710.02	38.854
710.34	36.842
710.66	35.897
710.98	36.093
711.29	38.689
711.61	39.322
711.93	39.739
712.25	39.519
712.57	40.659
712.89	36.940
713.20	42.215
713.52	39.024
713.84	41.980
714.16	36.082
714.48	38.065
714.80	36.538
715.11	36.474
715.43	39.498
715.75	36.333
716.07	34.884
716.39	38.926
716.70	37.638
717.02	38.550
717.34	39.271
717.66	33.186
717.97	34.783
718.29	41.004
718.61	40.157
718.93	37.209
719.24	40.304
719.56	40.964
719.88	36.082
720.20	40.530
720.51	33.716
720.83	35.135
721.15	38.235
721.46	37.500
721.78	35.573
722.10	35.688
722.42	34.440
722.73	35.510
723.05	42.041
723.37	43.644
723.68	42.793
724.00	35.897
724.32	31.111
724.63	30.909
724.95	37.555
725.27	35.945
725.58	36.441
725.90	35.714
726.22	39.382
726.53	39.661
726.85	40.075
727.16	41.509
727.48	33.603
727.80	37.652
728.11	35.593
728.43	37.647
728.74	29.032
729.06	37.200
729.38	40.226
729.69	33.466
730.01	30.000
730.32	36.567
730.64	35.689
730.96	35.472
731.27	30.667
731.59	34.915
731.90	33.121
732.22	35.016
732.53	37.542
732.85	34.752
733.16	32.660
733.48	29.856
733.80	34.420
734.11	31.864
734.43	39.175
734.74	32.727
735.06	33.876
735.37	33.837
735.69	32.660
736.00	35.192
736.32	34.899
736.63	34.507
736.95	36.519
737.26	30.249
737.58	34.899
737.89	34.799
738.21	37.594
738.52	35.391
738.83	35.371
739.15	31.004
739.46	37.402
739.78	33.333
740.09	32.353
740.41	32.246
740.72	37.402
741.04	36.842
741.35	37.872
741.66	34.597
741.98	32.653
742.29	40.099
742.61	38.743
742.92	34.123
743.23	28.241
743.55	37.557
743.86	40.670
744.18	33.014
744.49	30.319
744.80	33.696
745.12	41.176
745.43	32.195
745.74	41.146
746.06	33.659
746.37	29.319
746.68	33.649
747.00	31.915
747.31	39.801
747.62	33.981
747.94	28.708
748.25	31.683
748.56	39.344
748.88	36.649
749.19	36.170
749.50	34.483
749.82	35.377
750.13	35.321
750.44	33.835
750.75	33.955
751.07	36.131
751.38	33.333
751.69	31.373
752.01	33.721
752.32	30.279
752.63	30.830
752.94	34.052
753.26	41.841
753.57	32.127
753.88	33.628
754.19	29.583
754.51	28.926
754.82	33.603
755.13	36.667
755.44	31.048
755.75	34.766
756.07	32.296
756.38	30.566
756.69	30.651
757.00	32.667
757.31	31.046
757.63	30.793
757.94	31.389
758.25	27.945
758.56	30.585
758.87	29.178
759.18	29.595
759.50	29.818
759.81	36.455
760.12	33.871
760.43	33.030
760.74	30.864
761.05	29.846
761.36	29.830
761.67	36.061
761.99	32.993
762.30	30.909
762.61	34.387
762.92	28.054
763.23	36.486
763.54	31.308
763.85	32.627
764.16	33.610
764.47	34.274
764.78	33.700
765.10	30.640
765.41	30.599
765.72	28.254
766.03	27.068
766.34	30.657
766.65	37.450
766.96	33.333
767.27	30.851
767.58	32.759
767.89	31.206
768.20	22.159
768.51	33.516
768.82	33.005
769.13	30.876
769.44	27.039
769.75	26.484
770.06	28.879
770.37	31.731
770.68	33.503
770.99	29.864
771.30	31.373
771.61	30.769
771.92	36.638
772.23	28.571
772.54	34.409
772.85	31.481
773.16	28.652
773.47	32.680
773.78	35.294
774.09	30.539
774.39	30.667
774.70	29.936
775.01	40.690
775.32	32.857
775.63	29.752
775.94	29.008
776.25	33.071
776.56	25.833
776.87	29.808
777.18	32.479
777.48	31.034
777.79	26.957
778.10	17.143
778.41	26.126
778.72	30.952
779.03	35.338
779.34	27.660
779.65	35.616
779.95	34.247
780.26	35.862
780.57	31.707
780.88	30.709
781.19	35.345
781.50	36.434
781.80	29.586
782.11	23.899
782.42	37.692
782.73	24.460
783.04	27.407
783.34	16.667
783.65	16.239
783.96	31.967
784.27	28.276
784.57	26.016
784.88	31.250
785.19	37.000
785.50	40.000
785.81	30.172
786.11	27.586
786.42	24.272
786.73	39.091
787.04	26.531
787.34	25.893
787.65	33.333
787.96	24.779
788.26	23.636
788.57	28.205
788.88	27.344
789.19	25.397
789.49	34.783
789.80	26.531
790.11	23.232
790.41	24.545
790.72	31.522
791.03	27.273
791.33	33.750
791.64	21.250
791.95	32.558
792.25	24.468
792.56	34.831
792.87	34.247
793.17	26.087
793.48	17.333
793.79	17.500
794.09	28.750
794.40	14.151
794.70	23.301
795.01	19.512
795.32	23.932
795.62	29.524
795.93	32.353
796.23	17.925
796.54	32.292
796.85	16.176
797.15	26.761
797.46	38.889
797.76	22.727
798.07	26.744
798.37	26.316
798.68	7.576
798.99	28.395
799.29	25.714
799.60	18.841
799.90	16.000
800.21	26.230
800.51	26.154
800.82	18.644
801.12	30.435
801.43	37.705
801.73	34.921
802.04	22.000
802.34	19.403
802.65	32.692
802.95	19.643
803.26	19.231
803.56	23.529
803.87	17.391
804.17	28.000
804.48	39.683
804.78	20.370
805.09	8.696
805.39	-4.444
805.70	20.370
806.00	19.298
806.30	23.944
806.61	38.571
806.91	-4.167
807.22	27.632
807.52	40.000
807.83	16.364
808.13	16.667
808.43	33.824
808.74	16.418
809.04	25.424
809.35	-1.923
809.65	35.938
809.95	16.216
810.26	18.182
810.56	12.329
810.86	2.381
811.17	30.000
811.47	18.367
811.77	-26.316
812.08	20.455
812.38	28.302
812.69	0.000
812.99	9.091
813.29	23.684
813.59	-2.857
813.90	15.909
814.20	23.077
814.50	28.846
814.81	35.849
815.11	8.511
815.41	23.729
815.72	23.810
816.02	27.451
816.32	27.083
816.62	9.756
816.93	8.108
817.23	5.714
817.53	39.583
817.84	23.913
818.14	11.538
818.44	0.000
818.74	54.348
819.04	17.500
819.35	18.919
819.65	2.941
819.95	5.556
820.25	21.429
820.56	25.000
820.86	-44.828
821.16	40.000
821.46	21.277
821.76	12.500
822.07	9.302
822.37	-13.514
822.67	12.500
822.97	30.952
823.27	3.571
823.57	-24.000
823.88	18.519
824.18	-3.571
824.48	-2.941
824.78	12.903
825.08	8.696
825.38	45.455
825.69	-16.667
825.99	15.789
826.29	25.000
826.59	33.333
826.89	0.000
827.19	43.478
827.49	0.000
827.79	37.143
828.09	7.143
828.39	36.364
828.70	72.973
829.00	10.714
829.30	0.000
829.60	26.667
829.90	31.250
830.20	15.789
830.50	-29.630
830.80	-39.130
831.10	0.000
831.40	63.636
831.70	22.581
832.00	47.619
832.30	-23.810
832.60	33.333
832.90	31.034
833.20	-5.000
833.50	30.303
833.80	14.815
834.10	15.385
834.40	3.125
834.70	44.444
835.00	-31.579
835.30	73.077
835.60	33.333
835.90	-3.226
836.20	40.909
836.50	25.000
836.80	-30.769
837.10	-10.714
837.40	133.333
837.70	-18.182
838.00	-90.909
838.30	34.783
838.60	-53.846
838.90	-18.182
839.19	3.571
839.49	53.333
839.79	-15.385
840.09	-58.333
840.39	42.857
840.69	-7.143
840.99	-15.385
841.29	-78.947
841.59	-90.000
841.88	-9.091
842.18	10.000
842.48	25.000
842.78	-46.667
843.08	25.926
843.38	-110.000
843.68	30.435
843.97	-26.667
844.27	-33.333
844.57	15.000
844.87	-5.556
845.17	47.619
845.47	53.333
845.76	-23.810
846.06	-5.882
846.36	30.000
846.66	-71.429
846.96	-6.667
847.25	-112.500
847.55	28.571
847.85	12.500
848.15	9.091
848.44	-600.000
848.74	15.000
849.04	55.556
849.34	-9.091
849.63	33.333
849.93	-140.000
850.23	33.333
850.53	60.000
850.82	-30.769
851.12	-122.222
851.42	106.667
851.71	-7.692
852.01	-14.286
852.31	0.000
852.61	0.000
852.90	5.000
853.20	5.263
853.50	-66.667
853.79	8.696
854.09	70.833
854.39	-10.526
854.68	16.667
854.98	25.806
855.28	38.462
855.57	0.000
855.87	22.222
856.17	29.630
856.46	14.286
856.76	-46.667
857.05	44.444
857.35	28.000
857.65	0.000
857.94	-53.846
858.24	24.138
858.53	50.000
858.83	-3.704
859.13	45.455
859.42	-13.043
859.72	-125.000
860.01	-266.667
860.31	20.000
860.60	-4.762
860.90	-266.667
861.20	-93.333
861.49	-1000.000
861.79	-46.667
862.08	10.000
862.38	93.333
862.67	-260.000
862.97	-100.000
863.26	0.000
863.56	-16.667
863.85	-266.667
864.15	0.000
864.44	-90.000
864.74	100.000
865.03	175.000
865.33	-80.000
865.62	133.333
865.92	8.333
866.21	-200.000
866.51	0.000
866.80	-36.364
867.10	-150.000
867.39	41.667
867.69	0.000
867.98	-15.385
868.27	-66.667
868.57	53.333
868.86	22.222
869.16	-61.538
869.45	-6.667
869.75	-900.000
870.04	0.000
870.33	-28.571
870.63	-19.048
870.92	600.000
871.22	-320.000
871.51	-200.000
871.80	-44.444
872.10	100.000
>>>>>End Processed Spectral Data<<<<<
