SpectraSuite Data File
++++++++++++++++++++++++++++++++++++
Date: Fri May 15 20:52:34 PDT 2015
User: schluterlab
Dark Spectrum Present: Yes
Reference Spectrum Present: Yes
Number of Sampled Component Spectra: 1
Spectrometers: USB2E3373
Integration Time (usec): 3000 (USB2E3373)
Spectra Averaged: 3 (USB2E3373)
Boxcar Smoothing: 0 (USB2E3373)
Correct for Electrical Dark: No (USB2E3373)
Strobe/Lamp Enabled: No (USB2E3373)
Correct for Detector Non-linearity: No (USB2E3373)
Correct for Stray Light: No (USB2E3373)
Number of Pixels in Processed Spectrum: 2048
>>>>>Begin Processed Spectral Data<<<<<
178.53	0.000
178.91	0.000
179.29	62.500
179.67	-300.000
180.04	-71.429
180.42	50.000
180.80	-700.000
181.18	200.000
181.56	500.000
181.94	0.000
182.31	1400.000
182.69	-80.000
183.07	-66.667
183.45	-80.000
183.83	33.333
184.20	-9.091
184.58	133.333
184.96	175.000
185.34	33.333
185.72	0.000
186.09	30.769
186.47	-300.000
186.85	-16.667
187.23	233.333
187.61	-600.000
187.98	-400.000
188.36	88.889
188.74	133.333
189.12	35.294
189.49	55.556
189.87	0.000
190.25	21.429
190.63	400.000
191.00	-133.333
191.38	47.368
191.76	300.000
192.14	-25.000
192.51	350.000
192.89	-66.667
193.27	-171.429
193.65	133.333
194.02	18.182
194.40	-40.000
194.78	-112.500
195.15	33.333
195.53	-25.000
195.91	275.000
196.29	-250.000
196.66	76.923
197.04	142.857
197.42	-11.111
197.79	-466.667
198.17	-130.769
198.55	1700.000
198.92	-166.667
199.30	-700.000
199.68	-40.000
200.05	-266.667
200.43	0.000
200.81	33.333
201.18	100.000
201.56	1100.000
201.94	50.000
202.31	166.667
202.69	-100.000
203.07	50.000
203.44	300.000
203.82	0.000
204.19	50.000
204.57	-566.667
204.95	112.500
205.32	20.000
205.70	-14.286
206.08	75.000
206.45	166.667
206.83	64.286
207.20	-100.000
207.58	800.000
207.96	-266.667
208.33	-160.000
208.71	-275.000
209.08	-133.333
209.46	-500.000
209.84	-340.000
210.21	-600.000
210.59	85.714
210.96	50.000
211.34	-50.000
211.71	-6.667
212.09	-57.143
212.46	-600.000
212.84	0.000
213.22	60.000
213.59	-150.000
213.97	92.308
214.34	18.182
214.72	-233.333
215.09	350.000
215.47	30.769
215.84	-27.273
216.22	-233.333
216.59	-50.000
216.97	250.000
217.34	25.000
217.72	-60.000
218.09	37.500
218.47	137.500
218.84	-1400.000
219.22	-111.111
219.59	-100.000
219.97	300.000
220.34	250.000
220.72	-28.571
221.09	-150.000
221.47	1000.000
221.84	-300.000
222.22	-550.000
222.59	63.636
222.97	0.000
223.34	-233.333
223.72	14.286
224.09	19.048
224.46	17.857
224.84	733.333
225.21	-50.000
225.59	6.667
225.96	-150.000
226.34	25.000
226.71	100.000
227.08	-116.667
227.46	25.000
227.83	-450.000
228.21	66.667
228.58	0.000
228.95	-162.500
229.33	10.000
229.70	18.750
230.08	-62.500
230.45	-57.143
230.82	14.286
231.20	-6.667
231.57	35.714
231.95	0.000
232.32	-100.000
232.69	21.429
233.07	-66.667
233.44	-60.000
233.81	-50.000
234.19	111.111
234.56	-11.765
234.93	750.000
235.31	175.000
235.68	-180.000
236.05	-53.846
236.43	5.000
236.80	-5.882
237.17	37.500
237.55	15.000
237.92	0.000
238.29	22.222
238.67	23.333
239.04	17.647
239.41	-14.634
239.79	3.333
240.16	39.024
240.53	31.579
240.91	30.435
241.28	22.222
241.65	14.286
242.02	39.726
242.40	20.000
242.77	33.898
243.14	12.121
243.51	31.250
243.89	37.931
244.26	27.586
244.63	19.048
245.00	27.835
245.38	38.144
245.75	19.101
246.12	26.724
246.49	25.620
246.87	25.962
247.24	32.773
247.61	28.070
247.98	32.520
248.36	24.375
248.73	37.500
249.10	27.273
249.47	32.278
249.84	30.719
250.22	25.882
250.59	33.333
250.96	40.376
251.33	31.395
251.70	34.706
252.08	33.503
252.45	32.178
252.82	35.176
253.19	32.258
253.56	27.570
253.94	39.189
254.31	29.565
254.68	37.281
255.05	29.921
255.42	37.118
255.79	32.819
256.16	33.852
256.54	32.090
256.91	33.080
257.28	29.740
257.65	29.213
258.02	28.369
258.39	32.660
258.76	32.234
259.14	32.890
259.51	32.362
259.88	28.522
260.25	32.353
260.62	32.639
260.99	31.864
261.36	30.822
261.73	31.329
262.10	32.219
262.47	31.595
262.85	33.542
263.22	31.692
263.59	30.841
263.96	37.888
264.33	31.515
264.70	33.631
265.07	34.226
265.44	35.411
265.81	32.203
266.18	33.607
266.55	32.134
266.92	30.311
267.29	32.898
267.66	30.435
268.03	32.984
268.40	31.593
268.77	31.818
269.14	32.854
269.51	28.535
269.88	32.419
270.25	29.337
270.62	29.512
270.99	33.248
271.36	31.296
271.73	31.221
272.10	32.117
272.47	31.442
272.84	31.931
273.21	29.930
273.58	31.084
273.95	33.181
274.32	31.640
274.69	26.244
275.06	33.929
275.43	31.066
275.80	32.009
276.17	31.034
276.54	29.764
276.91	31.360
277.28	32.533
277.65	30.785
278.02	32.766
278.39	31.072
278.76	31.866
279.13	31.535
279.50	31.513
279.87	29.806
280.23	29.032
280.60	32.164
280.97	32.323
281.34	30.577
281.71	32.238
282.08	32.311
282.45	29.550
282.82	28.958
283.19	29.787
283.56	30.443
283.92	29.791
284.29	30.192
284.66	31.977
285.03	27.898
285.40	31.569
285.77	29.525
286.14	30.144
286.51	34.502
286.87	29.068
287.24	31.860
287.61	29.806
287.98	30.175
288.35	30.156
288.72	33.275
289.08	30.729
289.45	31.986
289.82	29.895
290.19	30.546
290.56	29.503
290.93	31.313
291.29	28.814
291.66	30.394
292.03	29.825
292.40	32.097
292.77	28.070
293.13	28.571
293.50	29.590
293.87	30.076
294.24	29.830
294.60	29.955
294.97	30.060
295.34	29.601
295.71	31.148
296.08	30.493
296.44	28.165
296.81	28.889
297.18	31.594
297.55	31.030
297.91	31.370
298.28	30.871
298.65	30.801
299.02	29.111
299.38	29.685
299.75	29.655
300.12	29.843
300.48	29.249
300.85	29.024
301.22	30.519
301.59	30.658
301.95	32.911
302.32	32.685
302.69	31.592
303.05	30.569
303.42	30.760
303.79	31.308
304.15	29.869
304.52	29.013
304.89	30.643
305.25	31.719
305.62	30.338
305.99	30.058
306.35	32.254
306.72	30.709
307.09	32.041
307.45	32.491
307.82	32.060
308.19	31.940
308.55	30.643
308.92	33.007
309.29	32.402
309.65	31.755
310.02	32.233
310.38	33.699
310.75	34.645
311.12	33.154
311.48	33.298
311.85	32.356
312.22	34.072
312.58	33.227
312.95	32.657
313.31	33.851
313.68	34.764
314.05	33.673
314.41	34.845
314.78	34.845
315.14	34.943
315.51	35.611
315.87	34.324
316.24	35.086
316.61	36.122
316.97	36.409
317.34	36.035
317.70	36.902
318.07	35.385
318.43	36.961
318.80	36.364
319.16	39.453
319.53	39.221
319.89	38.780
320.26	39.980
320.62	40.522
320.99	39.562
321.35	40.288
321.72	41.329
322.08	42.900
322.45	42.437
322.81	42.338
323.18	42.002
323.54	45.656
323.91	42.941
324.27	44.922
324.64	46.348
325.00	45.985
325.37	46.373
325.73	44.878
326.10	47.230
326.46	47.534
326.83	48.031
327.19	48.213
327.56	48.132
327.92	50.000
328.29	47.679
328.65	50.283
329.01	48.989
329.38	48.848
329.74	50.992
330.11	49.212
330.47	48.701
330.84	49.135
331.20	52.376
331.56	50.093
331.93	49.132
332.29	50.229
332.66	47.511
333.02	48.978
333.38	50.046
333.75	50.275
334.11	48.612
334.48	50.861
334.84	50.458
335.20	50.503
335.57	48.957
335.93	49.051
336.29	50.645
336.66	49.500
337.02	47.862
337.38	48.426
337.75	50.000
338.11	49.865
338.47	49.544
338.84	50.185
339.20	49.360
339.56	49.541
339.93	50.045
340.29	48.899
340.65	48.208
341.02	48.670
341.38	48.584
341.74	48.852
342.11	48.180
342.47	48.665
342.83	49.135
343.20	47.909
343.56	48.696
343.92	47.476
344.28	47.908
344.65	48.618
345.01	47.882
345.37	46.173
345.73	48.117
346.10	47.800
346.46	47.519
346.82	47.791
347.19	46.800
347.55	48.287
347.91	47.896
348.27	47.130
348.63	48.467
349.00	48.072
349.36	47.132
349.72	47.181
350.08	47.213
350.45	46.688
350.81	46.096
351.17	45.603
351.53	48.163
351.89	45.334
352.26	46.480
352.62	47.823
352.98	45.462
353.34	45.733
353.70	47.330
354.07	46.532
354.43	44.275
354.79	46.903
355.15	45.952
355.51	46.519
355.87	45.874
356.24	45.106
356.60	45.756
356.96	46.429
357.32	45.208
357.68	45.113
358.04	45.638
358.40	46.704
358.77	46.571
359.13	46.998
359.49	44.915
359.85	46.022
360.21	46.730
360.57	45.371
360.93	45.008
361.29	44.940
361.66	47.100
362.02	46.742
362.38	46.306
362.74	46.253
363.10	47.254
363.46	45.886
363.82	46.582
364.18	45.461
364.54	45.735
364.90	46.667
365.26	46.361
365.62	46.569
365.98	46.921
366.35	47.123
366.71	47.376
367.07	47.025
367.43	45.004
367.79	47.138
368.15	47.093
368.51	46.977
368.87	46.231
369.23	45.776
369.59	46.720
369.95	46.994
370.31	46.749
370.67	46.716
371.03	47.125
371.39	45.441
371.75	47.399
372.11	48.003
372.47	48.077
372.83	47.197
373.19	47.575
373.55	46.354
373.91	46.292
374.27	47.909
374.63	47.810
374.99	46.879
375.35	47.075
375.71	48.322
376.07	48.244
376.42	47.483
376.78	49.262
377.14	46.919
377.50	48.207
377.86	47.657
378.22	47.096
378.58	48.654
378.94	48.519
379.30	48.472
379.66	48.840
380.02	48.253
380.38	47.413
380.74	47.337
381.09	47.853
381.45	48.257
381.81	48.859
382.17	48.604
382.53	48.095
382.89	49.153
383.25	49.222
383.61	48.902
383.97	49.651
384.32	48.280
384.68	49.102
385.04	49.265
385.40	48.973
385.76	49.811
386.12	50.323
386.48	50.383
386.83	49.715
387.19	50.488
387.55	50.878
387.91	50.611
388.27	48.474
388.62	49.654
388.98	48.926
389.34	48.907
389.70	49.969
390.06	48.647
390.42	49.093
390.77	50.360
391.13	49.874
391.49	49.871
391.85	50.487
392.20	50.094
392.56	50.858
392.92	50.499
393.28	49.705
393.64	49.730
393.99	52.038
394.35	51.297
394.71	52.427
395.07	50.534
395.42	50.820
395.78	52.704
396.14	51.513
396.50	50.349
396.85	51.835
397.21	50.627
397.57	50.909
397.92	50.389
398.28	51.379
398.64	49.578
399.00	52.257
399.35	49.379
399.71	49.627
400.07	51.572
400.42	50.979
400.78	51.562
401.14	51.361
401.49	51.936
401.85	52.041
402.21	51.265
402.57	51.000
402.92	50.878
403.28	51.441
403.63	52.774
403.99	51.977
404.35	52.780
404.70	50.655
405.06	50.646
405.42	51.336
405.77	50.959
406.13	52.328
406.49	51.451
406.84	52.200
407.20	51.896
407.55	50.161
407.91	51.671
408.27	50.924
408.62	52.123
408.98	51.140
409.34	52.107
409.69	51.163
410.05	51.108
410.40	51.605
410.76	52.111
411.11	52.438
411.47	51.940
411.83	51.350
412.18	53.218
412.54	51.810
412.89	52.094
413.25	51.986
413.60	52.609
413.96	52.086
414.31	52.805
414.67	51.700
415.03	51.265
415.38	53.525
415.74	54.007
416.09	54.409
416.45	53.680
416.80	53.999
417.16	54.627
417.51	53.698
417.87	52.282
418.22	54.404
418.58	54.716
418.93	54.796
419.29	53.201
419.64	54.051
420.00	56.108
420.35	52.000
420.71	54.739
421.06	53.653
421.42	54.507
421.77	55.029
422.12	54.767
422.48	54.088
422.83	52.784
423.19	54.063
423.54	54.674
423.90	55.948
424.25	56.889
424.61	57.038
424.96	56.272
425.31	57.655
425.67	56.925
426.02	56.773
426.38	58.234
426.73	57.748
427.09	58.987
427.44	58.647
427.79	56.983
428.15	57.100
428.50	57.662
428.85	55.590
429.21	57.499
429.56	57.358
429.92	57.524
430.27	56.541
430.62	56.717
430.98	57.006
431.33	57.781
431.68	57.091
432.04	58.580
432.39	57.844
432.74	57.547
433.10	58.678
433.45	57.646
433.80	58.619
434.16	58.283
434.51	59.247
434.86	59.233
435.22	59.338
435.57	60.137
435.92	58.743
436.28	59.213
436.63	59.555
436.98	59.791
437.34	59.649
437.69	61.002
438.04	59.088
438.39	59.743
438.75	59.502
439.10	59.706
439.45	60.134
439.81	60.428
440.16	61.936
440.51	61.015
440.86	62.417
441.22	59.842
441.57	59.713
441.92	61.542
442.27	60.920
442.63	61.349
442.98	60.368
443.33	60.100
443.68	60.584
444.03	61.649
444.39	60.157
444.74	62.319
445.09	61.192
445.44	62.279
445.79	62.506
446.15	59.912
446.50	61.009
446.85	60.946
447.20	61.314
447.55	61.607
447.91	63.226
448.26	61.696
448.61	62.522
448.96	62.995
449.31	62.543
449.66	61.731
450.02	62.179
450.37	63.426
450.72	63.058
451.07	63.481
451.42	61.798
451.77	63.593
452.12	63.278
452.47	63.619
452.83	63.428
453.18	63.884
453.53	64.981
453.88	63.145
454.23	62.815
454.58	65.113
454.93	64.884
455.28	62.730
455.63	65.158
455.98	64.161
456.34	63.602
456.69	64.231
457.04	65.784
457.39	64.642
457.74	63.482
458.09	63.096
458.44	65.243
458.79	63.137
459.14	64.588
459.49	65.075
459.84	64.185
460.19	64.502
460.54	64.487
460.89	65.000
461.24	65.217
461.59	64.667
461.94	63.711
462.29	64.415
462.64	67.243
462.99	65.606
463.34	64.256
463.69	65.187
464.04	66.344
464.39	65.555
464.74	66.012
465.09	65.814
465.44	64.512
465.79	64.796
466.14	65.964
466.49	65.440
466.84	65.437
467.19	65.895
467.54	64.751
467.89	67.340
468.24	66.363
468.59	66.730
468.94	66.921
469.29	68.000
469.64	68.353
469.99	68.325
470.34	68.464
470.68	68.978
471.03	68.294
471.38	69.044
471.73	69.258
472.08	69.132
472.43	68.792
472.78	66.484
473.13	68.571
473.48	68.339
473.83	66.501
474.17	68.782
474.52	67.773
474.87	69.333
475.22	68.212
475.57	66.855
475.92	67.965
476.27	67.171
476.61	69.792
476.96	67.429
477.31	68.524
477.66	68.202
478.01	68.164
478.36	67.647
478.70	70.201
479.05	69.176
479.40	69.475
479.75	67.049
480.10	68.100
480.45	68.150
480.79	69.335
481.14	70.184
481.49	67.488
481.84	68.871
482.19	67.727
482.53	68.441
482.88	69.165
483.23	68.762
483.58	68.208
483.92	67.764
484.27	68.186
484.62	68.131
484.97	66.501
485.31	65.426
485.66	63.272
486.01	62.660
486.36	62.043
486.70	62.523
487.05	64.128
487.40	64.297
487.75	65.155
488.09	65.791
488.44	66.094
488.79	67.688
489.13	68.229
489.48	68.790
489.83	69.372
490.17	69.888
490.52	69.700
490.87	68.626
491.22	70.153
491.56	70.825
491.91	69.120
492.26	71.658
492.60	70.298
492.95	71.372
493.30	70.005
493.64	71.218
493.99	69.807
494.34	69.612
494.68	70.571
495.03	70.024
495.37	71.099
495.72	70.873
496.07	71.317
496.41	70.708
496.76	69.830
497.11	69.958
497.45	70.883
497.80	71.746
498.14	71.336
498.49	71.254
498.84	71.457
499.18	71.637
499.53	71.528
499.87	71.060
500.22	71.958
500.56	71.710
500.91	71.938
501.26	70.588
501.60	71.225
501.95	71.955
502.29	72.203
502.64	71.815
502.98	72.077
503.33	71.326
503.67	70.217
504.02	71.505
504.36	72.934
504.71	72.172
505.06	70.961
505.40	71.421
505.75	73.711
506.09	72.124
506.44	73.614
506.78	72.857
507.13	72.544
507.47	72.324
507.82	73.771
508.16	73.693
508.51	73.820
508.85	73.940
509.19	73.763
509.54	72.601
509.88	72.708
510.23	74.771
510.57	74.131
510.92	73.934
511.26	73.541
511.61	75.853
511.95	75.014
512.30	75.166
512.64	74.402
512.98	74.565
513.33	76.273
513.67	74.588
514.02	76.144
514.36	76.343
514.70	77.972
515.05	76.968
515.39	77.214
515.74	76.766
516.08	76.987
516.42	77.385
516.77	76.829
517.11	76.973
517.46	78.097
517.80	78.308
518.14	77.832
518.49	76.502
518.83	77.157
519.17	77.562
519.52	75.548
519.86	76.230
520.20	78.433
520.55	77.111
520.89	79.360
521.23	78.341
521.58	79.685
521.92	77.949
522.26	79.440
522.61	78.896
522.95	81.987
523.29	78.717
523.64	80.496
523.98	80.104
524.32	79.575
524.66	79.962
525.01	80.325
525.35	80.881
525.69	81.212
526.04	80.423
526.38	81.128
526.72	79.856
527.06	78.794
527.41	80.013
527.75	79.223
528.09	78.804
528.43	80.621
528.78	80.066
529.12	78.968
529.46	78.233
529.80	78.784
530.15	79.274
530.49	78.451
530.83	80.711
531.17	79.382
531.51	80.096
531.86	78.042
532.20	81.072
532.54	78.693
532.88	80.151
533.22	79.368
533.57	79.948
533.91	78.786
534.25	78.971
534.59	78.576
534.93	76.967
535.27	76.015
535.62	77.252
535.96	77.952
536.30	78.892
536.64	78.980
536.98	79.164
537.32	80.014
537.66	78.962
538.01	79.161
538.35	78.710
538.69	77.630
539.03	77.785
539.37	78.802
539.71	78.528
540.05	76.103
540.39	79.017
540.73	77.685
541.07	78.315
541.42	77.688
541.76	78.252
542.10	77.495
542.44	77.484
542.78	78.183
543.12	78.022
543.46	77.955
543.80	77.377
544.14	75.834
544.48	77.881
544.82	77.375
545.16	78.210
545.50	76.235
545.84	78.329
546.18	78.794
546.52	76.280
546.86	77.426
547.20	77.182
547.54	77.173
547.88	77.446
548.22	74.885
548.56	75.660
548.90	76.415
549.24	76.377
549.58	75.176
549.92	76.269
550.26	78.168
550.60	78.587
550.94	79.612
551.28	78.980
551.62	80.231
551.96	77.143
552.30	77.997
552.64	76.587
552.98	78.129
553.32	76.605
553.66	77.431
554.00	78.394
554.34	81.093
554.68	77.212
555.02	77.976
555.36	79.432
555.69	77.289
556.03	76.874
556.37	77.082
556.71	77.545
557.05	80.089
557.39	76.580
557.73	78.711
558.07	77.677
558.41	79.020
558.75	78.722
559.08	79.827
559.42	80.397
559.76	79.103
560.10	78.670
560.44	77.215
560.78	77.692
561.12	77.080
561.45	77.442
561.79	77.381
562.13	77.502
562.47	76.259
562.81	77.594
563.15	76.375
563.48	77.016
563.82	75.841
564.16	75.905
564.50	75.608
564.84	75.234
565.17	74.514
565.51	77.117
565.85	76.955
566.19	74.469
566.52	76.944
566.86	74.936
567.20	74.222
567.54	73.540
567.88	73.521
568.21	73.247
568.55	71.739
568.89	70.534
569.23	69.860
569.56	68.520
569.90	68.169
570.24	65.873
570.57	66.655
570.91	66.260
571.25	64.518
571.59	63.127
571.92	62.133
572.26	63.647
572.60	62.946
572.93	63.634
573.27	63.480
573.61	62.530
573.95	62.916
574.28	61.388
574.62	60.742
574.96	59.835
575.29	60.727
575.63	59.290
575.97	60.640
576.30	61.063
576.64	60.768
576.98	61.107
577.31	61.563
577.65	60.206
577.98	59.975
578.32	59.020
578.66	58.629
578.99	59.148
579.33	59.905
579.67	59.273
580.00	59.291
580.34	59.328
580.67	59.322
581.01	59.390
581.35	58.786
581.68	58.492
582.02	58.066
582.35	58.589
582.69	58.999
583.02	58.727
583.36	59.522
583.70	60.774
584.03	60.912
584.37	61.519
584.70	60.604
585.04	59.819
585.37	59.410
585.71	59.294
586.04	60.640
586.38	59.963
586.72	60.344
587.05	61.670
587.39	61.392
587.72	62.028
588.06	60.753
588.39	60.154
588.73	60.623
589.06	62.883
589.40	61.735
589.73	62.943
590.07	63.066
590.40	64.164
590.73	64.662
591.07	64.546
591.40	64.826
591.74	65.747
592.07	65.909
592.41	65.724
592.74	63.321
593.08	60.810
593.41	61.845
593.75	61.040
594.08	61.071
594.41	62.409
594.75	62.939
595.08	62.240
595.42	62.311
595.75	63.199
596.09	63.253
596.42	63.869
596.75	64.654
597.09	63.827
597.42	62.873
597.75	64.819
598.09	63.105
598.42	64.079
598.76	62.849
599.09	62.220
599.42	61.387
599.76	61.475
600.09	62.066
600.42	60.993
600.76	61.627
601.09	61.527
601.42	61.261
601.76	61.651
602.09	62.046
602.42	62.848
602.76	62.988
603.09	62.915
603.42	64.716
603.76	63.226
604.09	61.685
604.42	62.733
604.76	63.774
605.09	64.214
605.42	63.251
605.75	63.222
606.09	62.675
606.42	62.219
606.75	62.165
607.09	62.681
607.42	62.694
607.75	62.567
608.08	62.758
608.42	62.357
608.75	63.807
609.08	65.122
609.41	64.162
609.75	63.659
610.08	63.954
610.41	62.995
610.74	63.871
611.07	64.341
611.41	64.453
611.74	65.885
612.07	64.347
612.40	65.044
612.73	65.706
613.07	64.848
613.40	65.372
613.73	66.200
614.06	65.387
614.39	65.595
614.72	64.650
615.06	65.140
615.39	65.120
615.72	63.563
616.05	64.022
616.38	64.672
616.71	66.972
617.05	66.028
617.38	66.562
617.71	67.799
618.04	67.810
618.37	67.718
618.70	67.987
619.03	70.069
619.36	69.609
619.69	72.252
620.03	71.001
620.36	70.029
620.69	69.665
621.02	69.648
621.35	72.780
621.68	74.320
622.01	72.333
622.34	71.109
622.67	71.845
623.00	70.597
623.33	70.351
623.66	69.858
623.99	68.911
624.32	72.091
624.65	69.699
624.99	71.482
625.32	69.598
625.65	71.642
625.98	71.958
626.31	71.904
626.64	73.570
626.97	73.909
627.30	74.431
627.63	73.830
627.96	75.022
628.29	75.393
628.62	76.303
628.95	76.453
629.28	77.722
629.61	76.670
629.94	76.931
630.26	76.383
630.59	77.732
630.92	76.205
631.25	74.974
631.58	79.626
631.91	78.399
632.24	80.619
632.57	78.636
632.90	80.664
633.23	80.235
633.56	84.761
633.89	80.888
634.22	82.593
634.55	83.990
634.88	82.120
635.20	82.692
635.53	85.600
635.86	80.104
636.19	82.277
636.52	83.801
636.85	78.164
637.18	78.868
637.51	78.868
637.83	80.946
638.16	84.993
638.49	81.335
638.82	81.316
639.15	84.125
639.48	82.669
639.81	81.729
640.13	86.724
640.46	83.382
640.79	81.296
641.12	81.684
641.45	82.733
641.77	82.667
642.10	87.678
642.43	85.531
642.76	84.818
643.09	85.137
643.41	85.113
643.74	84.514
644.07	87.192
644.40	89.527
644.73	90.893
645.05	86.745
645.38	88.889
645.71	86.348
646.04	88.510
646.36	88.298
646.69	86.871
647.02	91.682
647.35	91.791
647.67	85.740
648.00	91.045
648.33	85.495
648.66	85.424
648.98	83.585
649.31	85.455
649.64	80.691
649.96	82.820
650.29	82.624
650.62	84.274
650.94	87.407
651.27	87.896
651.60	84.865
651.92	83.741
652.25	84.369
652.58	83.000
652.90	85.077
653.23	84.874
653.56	82.234
653.88	82.990
654.21	81.786
654.54	82.003
654.86	82.343
655.19	76.901
655.52	66.099
655.84	53.303
656.17	57.260
656.49	76.339
656.82	77.981
657.15	59.888
657.47	45.090
657.80	33.870
658.13	33.291
658.45	52.536
658.78	52.601
659.10	52.441
659.43	54.394
659.75	56.734
660.08	60.621
660.41	68.131
660.73	73.343
661.06	81.976
661.38	83.953
661.71	82.341
662.03	89.270
662.36	86.593
662.68	84.735
663.01	91.703
663.33	87.239
663.66	88.605
663.98	91.395
664.31	85.288
664.63	91.475
664.96	83.913
665.28	83.885
665.61	87.879
665.93	88.696
666.26	85.033
666.58	85.235
666.91	89.176
667.23	92.689
667.56	91.232
667.88	88.010
668.21	90.692
668.53	88.416
668.86	87.264
669.18	87.500
669.50	91.283
669.83	87.674
670.15	87.179
670.48	86.842
670.80	89.631
671.13	83.669
671.45	85.388
671.77	84.979
672.10	80.990
672.42	81.086
672.75	79.218
673.07	77.996
673.39	80.550
673.72	82.446
674.04	79.167
674.37	83.475
674.69	81.156
675.01	84.222
675.34	85.586
675.66	86.806
675.98	84.701
676.31	86.009
676.63	87.411
676.95	84.545
677.28	85.176
677.60	86.265
677.92	84.633
678.25	83.807
678.57	81.169
678.89	81.303
679.22	82.998
679.54	80.120
679.86	78.926
680.18	78.835
680.51	76.136
680.83	77.336
681.15	78.800
681.48	81.352
681.80	81.818
682.12	79.435
682.44	76.360
682.77	81.015
683.09	80.778
683.41	81.136
683.73	80.876
684.06	80.973
684.38	75.054
684.70	84.096
685.02	76.349
685.34	75.889
685.67	74.109
685.99	73.056
686.31	72.389
686.63	76.438
686.96	70.722
687.28	75.960
687.60	73.764
687.92	80.202
688.24	75.403
688.56	82.096
688.89	81.027
689.21	80.889
689.53	80.974
689.85	79.767
690.17	81.920
690.49	83.215
690.82	81.553
691.14	77.381
691.46	80.374
691.78	79.054
692.10	77.204
692.42	73.377
692.74	71.795
693.06	78.153
693.39	75.339
693.71	75.339
694.03	75.058
694.35	78.972
694.67	78.788
694.99	79.896
695.31	83.551
695.63	80.250
695.95	76.768
696.27	76.943
696.59	83.889
696.91	81.513
697.23	74.293
697.56	79.455
697.88	76.774
698.20	74.032
698.52	73.647
698.84	74.641
699.16	76.750
699.48	77.193
699.80	75.434
700.12	82.210
700.44	81.232
700.76	81.686
701.08	83.333
701.40	82.530
701.72	85.185
702.04	86.799
702.36	87.625
702.68	80.781
703.00	83.333
703.32	80.059
703.64	72.034
703.96	84.058
704.28	80.675
704.60	83.175
704.91	80.757
705.23	83.389
705.55	93.286
705.87	87.726
706.19	86.667
706.51	78.694
706.83	81.350
707.15	76.324
707.47	76.190
707.79	69.010
708.11	72.250
708.43	69.250
708.74	73.902
709.06	77.465
709.38	81.957
709.70	76.036
710.02	79.299
710.34	80.805
710.66	75.641
710.98	81.126
711.29	76.393
711.61	84.407
711.93	81.759
712.25	82.131
712.57	82.051
712.89	82.463
713.20	76.125
713.52	79.791
713.84	80.546
714.16	81.787
714.48	79.677
714.80	74.679
715.11	78.723
715.43	72.727
715.75	78.667
716.07	76.744
716.39	73.154
716.70	77.860
717.02	77.099
717.34	79.757
717.66	88.938
717.97	89.130
718.29	79.498
718.61	84.252
718.93	77.132
719.24	78.327
719.56	83.534
719.88	71.134
720.20	75.758
720.51	70.881
720.83	78.378
721.15	79.832
721.46	84.677
721.78	75.494
722.10	72.491
722.42	77.178
722.73	75.510
723.05	77.143
723.37	87.288
723.68	86.486
724.00	83.333
724.32	80.000
724.63	80.909
724.95	82.096
725.27	82.949
725.58	78.390
725.90	75.794
726.22	77.606
726.53	65.763
726.85	71.910
727.16	72.830
727.48	76.518
727.80	78.947
728.11	72.034
728.43	71.765
728.74	67.339
729.06	74.000
729.38	75.564
729.69	73.307
730.01	67.308
730.32	77.985
730.64	74.558
730.96	75.094
731.27	65.000
731.59	71.864
731.90	66.561
732.22	67.508
732.53	73.422
732.85	70.567
733.16	74.411
733.48	66.906
733.80	67.029
734.11	69.831
734.43	69.072
734.74	68.788
735.06	66.775
735.37	65.861
735.69	70.370
736.00	66.202
736.32	64.765
736.63	69.366
736.95	72.355
737.26	67.972
737.58	68.792
737.89	69.231
738.21	67.293
738.52	70.782
738.83	74.236
739.15	67.249
739.46	71.654
739.78	64.835
740.09	64.379
740.41	66.304
740.72	69.291
741.04	71.660
741.35	71.489
741.66	81.991
741.98	84.184
742.29	74.257
742.61	79.058
742.92	73.460
743.23	69.444
743.55	76.471
743.86	72.249
744.18	75.598
744.49	75.532
744.80	76.087
745.12	88.235
745.43	74.634
745.74	81.771
746.06	76.098
746.37	80.105
746.68	72.512
747.00	73.936
747.31	67.164
747.62	71.845
747.94	71.292
748.25	81.188
748.56	80.328
748.88	81.152
749.19	81.383
749.50	78.325
749.82	73.113
750.13	74.312
750.44	69.925
750.75	69.030
751.07	70.073
751.38	67.816
751.69	62.353
752.01	71.318
752.32	70.916
752.63	70.751
752.94	71.121
753.26	74.477
753.57	73.756
753.88	76.549
754.19	73.750
754.51	69.421
754.82	69.231
755.13	72.500
755.44	61.694
755.75	68.359
756.07	66.148
756.38	68.679
756.69	67.433
757.00	62.000
757.31	62.745
757.63	60.061
757.94	57.500
758.25	54.795
758.56	58.777
758.87	56.091
759.18	58.255
759.50	64.364
759.81	66.890
760.12	61.935
760.43	58.788
760.74	63.580
761.05	60.308
761.36	62.784
761.67	62.424
761.99	64.626
762.30	58.182
762.61	62.846
762.92	63.348
763.23	62.162
763.54	68.692
763.85	63.559
764.16	66.805
764.47	64.919
764.78	61.538
765.10	64.310
765.41	60.883
765.72	62.857
766.03	56.015
766.34	62.774
766.65	61.355
766.96	65.152
767.27	70.213
767.58	74.138
767.89	73.050
768.20	65.341
768.51	64.835
768.82	69.458
769.13	64.516
769.44	60.086
769.75	58.904
770.06	52.155
770.37	72.115
770.68	69.543
770.99	65.611
771.30	62.745
771.61	65.158
771.92	63.362
772.23	69.458
772.54	66.667
772.85	69.753
773.16	61.798
773.47	71.895
773.78	78.431
774.09	61.078
774.39	66.667
774.70	65.605
775.01	67.586
775.32	66.429
775.63	70.248
775.94	64.122
776.25	73.228
776.56	65.833
776.87	77.885
777.18	64.103
777.48	69.828
777.79	66.087
778.10	63.810
778.41	72.072
778.72	65.079
779.03	67.669
779.34	65.248
779.65	76.027
779.95	63.699
780.26	70.345
780.57	67.480
780.88	69.291
781.19	72.414
781.50	68.217
781.80	55.030
782.11	52.201
782.42	66.923
782.73	56.115
783.04	72.593
783.34	51.389
783.65	61.538
783.96	63.115
784.27	69.655
784.57	60.163
784.88	60.156
785.19	74.000
785.50	72.000
785.81	64.655
786.11	64.655
786.42	67.961
786.73	68.182
787.04	71.429
787.34	54.464
787.65	77.143
787.96	53.982
788.26	66.364
788.57	64.957
788.88	64.844
789.19	54.762
789.49	63.478
789.80	73.469
790.11	69.697
790.41	53.636
790.72	65.217
791.03	75.000
791.33	72.500
791.64	61.250
791.95	61.628
792.25	67.021
792.56	69.663
792.87	65.753
793.17	75.362
793.48	52.000
793.79	71.250
794.09	71.250
794.40	49.057
794.70	63.107
795.01	55.285
795.32	53.846
795.62	58.095
795.93	62.745
796.23	74.528
796.54	45.833
796.85	85.294
797.15	53.521
797.46	75.000
797.76	75.758
798.07	47.674
798.37	51.316
798.68	59.091
798.99	54.321
799.29	58.571
799.60	56.522
799.90	53.333
800.21	78.689
800.51	56.923
800.82	77.966
801.12	52.174
801.43	63.934
801.73	76.190
802.04	66.000
802.34	58.209
802.65	63.462
802.95	57.143
803.26	69.231
803.56	80.392
803.87	67.391
804.17	58.667
804.48	79.365
804.78	79.630
805.09	69.565
805.39	75.556
805.70	66.667
806.00	49.123
806.30	57.746
806.61	60.000
806.91	55.556
807.22	65.789
807.52	65.333
807.83	49.091
808.13	68.056
808.43	63.235
808.74	56.716
809.04	50.847
809.35	69.231
809.65	68.750
809.95	43.243
810.26	52.273
810.56	49.315
810.86	90.476
811.17	66.000
811.47	61.224
811.77	81.579
812.08	63.636
812.38	37.736
812.69	77.500
812.99	63.636
813.29	68.421
813.59	8.571
813.90	61.364
814.20	64.103
814.50	44.231
814.81	81.132
815.11	40.426
815.41	50.847
815.72	78.571
816.02	62.745
816.32	35.417
816.62	65.854
816.93	35.135
817.23	80.000
817.53	75.000
817.84	71.739
818.14	46.154
818.44	78.947
818.74	78.261
819.04	35.000
819.35	51.351
819.65	88.235
819.95	41.667
820.25	66.667
820.56	57.500
820.86	34.483
821.16	87.500
821.46	40.426
821.76	67.500
822.07	53.488
822.37	29.730
822.67	56.250
822.97	85.714
823.27	67.857
823.57	96.000
823.88	62.963
824.18	92.857
824.48	47.059
824.78	64.516
825.08	65.217
825.38	81.818
825.69	37.500
825.99	55.263
826.29	47.222
826.59	93.333
826.89	4.762
827.19	80.435
827.49	50.000
827.79	62.857
828.09	71.429
828.39	81.818
828.70	64.865
829.00	78.571
829.30	61.905
829.60	33.333
829.90	37.500
830.20	15.789
830.50	40.741
830.80	30.435
831.10	45.455
831.40	75.758
831.70	58.065
832.00	100.000
832.30	28.571
832.60	8.333
832.90	51.724
833.20	25.000
833.50	48.485
833.80	66.667
834.10	46.154
834.40	71.875
834.70	111.111
835.00	10.526
835.30	80.769
835.60	120.000
835.90	38.710
836.20	72.727
836.50	71.429
836.80	-11.538
837.10	75.000
837.40	-66.667
837.70	54.545
838.00	18.182
838.30	56.522
838.60	69.231
838.90	40.909
839.19	53.571
839.49	30.000
839.79	53.846
840.09	-75.000
840.39	82.143
840.69	35.714
840.99	38.462
841.29	-10.526
841.59	-80.000
841.88	63.636
842.18	60.000
842.48	37.500
842.78	53.333
843.08	70.370
843.38	80.000
843.68	-8.696
843.97	0.000
844.27	-46.667
844.57	55.000
844.87	61.111
845.17	52.381
845.47	133.333
845.76	0.000
846.06	52.941
846.36	50.000
846.66	7.143
846.96	120.000
847.25	-37.500
847.55	78.571
847.85	-37.500
848.15	40.909
848.44	-66.667
848.74	30.000
849.04	37.037
849.34	27.273
849.63	-66.667
849.93	-120.000
850.23	77.778
850.53	100.000
850.82	30.769
851.12	-11.111
851.42	40.000
851.71	19.231
852.01	142.857
852.31	-175.000
852.61	72.727
852.90	70.000
853.20	63.158
853.50	83.333
853.79	69.565
854.09	70.833
854.39	15.789
854.68	25.000
854.98	51.613
855.28	46.154
855.57	25.000
855.87	83.333
856.17	48.148
856.46	57.143
856.76	0.000
857.05	33.333
857.35	76.000
857.65	61.111
857.94	69.231
858.24	55.172
858.53	38.889
858.83	44.444
859.13	63.636
859.42	43.478
859.72	50.000
860.01	-200.000
860.31	32.000
860.60	61.905
860.90	-33.333
861.20	6.667
861.49	100.000
861.79	20.000
862.08	0.000
862.38	126.667
862.67	40.000
862.97	-166.667
863.26	-58.333
863.56	105.556
863.85	33.333
864.15	83.333
864.44	140.000
864.74	107.143
865.03	150.000
865.33	-100.000
865.62	100.000
865.92	25.000
866.21	-216.667
866.51	62.500
866.80	54.545
867.10	50.000
867.39	141.667
867.69	0.000
867.98	76.923
868.27	-166.667
868.57	53.333
868.86	-5.556
869.16	38.462
869.45	20.000
869.75	-200.000
870.04	0.000
870.33	-42.857
870.63	71.429
870.92	233.333
871.22	-200.000
871.51	-100.000
871.80	111.111
872.10	166.667
>>>>>End Processed Spectral Data<<<<<
