SpectraSuite Data File
++++++++++++++++++++++++++++++++++++
Date: Fri May 15 21:12:41 PDT 2015
User: schluterlab
Dark Spectrum Present: Yes
Reference Spectrum Present: Yes
Number of Sampled Component Spectra: 1
Spectrometers: USB2E3373
Integration Time (usec): 3000 (USB2E3373)
Spectra Averaged: 3 (USB2E3373)
Boxcar Smoothing: 0 (USB2E3373)
Correct for Electrical Dark: No (USB2E3373)
Strobe/Lamp Enabled: No (USB2E3373)
Correct for Detector Non-linearity: No (USB2E3373)
Correct for Stray Light: No (USB2E3373)
Number of Pixels in Processed Spectrum: 2048
>>>>>Begin Processed Spectral Data<<<<<
178.53	0.000
178.91	0.000
179.29	125.000
179.67	-500.000
180.04	28.571
180.42	200.000
180.80	-900.000
181.18	366.667
181.56	100.000
181.94	-350.000
182.31	700.000
182.69	-140.000
183.07	-400.000
183.45	-200.000
183.83	100.000
184.20	27.273
184.58	66.667
184.96	-75.000
185.34	133.333
185.72	-350.000
186.09	130.769
186.47	-800.000
186.85	183.333
187.23	155.556
187.61	-300.000
187.98	-300.000
188.36	44.444
188.74	-266.667
189.12	23.529
189.49	55.556
189.87	0.000
190.25	35.714
190.63	150.000
191.00	-233.333
191.38	5.263
191.76	-100.000
192.14	250.000
192.51	100.000
192.89	111.111
193.27	-85.714
193.65	133.333
194.02	172.727
194.40	30.000
194.78	-112.500
195.15	-25.000
195.53	0.000
195.91	450.000
196.29	0.000
196.66	107.692
197.04	85.714
197.42	-44.444
197.79	-200.000
198.17	-153.846
198.55	900.000
198.92	-166.667
199.30	-1400.000
199.68	-20.000
200.05	-166.667
200.43	0.000
200.81	-166.667
201.18	-33.333
201.56	1300.000
201.94	-200.000
202.31	266.667
202.69	-220.000
203.07	175.000
203.44	-600.000
203.82	0.000
204.19	21.429
204.57	-500.000
204.95	100.000
205.32	20.000
205.70	42.857
206.08	-50.000
206.45	188.889
206.83	42.857
207.20	-257.143
207.58	200.000
207.96	-600.000
208.33	-140.000
208.71	-100.000
209.08	-250.000
209.46	100.000
209.84	80.000
210.21	-1000.000
210.59	42.857
210.96	-133.333
211.34	-225.000
211.71	-26.667
212.09	-142.857
212.46	-2400.000
212.84	0.000
213.22	-10.000
213.59	550.000
213.97	107.692
214.34	36.364
214.72	-216.667
215.09	500.000
215.47	-30.769
215.84	-45.455
216.22	-333.333
216.59	-75.000
216.97	-450.000
217.34	-125.000
217.72	-140.000
218.09	-62.500
218.47	150.000
218.84	0.000
219.22	-88.889
219.59	-80.000
219.97	266.667
220.34	325.000
220.72	14.286
221.09	-325.000
221.47	-100.000
221.84	-500.000
222.22	-700.000
222.59	45.455
222.97	0.000
223.34	-133.333
223.72	-78.571
224.09	-28.571
224.46	-17.857
224.84	466.667
225.21	-40.000
225.59	-33.333
225.96	-150.000
226.34	325.000
226.71	-57.143
227.08	-33.333
227.46	-25.000
227.83	-500.000
228.21	66.667
228.58	54.545
228.95	12.500
229.33	150.000
229.70	18.750
230.08	-125.000
230.45	-142.857
230.82	0.000
231.20	0.000
231.57	7.143
231.95	-114.286
232.32	-70.000
232.69	-28.571
233.07	-233.333
233.44	-100.000
233.81	-20.000
234.19	44.444
234.56	-17.647
234.93	650.000
235.31	225.000
235.68	-200.000
236.05	-69.231
236.43	-35.000
236.80	-58.824
237.17	18.750
237.55	-70.000
237.92	-18.519
238.29	-16.667
238.67	-20.000
239.04	-17.647
239.41	-19.512
239.79	-23.333
240.16	-12.195
240.53	-13.158
240.91	-19.565
241.28	3.175
241.65	0.000
242.02	13.699
242.40	6.667
242.77	3.390
243.14	-7.576
243.51	7.500
243.89	6.897
244.26	-10.345
244.63	-8.333
245.00	-6.186
245.38	1.031
245.75	-12.360
246.12	-6.897
246.49	-0.826
246.87	-4.808
247.24	-7.563
247.61	-16.667
247.98	-7.317
248.36	5.000
248.73	-2.632
249.10	-6.494
249.47	-1.266
249.84	-5.882
250.22	0.588
250.59	-9.804
250.96	4.225
251.33	-2.326
251.70	-6.471
252.08	-4.061
252.45	0.000
252.82	-0.503
253.19	0.922
253.56	-4.673
253.94	0.901
254.31	2.174
254.68	-2.193
255.05	-2.362
255.42	-3.930
255.79	0.000
256.16	3.502
256.54	3.358
256.91	1.141
257.28	-1.115
257.65	-4.869
258.02	-1.418
258.39	0.673
258.76	6.227
259.14	1.329
259.51	-1.618
259.88	-2.749
260.25	0.000
260.62	-1.389
260.99	-2.034
261.36	-2.055
261.73	-2.532
262.10	4.559
262.47	0.000
262.85	1.567
263.22	-1.846
263.59	1.869
263.96	1.242
264.33	0.303
264.70	-2.381
265.07	-3.274
265.44	0.283
265.81	0.282
266.18	2.732
266.55	2.571
266.92	-0.259
267.29	-0.522
267.66	1.535
268.03	2.880
268.40	-1.567
268.77	2.674
269.14	-0.480
269.51	2.057
269.88	-2.244
270.25	-1.531
270.62	-1.220
270.99	-1.790
271.36	-0.978
271.73	1.643
272.10	-1.217
272.47	0.236
272.84	-2.228
273.21	1.624
273.58	1.446
273.95	1.831
274.32	-0.924
274.69	-1.584
275.06	0.446
275.43	-0.227
275.80	1.325
276.17	-2.299
276.54	-0.428
276.91	0.439
277.28	-0.218
277.65	2.479
278.02	-1.489
278.39	0.656
278.76	1.677
279.13	-2.075
279.50	0.420
279.87	2.592
280.23	-0.215
280.60	2.144
280.97	1.414
281.34	-0.192
281.71	0.000
282.08	-0.818
282.45	0.978
282.82	-1.931
283.19	0.580
283.56	0.578
283.92	0.190
284.29	0.192
284.66	0.581
285.03	-2.161
285.40	0.000
285.77	0.703
286.14	0.722
286.51	1.476
286.87	-0.731
287.24	0.921
287.61	0.176
287.98	1.754
288.35	0.347
288.72	0.701
289.08	1.042
289.45	0.879
289.82	0.524
290.19	0.000
290.56	1.029
290.93	-1.178
291.29	1.233
291.66	1.417
292.03	0.159
292.40	1.290
292.77	-0.319
293.13	-2.435
293.50	-0.303
293.87	0.763
294.24	0.309
294.60	0.596
294.97	0.893
295.34	1.227
295.71	0.000
296.08	1.196
296.44	-1.565
296.81	0.556
297.18	-1.884
297.55	2.981
297.91	0.685
298.28	2.375
298.65	0.271
299.02	0.000
299.38	-0.958
299.75	0.552
300.12	0.654
300.48	-0.132
300.85	0.760
301.22	0.390
301.59	0.789
301.95	1.266
302.32	1.427
302.69	1.990
303.05	0.000
303.42	1.494
303.79	0.117
304.15	1.673
304.52	-0.119
304.89	0.585
305.25	0.363
305.62	0.117
305.99	0.468
306.35	-0.347
306.72	-1.012
307.09	0.684
307.45	0.344
307.82	1.273
308.19	-0.116
308.55	1.418
308.92	2.288
309.29	0.447
309.65	1.076
310.02	0.440
310.38	0.768
310.75	0.765
311.12	1.615
311.48	1.060
311.85	0.628
312.22	1.055
312.58	1.274
312.95	0.107
313.31	0.621
313.68	1.047
314.05	1.224
314.41	1.856
314.78	1.134
315.14	2.467
315.51	3.623
315.87	2.357
316.24	3.640
316.61	3.740
316.97	3.968
317.34	3.418
317.70	3.920
318.07	4.712
318.43	5.490
318.80	5.019
319.16	6.836
319.53	6.363
319.89	7.087
320.26	7.794
320.62	7.823
320.99	7.620
321.35	7.091
321.72	9.138
322.08	9.869
322.45	11.269
322.81	11.788
323.18	11.482
323.54	11.293
323.91	12.463
324.27	13.379
324.64	14.981
325.00	17.153
325.37	17.723
325.73	17.407
326.10	18.710
326.46	20.269
326.83	20.210
327.19	21.099
327.56	22.242
327.92	24.208
328.29	23.839
328.65	25.566
329.01	26.471
329.38	25.806
329.74	27.290
330.11	28.545
330.47	27.922
330.84	28.654
331.20	30.133
331.56	28.611
331.93	30.776
332.29	31.531
332.66	31.855
333.02	31.784
333.38	32.356
333.75	32.418
334.11	33.124
334.48	33.545
334.84	34.066
335.20	34.309
335.57	33.364
335.93	36.134
336.29	35.912
336.66	35.876
337.02	35.688
337.38	36.667
337.75	37.455
338.11	37.782
338.47	36.405
338.84	37.338
339.20	37.751
339.56	37.431
339.93	38.675
340.29	38.716
340.65	37.634
341.02	38.032
341.38	40.000
341.74	38.958
342.11	38.042
342.47	40.569
342.83	40.052
343.20	39.373
343.56	40.522
343.92	39.770
344.28	41.588
344.65	40.328
345.01	40.795
345.37	40.538
345.73	40.586
346.10	42.019
346.46	41.884
346.82	40.835
347.19	41.729
347.55	40.936
347.91	42.233
348.27	40.986
348.63	40.801
349.00	42.166
349.36	44.140
349.72	44.362
350.08	41.885
350.45	42.219
350.81	42.857
351.17	43.322
351.53	43.429
351.89	42.279
352.26	42.400
352.62	43.387
352.98	42.892
353.34	42.110
353.70	42.961
354.07	42.339
354.43	44.516
354.79	43.765
355.15	42.778
355.51	43.987
355.87	44.660
356.24	43.230
356.60	43.897
356.96	45.159
357.32	43.051
357.68	44.566
358.04	44.669
358.40	44.212
358.77	44.258
359.13	44.996
359.49	43.297
359.85	43.604
360.21	45.774
360.57	44.223
360.93	44.705
361.29	43.807
361.66	45.298
362.02	45.606
362.38	45.088
362.74	45.874
363.10	46.877
363.46	46.034
363.82	45.530
364.18	45.092
364.54	45.441
364.90	45.233
365.26	46.652
365.62	47.445
365.98	46.334
366.35	47.487
366.71	48.411
367.07	46.226
367.43	47.232
367.79	47.350
368.15	46.088
368.51	46.540
368.87	48.098
369.23	46.643
369.59	47.157
369.95	47.874
370.31	47.543
370.67	48.657
371.03	46.527
371.39	47.192
371.75	47.546
372.11	46.576
372.47	48.225
372.83	47.268
373.19	47.646
373.55	46.931
373.91	47.372
374.27	48.547
374.63	49.390
374.99	46.809
375.35	47.702
375.71	48.462
376.07	48.244
376.42	48.163
376.78	47.987
377.14	48.815
377.50	48.738
377.86	48.126
378.22	47.607
378.58	48.397
378.94	48.582
379.30	48.846
379.66	48.652
380.02	47.885
380.38	48.265
380.74	48.594
381.09	49.816
381.45	48.869
381.81	48.674
382.17	48.731
382.53	48.220
382.89	49.969
383.25	47.791
383.61	48.841
383.97	48.698
384.32	47.905
384.68	48.978
385.04	47.059
385.40	47.604
385.76	49.874
386.12	49.224
386.48	48.851
386.83	48.256
387.19	48.657
387.55	48.620
387.91	48.655
388.27	47.863
388.62	48.206
388.98	48.987
389.34	48.032
389.70	50.155
390.06	48.018
390.42	49.288
390.77	48.071
391.13	47.667
391.49	49.353
391.85	48.863
392.20	47.834
392.56	48.951
392.92	49.501
393.28	48.939
393.64	47.628
393.99	49.342
394.35	47.375
394.71	49.361
395.07	48.020
395.42	47.359
395.78	48.534
396.14	47.352
396.50	48.954
396.85	49.131
397.21	47.368
397.57	47.712
397.92	47.334
398.28	47.874
398.64	46.386
399.00	48.138
399.35	46.275
399.71	47.731
400.07	48.186
400.42	48.103
400.78	47.397
401.14	48.578
401.49	47.409
401.85	46.435
402.21	47.108
402.57	47.375
402.92	46.989
403.28	47.932
403.63	47.415
403.99	46.684
404.35	48.032
404.70	46.190
405.06	47.239
405.42	47.545
405.77	46.659
406.13	46.915
406.49	46.596
406.84	47.738
407.20	47.863
407.55	47.392
407.91	45.989
408.27	47.419
408.62	46.338
408.98	46.396
409.34	46.716
409.69	46.641
410.05	44.951
410.40	45.741
410.76	46.381
411.11	45.562
411.47	47.009
411.83	45.386
412.18	46.203
412.54	45.630
412.89	45.074
413.25	46.691
413.60	46.087
413.96	44.908
414.31	45.610
414.67	44.387
415.03	44.940
415.38	45.039
415.74	45.147
416.09	45.265
416.45	46.253
416.80	45.076
417.16	45.028
417.51	44.903
417.87	44.459
418.22	45.725
418.58	45.753
418.93	45.141
419.29	43.726
419.64	44.848
420.00	46.411
420.35	43.761
420.71	45.322
421.06	45.549
421.42	43.750
421.77	43.179
422.12	42.963
422.48	44.342
422.83	43.794
423.19	43.736
423.54	43.504
423.90	43.227
424.25	43.628
424.61	44.614
424.96	43.496
425.31	44.367
425.67	43.897
426.02	44.700
426.38	44.208
426.73	44.613
427.09	45.127
427.44	43.353
427.79	43.901
428.15	42.718
428.50	43.368
428.85	42.199
429.21	42.728
429.56	43.127
429.92	43.195
430.27	41.604
430.62	42.446
430.98	42.728
431.33	41.851
431.68	43.014
432.04	42.258
432.39	42.327
432.74	41.311
433.10	43.161
433.45	42.891
433.80	42.310
434.16	41.551
434.51	42.688
434.86	42.509
435.22	42.569
435.57	42.296
435.92	42.216
436.28	41.682
436.63	41.928
436.98	40.672
437.34	42.226
437.69	42.159
438.04	41.368
438.39	40.562
438.75	42.380
439.10	40.917
439.45	41.935
439.81	40.856
440.16	41.627
440.51	41.970
440.86	42.477
441.22	39.706
441.57	41.060
441.92	42.130
442.27	41.574
442.63	41.756
442.98	40.494
443.33	40.623
443.68	40.371
444.03	40.238
444.39	40.187
444.74	41.750
445.09	40.646
445.44	40.855
445.79	40.485
446.15	39.703
446.50	39.823
446.85	40.595
447.20	39.885
447.55	40.681
447.91	39.650
448.26	39.954
448.61	39.954
448.96	41.021
449.31	40.462
449.66	39.954
450.02	39.760
450.37	39.478
450.72	39.347
451.07	40.633
451.42	38.327
451.77	38.517
452.12	38.876
452.47	39.408
452.83	39.223
453.18	39.152
453.53	38.053
453.88	39.101
454.23	39.213
454.58	38.791
454.93	39.820
455.28	38.286
455.63	39.616
455.98	38.545
456.34	37.867
456.69	38.882
457.04	39.572
457.39	37.910
457.74	38.634
458.09	37.846
458.44	38.444
458.79	37.647
459.14	38.101
459.49	39.045
459.84	38.579
460.19	37.136
460.54	37.653
460.89	38.011
461.24	37.516
461.59	37.708
461.94	36.478
462.29	37.817
462.64	37.608
462.99	37.170
463.34	36.370
463.69	36.486
464.04	37.349
464.39	37.295
464.74	36.503
465.09	36.806
465.44	36.815
465.79	36.791
466.14	37.229
466.49	35.940
466.84	37.359
467.19	35.795
467.54	35.888
467.89	36.387
468.24	36.496
468.59	36.063
468.94	35.302
469.29	36.852
469.64	36.842
469.99	37.351
470.34	36.177
470.68	35.645
471.03	35.669
471.38	35.806
471.73	36.204
472.08	35.685
472.43	35.503
472.78	35.915
473.13	35.918
473.48	35.700
473.83	35.181
474.17	34.909
474.52	35.227
474.87	34.485
475.22	35.937
475.57	34.105
475.92	34.833
476.27	35.390
476.61	35.938
476.96	34.356
477.31	35.641
477.66	34.607
478.01	34.587
478.36	34.041
478.70	34.856
479.05	34.890
479.40	34.022
479.75	33.785
480.10	34.153
480.45	34.200
480.79	33.686
481.14	34.529
481.49	33.744
481.84	33.977
482.19	33.536
482.53	34.341
482.88	33.938
483.23	33.061
483.58	33.774
483.92	33.107
484.27	32.726
484.62	33.079
484.97	31.841
485.31	32.442
485.66	31.650
486.01	31.664
486.36	31.113
486.70	31.694
487.05	32.030
487.40	32.265
487.75	31.408
488.09	31.737
488.44	31.568
488.79	32.275
489.13	31.931
489.48	32.108
489.83	32.242
490.17	31.775
490.52	32.748
490.87	32.022
491.22	32.426
491.56	31.736
491.91	31.836
492.26	31.697
492.60	31.574
492.95	32.415
493.30	31.363
493.64	31.434
493.99	31.498
494.34	31.602
494.68	32.000
495.03	31.436
495.37	31.158
495.72	31.297
496.07	31.561
496.41	31.509
496.76	31.322
497.11	30.228
497.45	30.215
497.80	31.080
498.14	30.999
498.49	31.285
498.84	31.238
499.18	30.673
499.53	30.605
499.87	29.377
500.22	31.503
500.56	30.358
500.91	30.171
501.26	30.005
501.60	29.759
501.95	30.471
502.29	30.412
502.64	30.068
502.98	29.798
503.33	29.683
503.67	29.398
504.02	30.352
504.36	29.045
504.71	29.848
505.06	29.492
505.40	29.188
505.75	29.278
506.09	29.752
506.44	30.133
506.78	28.980
507.13	28.645
507.47	28.407
507.82	29.274
508.16	28.949
508.51	30.168
508.85	28.938
509.19	28.526
509.54	28.794
509.88	28.479
510.23	28.779
510.57	28.862
510.92	27.772
511.26	28.860
511.61	28.658
511.95	28.548
512.30	27.882
512.64	29.327
512.98	27.288
513.33	29.155
513.67	28.027
514.02	29.119
514.36	29.086
514.70	29.487
515.05	29.553
515.39	27.568
515.74	28.922
516.08	28.033
516.42	29.211
516.77	28.262
517.11	28.843
517.46	28.426
517.80	28.188
518.14	28.169
518.49	27.644
518.83	28.007
519.17	28.017
519.52	28.242
519.86	27.971
520.20	27.096
520.55	27.267
520.89	27.917
521.23	27.992
521.58	28.833
521.92	28.269
522.26	28.302
522.61	27.338
522.95	29.139
523.29	27.255
523.64	28.081
523.98	26.766
524.32	26.675
524.66	28.361
525.01	27.922
525.35	27.479
525.69	26.465
526.04	26.653
526.38	28.340
526.72	27.142
527.06	27.691
527.41	27.111
527.75	27.949
528.09	26.445
528.43	27.279
528.78	26.271
529.12	26.452
529.46	25.861
529.80	26.409
530.15	26.271
530.49	26.061
530.83	26.881
531.17	26.192
531.51	26.744
531.86	25.765
532.20	25.191
532.54	26.549
532.88	26.283
533.22	26.142
533.57	25.885
533.91	25.587
534.25	26.042
534.59	25.978
534.93	25.425
535.27	23.541
535.62	25.729
535.96	26.354
536.30	25.726
536.64	25.982
536.98	26.202
537.32	25.747
537.66	26.087
538.01	25.594
538.35	25.451
538.69	25.632
539.03	24.470
539.37	25.908
539.71	25.290
540.05	25.458
540.39	24.377
540.73	24.826
541.07	25.276
541.42	24.395
541.76	25.671
542.10	24.363
542.44	25.087
542.78	24.845
543.12	24.382
543.46	25.313
543.80	25.468
544.14	24.433
544.48	24.517
544.82	25.222
545.16	24.727
545.50	24.967
545.84	25.142
546.18	25.319
546.52	24.513
546.86	23.724
547.20	24.392
547.54	24.311
547.88	24.457
548.22	23.537
548.56	23.351
548.90	23.720
549.24	23.140
549.58	24.048
549.92	23.874
550.26	22.711
550.60	24.238
550.94	24.421
551.28	24.498
551.62	23.692
551.96	23.985
552.30	23.538
552.64	23.766
552.98	24.262
553.32	23.538
553.66	23.367
554.00	23.723
554.34	23.929
554.68	23.230
555.02	23.586
555.36	23.186
555.69	21.905
556.03	22.769
556.37	23.132
556.71	22.455
557.05	22.595
557.39	22.454
557.73	23.013
558.07	23.379
558.41	22.818
558.75	23.383
559.08	23.325
559.42	22.937
559.76	22.738
560.10	22.554
560.44	23.753
560.78	22.727
561.12	22.638
561.45	22.839
561.79	22.059
562.13	23.066
562.47	21.655
562.81	23.127
563.15	22.144
563.48	22.065
563.82	22.718
564.16	22.006
564.50	22.230
564.84	22.222
565.17	21.596
565.51	23.019
565.85	22.359
566.19	22.281
566.52	22.989
566.86	22.172
567.20	20.922
567.54	21.655
567.88	21.910
568.21	21.946
568.55	21.304
568.89	21.817
569.23	21.521
569.56	21.103
569.90	20.706
570.24	20.692
570.57	20.727
570.91	20.600
571.25	20.651
571.59	20.149
571.92	19.585
572.26	19.988
572.60	19.690
572.93	19.611
573.27	19.875
573.61	19.988
573.95	19.716
574.28	19.306
574.62	18.942
574.96	19.322
575.29	19.006
575.63	18.476
575.97	18.677
576.30	19.173
576.64	19.046
576.98	19.588
577.31	19.341
577.65	19.060
577.98	19.294
578.32	18.832
578.66	18.569
578.99	18.952
579.33	18.661
579.67	18.774
580.00	19.114
580.34	19.080
580.67	18.546
581.01	18.900
581.35	18.519
581.68	18.382
582.02	18.499
582.35	18.644
582.69	18.309
583.02	18.351
583.36	18.476
583.70	19.315
584.03	18.571
584.37	19.339
584.70	18.489
585.04	18.031
585.37	18.182
585.71	18.193
586.04	18.432
586.38	18.111
586.72	18.852
587.05	18.804
587.39	18.479
587.72	18.972
588.06	18.433
588.39	18.371
588.73	18.315
589.06	18.395
589.40	18.839
589.73	18.656
590.07	18.995
590.40	18.576
590.73	18.287
591.07	18.872
591.40	19.190
591.74	19.095
592.07	18.553
592.41	18.375
592.74	18.399
593.08	17.569
593.41	18.089
593.75	18.613
594.08	17.851
594.41	18.195
594.75	18.244
595.08	17.783
595.42	17.593
595.75	17.987
596.09	18.061
596.42	18.355
596.75	18.073
597.09	18.679
597.42	18.473
597.75	18.232
598.09	18.153
598.42	17.825
598.76	17.417
599.09	17.548
599.42	17.545
599.76	17.532
600.09	17.345
600.42	17.210
600.76	17.348
601.09	17.901
601.42	17.039
601.76	17.705
602.09	17.327
602.42	17.270
602.76	17.699
603.09	17.650
603.42	17.851
603.76	16.976
604.09	17.456
604.42	17.978
604.76	17.713
605.09	18.190
605.42	17.472
605.75	17.601
606.09	17.367
606.42	17.306
606.75	16.883
607.09	17.187
607.42	17.147
607.75	16.430
608.08	17.071
608.42	17.222
608.75	17.108
609.08	16.941
609.41	17.310
609.75	16.431
610.08	17.823
610.41	16.473
610.74	17.162
611.07	16.693
611.41	17.540
611.74	16.738
612.07	17.666
612.40	17.287
612.73	17.345
613.07	16.648
613.40	17.560
613.73	16.900
614.06	17.529
614.39	17.654
614.72	16.583
615.06	17.933
615.39	16.812
615.72	17.008
616.05	17.374
616.38	16.923
616.71	17.064
617.05	17.048
617.38	16.468
617.71	17.736
618.04	17.714
618.37	18.096
618.70	17.360
619.03	17.917
619.36	16.932
619.69	17.362
620.03	18.700
620.36	17.239
620.69	17.273
621.02	17.584
621.35	17.593
621.68	16.837
622.01	17.583
622.34	17.717
622.67	18.691
623.00	17.611
623.33	16.159
623.66	16.679
623.99	16.415
624.32	17.490
624.65	17.744
624.99	16.704
625.32	15.618
625.65	17.125
625.98	17.325
626.31	16.708
626.64	18.111
626.97	17.888
627.30	16.375
627.63	18.198
627.96	17.161
628.29	17.206
628.62	17.699
628.95	17.034
629.28	17.540
629.61	15.952
629.94	17.302
630.26	17.292
630.59	18.522
630.92	17.128
631.25	17.333
631.58	17.621
631.91	17.325
632.24	15.940
632.57	18.523
632.90	17.319
633.23	16.706
633.56	17.632
633.89	17.633
634.22	17.531
634.55	18.424
634.88	17.369
635.20	16.923
635.53	17.333
635.86	17.815
636.19	17.853
636.52	16.327
636.85	15.633
637.18	17.233
637.51	16.855
637.83	17.871
638.16	19.645
638.49	15.804
638.82	19.605
639.15	16.689
639.48	17.194
639.81	17.573
640.13	17.316
640.46	17.930
640.79	15.169
641.12	15.953
641.45	17.868
641.77	16.444
642.10	19.115
642.43	15.756
642.76	18.152
643.09	17.286
643.41	15.858
643.74	17.298
644.07	19.048
644.40	19.595
644.73	15.762
645.05	18.960
645.38	17.284
645.71	15.603
646.04	19.031
646.36	17.553
646.69	18.705
647.02	17.391
647.35	17.724
647.67	17.550
648.00	18.284
648.33	17.918
648.66	16.610
648.98	15.410
649.31	14.711
649.64	15.071
649.96	14.587
650.29	15.673
650.62	18.462
650.94	14.444
651.27	16.946
651.60	18.559
651.92	15.734
652.25	14.565
652.58	13.333
652.90	18.353
653.23	17.647
653.56	16.074
653.88	18.213
654.21	15.412
654.54	15.959
654.86	17.487
655.19	17.105
655.52	16.254
655.84	14.627
656.17	15.635
656.49	20.958
656.82	21.354
657.15	16.495
657.47	12.478
657.80	9.109
658.13	8.967
658.45	14.084
658.78	13.702
659.10	13.524
659.43	13.816
659.75	14.258
660.08	13.655
660.41	14.811
660.73	14.779
661.06	17.678
661.38	14.481
661.71	13.758
662.03	17.382
662.36	17.143
662.68	15.929
663.01	18.341
663.33	14.153
663.66	13.953
663.98	15.116
664.31	16.844
664.63	16.359
664.96	13.478
665.28	15.011
665.61	16.234
665.93	17.174
666.26	18.004
666.58	14.094
666.91	16.471
667.23	18.396
667.56	16.588
667.88	12.950
668.21	16.945
668.53	16.785
668.86	16.745
669.18	14.387
669.50	15.738
669.83	14.186
670.15	16.783
670.48	18.182
670.80	14.055
671.13	14.318
671.45	14.155
671.77	16.953
672.10	14.455
672.42	16.292
672.75	16.341
673.07	17.174
673.39	14.862
673.72	12.229
674.04	15.833
674.37	15.042
674.69	15.203
675.01	16.667
675.34	16.216
675.66	17.130
675.98	16.851
676.31	11.697
676.63	14.252
676.95	14.091
677.28	18.588
677.60	15.904
677.92	13.532
678.25	13.567
678.57	15.152
678.89	15.126
679.22	13.647
679.54	15.060
679.86	14.513
680.18	16.311
680.51	15.152
680.83	13.718
681.15	15.200
681.48	15.574
681.80	13.017
682.12	15.726
682.44	11.715
682.77	16.336
683.09	16.018
683.41	14.773
683.73	13.825
684.06	14.381
684.38	13.548
684.70	15.904
685.02	12.863
685.34	12.846
685.67	12.383
685.99	15.190
686.31	13.274
686.63	13.173
686.96	11.407
687.28	13.535
687.60	11.597
687.92	15.354
688.24	15.323
688.56	14.410
688.89	15.625
689.21	17.333
689.53	16.241
689.85	13.488
690.17	14.062
690.49	11.584
690.82	13.592
691.14	14.286
691.46	13.551
691.78	12.387
692.10	14.409
692.42	13.636
692.74	13.889
693.06	14.640
693.39	12.217
693.71	13.122
694.03	13.164
694.35	14.252
694.67	13.131
694.99	13.316
695.31	12.533
695.63	14.000
695.95	11.111
696.27	13.731
696.59	13.611
696.91	15.406
697.23	11.054
697.56	11.634
697.88	16.344
698.20	15.262
698.52	12.941
698.84	11.962
699.16	10.500
699.48	14.035
699.80	11.911
700.12	15.633
700.44	17.087
700.76	11.919
701.08	11.212
701.40	12.349
701.72	18.210
702.04	12.541
702.36	15.385
702.68	12.613
703.00	11.818
703.32	14.956
703.64	10.734
703.96	13.043
704.28	12.577
704.60	13.651
704.91	14.511
705.23	8.638
705.55	15.194
705.87	14.079
706.19	11.481
706.51	12.027
706.83	12.862
707.15	10.280
707.47	14.846
707.79	9.896
708.11	14.000
708.43	13.000
708.74	13.695
709.06	15.211
709.38	13.150
709.70	14.497
710.02	10.191
710.34	16.718
710.66	11.538
710.98	12.252
711.29	13.115
711.61	16.949
711.93	14.984
712.25	17.182
712.57	11.722
712.89	13.433
713.20	13.149
713.52	13.589
713.84	13.652
714.16	14.777
714.48	11.290
714.80	14.423
715.11	13.070
715.43	9.718
715.75	6.333
716.07	12.625
716.39	13.087
716.70	13.284
717.02	13.740
717.34	13.765
717.66	16.372
717.97	9.130
718.29	14.644
718.61	12.205
718.93	10.465
719.24	11.027
719.56	11.647
719.88	15.120
720.20	14.773
720.51	10.728
720.83	11.583
721.15	15.126
721.46	11.290
721.78	7.115
722.10	14.126
722.42	10.373
722.73	11.429
723.05	13.878
723.37	12.712
723.68	10.360
724.00	14.103
724.32	9.778
724.63	15.000
724.95	11.790
725.27	12.903
725.58	15.678
725.90	10.714
726.22	13.514
726.53	14.237
726.85	13.483
727.16	15.849
727.48	10.931
727.80	9.717
728.11	10.169
728.43	8.627
728.74	6.452
729.06	10.400
729.38	16.165
729.69	5.578
730.01	7.692
730.32	14.925
730.64	13.781
730.96	12.830
731.27	10.333
731.59	9.831
731.90	15.287
732.22	13.249
732.53	10.963
732.85	13.475
733.16	16.498
733.48	10.432
733.80	9.420
734.11	14.576
734.43	9.278
734.74	10.606
735.06	10.423
735.37	15.106
735.69	11.785
736.00	10.801
736.32	12.081
736.63	11.972
736.95	12.969
737.26	8.541
737.58	9.060
737.89	7.326
738.21	9.023
738.52	12.346
738.83	10.044
739.15	6.114
739.46	11.811
739.78	12.088
740.09	10.131
740.41	9.783
740.72	11.024
741.04	14.170
741.35	10.213
741.66	11.848
741.98	8.673
742.29	14.851
742.61	9.948
742.92	8.057
743.23	8.333
743.55	9.955
743.86	11.483
744.18	10.526
744.49	4.787
744.80	11.413
745.12	11.765
745.43	7.317
745.74	6.771
746.06	9.756
746.37	12.042
746.68	14.218
747.00	3.723
747.31	14.428
747.62	8.252
747.94	10.526
748.25	12.376
748.56	8.743
748.88	7.853
749.19	11.170
749.50	11.330
749.82	3.302
750.13	3.670
750.44	13.534
750.75	10.821
751.07	17.153
751.38	10.345
751.69	11.373
752.01	12.791
752.32	15.139
752.63	6.719
752.94	13.362
753.26	15.063
753.57	12.670
753.88	10.619
754.19	3.750
754.51	9.091
754.82	10.931
755.13	10.833
755.44	10.887
755.75	12.109
756.07	7.393
756.38	12.075
756.69	9.195
757.00	14.667
757.31	9.477
757.63	7.927
757.94	10.278
758.25	10.685
758.56	8.511
758.87	8.782
759.18	9.034
759.50	4.727
759.81	9.365
760.12	9.355
760.43	9.394
760.74	14.815
761.05	10.154
761.36	9.091
761.67	13.636
761.99	11.905
762.30	8.000
762.61	12.253
762.92	6.335
763.23	11.712
763.54	7.009
763.85	13.136
764.16	8.299
764.47	10.484
764.78	5.128
765.10	12.121
765.41	8.833
765.72	9.524
766.03	6.391
766.34	12.409
766.65	9.562
766.96	9.091
767.27	8.511
767.58	8.621
767.89	2.837
768.20	6.818
768.51	11.538
768.82	12.315
769.13	1.382
769.44	8.584
769.75	7.763
770.06	13.362
770.37	12.019
770.68	8.122
770.99	9.050
771.30	13.725
771.61	10.860
771.92	12.500
772.23	12.315
772.54	10.215
772.85	5.556
773.16	10.674
773.47	5.229
773.78	9.150
774.09	13.174
774.39	4.667
774.70	8.917
775.01	11.724
775.32	13.571
775.63	0.000
775.94	12.214
776.25	7.874
776.56	13.333
776.87	14.423
777.18	2.564
777.48	10.345
777.79	-4.348
778.10	-10.476
778.41	-1.802
778.72	10.317
779.03	12.030
779.34	13.475
779.65	13.014
779.95	3.425
780.26	12.414
780.57	2.439
780.88	6.299
781.19	9.483
781.50	2.326
781.80	8.284
782.11	5.031
782.42	7.692
782.73	-0.719
783.04	7.407
783.34	5.556
783.65	-6.838
783.96	12.295
784.27	13.103
784.57	9.756
784.88	5.469
785.19	0.000
785.50	5.000
785.81	10.345
786.11	-2.586
786.42	11.650
786.73	6.364
787.04	1.020
787.34	8.036
787.65	3.810
787.96	0.000
788.26	7.273
788.57	-0.855
788.88	7.813
789.19	3.968
789.49	9.565
789.80	3.061
790.11	3.030
790.41	0.000
790.72	8.696
791.03	-12.500
791.33	8.750
791.64	10.000
791.95	3.488
792.25	10.638
792.56	2.247
792.87	6.849
793.17	-7.246
793.48	-9.333
793.79	3.750
794.09	5.000
794.40	7.547
794.70	2.913
795.01	-2.439
795.32	3.419
795.62	10.476
795.93	4.902
796.23	7.547
796.54	5.208
796.85	10.294
797.15	5.634
797.46	9.722
797.76	0.000
798.07	2.326
798.37	-6.579
798.68	-4.545
798.99	4.938
799.29	14.286
799.60	0.000
799.90	13.333
800.21	3.279
800.51	-1.538
800.82	-10.169
801.12	0.000
801.43	3.279
801.73	0.000
802.04	-2.000
802.34	-2.985
802.65	-3.846
802.95	-8.929
803.26	1.923
803.56	9.804
803.87	-36.957
804.17	9.333
804.48	14.286
804.78	3.704
805.09	-6.522
805.39	-15.556
805.70	7.407
806.00	-21.053
806.30	11.268
806.61	5.714
806.91	-12.500
807.22	6.579
807.52	-1.333
807.83	-21.818
808.13	15.278
808.43	14.706
808.74	-4.478
809.04	-10.169
809.35	-1.923
809.65	-1.562
809.95	-37.838
810.26	-20.455
810.56	2.740
810.86	-11.905
811.17	-10.000
811.47	0.000
811.77	5.263
812.08	-11.364
812.38	-11.321
812.69	0.000
812.99	-27.273
813.29	-21.053
813.59	-40.000
813.90	22.727
814.20	-10.256
814.50	1.923
814.81	16.981
815.11	-8.511
815.41	8.475
815.72	-4.762
816.02	-1.961
816.32	0.000
816.62	7.317
816.93	-10.811
817.23	2.857
817.53	-2.083
817.84	-10.870
818.14	11.538
818.44	-15.789
818.74	21.739
819.04	-32.500
819.35	2.703
819.65	-8.824
819.95	-5.556
820.25	-9.524
820.56	15.000
820.86	-58.621
821.16	32.500
821.46	10.638
821.76	-5.000
822.07	9.302
822.37	-18.919
822.67	-12.500
822.97	23.810
823.27	-46.429
823.57	-12.000
823.88	-74.074
824.18	0.000
824.48	-5.882
824.78	0.000
825.08	-21.739
825.38	6.061
825.69	-70.833
825.99	15.789
826.29	-8.333
826.59	0.000
826.89	-38.095
827.19	0.000
827.49	5.000
827.79	11.429
828.09	50.000
828.39	18.182
828.70	29.730
829.00	-7.143
829.30	-14.286
829.60	-20.000
829.90	-9.375
830.20	7.895
830.50	-59.259
830.80	-60.870
831.10	-90.909
831.40	42.424
831.70	6.452
832.00	-14.286
832.30	-33.333
832.60	-91.667
832.90	-34.483
833.20	15.000
833.50	-6.061
833.80	3.704
834.10	19.231
834.40	21.875
834.70	-66.667
835.00	-89.474
835.30	-3.846
835.60	-20.000
835.90	12.903
836.20	-45.455
836.50	-3.571
836.80	-57.692
837.10	-7.143
837.40	-566.667
837.70	0.000
838.00	-127.273
838.30	26.087
838.60	-7.692
838.90	50.000
839.19	3.571
839.49	6.667
839.79	-15.385
840.09	-41.667
840.39	21.429
840.69	-17.857
840.99	-26.923
841.29	-63.158
841.59	-160.000
841.88	9.091
842.18	20.000
842.48	-81.250
842.78	-33.333
843.08	-40.741
843.38	-80.000
843.68	-30.435
843.97	13.333
844.27	-73.333
844.57	-45.000
844.87	-27.778
845.17	-28.571
845.47	-20.000
845.76	-9.524
846.06	41.176
846.36	-180.000
846.66	-100.000
846.96	-66.667
847.25	-175.000
847.55	-42.857
847.85	-112.500
848.15	-45.455
848.44	-500.000
848.74	-25.000
849.04	0.000
849.34	-54.545
849.63	-133.333
849.93	-260.000
850.23	11.111
850.53	0.000
850.82	-53.846
851.12	-66.667
851.42	-40.000
851.71	-34.615
852.01	-21.429
852.31	-225.000
852.61	9.091
852.90	-35.000
853.20	-21.053
853.50	-108.333
853.79	-13.043
854.09	50.000
854.39	-26.316
854.68	4.167
854.98	-38.710
855.28	15.385
855.57	-95.000
855.87	77.778
856.17	18.519
856.46	-64.286
856.76	-40.000
857.05	33.333
857.35	-28.000
857.65	-33.333
857.94	7.692
858.24	-24.138
858.53	22.222
858.83	-7.407
859.13	0.000
859.42	-17.391
859.72	-400.000
860.01	-700.000
860.31	-8.000
860.60	-23.810
860.90	-400.000
861.20	-120.000
861.49	-400.000
861.79	-60.000
862.08	-15.000
862.38	40.000
862.67	-240.000
862.97	-166.667
863.26	-50.000
863.56	-11.111
863.85	-366.667
864.15	-11.111
864.44	-50.000
864.74	-57.143
865.03	300.000
865.33	-200.000
865.62	-33.333
865.92	16.667
866.21	-250.000
866.51	-18.750
866.80	-45.455
867.10	-550.000
867.39	8.333
867.69	0.000
867.98	46.154
868.27	-300.000
868.57	-46.667
868.86	11.111
869.16	-46.154
869.45	-13.333
869.75	-1300.000
870.04	0.000
870.33	-85.714
870.63	-19.048
870.92	666.667
871.22	-300.000
871.51	-1500.000
871.80	0.000
872.10	500.000
>>>>>End Processed Spectral Data<<<<<
