SpectraSuite Data File
++++++++++++++++++++++++++++++++++++
Date: Fri May 15 21:00:55 PDT 2015
User: schluterlab
Dark Spectrum Present: Yes
Reference Spectrum Present: Yes
Number of Sampled Component Spectra: 1
Spectrometers: USB2E3373
Integration Time (usec): 3000 (USB2E3373)
Spectra Averaged: 3 (USB2E3373)
Boxcar Smoothing: 0 (USB2E3373)
Correct for Electrical Dark: No (USB2E3373)
Strobe/Lamp Enabled: No (USB2E3373)
Correct for Detector Non-linearity: No (USB2E3373)
Correct for Stray Light: No (USB2E3373)
Number of Pixels in Processed Spectrum: 2048
>>>>>Begin Processed Spectral Data<<<<<
178.53	0.000
178.91	0.000
179.29	-25.000
179.67	-350.000
180.04	71.429
180.42	75.000
180.80	-1200.000
181.18	300.000
181.56	800.000
181.94	-500.000
182.31	600.000
182.69	-80.000
183.07	-433.333
183.45	-120.000
183.83	333.333
184.20	-45.455
184.58	222.222
184.96	-75.000
185.34	300.000
185.72	-300.000
186.09	76.923
186.47	-800.000
186.85	150.000
187.23	200.000
187.61	-200.000
187.98	-233.333
188.36	-22.222
188.74	-133.333
189.12	-52.941
189.49	22.222
189.87	0.000
190.25	-28.571
190.63	-150.000
191.00	-100.000
191.38	-36.842
191.76	-250.000
192.14	150.000
192.51	100.000
192.89	-122.222
193.27	-171.429
193.65	316.667
194.02	145.455
194.40	-20.000
194.78	-175.000
195.15	0.000
195.53	-75.000
195.91	150.000
196.29	-25.000
196.66	123.077
197.04	200.000
197.42	11.111
197.79	-700.000
198.17	-61.538
198.55	1100.000
198.92	-600.000
199.30	300.000
199.68	-380.000
200.05	-333.333
200.43	0.000
200.81	-100.000
201.18	-266.667
201.56	800.000
201.94	100.000
202.31	133.333
202.69	-80.000
203.07	275.000
203.44	-900.000
203.82	0.000
204.19	-42.857
204.57	-733.333
204.95	162.500
205.32	-30.000
205.70	-57.143
206.08	-175.000
206.45	44.444
206.83	7.143
207.20	-171.429
207.58	1000.000
207.96	-366.667
208.33	-130.000
208.71	-150.000
209.08	-316.667
209.46	-900.000
209.84	20.000
210.21	-1500.000
210.59	-42.857
210.96	-16.667
211.34	-200.000
211.71	-26.667
212.09	-128.571
212.46	-1600.000
212.84	0.000
213.22	0.000
213.59	200.000
213.97	69.231
214.34	118.182
214.72	0.000
215.09	250.000
215.47	-61.538
215.84	-63.636
216.22	-466.667
216.59	-75.000
216.97	-50.000
217.34	25.000
217.72	-220.000
218.09	0.000
218.47	287.500
218.84	-900.000
219.22	-188.889
219.59	-160.000
219.97	200.000
220.34	275.000
220.72	-100.000
221.09	-250.000
221.47	-200.000
221.84	-400.000
222.22	-1100.000
222.59	36.364
222.97	0.000
223.34	-300.000
223.72	-50.000
224.09	4.762
224.46	-32.143
224.84	433.333
225.21	-30.000
225.59	0.000
225.96	-300.000
226.34	250.000
226.71	-228.571
227.08	-50.000
227.46	-12.500
227.83	-1100.000
228.21	0.000
228.58	-27.273
228.95	-50.000
229.33	90.000
229.70	0.000
230.08	-150.000
230.45	-314.286
230.82	114.286
231.20	0.000
231.57	42.857
231.95	14.286
232.32	-40.000
232.69	35.714
233.07	33.333
233.44	-20.000
233.81	-100.000
234.19	-44.444
234.56	-52.941
234.93	350.000
235.31	200.000
235.68	-340.000
236.05	-115.385
236.43	-55.000
236.80	-11.765
237.17	0.000
237.55	0.000
237.92	-3.704
238.29	8.333
238.67	23.333
239.04	17.647
239.41	-9.756
239.79	-40.000
240.16	0.000
240.53	-34.211
240.91	-8.696
241.28	6.349
241.65	1.786
242.02	13.699
242.40	-10.000
242.77	-1.695
243.14	-6.061
243.51	15.000
243.89	12.644
244.26	9.195
244.63	-11.905
245.00	6.186
245.38	4.124
245.75	-5.618
246.12	1.724
246.49	5.785
246.87	9.615
247.24	3.361
247.61	-3.509
247.98	1.626
248.36	-2.500
248.73	-0.658
249.10	2.597
249.47	7.595
249.84	1.307
250.22	5.882
250.59	1.307
250.96	12.207
251.33	1.163
251.70	1.176
252.08	7.614
252.45	2.970
252.82	1.508
253.19	0.461
253.56	3.738
253.94	5.405
254.31	3.913
254.68	7.456
255.05	8.661
255.42	3.930
255.79	7.722
256.16	7.393
256.54	8.209
256.91	6.464
257.28	4.089
257.65	5.243
258.02	7.447
258.39	10.774
258.76	8.791
259.14	8.638
259.51	7.120
259.88	4.467
260.25	8.497
260.62	6.597
260.99	2.034
261.36	5.137
261.73	6.013
262.10	5.471
262.47	6.135
262.85	5.329
263.22	6.154
263.59	3.115
263.96	9.627
264.33	8.182
264.70	6.548
265.07	2.083
265.44	8.782
265.81	6.215
266.18	9.290
266.55	10.026
266.92	9.067
267.29	8.094
267.66	7.928
268.03	5.759
268.40	6.266
268.77	7.754
269.14	8.873
269.51	7.969
269.88	5.486
270.25	5.612
270.62	4.634
270.99	4.348
271.36	5.134
271.73	9.390
272.10	6.813
272.47	6.383
272.84	6.683
273.21	7.657
273.58	5.783
273.95	8.009
274.32	5.312
274.69	6.787
275.06	7.366
275.43	3.628
275.80	4.194
276.17	6.207
276.54	7.923
276.91	7.018
277.28	7.642
277.65	7.851
278.02	5.532
278.39	7.221
278.76	7.547
279.13	2.905
279.50	5.462
279.87	8.207
280.23	6.882
280.60	9.747
280.97	7.475
281.34	5.769
281.71	9.446
282.08	5.930
282.45	6.067
282.82	6.564
283.19	6.576
283.56	7.322
283.92	3.985
284.29	6.731
284.66	6.783
285.03	5.501
285.40	5.104
285.77	5.975
286.14	7.220
286.51	8.118
286.87	6.033
287.24	6.077
287.61	5.644
287.98	6.842
288.35	7.799
288.72	7.706
289.08	4.688
289.45	8.963
289.82	6.993
290.19	7.679
290.56	4.631
290.93	6.229
291.29	4.160
291.66	5.039
292.03	6.539
292.40	7.258
292.77	4.944
293.13	4.870
293.50	4.249
293.87	7.023
294.24	5.719
294.60	6.855
294.97	7.440
295.34	3.528
295.71	5.812
296.08	6.876
296.44	4.836
296.81	6.667
297.18	6.377
297.55	7.859
297.91	5.753
298.28	7.520
298.65	5.020
299.02	5.121
299.38	4.651
299.75	4.966
300.12	5.759
300.48	5.402
300.85	5.577
301.22	4.805
301.59	5.658
301.95	6.456
302.32	6.874
302.69	6.219
303.05	6.807
303.42	6.227
303.79	6.893
304.15	5.854
304.52	5.232
304.89	5.731
305.25	5.690
305.62	4.551
305.99	5.965
306.35	4.393
306.72	5.062
307.09	6.157
307.45	6.200
307.82	4.977
308.19	7.782
308.55	6.543
308.92	6.318
309.29	6.704
309.65	6.459
310.02	6.381
310.38	7.574
310.75	6.120
311.12	6.781
311.48	5.938
311.85	6.387
312.22	6.751
312.58	7.325
312.95	7.257
313.31	6.729
313.68	7.330
314.05	7.653
314.41	8.557
314.78	9.175
315.14	9.455
315.51	8.799
315.87	9.119
316.24	10.617
316.61	10.827
316.97	11.012
317.34	10.742
317.70	10.038
318.07	10.962
318.43	10.686
318.80	10.890
319.16	12.012
319.53	11.871
319.89	11.811
320.26	12.449
320.62	13.842
320.99	12.109
321.35	13.875
321.72	14.538
322.08	14.401
322.45	14.924
322.81	15.128
323.18	14.230
323.54	14.286
323.91	15.190
324.27	16.797
324.64	17.135
325.00	17.427
325.37	18.182
325.73	18.042
326.10	18.892
326.46	19.462
326.83	19.860
327.19	19.704
327.56	19.201
327.92	22.007
328.29	20.982
328.65	21.321
329.01	22.151
329.38	22.488
329.74	23.041
330.11	22.428
330.47	22.635
330.84	23.750
331.20	25.856
331.56	23.981
331.93	25.388
332.29	24.840
332.66	24.163
333.02	25.743
333.38	25.756
333.75	26.557
334.11	25.246
334.48	27.017
334.84	26.465
335.20	25.892
335.57	26.564
335.93	25.836
336.29	25.967
336.66	26.975
337.02	25.558
337.38	25.926
337.75	27.182
338.11	28.043
338.47	26.734
338.84	27.449
339.20	27.971
339.56	27.890
339.93	27.932
340.29	26.881
340.65	27.419
341.02	27.748
341.38	27.257
341.74	25.353
342.11	25.477
342.47	25.979
342.83	26.557
343.20	26.045
343.56	26.696
343.92	26.661
344.28	27.839
344.65	26.339
345.01	26.016
345.37	26.661
345.73	27.866
346.10	27.265
346.46	26.241
346.82	25.777
347.19	24.273
347.55	26.566
347.91	26.294
348.27	26.435
348.63	26.491
349.00	25.267
349.36	24.439
349.72	26.451
350.08	26.475
350.45	24.980
350.81	25.581
351.17	24.756
351.53	24.735
351.89	24.443
352.26	24.880
352.62	25.323
352.98	23.534
353.34	24.960
353.70	26.537
354.07	25.242
354.43	24.179
354.79	24.443
355.15	25.397
355.51	25.237
355.87	25.081
356.24	23.817
356.60	24.252
356.96	24.365
357.32	23.802
357.68	23.690
358.04	24.152
358.40	25.000
358.77	24.960
359.13	23.939
359.49	24.807
359.85	24.493
360.21	24.003
360.57	24.254
360.93	23.828
361.29	24.094
361.66	25.000
362.02	24.470
362.38	23.382
362.74	24.148
363.10	24.078
363.46	24.092
363.82	24.643
364.18	23.247
364.54	23.309
364.90	23.297
365.26	23.435
365.62	25.401
365.98	23.900
366.35	24.618
366.71	23.651
367.07	24.601
367.43	23.652
367.79	23.746
368.15	22.972
368.51	23.889
368.87	23.403
369.23	23.249
369.59	24.344
369.95	23.974
370.31	23.483
370.67	23.433
371.03	23.450
371.39	23.705
371.75	23.736
372.11	23.609
372.47	23.225
372.83	23.705
373.19	23.538
373.55	23.249
373.91	23.542
374.27	24.309
374.63	24.480
374.99	23.901
375.35	22.284
375.71	24.825
376.07	23.525
376.42	24.082
376.78	23.154
377.14	23.426
377.50	24.236
377.86	23.762
378.22	24.633
378.58	23.141
378.94	24.512
379.30	23.206
379.66	23.950
380.02	23.115
380.38	23.372
380.74	23.878
381.09	23.374
381.45	23.609
381.81	23.627
382.17	23.668
382.53	24.422
382.89	24.231
383.25	24.020
383.61	24.085
383.97	22.984
384.32	24.140
384.68	23.653
385.04	24.326
385.40	23.522
385.76	24.906
386.12	24.127
386.48	24.840
386.83	23.843
387.19	24.176
387.55	24.341
387.91	23.533
388.27	23.871
388.62	23.789
388.98	23.389
389.34	24.422
389.70	24.363
390.06	23.159
390.42	23.640
390.77	24.133
391.13	23.770
391.49	24.127
391.85	24.042
392.20	24.294
392.56	23.713
392.92	25.073
393.28	23.408
393.64	23.303
393.99	25.016
394.35	23.466
394.71	24.138
395.07	23.507
395.42	23.376
395.78	24.169
396.14	24.086
396.50	24.857
396.85	23.889
397.21	24.436
397.57	24.326
397.92	23.367
398.28	24.080
398.64	23.675
399.00	23.815
399.35	23.363
399.71	24.526
400.07	24.970
400.42	23.256
400.78	24.372
401.14	24.319
401.49	24.300
401.85	23.705
402.21	24.157
402.57	24.750
402.92	23.463
403.28	24.373
403.63	23.707
403.99	23.469
404.35	24.110
404.70	22.917
405.06	23.443
405.42	23.804
405.77	23.591
406.13	23.341
406.49	23.446
406.84	23.533
407.20	23.239
407.55	21.829
407.91	23.930
408.27	22.945
408.62	24.431
408.98	23.722
409.34	23.730
409.69	23.708
410.05	23.337
410.40	23.951
410.76	23.221
411.11	23.812
411.47	23.471
411.83	22.536
412.18	24.003
412.54	23.533
412.89	22.845
413.25	23.526
413.60	24.037
413.96	23.865
414.31	24.024
414.67	23.028
415.03	22.903
415.38	23.303
415.74	24.104
416.09	24.494
416.45	24.443
416.80	23.397
417.16	24.448
417.51	23.185
417.87	23.533
418.22	24.547
418.58	23.880
418.93	24.639
419.29	23.303
419.64	24.044
420.00	25.126
420.35	23.164
420.71	24.787
421.06	24.248
421.42	25.000
421.77	24.220
422.12	24.858
422.48	24.201
422.83	24.652
423.19	24.436
423.54	24.691
423.90	23.793
424.25	25.660
424.61	24.786
424.96	25.494
425.31	25.188
425.67	25.059
426.02	25.618
426.38	25.485
426.73	25.424
427.09	25.316
427.44	25.882
427.79	25.162
428.15	25.607
428.50	25.197
428.85	25.061
429.21	25.750
429.56	25.067
429.92	25.886
430.27	25.664
430.62	24.830
430.98	25.743
431.33	25.237
431.68	25.013
432.04	25.545
432.39	25.328
432.74	25.376
433.10	26.379
433.45	25.806
433.80	26.698
434.16	25.208
434.51	26.667
434.86	26.249
435.22	26.865
435.57	26.949
435.92	26.168
436.28	26.893
436.63	26.754
436.98	25.261
437.34	26.134
437.69	27.668
438.04	27.350
438.39	26.695
438.75	27.869
439.10	26.995
439.45	27.937
439.81	26.300
440.16	27.850
440.51	27.881
440.86	29.486
441.22	26.753
441.57	27.373
441.92	28.541
442.27	28.104
442.63	28.319
442.98	28.432
443.33	26.767
443.68	27.374
444.03	28.068
444.39	27.890
444.74	29.097
445.09	28.118
445.44	28.718
445.79	29.190
446.15	28.634
446.50	28.952
446.85	28.480
447.20	28.467
447.55	29.576
447.91	28.765
448.26	29.710
448.61	29.246
448.96	29.145
449.31	29.595
449.66	29.849
450.02	29.835
450.37	30.172
450.72	28.351
451.07	30.380
451.42	29.089
451.77	29.415
452.12	29.127
452.47	29.041
452.83	31.037
453.18	29.665
453.53	29.836
453.88	30.783
454.23	30.608
454.58	31.234
454.93	30.284
455.28	29.270
455.63	31.246
455.98	30.367
456.34	30.715
456.69	31.385
457.04	30.561
457.39	30.863
457.74	31.620
458.09	30.606
458.44	30.369
458.79	30.588
459.14	31.636
459.49	31.284
459.84	31.190
460.19	31.007
460.54	31.663
460.89	31.761
461.24	31.491
461.59	31.473
461.94	31.006
462.29	31.665
462.64	33.156
462.99	32.295
463.34	30.946
463.69	31.338
464.04	32.506
464.39	31.837
464.74	31.840
465.09	33.188
465.44	32.833
465.79	31.576
466.14	31.927
466.49	31.915
466.84	32.957
467.19	31.852
467.54	32.950
467.89	33.165
468.24	32.178
468.59	34.095
468.94	32.317
469.29	32.656
469.64	32.741
469.99	33.637
470.34	33.857
470.68	33.855
471.03	33.758
471.38	32.240
471.73	33.403
472.08	33.243
472.43	32.013
472.78	31.871
473.13	34.694
473.48	33.420
473.83	32.877
474.17	34.521
474.52	33.376
474.87	34.182
475.22	34.411
475.57	34.049
475.92	33.571
476.27	34.168
476.61	35.185
476.96	33.463
477.31	34.505
477.66	34.663
478.01	34.419
478.36	34.368
478.70	35.726
479.05	35.385
479.40	35.347
479.75	34.098
480.10	35.586
480.45	35.150
480.79	34.491
481.14	35.656
481.49	34.532
481.84	34.508
482.19	34.471
482.53	35.444
482.88	35.227
483.23	34.357
483.58	35.613
483.92	34.850
484.27	34.230
484.62	35.096
484.97	35.489
485.31	35.116
485.66	33.638
486.01	34.414
486.36	34.635
486.70	35.928
487.05	35.649
487.40	35.471
487.75	35.070
488.09	35.229
488.44	34.972
488.79	34.628
489.13	35.497
489.48	35.271
489.83	36.278
490.17	36.404
490.52	36.212
490.87	36.048
491.22	37.058
491.56	35.389
491.91	35.899
492.26	37.093
492.60	37.332
492.95	37.629
493.30	37.421
493.64	37.377
493.99	36.522
494.34	37.573
494.68	38.048
495.03	36.837
495.37	36.899
495.72	37.405
496.07	38.390
496.41	38.066
496.76	37.955
497.11	37.354
497.45	37.470
497.80	37.790
498.14	37.953
498.49	37.786
498.84	37.625
499.18	38.655
499.53	39.038
499.87	38.278
500.22	38.427
500.56	37.519
500.91	38.705
501.26	37.914
501.60	38.465
501.95	39.204
502.29	38.886
502.64	38.900
502.98	38.431
503.33	38.665
503.67	38.843
504.02	38.759
504.36	39.436
504.71	39.242
505.06	39.406
505.40	39.848
505.75	39.588
506.09	39.280
506.44	40.092
506.78	39.490
507.13	40.021
507.47	38.225
507.82	39.637
508.16	39.567
508.51	40.714
508.85	40.398
509.19	39.915
509.54	40.751
509.88	40.777
510.23	41.259
510.57	41.475
510.92	39.819
511.26	39.880
511.61	41.804
511.95	40.986
512.30	41.297
512.64	41.124
512.98	41.606
513.33	41.354
513.67	41.387
514.02	42.105
514.36	43.143
514.70	43.531
515.05	42.891
515.39	42.562
515.74	43.772
516.08	42.259
516.42	42.697
516.77	44.353
517.11	44.510
517.46	43.507
517.80	43.445
518.14	43.723
518.49	43.690
518.83	43.621
519.17	42.753
519.52	43.043
519.86	43.818
520.20	45.261
520.55	43.840
520.89	44.417
521.23	44.015
521.58	44.038
521.92	44.679
522.26	44.763
522.61	45.325
522.95	45.960
523.29	45.616
523.64	44.155
523.98	44.977
524.32	45.425
524.66	46.351
525.01	44.805
525.35	45.625
525.69	45.993
526.04	44.907
526.38	46.498
526.72	45.651
527.06	45.331
527.41	46.702
527.75	45.643
528.09	45.714
528.43	47.400
528.78	46.073
529.12	44.839
529.46	46.134
529.80	47.752
530.15	45.875
530.49	46.263
530.83	48.016
531.17	44.997
531.51	47.127
531.86	46.431
532.20	46.277
532.54	47.175
532.88	47.228
533.22	47.715
533.57	47.313
533.91	47.846
534.25	47.852
534.59	46.761
534.93	46.570
535.27	46.256
535.62	46.273
535.96	48.141
536.30	47.691
536.64	48.518
536.98	47.875
537.32	48.506
537.66	48.527
538.01	49.860
538.35	47.573
538.69	48.469
539.03	48.257
539.37	47.779
539.71	47.444
540.05	48.812
540.39	48.338
540.73	48.326
541.07	48.481
541.42	48.723
541.76	48.451
542.10	49.966
542.44	48.228
542.78	47.832
543.12	49.519
543.46	49.791
543.80	49.271
544.14	47.997
544.48	48.501
544.82	49.009
545.16	50.000
545.50	48.932
545.84	49.858
546.18	49.787
546.52	50.036
546.86	48.598
547.20	49.499
547.54	49.894
547.88	48.641
548.22	48.784
548.56	48.285
548.90	49.933
549.24	48.485
549.58	49.436
549.92	49.607
550.26	49.451
550.60	50.335
550.94	52.577
551.28	50.386
551.62	50.538
551.96	50.075
552.30	50.804
552.64	49.154
552.98	50.211
553.32	50.571
553.66	49.129
554.00	50.657
554.34	51.994
554.68	50.147
555.02	51.488
555.36	51.159
555.69	50.769
556.03	50.964
556.37	50.605
556.71	52.347
557.05	51.156
557.39	50.260
557.73	50.300
558.07	51.508
558.41	52.833
558.75	52.299
559.08	51.064
559.42	51.746
559.76	52.122
560.10	52.294
560.44	51.750
560.78	51.818
561.12	51.975
561.45	52.565
561.79	52.381
562.13	52.874
562.47	52.446
562.81	52.378
563.15	52.750
563.48	52.829
563.82	54.427
564.16	52.855
564.50	50.878
564.84	51.941
565.17	52.046
565.51	54.372
565.85	53.429
566.19	53.249
566.52	52.212
566.86	53.342
567.20	52.553
567.54	52.859
567.88	54.306
568.21	52.941
568.55	52.065
568.89	53.183
569.23	53.683
569.56	51.401
569.90	52.903
570.24	51.098
570.57	52.000
570.91	52.109
571.25	51.167
571.59	50.825
571.92	50.815
572.26	50.845
572.60	50.574
572.93	51.302
573.27	50.815
573.61	51.372
573.95	51.038
574.28	51.033
574.62	50.038
574.96	50.586
575.29	50.025
575.63	49.365
575.97	50.474
576.30	50.464
576.64	50.331
576.98	50.785
577.31	51.413
577.65	50.665
577.98	51.374
578.32	50.428
578.66	50.355
578.99	50.211
579.33	50.487
579.67	50.164
580.00	51.418
580.34	50.547
580.67	51.261
581.01	50.720
581.35	51.034
581.68	51.269
582.02	50.982
582.35	51.495
582.69	51.948
583.02	51.015
583.36	51.526
583.70	52.310
584.03	52.599
584.37	52.936
584.70	51.401
585.04	51.373
585.37	51.523
585.71	51.419
586.04	52.093
586.38	51.987
586.72	52.482
587.05	53.697
587.39	53.061
587.72	53.472
588.06	52.422
588.39	52.492
588.73	52.900
589.06	53.947
589.40	53.785
589.73	53.450
590.07	54.267
590.40	54.218
590.73	54.942
591.07	53.520
591.40	54.007
591.74	54.751
592.07	54.917
592.41	54.594
592.74	54.520
593.08	53.196
593.41	54.728
593.75	54.302
594.08	53.759
594.41	53.930
594.75	54.733
595.08	54.370
595.42	55.061
595.75	55.238
596.09	54.613
596.42	54.609
596.75	55.817
597.09	55.581
597.42	55.285
597.75	55.886
598.09	55.093
598.42	55.009
598.76	53.539
599.09	55.088
599.42	54.604
599.76	54.477
600.09	55.128
600.42	54.701
600.76	54.718
601.09	55.267
601.42	54.172
601.76	55.855
602.09	54.909
602.42	55.602
602.76	55.900
603.09	56.188
603.42	56.522
603.76	56.613
604.09	55.772
604.42	55.668
604.76	56.030
605.09	55.119
605.42	55.937
605.75	55.692
606.09	55.456
606.42	56.505
606.75	56.494
607.09	55.385
607.42	55.915
607.75	56.306
608.08	54.762
608.42	54.500
608.75	56.819
609.08	57.299
609.41	56.650
609.75	56.905
610.08	57.014
610.41	56.908
610.74	58.362
611.07	58.191
611.41	58.070
611.74	59.009
612.07	56.692
612.40	57.604
612.73	60.113
613.07	58.718
613.40	57.823
613.73	57.974
614.06	59.488
614.39	58.376
614.72	57.591
615.06	57.039
615.39	56.114
615.72	57.696
616.05	58.883
616.38	57.037
616.71	58.777
617.05	59.852
617.38	58.580
617.71	59.119
618.04	60.254
618.37	59.836
618.70	60.462
619.03	60.417
619.36	60.999
619.69	62.396
620.03	62.016
620.36	60.730
620.69	60.385
621.02	60.933
621.35	62.988
621.68	61.395
622.01	62.667
622.34	61.293
622.67	61.909
623.00	60.567
623.33	61.357
623.66	60.583
623.99	60.514
624.32	62.738
624.65	61.353
624.99	61.174
625.32	60.349
625.65	63.158
625.98	62.047
626.31	60.931
626.64	62.652
626.97	63.002
627.30	63.485
627.63	63.085
627.96	63.163
628.29	63.737
628.62	63.127
628.95	63.327
629.28	64.315
629.61	63.609
629.94	64.321
630.26	64.130
630.59	65.453
630.92	65.231
631.25	62.872
631.58	65.308
631.91	63.268
632.24	62.844
632.57	67.955
632.90	65.362
633.23	66.118
633.56	67.506
633.89	66.708
634.22	69.136
634.55	65.693
634.88	66.794
635.20	66.154
635.53	68.800
635.86	66.450
636.19	68.564
636.52	67.602
636.85	65.633
637.18	66.289
637.51	66.164
637.83	65.046
638.16	68.213
638.49	64.986
638.82	66.579
639.15	64.586
639.48	65.062
639.81	67.085
640.13	66.667
640.46	68.367
640.79	66.863
641.12	65.731
641.45	65.465
641.77	66.370
642.10	68.878
642.43	68.810
642.76	70.297
643.09	68.013
643.41	67.961
643.74	65.568
644.07	67.323
644.40	69.257
644.73	72.154
645.05	69.295
645.38	70.547
645.71	68.794
646.04	67.325
646.36	70.213
646.69	71.043
647.02	72.212
647.35	70.149
647.67	68.556
648.00	69.216
648.33	66.212
648.66	66.610
648.98	70.184
649.31	66.777
649.64	64.364
649.96	68.395
650.29	68.313
650.62	68.718
650.94	70.000
651.27	69.460
651.60	70.090
651.92	67.657
652.25	69.272
652.58	69.667
652.90	70.326
653.23	69.076
653.56	69.036
653.88	68.041
654.21	67.951
654.54	66.723
654.86	69.440
655.19	65.497
655.52	68.731
655.84	61.647
656.17	66.652
656.49	88.276
656.82	89.761
657.15	68.638
657.47	51.410
657.80	38.327
658.13	37.167
658.45	57.609
658.78	55.899
659.10	54.630
659.43	55.479
659.75	56.191
660.08	55.034
660.41	60.163
660.73	63.812
661.06	65.685
661.38	67.123
661.71	65.708
662.03	67.597
662.36	68.132
662.68	71.681
663.01	72.052
663.33	71.926
663.66	70.698
663.98	67.674
664.31	70.149
664.63	68.894
664.96	69.130
665.28	68.653
665.61	67.316
665.93	71.957
666.26	75.054
666.58	71.812
666.91	72.235
667.23	71.934
667.56	73.697
667.88	71.703
668.21	72.315
668.53	73.522
668.86	71.934
669.18	66.981
669.50	69.249
669.83	69.302
670.15	69.930
670.48	72.010
670.80	68.203
671.13	66.890
671.45	67.580
671.77	69.528
672.10	64.950
672.42	68.165
672.75	67.673
673.07	68.157
673.39	68.073
673.72	63.905
674.04	67.708
674.37	69.915
674.69	67.452
675.01	68.667
675.34	71.622
675.66	69.444
675.98	66.519
676.31	71.560
676.63	71.971
676.95	68.864
677.28	71.765
677.60	72.530
677.92	68.349
678.25	68.928
678.57	69.697
678.89	67.437
679.22	72.483
679.54	66.867
679.86	66.004
680.18	67.379
680.51	65.152
680.83	66.998
681.15	65.000
681.48	68.648
681.80	66.942
682.12	64.516
682.44	69.247
682.77	68.653
683.09	70.252
683.41	64.545
683.73	65.668
684.06	65.708
684.38	66.237
684.70	71.460
685.02	67.635
685.34	67.194
685.67	65.666
685.99	66.546
686.31	65.310
686.63	67.718
686.96	64.449
687.28	64.444
687.60	64.829
687.92	68.485
688.24	66.331
688.56	67.904
688.89	69.866
689.21	68.000
689.53	67.053
689.85	70.930
690.17	67.857
690.49	68.794
690.82	67.233
691.14	69.524
691.46	69.393
691.78	67.342
692.10	67.742
692.42	63.636
692.74	65.171
693.06	64.640
693.39	64.932
693.71	65.385
694.03	65.820
694.35	63.551
694.67	69.192
694.99	66.057
695.31	70.235
695.63	68.500
695.95	65.909
696.27	71.244
696.59	69.444
696.91	68.067
697.23	66.324
697.56	63.861
697.88	65.161
698.20	64.920
698.52	65.647
698.84	64.833
699.16	67.750
699.48	70.677
699.80	66.005
700.12	67.385
700.44	65.266
700.76	66.279
701.08	64.848
701.40	66.265
701.72	72.222
702.04	71.947
702.36	71.906
702.68	69.069
703.00	68.182
703.32	62.463
703.64	60.169
703.96	65.797
704.28	70.859
704.60	69.841
704.91	69.085
705.23	65.116
705.55	68.551
705.87	74.368
706.19	70.000
706.51	70.790
706.83	68.810
707.15	61.371
707.47	68.347
707.79	64.062
708.11	65.250
708.43	64.750
708.74	64.341
709.06	68.732
709.38	70.948
709.70	60.651
710.02	65.605
710.34	63.777
710.66	60.577
710.98	67.881
711.29	69.180
711.61	65.763
711.93	63.844
712.25	67.354
712.57	64.835
712.89	65.299
713.20	68.166
713.52	64.460
713.84	67.918
714.16	68.041
714.48	69.355
714.80	66.026
715.11	68.085
715.43	61.755
715.75	66.667
716.07	60.797
716.39	66.443
716.70	62.362
717.02	64.885
717.34	68.826
717.66	69.912
717.97	70.870
718.29	69.874
718.61	67.717
718.93	66.667
719.24	67.300
719.56	69.880
719.88	60.825
720.20	65.530
720.51	62.452
720.83	65.251
721.15	69.748
721.46	63.710
721.78	62.451
722.10	60.595
722.42	66.805
722.73	64.490
723.05	67.347
723.37	69.068
723.68	69.369
724.00	67.521
724.32	66.222
724.63	71.818
724.95	65.939
725.27	70.046
725.58	66.102
725.90	67.857
726.22	65.637
726.53	63.051
726.85	64.794
727.16	67.170
727.48	61.538
727.80	66.802
728.11	58.898
728.43	65.098
728.74	64.919
729.06	65.200
729.38	63.534
729.69	58.566
730.01	62.692
730.32	65.672
730.64	56.537
730.96	68.302
731.27	60.000
731.59	62.034
731.90	59.554
732.22	60.883
732.53	65.116
732.85	64.539
733.16	65.993
733.48	58.633
733.80	64.855
734.11	62.712
734.43	65.636
734.74	60.000
735.06	63.518
735.37	63.142
735.69	65.320
736.00	61.324
736.32	57.718
736.63	60.563
736.95	62.457
737.26	62.633
737.58	58.725
737.89	60.073
738.21	58.647
738.52	62.140
738.83	62.445
739.15	62.009
739.46	65.354
739.78	57.509
740.09	61.765
740.41	62.681
740.72	61.024
741.04	60.729
741.35	58.723
741.66	62.085
741.98	63.265
742.29	67.822
742.61	69.634
742.92	53.081
743.23	60.185
743.55	60.633
743.86	61.244
744.18	63.158
744.49	61.702
744.80	67.391
745.12	67.914
745.43	60.000
745.74	63.542
746.06	65.366
746.37	68.063
746.68	63.033
747.00	62.766
747.31	68.159
747.62	62.621
747.94	59.330
748.25	62.376
748.56	72.678
748.88	57.068
749.19	71.277
749.50	61.576
749.82	57.547
750.13	61.927
750.44	65.414
750.75	59.328
751.07	62.044
751.38	58.621
751.69	61.176
752.01	60.078
752.32	58.566
752.63	53.755
752.94	59.914
753.26	64.017
753.57	53.394
753.88	58.850
754.19	59.583
754.51	57.851
754.82	59.514
755.13	63.750
755.44	60.887
755.75	64.062
756.07	55.253
756.38	58.491
756.69	57.471
757.00	56.000
757.31	54.575
757.63	57.012
757.94	55.000
758.25	55.616
758.56	52.926
758.87	48.442
759.18	54.829
759.50	58.182
759.81	57.525
760.12	61.290
760.43	52.424
760.74	54.630
761.05	58.154
761.36	57.102
761.67	56.364
761.99	58.844
762.30	54.909
762.61	54.545
762.92	59.276
763.23	58.108
763.54	57.944
763.85	65.678
764.16	54.772
764.47	61.290
764.78	52.381
765.10	57.239
765.41	52.050
765.72	57.143
766.03	54.887
766.34	52.920
766.65	59.363
766.96	59.596
767.27	63.298
767.58	55.747
767.89	58.865
768.20	56.250
768.51	58.242
768.82	58.621
769.13	60.369
769.44	47.639
769.75	53.425
770.06	56.897
770.37	56.731
770.68	59.898
770.99	51.131
771.30	67.157
771.61	61.086
771.92	56.897
772.23	57.143
772.54	61.828
772.85	59.877
773.16	59.551
773.47	70.588
773.78	56.209
774.09	54.491
774.39	58.667
774.70	54.140
775.01	62.759
775.32	54.286
775.63	46.281
775.94	50.382
776.25	62.205
776.56	52.500
776.87	58.654
777.18	54.701
777.48	50.862
777.79	56.522
778.10	39.048
778.41	59.459
778.72	57.143
779.03	58.647
779.34	56.738
779.65	52.740
779.95	55.479
780.26	51.034
780.57	51.220
780.88	58.268
781.19	61.207
781.50	61.240
781.80	48.521
782.11	47.170
782.42	60.769
782.73	52.518
783.04	62.222
783.34	46.528
783.65	43.590
783.96	50.820
784.27	53.793
784.57	43.902
784.88	54.688
785.19	65.000
785.50	69.000
785.81	49.138
786.11	50.862
786.42	53.398
786.73	57.273
787.04	59.184
787.34	43.750
787.65	51.429
787.96	44.248
788.26	61.818
788.57	60.684
788.88	54.688
789.19	48.413
789.49	47.826
789.80	58.163
790.11	58.586
790.41	44.545
790.72	56.522
791.03	50.000
791.33	62.500
791.64	51.250
791.95	39.535
792.25	43.617
792.56	58.427
792.87	38.356
793.17	57.971
793.48	44.000
793.79	52.500
794.09	60.000
794.40	50.943
794.70	55.340
795.01	37.398
795.32	41.880
795.62	51.429
795.93	51.961
796.23	50.943
796.54	44.792
796.85	57.353
797.15	43.662
797.46	59.722
797.76	77.273
798.07	44.186
798.37	55.263
798.68	34.848
798.99	48.148
799.29	47.143
799.60	56.522
799.90	58.667
800.21	47.541
800.51	53.846
800.82	62.712
801.12	47.826
801.43	52.459
801.73	47.619
802.04	42.000
802.34	40.299
802.65	50.000
802.95	44.643
803.26	55.769
803.56	64.706
803.87	30.435
804.17	33.333
804.48	47.619
804.78	48.148
805.09	52.174
805.39	33.333
805.70	55.556
806.00	19.298
806.30	32.394
806.61	51.429
806.91	56.944
807.22	46.053
807.52	42.667
807.83	43.636
808.13	41.667
808.43	51.471
808.74	34.328
809.04	54.237
809.35	34.615
809.65	45.313
809.95	-2.703
810.26	47.727
810.56	41.096
810.86	35.714
811.17	62.000
811.47	48.980
811.77	57.895
812.08	61.364
812.38	56.604
812.69	25.000
812.99	66.667
813.29	60.526
813.59	-2.857
813.90	36.364
814.20	33.333
814.50	53.846
814.81	58.491
815.11	29.787
815.41	38.983
815.72	78.571
816.02	39.216
816.32	41.667
816.62	19.512
816.93	10.811
817.23	45.714
817.53	41.667
817.84	32.609
818.14	42.308
818.44	42.105
818.74	47.826
819.04	17.500
819.35	62.162
819.65	44.118
819.95	5.556
820.25	42.857
820.56	47.500
820.86	-44.828
821.16	65.000
821.46	29.787
821.76	45.000
822.07	34.884
822.37	2.703
822.67	6.250
822.97	54.762
823.27	35.714
823.57	40.000
823.88	-11.111
824.18	35.714
824.48	11.765
824.78	48.387
825.08	30.435
825.38	27.273
825.69	0.000
825.99	26.316
826.29	33.333
826.59	40.000
826.89	-4.762
827.19	52.174
827.49	27.500
827.79	42.857
828.09	25.000
828.39	18.182
828.70	64.865
829.00	25.000
829.30	9.524
829.60	16.667
829.90	12.500
830.20	10.526
830.50	0.000
830.80	30.435
831.10	-13.636
831.40	57.576
831.70	29.032
832.00	14.286
832.30	9.524
832.60	41.667
832.90	31.034
833.20	-35.000
833.50	0.000
833.80	11.111
834.10	0.000
834.40	59.375
834.70	-22.222
835.00	-36.842
835.30	61.538
835.60	113.333
835.90	12.903
836.20	22.727
836.50	39.286
836.80	34.615
837.10	21.429
837.40	-33.333
837.70	9.091
838.00	9.091
838.30	13.043
838.60	-53.846
838.90	18.182
839.19	46.429
839.49	46.667
839.79	69.231
840.09	0.000
840.39	10.714
840.69	10.714
840.99	-19.231
841.29	-15.789
841.59	-90.000
841.88	-36.364
842.18	130.000
842.48	12.500
842.78	80.000
843.08	3.704
843.38	-110.000
843.68	0.000
843.97	20.000
844.27	0.000
844.57	35.000
844.87	-16.667
845.17	-23.810
845.47	66.667
845.76	4.762
846.06	11.765
846.36	20.000
846.66	-64.286
846.96	-60.000
847.25	-137.500
847.55	50.000
847.85	-25.000
848.15	50.000
848.44	-533.333
848.74	25.000
849.04	18.519
849.34	-45.455
849.63	-66.667
849.93	-280.000
850.23	-5.556
850.53	0.000
850.82	30.769
851.12	-22.222
851.42	46.667
851.71	3.846
852.01	7.143
852.31	25.000
852.61	-27.273
852.90	35.000
853.20	31.579
853.50	-100.000
853.79	21.739
854.09	54.167
854.39	42.105
854.68	20.833
854.98	12.903
855.28	69.231
855.57	30.000
855.87	16.667
856.17	37.037
856.46	7.143
856.76	33.333
857.05	88.889
857.35	56.000
857.65	44.444
857.94	-30.769
858.24	34.483
858.53	0.000
858.83	25.926
859.13	31.818
859.42	-21.739
859.72	-325.000
860.01	-266.667
860.31	16.000
860.60	-38.095
860.90	-100.000
861.20	-60.000
861.49	-100.000
861.79	13.333
862.08	-25.000
862.38	0.000
862.67	-280.000
862.97	-16.667
863.26	0.000
863.56	38.889
863.85	-266.667
864.15	-55.556
864.44	-50.000
864.74	28.571
865.03	75.000
865.33	-220.000
865.62	-100.000
865.92	-16.667
866.21	-233.333
866.51	31.250
866.80	-72.727
867.10	100.000
867.39	83.333
867.69	0.000
867.98	23.077
868.27	-366.667
868.57	6.667
868.86	55.556
869.16	-100.000
869.45	60.000
869.75	-200.000
870.04	0.000
870.33	114.286
870.63	28.571
870.92	366.667
871.22	-200.000
871.51	-500.000
871.80	100.000
872.10	33.333
>>>>>End Processed Spectral Data<<<<<
