SpectraSuite Data File
++++++++++++++++++++++++++++++++++++
Date: Fri May 15 20:35:23 PDT 2015
User: schluterlab
Dark Spectrum Present: Yes
Reference Spectrum Present: Yes
Number of Sampled Component Spectra: 1
Spectrometers: USB2E3373
Integration Time (usec): 3000 (USB2E3373)
Spectra Averaged: 3 (USB2E3373)
Boxcar Smoothing: 0 (USB2E3373)
Correct for Electrical Dark: No (USB2E3373)
Strobe/Lamp Enabled: No (USB2E3373)
Correct for Detector Non-linearity: No (USB2E3373)
Correct for Stray Light: No (USB2E3373)
Number of Pixels in Processed Spectrum: 2048
>>>>>Begin Processed Spectral Data<<<<<
178.53	0.000
178.91	0.000
179.29	62.500
179.67	-450.000
180.04	-0.000
180.42	-100.000
180.80	-1000.000
181.18	366.667
181.56	150.000
181.94	350.000
182.31	1200.000
182.69	-120.000
183.07	-300.000
183.45	60.000
183.83	233.333
184.20	9.091
184.58	122.222
184.96	25.000
185.34	33.333
185.72	50.000
186.09	69.231
186.47	-1500.000
186.85	200.000
187.23	155.556
187.61	200.000
187.98	-533.333
188.36	-133.333
188.74	-133.333
189.12	-5.882
189.49	66.667
189.87	0.000
190.25	71.429
190.63	-250.000
191.00	-366.667
191.38	-36.842
191.76	200.000
192.14	200.000
192.51	-400.000
192.89	-133.333
193.27	-71.429
193.65	266.667
194.02	163.636
194.40	-30.000
194.78	-125.000
195.15	-25.000
195.53	-37.500
195.91	175.000
196.29	50.000
196.66	100.000
197.04	257.143
197.42	-144.444
197.79	-333.333
198.17	-61.538
198.55	900.000
198.92	-466.667
199.30	-700.000
199.68	-120.000
200.05	-200.000
200.43	0.000
200.81	-166.667
201.18	-400.000
201.56	1800.000
201.94	-450.000
202.31	33.333
202.69	-180.000
203.07	300.000
203.44	1500.000
203.82	0.000
204.19	21.429
204.57	-366.667
204.95	100.000
205.32	-70.000
205.70	-57.143
206.08	-175.000
206.45	11.111
206.83	21.429
207.20	-100.000
207.58	1100.000
207.96	-33.333
208.33	-160.000
208.71	-325.000
209.08	-300.000
209.46	-800.000
209.84	-40.000
210.21	-900.000
210.59	-42.857
210.96	-33.333
211.34	-150.000
211.71	20.000
212.09	-228.571
212.46	-1800.000
212.84	0.000
213.22	30.000
213.59	700.000
213.97	23.077
214.34	36.364
214.72	-233.333
215.09	425.000
215.47	-53.846
215.84	-36.364
216.22	-333.333
216.59	25.000
216.97	-50.000
217.34	-200.000
217.72	-260.000
218.09	-87.500
218.47	200.000
218.84	300.000
219.22	-77.778
219.59	-180.000
219.97	-66.667
220.34	175.000
220.72	-128.571
221.09	-100.000
221.47	150.000
221.84	-550.000
222.22	-900.000
222.59	45.455
222.97	100.000
223.34	-600.000
223.72	-78.571
224.09	19.048
224.46	14.286
224.84	466.667
225.21	-50.000
225.59	-6.667
225.96	0.000
226.34	300.000
226.71	-100.000
227.08	-150.000
227.46	-87.500
227.83	-650.000
228.21	11.111
228.58	-9.091
228.95	-200.000
229.33	170.000
229.70	12.500
230.08	-87.500
230.45	-242.857
230.82	-14.286
231.20	-66.667
231.57	21.429
231.95	-85.714
232.32	-80.000
232.69	-42.857
233.07	166.667
233.44	-100.000
233.81	-30.000
234.19	-66.667
234.56	-17.647
234.93	650.000
235.31	-225.000
235.68	-340.000
236.05	-30.769
236.43	-70.000
236.80	41.176
237.17	-6.250
237.55	20.000
237.92	-14.815
238.29	5.556
238.67	30.000
239.04	23.529
239.41	-7.317
239.79	-10.000
240.16	17.073
240.53	21.053
240.91	19.565
241.28	12.698
241.65	19.643
242.02	39.726
242.40	23.333
242.77	30.508
243.14	13.636
243.51	26.250
243.89	43.678
244.26	31.034
244.63	23.810
245.00	16.495
245.38	29.897
245.75	29.213
246.12	16.379
246.49	25.620
246.87	25.962
247.24	27.731
247.61	34.211
247.98	23.577
248.36	28.125
248.73	30.263
249.10	24.026
249.47	32.278
249.84	29.412
250.22	32.941
250.59	32.026
250.96	28.638
251.33	20.349
251.70	30.588
252.08	32.487
252.45	31.188
252.82	30.151
253.19	36.406
253.56	27.570
253.94	29.730
254.31	29.130
254.68	35.088
255.05	27.953
255.42	34.498
255.79	27.799
256.16	26.070
256.54	36.567
256.91	31.559
257.28	28.625
257.65	34.082
258.02	29.787
258.39	32.660
258.76	35.531
259.14	33.223
259.51	30.744
259.88	29.210
260.25	30.719
260.62	33.333
260.99	29.492
261.36	30.479
261.73	31.646
262.10	29.483
262.47	30.675
262.85	34.483
263.22	30.154
263.59	33.333
263.96	33.851
264.33	29.091
264.70	32.440
265.07	32.143
265.44	35.977
265.81	30.791
266.18	33.880
266.55	30.077
266.92	30.311
267.29	31.332
267.66	32.225
268.03	29.843
268.40	28.460
268.77	35.561
269.14	31.894
269.51	33.933
269.88	29.676
270.25	31.378
270.62	29.756
270.99	30.946
271.36	30.073
271.73	32.160
272.10	30.170
272.47	30.969
272.84	29.703
273.21	32.483
273.58	32.530
273.95	31.579
274.32	30.254
274.69	27.602
275.06	30.580
275.43	28.798
275.80	30.243
276.17	29.885
276.54	27.409
276.91	31.579
277.28	30.568
277.65	34.091
278.02	27.447
278.39	29.759
278.76	28.302
279.13	27.386
279.50	31.723
279.87	30.238
280.23	29.032
280.60	31.189
280.97	30.909
281.34	27.692
281.71	31.622
282.08	27.607
282.45	29.159
282.82	31.081
283.19	28.240
283.56	30.829
283.92	28.273
284.29	25.962
284.66	29.845
285.03	26.719
285.40	29.868
285.77	26.714
286.14	30.866
286.51	29.705
286.87	28.336
287.24	30.755
287.61	28.219
287.98	30.175
288.35	28.250
288.72	29.422
289.08	28.472
289.45	26.362
289.82	30.594
290.19	26.792
290.56	26.244
290.93	26.431
291.29	26.194
291.66	28.504
292.03	26.475
292.40	26.452
292.77	26.316
293.13	23.539
293.50	25.493
293.87	25.496
294.24	23.029
294.60	24.143
294.97	23.958
295.34	25.153
295.71	25.931
296.08	24.813
296.44	22.617
296.81	23.194
297.18	24.058
297.55	25.745
297.91	22.740
298.28	25.066
298.65	23.474
299.02	22.102
299.38	22.025
299.75	22.207
300.12	22.382
300.48	22.661
300.85	21.673
301.22	22.857
301.59	22.237
301.95	23.418
302.32	25.162
302.69	22.015
303.05	21.782
303.42	23.039
303.79	23.248
304.15	23.297
304.52	23.543
304.89	21.871
305.25	22.397
305.62	22.054
305.99	20.234
306.35	20.809
306.72	21.372
307.09	20.525
307.45	22.732
307.82	22.685
308.19	23.577
308.55	22.246
308.92	23.856
309.29	21.006
309.65	22.067
310.02	22.442
310.38	22.393
310.75	22.404
311.12	21.636
311.48	22.694
311.85	22.304
312.22	20.992
312.58	22.081
312.95	21.772
313.31	22.153
313.68	21.780
314.05	22.857
314.41	23.608
314.78	23.402
315.14	23.844
315.51	23.810
315.87	24.180
316.24	24.166
316.61	23.228
316.97	24.107
317.34	22.949
317.70	23.805
318.07	23.558
318.43	25.000
318.80	26.231
319.16	24.219
319.53	24.217
319.89	25.098
320.26	26.215
320.62	26.881
320.99	25.261
321.35	25.797
321.72	26.168
322.08	25.780
322.45	27.208
322.81	26.130
323.18	25.123
323.54	26.544
323.91	25.803
324.27	26.367
324.64	27.060
325.00	27.190
325.37	27.732
325.73	25.839
326.10	26.885
326.46	26.637
326.83	26.334
327.19	27.724
327.56	27.802
327.92	27.817
328.29	26.429
328.65	27.453
329.01	27.665
329.38	28.295
329.74	26.912
330.11	26.877
330.47	26.531
330.84	27.596
331.20	29.468
331.56	27.130
331.93	28.128
332.29	26.948
332.66	27.602
333.02	27.788
333.38	26.489
333.75	27.839
334.11	26.768
334.48	27.743
334.84	28.022
335.20	26.532
335.57	25.657
335.93	26.468
336.29	26.980
336.66	26.067
337.02	26.952
337.38	27.037
337.75	26.364
338.11	27.051
338.47	27.099
338.84	27.079
339.20	25.411
339.56	26.147
339.93	26.321
340.29	25.413
340.65	27.599
341.02	26.596
341.38	25.841
341.74	25.972
342.11	25.477
342.47	26.068
342.83	27.336
343.20	25.784
343.56	26.000
343.92	26.041
344.28	27.925
344.65	25.820
345.01	25.756
345.37	25.315
345.73	25.941
346.10	27.092
346.46	24.643
346.82	25.368
347.19	25.769
347.55	25.480
347.91	26.052
348.27	25.141
348.63	25.639
349.00	25.267
349.36	25.852
349.72	26.617
350.08	25.902
350.45	24.102
350.81	25.000
351.17	23.779
351.53	24.327
351.89	25.681
352.26	24.160
352.62	25.403
352.98	24.578
353.34	24.960
353.70	25.485
354.07	25.000
354.43	26.261
354.79	25.268
355.15	25.952
355.51	24.288
355.87	25.324
356.24	24.470
356.60	25.384
356.96	25.079
357.32	25.399
357.68	24.941
358.04	24.717
358.40	24.518
358.77	26.555
359.13	24.740
359.49	24.730
359.85	24.571
360.21	24.880
360.57	24.713
360.93	26.172
361.29	24.245
361.66	24.843
362.02	25.606
362.38	25.057
362.74	24.981
363.10	26.260
363.46	24.314
363.82	25.019
364.18	25.166
364.54	24.779
364.90	24.731
365.26	25.619
365.62	25.985
365.98	25.367
366.35	25.419
366.71	25.277
367.07	24.964
367.43	24.587
367.79	25.442
368.15	24.480
368.51	24.909
368.87	24.767
369.23	24.621
369.59	24.344
369.95	24.927
370.31	25.723
370.67	25.299
371.03	24.795
371.39	25.091
371.75	24.908
372.11	26.248
372.47	26.109
372.83	24.698
373.19	24.750
373.55	24.765
373.91	25.774
374.27	25.585
374.63	25.987
374.99	25.035
375.35	25.348
375.71	26.364
376.07	25.000
376.42	25.306
376.78	25.772
377.14	25.592
377.50	24.834
377.86	24.565
378.22	25.654
378.58	26.154
378.94	25.457
379.30	25.328
379.66	26.395
380.02	25.751
380.38	25.502
380.74	24.596
381.09	26.196
381.45	26.239
381.81	26.342
382.17	26.269
382.53	26.546
382.89	26.240
383.25	26.260
383.61	26.890
383.97	26.476
384.32	26.079
384.68	25.511
385.04	26.225
385.40	25.513
385.76	28.742
386.12	27.232
386.48	26.820
386.83	27.204
387.19	27.350
387.55	27.164
387.91	27.200
388.27	26.740
388.62	27.250
388.98	26.642
389.34	28.107
389.70	27.284
390.06	26.746
390.42	26.684
390.77	27.600
391.13	27.680
391.49	27.102
391.85	27.875
392.20	27.433
392.56	27.146
392.92	28.538
393.28	28.243
393.64	28.168
393.99	29.655
394.35	27.577
394.71	27.586
395.07	27.781
395.42	27.869
395.78	27.362
396.14	28.625
396.50	29.169
396.85	27.688
397.21	28.697
397.57	28.527
397.92	28.999
398.28	29.310
398.64	28.012
399.00	29.571
399.35	27.709
399.71	29.523
400.07	28.839
400.42	29.253
400.78	29.394
401.14	29.038
401.49	30.256
401.85	29.372
402.21	29.639
402.57	29.438
402.92	28.607
403.28	30.702
403.63	30.454
403.99	29.592
404.35	30.793
404.70	29.643
405.06	30.376
405.42	31.324
405.77	30.331
406.13	31.141
406.49	30.018
406.84	31.112
407.20	30.584
407.55	29.749
407.91	30.615
408.27	31.230
408.62	31.446
408.98	30.992
409.34	31.599
409.69	30.814
410.05	31.466
410.40	31.605
410.76	31.544
411.11	31.812
411.47	32.347
411.83	31.890
412.18	33.076
412.54	31.835
412.89	31.589
413.25	32.250
413.60	32.857
413.96	31.595
414.31	32.500
414.67	32.008
415.03	33.023
415.38	31.854
415.74	33.681
416.09	33.116
416.45	33.288
416.80	32.783
417.16	33.702
417.51	34.177
417.87	32.790
418.22	34.197
418.58	33.980
418.93	33.542
419.29	32.586
419.64	33.960
420.00	33.753
420.35	34.269
420.71	34.447
421.06	33.395
421.42	33.474
421.77	34.277
422.12	33.314
422.48	33.568
422.83	33.295
423.19	35.440
423.54	34.098
423.90	34.276
424.25	34.443
424.61	35.312
424.96	34.146
425.31	34.778
425.67	34.859
426.02	36.160
426.38	35.629
426.73	35.714
427.09	36.582
427.44	35.294
427.79	35.592
428.15	35.376
428.50	36.342
428.85	35.688
429.21	35.880
429.56	36.658
429.92	35.901
430.27	35.689
430.62	35.599
430.98	35.775
431.33	35.489
431.68	35.479
432.04	35.606
432.39	35.881
432.74	35.598
433.10	36.782
433.45	36.619
433.80	35.403
434.16	36.510
434.51	36.290
434.86	36.760
435.22	36.119
435.57	36.120
435.92	36.287
436.28	36.434
436.63	36.167
436.98	36.327
437.34	36.903
437.69	36.255
438.04	36.866
438.39	35.858
438.75	37.280
439.10	37.521
439.45	37.066
439.81	37.370
440.16	38.420
440.51	36.776
440.86	38.610
441.22	37.217
441.57	37.086
441.92	38.353
442.27	38.359
442.63	37.794
442.98	37.622
443.33	38.063
443.68	37.507
444.03	37.556
444.39	37.432
444.74	37.402
445.09	38.196
445.44	38.120
445.79	38.783
446.15	37.885
446.50	37.327
446.85	37.035
447.20	37.956
447.55	37.667
447.91	38.071
448.26	38.532
448.61	37.997
448.96	38.898
449.31	38.786
449.66	38.211
450.02	37.707
450.37	38.411
450.72	37.973
451.07	38.418
451.42	39.139
451.77	38.035
452.12	37.739
452.47	37.476
452.83	38.339
453.18	39.405
453.53	38.369
453.88	38.069
454.23	38.353
454.58	38.413
454.93	38.015
455.28	37.651
455.63	39.306
455.98	38.605
456.34	37.165
456.69	39.517
457.04	39.382
457.39	37.667
457.74	38.029
458.09	37.728
458.44	38.327
458.79	37.703
459.14	39.645
459.49	39.224
459.84	39.143
460.19	38.471
460.54	38.692
460.89	39.545
461.24	37.143
461.59	38.895
461.94	37.547
462.29	38.661
462.64	38.937
462.99	38.592
463.34	39.152
463.69	38.546
464.04	38.136
464.39	38.023
464.74	38.896
465.09	39.364
465.44	39.296
465.79	37.698
466.14	38.312
466.49	37.895
466.84	38.311
467.19	39.362
467.54	37.995
467.89	38.219
468.24	36.740
468.59	39.238
468.94	37.524
469.29	39.213
469.64	39.371
469.99	40.785
470.34	38.430
470.68	39.746
471.03	38.995
471.38	37.803
471.73	39.356
472.08	37.924
472.43	38.523
472.78	37.903
473.13	39.592
473.48	38.241
473.83	39.166
474.17	38.083
474.52	39.247
474.87	38.970
475.22	39.536
475.57	37.719
475.92	39.879
476.27	37.776
476.61	39.120
476.96	37.423
477.31	38.832
477.66	38.876
478.01	39.753
478.36	38.562
478.70	39.532
479.05	38.407
479.40	38.474
479.75	37.800
480.10	38.351
480.45	39.250
480.79	39.627
481.14	39.395
481.49	38.473
481.84	39.237
482.19	37.091
482.53	39.089
482.88	38.616
483.23	38.244
483.58	38.019
483.92	37.464
484.27	38.104
484.62	39.130
484.97	38.143
485.31	37.753
485.66	37.023
486.01	36.673
486.36	36.521
486.70	37.640
487.05	37.994
487.40	37.590
487.75	38.113
488.09	37.794
488.44	37.827
488.79	38.252
489.13	38.141
489.48	38.392
489.83	38.072
490.17	38.517
490.52	37.598
490.87	38.593
491.22	39.303
491.56	38.520
491.91	37.859
492.26	38.357
492.60	37.860
492.95	38.662
493.30	37.469
493.64	38.310
493.99	38.696
494.34	38.447
494.68	38.429
495.03	38.102
495.37	38.273
495.72	39.475
496.07	38.732
496.41	38.113
496.76	37.771
497.11	38.519
497.45	38.950
497.80	38.900
498.14	38.748
498.49	38.243
498.84	38.373
499.18	38.855
499.53	38.492
499.87	38.132
500.22	38.081
500.56	39.284
500.91	38.504
501.26	38.804
501.60	38.416
501.95	38.622
502.29	38.644
502.64	38.707
502.98	39.319
503.33	37.848
503.67	38.265
504.02	38.856
504.36	39.535
504.71	36.566
505.06	38.903
505.40	38.122
505.75	39.072
506.09	38.976
506.44	38.501
506.78	38.316
507.13	38.573
507.47	37.755
507.82	38.996
508.16	37.771
508.51	38.143
508.85	38.566
509.19	38.531
509.54	38.874
509.88	39.213
510.23	38.838
510.57	39.765
510.92	38.433
511.26	39.716
511.61	39.329
511.95	39.068
512.30	39.191
512.64	38.620
512.98	38.405
513.33	40.347
513.67	39.511
514.02	39.359
514.36	39.829
514.70	41.608
515.05	41.246
515.39	39.847
515.74	40.599
516.08	40.586
516.42	40.577
516.77	40.726
517.11	41.306
517.46	40.634
517.80	39.988
518.14	40.478
518.49	39.724
518.83	40.036
519.17	39.236
519.52	39.846
519.86	39.496
520.20	39.793
520.55	39.275
520.89	40.025
521.23	40.532
521.58	40.631
521.92	40.064
522.26	40.143
522.61	40.844
522.95	41.722
523.29	40.407
523.64	41.105
523.98	42.320
524.32	39.755
524.66	42.125
525.01	41.364
525.35	40.765
525.69	41.347
526.04	40.741
526.38	42.023
526.72	41.203
527.06	40.726
527.41	40.567
527.75	40.684
528.09	40.997
528.43	42.269
528.78	42.310
529.12	42.258
529.46	41.326
529.80	40.595
530.15	42.244
530.49	40.875
530.83	42.202
531.17	40.296
531.51	41.860
531.86	40.449
532.20	41.406
532.54	41.184
532.88	40.931
533.22	42.540
533.57	41.284
533.91	41.253
534.25	41.536
534.59	40.411
534.93	40.529
535.27	40.355
535.62	40.441
535.96	41.031
536.30	42.150
536.64	40.937
536.98	41.324
537.32	42.319
537.66	41.585
538.01	40.699
538.35	41.540
538.69	41.944
539.03	39.850
539.37	40.848
539.71	40.695
540.05	40.597
540.39	41.690
540.73	41.841
541.07	40.677
541.42	42.003
541.76	42.670
542.10	40.881
542.44	40.792
542.78	39.849
543.12	40.728
543.46	40.542
543.80	41.291
544.14	40.454
544.48	41.506
544.82	40.738
545.16	41.530
545.50	40.988
545.84	41.360
546.18	41.277
546.52	41.384
546.86	41.265
547.20	40.701
547.54	40.071
547.88	41.101
548.22	40.105
548.56	40.369
548.90	40.768
549.24	41.253
549.58	40.339
549.92	40.100
550.26	40.366
550.60	41.636
550.94	41.225
551.28	40.804
551.62	41.846
551.96	40.752
552.30	40.132
552.64	40.691
552.98	40.788
553.32	40.656
553.66	40.493
554.00	40.365
554.34	41.802
554.68	41.150
555.02	41.146
555.36	42.109
555.69	39.853
556.03	39.615
556.37	40.000
556.71	40.578
557.05	40.716
557.39	39.554
557.73	40.555
558.07	41.629
558.41	40.199
558.75	40.608
559.08	41.135
559.42	41.190
559.76	41.393
560.10	40.520
560.44	40.506
560.78	40.629
561.12	40.832
561.45	40.267
561.79	40.686
562.13	40.099
562.47	38.633
562.81	39.625
563.15	40.268
563.48	40.948
563.82	40.357
564.16	40.877
564.50	39.122
564.84	40.629
565.17	39.772
565.51	41.052
565.85	41.495
566.19	39.987
566.52	39.611
566.86	41.645
567.20	39.913
567.54	40.389
567.88	41.125
568.21	40.724
568.55	39.130
568.89	39.990
569.23	39.817
569.56	38.923
569.90	39.829
570.24	38.333
570.57	38.873
570.91	39.491
571.25	37.619
571.59	37.621
571.92	36.652
572.26	37.711
572.60	37.271
572.93	37.778
573.27	37.649
573.61	37.768
573.95	37.193
574.28	36.600
574.62	37.223
574.96	36.525
575.29	36.673
575.63	35.346
575.97	36.514
576.30	36.716
576.64	36.159
576.98	36.525
577.31	37.012
577.65	36.858
577.98	37.236
578.32	36.747
578.66	35.848
578.99	36.430
579.33	36.298
579.67	35.806
580.00	36.127
580.34	36.468
580.67	36.004
581.01	36.816
581.35	36.111
581.68	35.977
582.02	36.667
582.35	36.342
582.69	36.619
583.02	36.787
583.36	36.314
583.70	37.305
584.03	37.170
584.37	37.295
584.70	36.841
585.04	35.881
585.37	36.241
585.71	36.756
586.04	36.132
586.38	36.543
586.72	36.700
587.05	37.146
587.39	37.378
587.72	36.741
588.06	36.258
588.39	36.514
588.73	37.332
589.06	37.997
589.40	36.917
589.73	38.080
590.07	37.500
590.40	37.771
590.73	37.685
591.07	37.871
591.40	37.801
591.74	37.919
592.07	37.755
592.41	37.898
592.74	36.997
593.08	36.256
593.41	37.166
593.75	36.605
594.08	36.423
594.41	36.790
594.75	36.641
595.08	36.474
595.42	37.026
595.75	37.139
596.09	37.451
596.42	36.875
596.75	37.922
597.09	36.811
597.42	36.314
597.75	38.937
598.09	37.528
598.42	36.327
598.76	36.637
599.09	36.458
599.42	36.074
599.76	35.929
600.09	36.199
600.42	36.012
600.76	35.996
601.09	36.527
601.42	36.075
601.76	36.800
602.09	36.799
602.42	37.110
602.76	36.927
603.09	37.292
603.42	37.667
603.76	36.573
604.09	37.424
604.42	37.310
604.76	37.917
605.09	36.426
605.42	37.020
605.75	36.384
606.09	36.093
606.42	36.697
606.75	36.494
607.09	37.099
607.42	35.800
607.75	37.167
608.08	36.927
608.42	35.998
608.75	37.349
609.08	37.618
609.41	37.919
609.75	36.895
610.08	38.193
610.41	36.473
610.74	36.909
611.07	36.227
611.41	36.793
611.74	37.580
612.07	36.188
612.40	36.761
612.73	37.175
613.07	36.952
613.40	37.363
613.73	36.710
614.06	37.340
614.39	37.676
614.72	36.919
615.06	37.374
615.39	37.445
615.72	37.029
616.05	36.648
616.38	36.809
616.71	36.942
617.05	37.183
617.38	38.089
617.71	36.918
618.04	37.968
618.37	38.083
618.70	37.558
619.03	38.750
619.36	36.469
619.69	38.362
620.03	39.737
620.36	38.555
620.69	38.116
621.02	39.144
621.35	40.166
621.68	39.796
622.01	39.583
622.34	38.787
622.67	38.486
623.00	38.438
623.33	37.119
623.66	36.649
623.99	37.595
624.32	40.076
624.65	38.496
624.99	38.375
625.32	37.528
625.65	39.042
625.98	38.598
626.31	38.155
626.64	38.302
626.97	40.489
627.30	40.018
627.63	38.821
627.96	38.994
628.29	39.500
628.62	40.315
628.95	40.180
629.28	39.617
629.61	39.681
629.94	38.612
630.26	38.636
630.59	39.334
630.92	39.385
631.25	38.564
631.58	41.520
631.91	39.693
632.24	41.055
632.57	39.659
632.90	41.518
633.23	41.765
633.56	41.310
633.89	39.211
634.22	42.222
634.55	40.407
634.88	40.868
635.20	40.000
635.53	42.533
635.86	40.052
636.19	41.268
636.52	40.689
636.85	41.067
637.18	40.629
637.51	40.126
637.83	38.765
638.16	42.019
638.49	38.828
638.82	41.579
639.15	39.484
639.48	42.228
639.81	41.144
640.13	40.260
640.46	42.128
640.79	40.353
641.12	40.916
641.45	40.390
641.77	40.593
642.10	41.232
642.43	43.569
642.76	40.429
643.09	41.357
643.41	39.482
643.74	40.527
644.07	42.693
644.40	42.736
644.73	43.608
645.05	41.611
645.38	43.210
645.71	40.603
646.04	42.011
646.36	42.730
646.69	41.367
647.02	43.289
647.35	42.351
647.67	41.133
648.00	43.470
648.33	40.273
648.66	39.492
648.98	39.698
649.31	39.008
649.64	40.659
649.96	39.546
650.29	40.375
650.62	41.197
650.94	43.333
651.27	42.272
651.60	41.261
651.92	43.357
652.25	41.563
652.58	40.667
652.90	40.995
653.23	40.000
653.56	39.932
653.88	39.863
654.21	37.653
654.54	40.068
654.86	40.747
655.19	41.082
655.52	38.080
655.84	33.980
656.17	37.239
656.49	49.966
656.82	51.942
657.15	39.635
657.47	29.819
657.80	22.137
658.13	21.958
658.45	33.917
658.78	33.860
659.10	34.624
659.43	34.647
659.75	35.422
660.08	35.931
660.41	37.385
660.73	37.983
661.06	39.688
661.38	42.466
661.71	39.220
662.03	43.348
662.36	42.418
662.68	41.593
663.01	42.576
663.33	41.067
663.66	40.233
663.98	41.860
664.31	39.659
664.63	41.244
664.96	38.043
665.28	40.618
665.61	41.558
665.93	42.609
666.26	40.781
666.58	40.940
666.91	39.765
667.23	43.160
667.56	43.365
667.88	41.247
668.21	44.391
668.53	42.790
668.86	40.330
669.18	40.566
669.50	42.615
669.83	39.070
670.15	40.093
670.48	42.344
670.80	41.705
671.13	39.597
671.45	38.356
671.77	43.133
672.10	39.604
672.42	40.262
672.75	40.497
673.07	40.608
673.39	37.798
673.72	36.686
674.04	39.167
674.37	38.983
674.69	39.829
675.01	42.222
675.34	37.613
675.66	42.361
675.98	41.907
676.31	41.284
676.63	40.855
676.95	39.318
677.28	42.588
677.60	38.795
677.92	40.826
678.25	39.825
678.57	41.342
678.89	38.866
679.22	39.374
679.54	37.550
679.86	37.773
680.18	38.058
680.51	37.879
680.83	37.376
681.15	40.200
681.48	40.984
681.80	39.669
682.12	36.895
682.44	38.285
682.77	41.060
683.09	38.215
683.41	37.273
683.73	40.553
684.06	40.929
684.38	35.484
684.70	38.344
685.02	40.041
685.34	36.957
685.67	36.398
685.99	37.251
686.31	38.230
686.63	39.889
686.96	34.601
687.28	34.545
687.60	35.932
687.92	40.000
688.24	36.895
688.56	37.336
688.89	36.607
689.21	40.667
689.53	37.819
689.85	36.279
690.17	36.384
690.49	41.135
690.82	37.864
691.14	36.667
691.46	38.318
691.78	39.640
692.10	36.989
692.42	37.879
692.74	37.607
693.06	36.937
693.39	35.973
693.71	36.878
694.03	37.875
694.35	37.850
694.67	38.636
694.99	35.770
695.31	41.253
695.63	41.250
695.95	40.657
696.27	38.860
696.59	40.833
696.91	39.776
697.23	34.190
697.56	35.644
697.88	40.000
698.20	38.041
698.52	39.294
698.84	35.407
699.16	39.250
699.48	39.348
699.80	37.221
700.12	39.623
700.44	36.695
700.76	38.372
701.08	33.939
701.40	36.446
701.72	41.667
702.04	37.624
702.36	38.796
702.68	33.634
703.00	37.273
703.32	36.657
703.64	36.441
703.96	35.942
704.28	38.957
704.60	40.952
704.91	37.224
705.23	37.542
705.55	45.936
705.87	40.433
706.19	42.222
706.51	37.457
706.83	38.907
707.15	38.318
707.47	38.936
707.79	33.333
708.11	37.000
708.43	37.000
708.74	36.951
709.06	41.127
709.38	37.615
709.70	38.166
710.02	39.809
710.34	41.486
710.66	30.769
710.98	35.430
711.29	41.311
711.61	42.712
711.93	37.785
712.25	40.550
712.57	37.729
712.89	39.925
713.20	34.256
713.52	38.676
713.84	37.543
714.16	38.488
714.48	38.710
714.80	39.744
715.11	36.778
715.43	33.856
715.75	36.333
716.07	35.548
716.39	34.899
716.70	35.055
717.02	34.733
717.34	39.676
717.66	41.150
717.97	31.739
718.29	39.331
718.61	37.008
718.93	35.271
719.24	32.700
719.56	34.940
719.88	35.052
720.20	36.742
720.51	34.866
720.83	34.363
721.15	36.975
721.46	42.742
721.78	30.830
722.10	32.342
722.42	31.535
722.73	34.286
723.05	41.224
723.37	36.441
723.68	38.739
724.00	38.034
724.32	33.778
724.63	37.273
724.95	37.118
725.27	38.249
725.58	38.983
725.90	32.937
726.22	35.521
726.53	38.305
726.85	35.955
727.16	41.132
727.48	33.198
727.80	40.081
728.11	34.746
728.43	38.431
728.74	30.645
729.06	35.200
729.38	36.842
729.69	38.247
730.01	28.077
730.32	35.075
730.64	35.336
730.96	35.849
731.27	33.000
731.59	36.949
731.90	31.847
732.22	38.801
732.53	32.890
732.85	36.525
733.16	29.966
733.48	33.453
733.80	33.333
734.11	30.508
734.43	33.333
734.74	34.545
735.06	34.853
735.37	37.160
735.69	39.731
736.00	32.753
736.32	33.893
736.63	36.972
736.95	33.788
737.26	31.673
737.58	33.221
737.89	32.234
738.21	36.090
738.52	33.745
738.83	36.245
739.15	30.131
739.46	31.496
739.78	36.996
740.09	33.660
740.41	34.058
740.72	34.252
741.04	36.437
741.35	33.617
741.66	35.071
741.98	34.694
742.29	37.624
742.61	32.984
742.92	26.540
743.23	27.315
743.55	33.484
743.86	36.842
744.18	36.364
744.49	31.383
744.80	30.435
745.12	39.572
745.43	28.780
745.74	36.979
746.06	31.707
746.37	38.220
746.68	41.706
747.00	35.106
747.31	41.294
747.62	38.350
747.94	33.014
748.25	36.634
748.56	31.694
748.88	38.220
749.19	43.617
749.50	39.409
749.82	25.000
750.13	37.615
750.44	36.090
750.75	33.582
751.07	37.956
751.38	33.716
751.69	29.412
752.01	35.659
752.32	35.458
752.63	30.040
752.94	32.759
753.26	36.820
753.57	32.127
753.88	32.743
754.19	32.083
754.51	28.512
754.82	32.794
755.13	36.250
755.44	35.081
755.75	32.422
756.07	28.016
756.38	33.962
756.69	32.184
757.00	33.000
757.31	32.026
757.63	30.183
757.94	32.222
758.25	30.411
758.56	30.585
758.87	28.045
759.18	30.218
759.50	34.545
759.81	32.776
760.12	36.129
760.43	33.939
760.74	30.556
761.05	32.923
761.36	29.261
761.67	34.242
761.99	32.653
762.30	32.000
762.61	36.759
762.92	27.602
763.23	34.234
763.54	33.645
763.85	30.508
764.16	25.311
764.47	28.629
764.78	31.502
765.10	31.650
765.41	29.968
765.72	31.746
766.03	26.316
766.34	29.562
766.65	35.857
766.96	29.293
767.27	29.255
767.58	33.333
767.89	36.879
768.20	27.841
768.51	29.121
768.82	27.094
769.13	29.954
769.44	29.185
769.75	32.877
770.06	34.052
770.37	31.250
770.68	29.442
770.99	28.507
771.30	35.294
771.61	28.054
771.92	34.052
772.23	29.064
772.54	32.258
772.85	33.951
773.16	32.584
773.47	42.484
773.78	27.451
774.09	30.539
774.39	34.667
774.70	27.389
775.01	38.621
775.32	37.857
775.63	23.967
775.94	27.481
776.25	32.283
776.56	28.333
776.87	30.769
777.18	25.641
777.48	24.138
777.79	24.348
778.10	20.952
778.41	25.225
778.72	29.365
779.03	29.323
779.34	34.043
779.65	24.658
779.95	24.658
780.26	30.345
780.57	18.699
780.88	27.559
781.19	26.724
781.50	34.884
781.80	25.444
782.11	28.302
782.42	33.077
782.73	22.302
783.04	34.074
783.34	27.778
783.65	15.385
783.96	27.049
784.27	38.621
784.57	26.016
784.88	35.156
785.19	29.000
785.50	40.000
785.81	25.862
786.11	21.552
786.42	31.068
786.73	29.091
787.04	18.367
787.34	21.429
787.65	19.048
787.96	34.513
788.26	33.636
788.57	32.479
788.88	35.938
789.19	24.603
789.49	32.174
789.80	31.633
790.11	23.232
790.41	23.636
790.72	40.217
791.03	38.636
791.33	40.000
791.64	23.750
791.95	23.256
792.25	26.596
792.56	32.584
792.87	24.658
793.17	27.536
793.48	25.333
793.79	23.750
794.09	38.750
794.40	25.472
794.70	17.476
795.01	25.203
795.32	23.077
795.62	33.333
795.93	29.412
796.23	21.698
796.54	28.125
796.85	23.529
797.15	38.028
797.46	18.056
797.76	24.242
798.07	19.767
798.37	9.211
798.68	24.242
798.99	16.049
799.29	37.143
799.60	23.188
799.90	22.667
800.21	29.508
800.51	36.923
800.82	28.814
801.12	33.333
801.43	26.230
801.73	30.159
802.04	28.000
802.34	20.896
802.65	25.000
802.95	12.500
803.26	26.923
803.56	31.373
803.87	-6.522
804.17	36.000
804.48	38.095
804.78	20.370
805.09	10.870
805.39	6.667
805.70	48.148
806.00	-1.754
806.30	39.437
806.61	11.429
806.91	23.611
807.22	30.263
807.52	37.333
807.83	9.091
808.13	27.778
808.43	35.294
808.74	29.851
809.04	-6.780
809.35	19.231
809.65	43.750
809.95	21.622
810.26	29.545
810.56	4.110
810.86	42.857
811.17	22.000
811.47	30.612
811.77	31.579
812.08	27.273
812.38	20.755
812.69	22.500
812.99	-6.061
813.29	26.316
813.59	-8.571
813.90	22.727
814.20	23.077
814.50	15.385
814.81	37.736
815.11	2.128
815.41	37.288
815.72	21.429
816.02	35.294
816.32	10.417
816.62	17.073
816.93	24.324
817.23	31.429
817.53	25.000
817.84	2.174
818.14	25.000
818.44	-15.789
818.74	30.435
819.04	-12.500
819.35	24.324
819.65	35.294
819.95	11.111
820.25	30.952
820.56	42.500
820.86	-17.241
821.16	50.000
821.46	31.915
821.76	37.500
822.07	16.279
822.37	8.108
822.67	-12.500
822.97	28.571
823.27	32.143
823.57	-8.000
823.88	-33.333
824.18	14.286
824.48	35.294
824.78	-3.226
825.08	26.087
825.38	21.212
825.69	-25.000
825.99	21.053
826.29	16.667
826.59	0.000
826.89	-38.095
827.19	23.913
827.49	22.500
827.79	37.143
828.09	-3.571
828.39	24.242
828.70	48.649
829.00	10.714
829.30	-14.286
829.60	10.000
829.90	21.875
830.20	2.632
830.50	-25.926
830.80	0.000
831.10	36.364
831.40	36.364
831.70	9.677
832.00	14.286
832.30	9.524
832.60	-66.667
832.90	-10.345
833.20	-20.000
833.50	36.364
833.80	0.000
834.10	50.000
834.40	21.875
834.70	-44.444
835.00	-52.632
835.30	15.385
835.60	13.333
835.90	0.000
836.20	-27.273
836.50	17.857
836.80	-38.462
837.10	21.429
837.40	-300.000
837.70	22.727
838.00	-118.182
838.30	30.435
838.60	7.692
838.90	13.636
839.19	3.571
839.49	26.667
839.79	-7.692
840.09	-41.667
840.39	25.000
840.69	42.857
840.99	-23.077
841.29	-63.158
841.59	-90.000
841.88	-54.545
842.18	-70.000
842.48	-50.000
842.78	0.000
843.08	0.000
843.38	-110.000
843.68	4.348
843.97	20.000
844.27	-40.000
844.57	-25.000
844.87	22.222
845.17	-47.619
845.47	6.667
845.76	-14.286
846.06	5.882
846.36	-70.000
846.66	-42.857
846.96	-26.667
847.25	-137.500
847.55	71.429
847.85	-87.500
848.15	-45.455
848.44	-400.000
848.74	-30.000
849.04	22.222
849.34	-63.636
849.63	-83.333
849.93	-100.000
850.23	-16.667
850.53	30.000
850.82	-53.846
851.12	-55.556
851.42	26.667
851.71	-7.692
852.01	0.000
852.31	-150.000
852.61	-9.091
852.90	5.000
853.20	94.737
853.50	-50.000
853.79	0.000
854.09	41.667
854.39	-10.526
854.68	8.333
854.98	29.032
855.28	-15.385
855.57	-40.000
855.87	66.667
856.17	14.815
856.46	-35.714
856.76	-20.000
857.05	55.556
857.35	0.000
857.65	44.444
857.94	15.385
858.24	34.483
858.53	-22.222
858.83	25.926
859.13	-27.273
859.42	4.348
859.72	-25.000
860.01	-333.333
860.31	60.000
860.60	33.333
860.90	-66.667
861.20	-40.000
861.49	-350.000
861.79	-80.000
862.08	-25.000
862.38	80.000
862.67	-300.000
862.97	-50.000
863.26	50.000
863.56	33.333
863.85	-733.333
864.15	11.111
864.44	20.000
864.74	0.000
865.03	125.000
865.33	-240.000
865.62	16.667
865.92	0.000
866.21	-66.667
866.51	81.250
866.80	18.182
867.10	-400.000
867.39	33.333
867.69	0.000
867.98	-23.077
868.27	-366.667
868.57	-40.000
868.86	33.333
869.16	-100.000
869.45	73.333
869.75	-1100.000
870.04	0.000
870.33	14.286
870.63	-42.857
870.92	133.333
871.22	-160.000
871.51	-300.000
871.80	-33.333
872.10	300.000
>>>>>End Processed Spectral Data<<<<<
