SpectraSuite Data File
++++++++++++++++++++++++++++++++++++
Date: Fri May 15 21:02:54 PDT 2015
User: schluterlab
Dark Spectrum Present: Yes
Reference Spectrum Present: Yes
Number of Sampled Component Spectra: 1
Spectrometers: USB2E3373
Integration Time (usec): 3000 (USB2E3373)
Spectra Averaged: 3 (USB2E3373)
Boxcar Smoothing: 0 (USB2E3373)
Correct for Electrical Dark: No (USB2E3373)
Strobe/Lamp Enabled: No (USB2E3373)
Correct for Detector Non-linearity: No (USB2E3373)
Correct for Stray Light: No (USB2E3373)
Number of Pixels in Processed Spectrum: 2048
>>>>>Begin Processed Spectral Data<<<<<
178.53	0.000
178.91	0.000
179.29	37.500
179.67	-500.000
180.04	71.429
180.42	-200.000
180.80	-500.000
181.18	333.333
181.56	500.000
181.94	-150.000
182.31	800.000
182.69	-160.000
183.07	-633.333
183.45	-20.000
183.83	183.333
184.20	-45.455
184.58	166.667
184.96	-0.000
185.34	133.333
185.72	-300.000
186.09	107.692
186.47	-1700.000
186.85	100.000
187.23	166.667
187.61	500.000
187.98	-200.000
188.36	33.333
188.74	-400.000
189.12	-35.294
189.49	-16.667
189.87	0.000
190.25	-28.571
190.63	100.000
191.00	-166.667
191.38	-10.526
191.76	450.000
192.14	75.000
192.51	-250.000
192.89	-144.444
193.27	-100.000
193.65	166.667
194.02	63.636
194.40	-90.000
194.78	-187.500
195.15	-33.333
195.53	-175.000
195.91	175.000
196.29	-175.000
196.66	76.923
197.04	14.286
197.42	-44.444
197.79	-466.667
198.17	-69.231
198.55	-100.000
198.92	-433.333
199.30	0.000
199.68	-500.000
200.05	-566.667
200.43	0.000
200.81	-66.667
201.18	-266.667
201.56	1300.000
201.94	-400.000
202.31	333.333
202.69	-480.000
203.07	250.000
203.44	-200.000
203.82	0.000
204.19	-14.286
204.57	-533.333
204.95	137.500
205.32	-30.000
205.70	-214.286
206.08	-350.000
206.45	22.222
206.83	21.429
207.20	-171.429
207.58	1000.000
207.96	-33.333
208.33	-120.000
208.71	-125.000
209.08	-183.333
209.46	-1100.000
209.84	-80.000
210.21	-900.000
210.59	-14.286
210.96	-150.000
211.34	-50.000
211.71	13.333
212.09	-42.857
212.46	-2400.000
212.84	0.000
213.22	-20.000
213.59	550.000
213.97	15.385
214.34	0.000
214.72	-216.667
215.09	500.000
215.47	30.769
215.84	9.091
216.22	-233.333
216.59	-200.000
216.97	-50.000
217.34	-225.000
217.72	-280.000
218.09	25.000
218.47	100.000
218.84	-1600.000
219.22	-144.444
219.59	-100.000
219.97	566.667
220.34	550.000
220.72	-71.429
221.09	-150.000
221.47	-750.000
221.84	-850.000
222.22	-250.000
222.59	9.091
222.97	16.667
223.34	-166.667
223.72	-50.000
224.09	-42.857
224.46	42.857
224.84	533.333
225.21	-60.000
225.59	0.000
225.96	-250.000
226.34	225.000
226.71	-71.429
227.08	-216.667
227.46	25.000
227.83	-350.000
228.21	-100.000
228.58	-27.273
228.95	-100.000
229.33	70.000
229.70	-37.500
230.08	-150.000
230.45	-57.143
230.82	0.000
231.20	-93.333
231.57	-14.286
231.95	-85.714
232.32	-80.000
232.69	-7.143
233.07	-133.333
233.44	-180.000
233.81	-160.000
234.19	22.222
234.56	-23.529
234.93	300.000
235.31	-150.000
235.68	-180.000
236.05	-76.923
236.43	-75.000
236.80	-17.647
237.17	25.000
237.55	10.000
237.92	7.407
238.29	11.111
238.67	23.333
239.04	14.706
239.41	-4.878
239.79	3.333
240.16	36.585
240.53	31.579
240.91	4.348
241.28	36.508
241.65	41.071
242.02	46.575
242.40	31.667
242.77	23.729
243.14	24.242
243.51	40.000
243.89	31.034
244.26	31.034
244.63	40.476
245.00	36.082
245.38	34.021
245.75	30.337
246.12	43.103
246.49	39.669
246.87	35.577
247.24	41.176
247.61	37.719
247.98	42.276
248.36	39.375
248.73	36.842
249.10	40.909
249.47	39.241
249.84	45.098
250.22	40.000
250.59	46.405
250.96	41.784
251.33	38.953
251.70	44.706
252.08	43.147
252.45	41.089
252.82	42.211
253.19	42.396
253.56	41.121
253.94	46.396
254.31	43.043
254.68	51.316
255.05	37.795
255.42	40.611
255.79	45.946
256.16	43.580
256.54	39.552
256.91	39.544
257.28	40.149
257.65	43.820
258.02	43.262
258.39	43.771
258.76	51.282
259.14	45.515
259.51	41.100
259.88	44.674
260.25	44.444
260.62	46.875
260.99	43.390
261.36	41.096
261.73	45.886
262.10	47.720
262.47	44.479
262.85	42.006
263.22	45.538
263.59	43.302
263.96	45.963
264.33	45.758
264.70	47.024
265.07	44.345
265.44	49.008
265.81	43.785
266.18	43.169
266.55	42.931
266.92	43.782
267.29	45.692
267.66	42.967
268.03	45.288
268.40	46.736
268.77	45.989
269.14	44.125
269.51	40.617
269.88	45.885
270.25	44.388
270.62	42.195
270.99	46.036
271.36	40.342
271.73	47.418
272.10	42.579
272.47	44.681
272.84	41.584
273.21	44.548
273.58	44.578
273.95	44.622
274.32	41.339
274.69	39.593
275.06	44.866
275.43	42.630
275.80	43.709
276.17	44.598
276.54	41.756
276.91	41.886
277.28	43.450
277.65	40.909
278.02	41.489
278.39	45.295
278.76	43.606
279.13	37.759
279.50	44.748
279.87	41.037
280.23	42.366
280.60	40.936
280.97	43.434
281.34	43.654
281.71	44.148
282.08	42.331
282.45	42.074
282.82	38.417
283.19	44.874
283.56	40.270
283.92	42.505
284.29	40.192
284.66	40.891
285.03	41.257
285.40	40.643
285.77	39.367
286.14	39.711
286.51	41.882
286.87	40.219
287.24	41.252
287.61	37.566
287.98	42.807
288.35	39.341
288.72	41.856
289.08	40.972
289.45	37.961
289.82	40.210
290.19	36.689
290.56	35.506
290.93	38.047
291.29	34.977
291.66	37.323
292.03	35.885
292.40	35.968
292.77	33.971
293.13	34.253
293.50	32.777
293.87	35.878
294.24	34.003
294.60	33.234
294.97	34.821
295.34	35.736
295.71	33.085
296.08	34.380
296.44	31.437
296.81	30.972
297.18	32.899
297.55	32.791
297.91	31.918
298.28	31.794
298.65	30.122
299.02	31.132
299.38	28.591
299.75	29.103
300.12	30.366
300.48	30.435
300.85	29.911
301.22	29.870
301.59	30.921
301.95	31.519
302.32	31.388
302.69	28.980
303.05	29.579
303.42	29.265
303.79	30.374
304.15	29.510
304.52	28.894
304.89	26.901
305.25	28.450
305.62	27.188
305.99	27.719
306.35	28.671
306.72	27.784
307.09	27.138
307.45	28.473
307.82	26.852
308.19	30.430
308.55	27.699
308.92	29.194
309.29	27.821
309.65	26.911
310.02	26.733
310.38	29.418
310.75	29.071
311.12	26.911
311.48	26.829
311.85	27.644
312.22	25.949
312.58	28.132
312.95	25.827
313.31	26.190
313.68	26.283
314.05	27.653
314.41	26.701
314.78	27.113
315.14	27.338
315.51	28.157
315.87	26.844
316.24	28.008
316.61	26.969
316.97	26.885
317.34	25.977
317.70	27.629
318.07	25.481
318.43	25.980
318.80	25.758
319.16	27.344
319.53	27.540
319.89	26.181
320.26	25.911
320.62	27.282
320.99	25.157
321.35	26.824
321.72	27.726
322.08	26.485
322.45	26.294
322.81	26.130
323.18	25.908
323.54	25.193
323.91	26.290
324.27	26.953
324.64	27.341
325.00	26.277
325.37	26.630
325.73	27.017
326.10	26.885
326.46	27.354
326.83	28.259
327.19	27.289
327.56	27.107
327.92	25.792
328.29	25.089
328.65	26.038
329.01	25.827
329.38	26.359
329.74	25.685
330.11	27.155
330.47	25.881
330.84	25.865
331.20	28.137
331.56	26.759
331.93	26.941
332.29	27.406
332.66	27.059
333.02	27.602
333.38	25.848
333.75	27.289
334.11	26.052
334.48	27.833
334.84	25.641
335.20	26.532
335.57	24.025
335.93	27.010
336.29	26.980
336.66	24.886
337.02	24.535
337.38	26.481
337.75	26.091
338.11	27.683
338.47	27.007
338.84	26.710
339.20	26.417
339.56	25.596
339.93	26.231
340.29	28.165
340.65	26.254
341.02	25.621
341.38	25.575
341.74	24.735
342.11	25.043
342.47	25.445
342.83	25.865
343.20	24.129
343.56	25.739
343.92	25.421
344.28	26.132
344.65	25.389
345.01	24.633
345.37	24.558
345.73	25.607
346.10	24.590
346.46	25.063
346.82	25.368
347.19	23.857
347.55	25.564
347.91	25.243
348.27	24.171
348.63	26.065
349.00	24.446
349.36	24.771
349.72	25.124
350.08	25.246
350.45	24.900
350.81	25.249
351.17	23.697
351.53	24.163
351.89	24.195
352.26	25.120
352.62	25.484
352.98	24.096
353.34	24.879
353.70	24.110
354.07	24.435
354.43	24.259
354.79	23.947
355.15	25.317
355.51	24.446
355.87	25.081
356.24	24.225
356.60	24.333
356.96	23.968
357.32	24.601
357.68	23.065
358.04	23.586
358.40	23.633
358.77	25.199
359.13	23.779
359.49	23.035
359.85	24.103
360.21	23.764
360.57	24.024
360.93	23.752
361.29	22.356
361.66	23.668
362.02	23.788
362.38	23.762
362.74	23.240
363.10	23.702
363.46	23.721
363.82	24.643
364.18	24.576
364.54	23.015
364.90	23.082
365.26	22.271
365.62	24.453
365.98	23.314
366.35	22.797
366.71	23.651
367.07	22.787
367.43	23.293
367.79	24.170
368.15	23.475
368.51	22.578
368.87	22.685
369.23	22.094
369.59	24.417
369.95	23.827
370.31	22.543
370.67	23.060
371.03	23.226
371.39	22.976
371.75	23.150
372.11	23.252
372.47	23.299
372.83	23.492
373.19	23.252
373.55	22.166
373.91	23.038
374.27	22.892
374.63	23.475
374.99	22.411
375.35	23.259
375.71	23.497
376.07	23.244
376.42	22.041
376.78	22.013
377.14	22.613
377.50	22.908
377.86	23.226
378.22	21.953
378.58	23.077
378.94	21.487
379.30	22.832
379.66	23.323
380.02	22.072
380.38	22.885
380.74	21.724
381.09	23.252
381.45	22.752
381.81	21.900
382.17	22.843
382.53	22.548
382.89	22.159
383.25	22.029
383.61	22.195
383.97	21.587
384.32	21.826
384.68	21.300
385.04	20.956
385.40	21.904
385.76	23.522
386.12	21.734
386.48	21.903
386.83	20.862
387.19	21.612
387.55	22.020
387.91	22.127
388.27	21.673
388.62	21.838
388.98	21.793
389.34	22.236
389.70	22.001
390.06	21.334
390.42	21.503
390.77	21.648
391.13	21.816
391.49	21.798
391.85	21.248
392.20	21.218
392.56	22.314
392.92	22.842
393.28	22.406
393.64	21.982
393.99	22.633
394.35	20.304
394.71	22.478
395.07	20.867
395.42	21.919
395.78	21.759
396.14	21.627
396.50	21.497
396.85	22.279
397.21	21.867
397.57	22.132
397.92	21.510
398.28	21.839
398.64	21.205
399.00	21.727
399.35	21.106
399.71	21.941
400.07	22.007
400.42	20.991
400.78	21.188
401.14	20.992
401.49	22.394
401.85	21.328
402.21	21.566
402.57	22.500
402.92	20.703
403.28	21.742
403.63	21.564
403.99	21.301
404.35	21.861
404.70	21.071
405.06	21.093
405.42	21.753
405.77	21.034
406.13	22.119
406.49	21.314
406.84	22.311
407.20	22.035
407.55	20.219
407.91	21.056
408.27	21.606
408.62	21.600
408.98	21.935
409.34	21.623
409.69	20.413
410.05	21.182
410.40	21.543
410.76	21.713
411.11	21.875
411.47	21.039
411.83	20.276
412.18	21.171
412.54	21.161
412.89	21.182
413.25	22.503
413.60	21.677
413.96	21.166
414.31	21.159
414.67	20.654
415.03	21.704
415.38	21.018
415.74	21.889
416.09	21.489
416.45	21.337
416.80	20.423
417.16	22.169
417.51	20.919
417.87	21.969
418.22	21.503
418.58	21.070
418.93	21.567
419.29	20.551
419.64	20.868
420.00	22.481
420.35	21.493
420.71	21.385
421.06	21.547
421.42	20.913
421.77	21.561
422.12	21.226
422.48	20.736
422.83	21.230
423.19	21.163
423.54	20.459
423.90	20.612
424.25	21.814
424.61	21.542
424.96	22.184
425.31	21.895
425.67	21.303
426.02	22.026
426.38	21.603
426.73	22.034
427.09	21.709
427.44	21.824
427.79	20.978
428.15	21.723
428.50	20.836
428.85	20.946
429.21	20.996
429.56	21.779
429.92	21.828
430.27	20.401
430.62	20.962
430.98	20.966
431.33	22.187
431.68	20.879
432.04	20.850
432.39	20.650
432.74	20.986
433.10	21.724
433.45	20.490
433.80	21.706
434.16	21.163
434.51	21.989
434.86	22.125
435.22	21.088
435.57	20.774
435.92	21.078
436.28	20.751
436.63	20.936
436.98	20.915
437.34	20.811
437.69	22.063
438.04	21.026
438.39	21.014
438.75	20.644
439.10	21.675
439.45	21.607
439.81	20.979
440.16	22.268
440.51	21.194
440.86	22.296
441.22	21.097
441.57	21.799
441.92	22.403
442.27	21.896
442.63	22.323
442.98	21.884
443.33	21.870
443.68	21.592
444.03	21.709
444.39	20.708
444.74	21.851
445.09	21.659
445.44	21.254
445.79	21.454
446.15	20.595
446.50	21.298
446.85	21.892
447.20	20.959
447.55	22.154
447.91	21.771
448.26	21.742
448.61	22.107
448.96	21.228
449.31	22.081
449.66	21.370
450.02	22.076
450.37	21.695
450.72	21.420
451.07	22.405
451.42	21.473
451.77	21.157
452.12	21.112
452.47	21.185
452.83	21.378
453.18	22.011
453.53	21.618
453.88	21.615
454.23	21.328
454.58	21.788
454.93	21.585
455.28	21.270
455.63	21.885
455.98	21.828
456.34	22.095
456.69	21.855
457.04	23.251
457.39	21.264
457.74	21.644
458.09	20.954
458.44	21.182
458.79	21.064
459.14	22.540
459.49	22.149
459.84	20.869
460.19	22.633
460.54	22.616
460.89	22.784
461.24	22.050
461.59	22.090
461.94	20.692
462.29	21.411
462.64	22.392
462.99	21.259
463.34	21.975
463.69	21.236
464.04	21.852
464.39	21.407
464.74	21.227
465.09	22.208
465.44	23.139
465.79	21.655
466.14	22.691
466.49	21.277
466.84	22.130
467.19	21.965
467.54	21.520
467.89	21.605
468.24	22.567
468.59	21.587
468.94	20.889
469.29	22.164
469.64	21.805
469.99	22.214
470.34	21.024
470.68	21.327
471.03	22.222
471.38	21.612
471.73	21.359
472.08	20.421
472.43	20.671
472.78	21.933
473.13	22.789
473.48	21.498
473.83	21.544
474.17	21.762
474.52	22.399
474.87	22.424
475.22	22.026
475.57	21.683
475.92	21.887
476.27	22.468
476.61	21.933
476.96	20.636
477.31	21.741
477.66	21.685
478.01	21.617
478.36	22.386
478.70	22.023
479.05	21.813
479.40	22.682
479.75	22.158
480.10	21.454
480.45	22.350
480.79	22.205
481.14	22.387
481.49	21.478
481.84	21.622
482.19	21.562
482.53	22.638
482.88	22.912
483.23	21.113
483.58	22.028
483.92	21.297
484.27	21.650
484.62	21.694
484.97	21.932
485.31	21.496
485.66	22.219
486.01	23.257
486.36	23.101
486.70	22.757
487.05	22.716
487.40	21.768
487.75	21.493
488.09	20.859
488.44	20.289
488.79	20.471
489.13	21.114
489.48	21.206
489.83	21.300
490.17	21.393
490.52	21.386
490.87	21.472
491.22	21.824
491.56	21.300
491.91	21.272
492.26	22.168
492.60	21.881
492.95	22.036
493.30	21.251
493.64	21.316
493.99	21.449
494.34	21.505
494.68	21.714
495.03	21.606
495.37	22.620
495.72	21.605
496.07	21.220
496.41	21.604
496.76	21.050
497.11	21.286
497.45	21.337
497.80	22.099
498.14	20.964
498.49	21.331
498.84	22.106
499.18	21.737
499.53	22.123
499.87	21.158
500.22	21.316
500.56	21.684
500.91	20.783
501.26	21.700
501.60	20.807
501.95	21.203
502.29	21.308
502.64	21.959
502.98	21.559
503.33	20.845
503.67	21.446
504.02	21.945
504.36	22.316
504.71	21.566
505.06	21.188
505.40	22.234
505.75	21.649
506.09	20.730
506.44	22.074
506.78	22.041
507.13	21.613
507.47	20.783
507.82	20.780
508.16	21.078
508.51	21.563
508.85	21.559
509.19	20.862
509.54	21.662
509.88	20.766
510.23	21.571
510.57	21.432
510.92	20.416
511.26	20.840
511.61	21.177
511.95	21.863
512.30	21.341
512.64	21.091
512.98	20.606
513.33	22.776
513.67	20.807
514.02	22.483
514.36	21.257
514.70	21.795
515.05	22.033
515.39	22.019
515.74	21.916
516.08	21.638
516.42	22.379
516.77	21.709
517.11	20.950
517.46	21.843
517.80	20.501
518.14	21.310
518.49	21.394
518.83	21.203
519.17	21.043
519.52	20.841
519.86	21.369
520.20	21.567
520.55	20.388
520.89	21.644
521.23	21.723
521.58	22.208
521.92	21.474
522.26	22.056
522.61	21.753
522.95	22.185
523.29	22.935
523.64	21.093
523.98	22.748
524.32	20.232
524.66	21.895
525.01	21.753
525.35	21.192
525.69	21.414
526.04	21.296
526.38	22.438
526.72	21.060
527.06	21.660
527.41	21.306
527.75	20.107
528.09	21.462
528.43	22.822
528.78	20.924
529.12	21.806
529.46	21.637
529.80	21.533
530.15	21.848
530.49	21.010
530.83	21.683
531.17	21.021
531.51	22.367
531.86	21.890
532.20	21.294
532.54	21.443
532.88	21.150
533.22	22.446
533.57	22.280
533.91	22.063
534.25	22.526
534.59	22.194
534.93	21.397
535.27	21.003
535.62	21.322
535.96	22.505
536.30	22.230
536.64	21.571
536.98	22.021
537.32	22.617
537.66	22.160
538.01	21.189
538.35	21.983
538.69	21.638
539.03	22.146
539.37	22.207
539.71	21.950
540.05	21.792
540.39	21.191
540.73	21.548
541.07	22.376
541.42	22.312
541.76	22.230
542.10	21.129
542.44	21.890
542.78	20.028
543.12	21.566
543.46	22.601
543.80	22.693
544.14	20.761
544.48	22.452
544.82	21.668
545.16	21.585
545.50	21.228
545.84	21.530
546.18	22.766
546.52	21.557
546.86	21.927
547.20	22.675
547.54	21.201
547.88	22.758
548.22	22.222
548.56	22.296
548.90	22.439
549.24	21.488
549.58	22.355
549.92	21.444
550.26	21.392
550.60	22.156
550.94	21.509
551.28	20.866
551.62	22.077
551.96	21.955
552.30	21.857
552.64	21.439
552.98	22.011
553.32	21.683
553.66	21.626
554.00	22.336
554.34	22.230
554.68	21.903
555.02	22.173
555.36	21.765
555.69	20.586
556.03	21.984
556.37	22.633
556.71	21.733
557.05	21.924
557.39	21.413
557.73	22.564
558.07	22.398
558.41	21.669
558.75	20.421
559.08	21.749
559.42	21.984
559.76	21.777
560.10	22.401
560.44	22.040
560.78	21.748
561.12	21.932
561.45	22.417
561.79	22.479
562.13	21.221
562.47	21.583
562.81	21.902
563.15	22.073
563.48	21.429
563.82	22.512
564.16	22.075
564.50	20.743
564.84	22.289
565.17	21.328
565.51	23.156
565.85	22.428
566.19	22.149
566.52	21.515
566.86	22.558
567.20	22.229
567.54	23.114
567.88	22.671
568.21	22.681
568.55	22.391
568.89	23.203
569.23	22.870
569.56	23.336
569.90	23.427
570.24	22.888
570.57	23.200
570.91	23.353
571.25	23.019
571.59	22.703
571.92	22.963
572.26	22.675
572.60	22.481
572.93	22.215
573.27	21.850
573.61	22.584
573.95	22.884
574.28	23.199
574.62	22.400
574.96	22.812
575.29	22.766
575.63	22.130
575.97	22.255
576.30	21.788
576.64	22.252
576.98	22.497
577.31	22.708
577.65	23.234
577.98	22.950
578.32	23.003
578.66	22.244
578.99	21.923
579.33	21.809
579.67	22.079
580.00	22.127
580.34	22.214
580.67	21.810
581.01	22.671
581.35	22.136
581.68	22.810
582.02	23.142
582.35	23.194
582.69	22.887
583.02	22.089
583.36	21.883
583.70	22.508
584.03	22.296
584.37	22.360
584.70	21.896
585.04	21.554
585.37	22.703
585.71	22.735
586.04	22.592
586.38	21.926
586.72	22.669
587.05	22.733
587.39	23.204
587.72	22.963
588.06	22.308
588.39	22.358
588.73	22.100
589.06	22.179
589.40	22.745
589.73	22.453
590.07	21.752
590.40	22.330
590.73	21.829
591.07	21.798
591.40	22.217
591.74	22.081
592.07	22.588
592.41	22.173
592.74	22.780
593.08	22.075
593.41	22.998
593.75	22.996
594.08	22.451
594.41	22.416
594.75	22.481
595.08	22.777
595.42	22.046
595.75	22.306
596.09	21.814
596.42	22.365
596.75	22.247
597.09	21.731
597.42	22.177
597.75	22.446
598.09	21.367
598.42	22.067
598.76	22.308
599.09	22.436
599.42	21.978
599.76	22.009
600.09	21.833
600.42	22.896
600.76	22.400
601.09	21.450
601.42	21.504
601.76	22.033
602.09	21.576
602.42	22.915
602.76	22.326
603.09	22.176
603.42	22.826
603.76	22.581
604.09	21.912
604.42	21.954
604.76	22.474
605.09	22.121
605.42	22.980
605.75	22.461
606.09	22.081
606.42	21.935
606.75	21.255
607.09	22.593
607.42	22.020
607.75	22.069
608.08	21.698
608.42	21.745
608.75	21.783
609.08	21.973
609.41	21.269
609.75	21.069
610.08	21.917
610.41	21.787
610.74	21.989
611.07	21.654
611.41	21.951
611.74	21.748
612.07	21.842
612.40	21.554
612.73	21.525
613.07	22.047
613.40	22.757
613.73	21.936
614.06	22.649
614.39	22.279
614.72	22.017
615.06	21.732
615.39	21.670
615.72	21.152
616.05	21.453
616.38	20.912
616.71	21.651
617.05	22.607
617.38	22.062
617.71	21.950
618.04	22.921
618.37	22.446
618.70	22.046
619.03	21.667
619.36	21.997
619.69	22.365
620.03	22.279
620.36	21.674
620.69	22.198
621.02	21.942
621.35	21.328
621.68	21.429
622.01	21.083
622.34	23.384
622.67	21.609
623.00	21.822
623.33	22.409
623.66	22.139
623.99	21.710
624.32	21.293
624.65	21.579
624.99	23.025
625.32	21.077
625.65	22.152
625.98	21.998
626.31	19.950
626.64	21.577
626.97	22.251
627.30	21.979
627.63	22.184
627.96	22.013
628.29	21.462
628.62	22.124
628.95	21.242
629.28	21.472
629.61	21.236
629.94	22.581
630.26	20.652
630.59	21.644
630.92	21.744
631.25	21.846
631.58	21.145
631.91	20.504
632.24	21.330
632.57	21.250
632.90	19.810
633.23	22.000
633.56	21.662
633.89	20.345
634.22	22.099
634.55	20.839
634.88	20.817
635.20	19.487
635.53	21.200
635.86	21.456
636.19	20.699
636.52	21.811
636.85	19.851
637.18	19.497
637.51	20.881
637.83	20.499
638.16	20.873
638.49	19.482
638.82	22.763
639.15	20.488
639.48	22.558
639.81	20.084
640.13	22.944
640.46	22.449
640.79	18.704
641.12	18.612
641.45	20.571
641.77	20.444
642.10	20.063
642.43	21.383
642.76	21.122
643.09	22.456
643.41	19.417
643.74	20.923
644.07	22.824
644.40	22.973
644.73	20.140
645.05	21.812
645.38	20.988
645.71	18.794
646.04	20.108
646.36	19.858
646.69	22.842
647.02	20.416
647.35	21.642
647.67	19.744
648.00	22.388
648.33	21.843
648.66	22.034
648.98	19.598
649.31	19.504
649.64	20.251
649.96	20.097
650.29	20.613
650.62	19.316
650.94	22.407
651.27	20.670
651.60	20.541
651.92	21.678
652.25	18.828
652.58	22.500
652.90	23.156
653.23	20.504
653.56	20.135
653.88	20.275
654.21	16.813
654.54	19.185
654.86	20.883
655.19	21.053
655.52	25.232
655.84	26.436
656.17	29.251
656.49	38.523
656.82	38.083
657.15	27.349
657.47	19.641
657.80	14.076
658.13	13.466
658.45	19.554
658.78	18.556
659.10	17.508
659.43	18.409
659.75	18.204
660.08	16.138
660.41	18.999
660.73	18.508
661.06	19.584
661.38	17.613
661.71	17.248
662.03	22.103
662.36	19.780
662.68	19.027
663.01	20.742
663.33	20.186
663.66	16.744
663.98	20.233
664.31	18.977
664.63	18.894
664.96	17.826
665.28	19.868
665.61	19.264
665.93	19.348
666.26	22.560
666.58	19.239
666.91	18.824
667.23	20.047
667.56	19.194
667.88	19.185
668.21	18.854
668.53	18.913
668.86	19.340
669.18	18.868
669.50	16.707
669.83	19.767
670.15	20.280
670.48	21.531
670.80	19.124
671.13	20.134
671.45	18.493
671.77	21.030
672.10	20.198
672.42	19.101
672.75	21.492
673.07	24.687
673.39	21.651
673.72	17.357
674.04	19.792
674.37	19.703
674.69	17.773
675.01	20.000
675.34	19.144
675.66	22.454
675.98	19.956
676.31	22.477
676.63	18.527
676.95	18.864
677.28	22.353
677.60	22.651
677.92	17.431
678.25	21.444
678.57	21.645
678.89	18.277
679.22	21.477
679.54	17.269
679.86	20.676
680.18	20.583
680.51	18.750
680.83	18.887
681.15	19.600
681.48	21.311
681.80	18.802
682.12	21.371
682.44	18.619
682.77	22.075
683.09	17.849
683.41	18.636
683.73	17.051
684.06	20.796
684.38	18.710
684.70	19.172
685.02	18.880
685.34	18.775
685.67	20.450
685.99	21.700
686.31	18.230
686.63	18.738
686.96	17.871
687.28	20.404
687.60	20.342
687.92	22.828
688.24	21.169
688.56	22.926
688.89	17.411
689.21	18.444
689.53	21.114
689.85	20.465
690.17	21.205
690.49	17.967
690.82	19.417
691.14	17.381
691.46	19.860
691.78	20.045
692.10	22.151
692.42	23.160
692.74	20.726
693.06	18.243
693.39	17.647
693.71	20.362
694.03	20.092
694.35	19.626
694.67	18.687
694.99	15.927
695.31	20.104
695.63	19.250
695.95	18.939
696.27	19.948
696.59	20.000
696.91	17.927
697.23	17.481
697.56	20.297
697.88	22.796
698.20	20.046
698.52	19.059
698.84	18.900
699.16	18.000
699.48	19.549
699.80	19.107
700.12	16.173
700.44	15.966
700.76	17.151
701.08	16.364
701.40	19.277
701.72	23.148
702.04	19.142
702.36	20.067
702.68	18.318
703.00	16.970
703.32	15.836
703.64	16.949
703.96	19.420
704.28	17.485
704.60	18.730
704.91	17.666
705.23	17.276
705.55	20.495
705.87	20.939
706.19	16.296
706.51	18.557
706.83	24.437
707.15	13.084
707.47	21.289
707.79	19.271
708.11	22.000
708.43	19.250
708.74	19.380
709.06	21.972
709.38	18.349
709.70	19.527
710.02	18.153
710.34	18.885
710.66	14.744
710.98	16.556
711.29	17.705
711.61	17.966
711.93	22.476
712.25	22.337
712.57	20.879
712.89	15.299
713.20	17.993
713.52	21.603
713.84	17.747
714.16	18.900
714.48	17.742
714.80	22.115
715.11	21.884
715.43	15.987
715.75	17.667
716.07	19.269
716.39	16.779
716.70	15.129
717.02	12.595
717.34	15.789
717.66	21.681
717.97	14.783
718.29	17.992
718.61	20.079
718.93	18.992
719.24	19.392
719.56	18.072
719.88	18.213
720.20	15.909
720.51	15.709
720.83	19.691
721.15	17.227
721.46	20.565
721.78	14.625
722.10	17.100
722.42	17.842
722.73	19.184
723.05	19.592
723.37	23.729
723.68	25.676
724.00	20.085
724.32	17.333
724.63	14.545
724.95	17.031
725.27	20.737
725.58	16.949
725.90	17.063
726.22	14.286
726.53	25.424
726.85	19.476
727.16	20.000
727.48	13.765
727.80	19.028
728.11	13.136
728.43	17.647
728.74	10.484
729.06	19.600
729.38	23.308
729.69	16.733
730.01	16.154
730.32	22.761
730.64	20.141
730.96	20.000
731.27	19.333
731.59	22.034
731.90	20.064
732.22	21.767
732.53	18.272
732.85	18.085
733.16	18.519
733.48	15.827
733.80	18.116
734.11	16.271
734.43	18.213
734.74	21.212
735.06	17.915
735.37	20.242
735.69	24.242
736.00	17.073
736.32	21.141
736.63	21.831
736.95	22.526
737.26	19.217
737.58	19.128
737.89	20.147
738.21	19.549
738.52	18.519
738.83	20.087
739.15	17.467
739.46	21.654
739.78	16.850
740.09	18.954
740.41	18.841
740.72	14.567
741.04	18.219
741.35	19.149
741.66	11.374
741.98	19.898
742.29	18.812
742.61	15.183
742.92	13.270
743.23	10.648
743.55	20.814
743.86	17.703
744.18	18.660
744.49	13.830
744.80	13.043
745.12	13.369
745.43	17.073
745.74	19.792
746.06	15.122
746.37	19.372
746.68	22.275
747.00	15.957
747.31	22.886
747.62	14.563
747.94	15.789
748.25	15.347
748.56	13.115
748.88	21.466
749.19	22.340
749.50	26.601
749.82	10.849
750.13	21.101
750.44	21.805
750.75	23.507
751.07	22.263
751.38	22.605
751.69	14.510
752.01	20.543
752.32	21.912
752.63	15.415
752.94	16.379
753.26	20.084
753.57	15.837
753.88	17.699
754.19	16.667
754.51	16.529
754.82	14.980
755.13	23.750
755.44	21.774
755.75	20.703
756.07	18.288
756.38	16.226
756.69	18.391
757.00	15.333
757.31	20.261
757.63	18.598
757.94	21.111
758.25	19.178
758.56	21.011
758.87	18.414
759.18	19.003
759.50	17.091
759.81	16.054
760.12	20.000
760.43	18.485
760.74	20.062
761.05	19.077
761.36	23.295
761.67	22.727
761.99	20.068
762.30	13.818
762.61	19.368
762.92	16.742
763.23	16.216
763.54	17.290
763.85	15.678
764.16	19.917
764.47	20.161
764.78	17.216
765.10	25.589
765.41	15.457
765.72	21.587
766.03	16.165
766.34	18.248
766.65	24.303
766.96	14.646
767.27	12.766
767.58	13.218
767.89	9.220
768.20	15.909
768.51	14.835
768.82	15.271
769.13	17.972
769.44	15.021
769.75	14.612
770.06	19.828
770.37	19.231
770.68	17.259
770.99	15.385
771.30	21.078
771.61	20.814
771.92	20.259
772.23	21.182
772.54	14.516
772.85	18.519
773.16	20.225
773.47	23.529
773.78	21.569
774.09	11.976
774.39	13.333
774.70	15.287
775.01	19.310
775.32	17.143
775.63	4.132
775.94	12.214
776.25	14.173
776.56	16.667
776.87	11.538
777.18	5.128
777.48	13.793
777.79	1.739
778.10	9.524
778.41	9.009
778.72	11.905
779.03	11.278
779.34	21.277
779.65	18.493
779.95	15.068
780.26	22.069
780.57	9.756
780.88	10.236
781.19	17.241
781.50	13.953
781.80	18.935
782.11	20.126
782.42	16.154
782.73	9.353
783.04	13.333
783.34	14.583
783.65	-1.709
783.96	12.295
784.27	20.000
784.57	13.008
784.88	21.875
785.19	31.000
785.50	17.000
785.81	9.483
786.11	8.621
786.42	9.709
786.73	20.909
787.04	13.265
787.34	8.929
787.65	15.238
787.96	13.274
788.26	19.091
788.57	11.111
788.88	27.344
789.19	19.841
789.49	18.261
789.80	27.551
790.11	4.040
790.41	2.727
790.72	26.087
791.03	7.955
791.33	23.750
791.64	16.250
791.95	8.140
792.25	9.574
792.56	22.472
792.87	5.479
793.17	0.000
793.48	5.333
793.79	3.750
794.09	8.750
794.40	14.151
794.70	13.592
795.01	12.195
795.32	13.675
795.62	13.333
795.93	17.647
796.23	17.925
796.54	9.375
796.85	0.000
797.15	4.225
797.46	4.167
797.76	13.636
798.07	9.302
798.37	1.316
798.68	27.273
798.99	2.469
799.29	10.000
799.60	-10.145
799.90	14.667
800.21	18.033
800.51	12.308
800.82	0.000
801.12	8.696
801.43	4.918
801.73	7.937
802.04	-6.000
802.34	1.493
802.65	0.000
802.95	-19.643
803.26	-5.769
803.56	9.804
803.87	-28.261
804.17	20.000
804.48	12.698
804.78	-1.852
805.09	-2.174
805.39	13.333
805.70	18.519
806.00	-24.561
806.30	14.085
806.61	4.286
806.91	0.000
807.22	9.211
807.52	9.333
807.83	-10.909
808.13	22.222
808.43	13.235
808.74	7.463
809.04	1.695
809.35	5.769
809.65	-1.562
809.95	-24.324
810.26	0.000
810.56	9.589
810.86	-2.381
811.17	12.000
811.47	16.327
811.77	-23.684
812.08	-9.091
812.38	18.868
812.69	0.000
812.99	-6.061
813.29	0.000
813.59	-48.571
813.90	-27.273
814.20	-7.692
814.50	7.692
814.81	16.981
815.11	-21.277
815.41	18.644
815.72	4.762
816.02	5.882
816.32	-4.167
816.62	-24.390
816.93	0.000
817.23	11.429
817.53	8.333
817.84	-15.217
818.14	5.769
818.44	-23.684
818.74	15.217
819.04	-35.000
819.35	-18.919
819.65	26.471
819.95	-13.889
820.25	0.000
820.56	12.500
820.86	-48.276
821.16	22.500
821.46	27.660
821.76	10.000
822.07	30.233
822.37	-8.108
822.67	-9.375
822.97	23.810
823.27	-21.429
823.57	-28.000
823.88	-40.741
824.18	-21.429
824.48	-8.824
824.78	-54.839
825.08	-43.478
825.38	-9.091
825.69	-70.833
825.99	5.263
826.29	16.667
826.59	26.667
826.89	-80.952
827.19	13.043
827.49	-5.000
827.79	28.571
828.09	25.000
828.39	12.121
828.70	18.919
829.00	-21.429
829.30	-47.619
829.60	-43.333
829.90	0.000
830.20	7.895
830.50	-3.704
830.80	-26.087
831.10	4.545
831.40	18.182
831.70	6.452
832.00	-23.810
832.30	-38.095
832.60	-91.667
832.90	-10.345
833.20	-15.000
833.50	-6.061
833.80	-14.815
834.10	-7.692
834.40	-18.750
834.70	-55.556
835.00	-31.579
835.30	34.615
835.60	-20.000
835.90	25.806
836.20	-36.364
836.50	10.714
836.80	-19.231
837.10	-21.429
837.40	-433.333
837.70	-9.091
838.00	-190.909
838.30	39.130
838.60	-76.923
838.90	0.000
839.19	-32.143
839.49	10.000
839.79	-69.231
840.09	-108.333
840.39	-21.429
840.69	3.571
840.99	-46.154
841.29	-63.158
841.59	-100.000
841.88	-36.364
842.18	-30.000
842.48	-31.250
842.78	-33.333
843.08	-33.333
843.38	-240.000
843.68	8.696
843.97	0.000
844.27	-66.667
844.57	-35.000
844.87	-38.889
845.17	-28.571
845.47	-33.333
845.76	-9.524
846.06	-5.882
846.36	-60.000
846.66	-64.286
846.96	-66.667
847.25	-125.000
847.55	71.429
847.85	-75.000
848.15	-40.909
848.44	-400.000
848.74	-10.000
849.04	29.630
849.34	-45.455
849.63	-150.000
849.93	-280.000
850.23	-38.889
850.53	10.000
850.82	-46.154
851.12	-55.556
851.42	-20.000
851.71	-30.769
852.01	-28.571
852.31	75.000
852.61	-54.545
852.90	-40.000
853.20	15.789
853.50	-50.000
853.79	13.043
854.09	-8.333
854.39	-10.526
854.68	25.000
854.98	35.484
855.28	-15.385
855.57	-15.000
855.87	-5.556
856.17	3.704
856.46	-7.143
856.76	-46.667
857.05	11.111
857.35	-4.000
857.65	-50.000
857.94	-123.077
858.24	24.138
858.53	-16.667
858.83	-7.407
859.13	0.000
859.42	4.348
859.72	-225.000
860.01	-400.000
860.31	-28.000
860.60	23.810
860.90	-333.333
861.20	-53.333
861.49	-500.000
861.79	-100.000
862.08	-10.000
862.38	-66.667
862.67	-260.000
862.97	-33.333
863.26	16.667
863.56	-22.222
863.85	-400.000
864.15	11.111
864.44	-50.000
864.74	-21.429
865.03	325.000
865.33	-300.000
865.62	-83.333
865.92	-100.000
866.21	-250.000
866.51	-6.250
866.80	-72.727
867.10	-350.000
867.39	8.333
867.69	0.000
867.98	-38.462
868.27	-466.667
868.57	-40.000
868.86	-22.222
869.16	-146.154
869.45	6.667
869.75	-1200.000
870.04	0.000
870.33	-214.286
870.63	-14.286
870.92	666.667
871.22	-280.000
871.51	500.000
871.80	-44.444
872.10	633.333
>>>>>End Processed Spectral Data<<<<<
