SpectraSuite Data File
++++++++++++++++++++++++++++++++++++
Date: Tue May 12 16:11:41 PDT 2015
User: schluterlab
Dark Spectrum Present: Yes
Reference Spectrum Present: Yes
Number of Sampled Component Spectra: 1
Spectrometers: USB2E3373
Integration Time (usec): 3000 (USB2E3373)
Spectra Averaged: 3 (USB2E3373)
Boxcar Smoothing: 0 (USB2E3373)
Correct for Electrical Dark: No (USB2E3373)
Strobe/Lamp Enabled: No (USB2E3373)
Correct for Detector Non-linearity: No (USB2E3373)
Correct for Stray Light: No (USB2E3373)
Number of Pixels in Processed Spectrum: 2048
>>>>>Begin Processed Spectral Data<<<<<
178.53	0.000
178.91	-316.667
179.29	-575.000
179.67	-4500.000
180.04	-126.667
180.42	625.000
180.80	1350.000
181.18	0.000
181.56	-462.500
181.94	0.000
182.31	1266.667
182.69	-3300.000
183.07	600.000
183.45	-3400.000
183.83	-1900.000
184.20	450.000
184.58	571.429
184.96	-215.385
185.34	-241.667
185.72	2100.000
186.09	-1000.000
186.47	-4200.000
186.85	1066.667
187.23	640.000
187.61	1700.000
187.98	575.000
188.36	264.286
188.74	416.667
189.12	350.000
189.49	1000.000
189.87	0.000
190.25	425.000
190.63	3000.000
191.00	-283.333
191.38	-4000.000
191.76	-625.000
192.14	475.000
192.51	-2900.000
192.89	1950.000
193.27	1033.333
193.65	-1000.000
194.02	-800.000
194.40	500.000
194.78	-242.857
195.15	246.667
195.53	-4400.000
195.91	-620.000
196.29	4600.000
196.66	256.250
197.04	875.000
197.42	-1450.000
197.79	725.000
198.17	366.667
198.55	0.000
198.92	471.429
199.30	1133.333
199.68	2300.000
200.05	716.667
200.43	-450.000
200.81	216.667
201.18	3100.000
201.56	291.667
201.94	-675.000
202.31	-275.000
202.69	-460.000
203.07	4000.000
203.44	-400.000
203.82	316.667
204.19	680.000
204.57	-1700.000
204.95	-925.000
205.32	-760.000
205.70	666.667
206.08	725.000
206.45	-933.333
206.83	444.444
207.20	215.789
207.58	300.000
207.96	720.000
208.33	0.000
208.71	685.714
209.08	800.000
209.46	-3200.000
209.84	-725.000
210.21	840.000
210.59	-660.000
210.96	350.000
211.34	-1025.000
211.71	390.909
212.09	950.000
212.46	1450.000
212.84	-433.333
213.22	455.556
213.59	-4000.000
213.97	360.000
214.34	750.000
214.72	1466.667
215.09	1433.333
215.47	-3800.000
215.84	-350.000
216.22	-512.500
216.59	0.000
216.97	0.000
217.34	1150.000
217.72	-1950.000
218.09	1066.667
218.47	487.500
218.84	925.000
219.22	1200.000
219.59	1300.000
219.97	528.571
220.34	411.111
220.72	1450.000
221.09	4500.000
221.47	333.333
221.84	1066.667
222.22	350.000
222.59	283.333
222.97	242.857
223.34	237.500
223.72	-1850.000
224.09	1133.333
224.46	307.692
224.84	-825.000
225.21	366.667
225.59	340.000
225.96	1233.333
226.34	-880.000
226.71	-900.000
227.08	-520.000
227.46	0.000
227.83	-666.667
228.21	-1700.000
228.58	408.333
228.95	1150.000
229.33	311.111
229.70	1175.000
230.08	261.538
230.45	3600.000
230.82	-1000.000
231.20	-800.000
231.57	-1200.000
231.95	600.000
232.32	333.333
232.69	550.000
233.07	291.667
233.44	-2150.000
233.81	293.333
234.19	155.556
234.56	256.250
234.93	205.882
235.31	260.000
235.68	275.000
236.05	171.429
236.43	118.519
236.80	228.571
237.17	165.517
237.55	140.625
237.92	115.000
238.29	142.424
238.67	156.250
239.04	80.488
239.41	97.917
239.79	80.000
240.16	81.250
240.53	78.689
240.91	84.058
241.28	81.356
241.65	60.606
242.02	76.056
242.40	62.857
242.77	58.242
243.14	55.696
243.51	62.626
243.89	51.402
244.26	55.140
244.63	56.436
245.00	55.046
245.38	44.068
245.75	51.515
246.12	54.074
246.49	49.645
246.87	43.443
247.24	55.333
247.61	38.125
247.98	42.177
248.36	38.182
248.73	45.408
249.10	36.905
249.47	39.000
249.84	38.806
250.22	42.162
250.59	40.500
250.96	36.709
251.33	37.674
251.70	38.393
252.08	36.134
252.45	36.653
252.82	35.741
253.19	33.597
253.56	34.615
253.94	28.986
254.31	33.333
254.68	34.495
255.05	30.000
255.42	35.401
255.79	34.528
256.16	36.610
256.54	36.039
256.91	29.085
257.28	31.104
257.65	29.467
258.02	28.909
258.39	31.519
258.76	33.623
259.14	28.857
259.51	33.236
259.88	32.523
260.25	29.670
260.62	31.507
260.99	28.099
261.36	29.805
261.73	32.181
262.10	34.293
262.47	27.000
262.85	29.867
263.22	31.620
263.59	33.248
263.96	30.827
264.33	27.654
264.70	29.238
265.07	31.220
265.44	29.128
265.81	29.481
266.18	29.748
266.55	28.842
266.92	29.306
267.29	31.579
267.66	30.045
268.03	28.251
268.40	29.387
268.77	30.176
269.14	28.850
269.51	29.399
269.88	29.388
270.25	27.214
270.62	30.687
270.99	28.803
271.36	29.268
271.73	27.254
272.10	26.869
272.47	27.183
272.84	25.948
273.21	30.165
273.58	29.352
273.95	28.131
274.32	28.210
274.69	31.102
275.06	28.233
275.43	27.203
275.80	27.547
276.17	26.103
276.54	28.598
276.91	30.224
277.28	29.745
277.65	26.199
278.02	27.574
278.39	27.338
278.76	26.897
279.13	27.580
279.50	27.636
279.87	26.257
280.23	26.335
280.60	26.460
280.97	28.276
281.34	26.403
281.71	26.435
282.08	26.838
282.45	28.378
282.82	25.251
283.19	27.027
283.56	29.421
283.92	26.710
284.29	27.288
284.66	26.218
285.03	27.363
285.40	26.116
285.77	25.000
286.14	26.625
286.51	26.074
286.87	24.209
287.24	25.075
287.61	25.380
287.98	25.075
288.35	25.037
288.72	25.493
289.08	25.225
289.45	26.524
289.82	26.094
290.19	25.183
290.56	27.365
290.93	26.187
291.29	23.481
291.66	26.271
292.03	26.087
292.40	25.203
292.77	23.677
293.13	24.536
293.50	25.776
293.87	22.764
294.24	26.713
294.60	24.899
294.97	24.895
295.34	24.967
295.71	26.150
296.08	24.133
296.44	24.269
296.81	23.201
297.18	26.236
297.55	25.493
297.91	24.261
298.28	23.188
298.65	24.294
299.02	23.643
299.38	24.580
299.75	24.878
300.12	25.000
300.48	26.112
300.85	25.030
301.22	26.628
301.59	23.231
301.95	23.921
302.32	24.214
302.69	25.000
303.05	24.916
303.42	24.888
303.79	25.135
304.15	24.642
304.52	24.630
304.89	25.373
305.25	25.695
305.62	25.800
305.99	27.174
306.35	24.842
306.72	25.078
307.09	24.741
307.45	25.554
307.82	25.309
308.19	25.052
308.55	24.900
308.92	26.398
309.29	25.444
309.65	26.165
310.02	27.688
310.38	27.717
310.75	25.940
311.12	26.916
311.48	27.992
311.85	27.385
312.22	27.985
312.58	26.239
312.95	27.282
313.31	27.996
313.68	27.674
314.05	27.930
314.41	27.747
314.78	28.788
315.14	30.806
315.51	29.139
315.87	29.745
316.24	28.852
316.61	28.201
316.97	29.450
317.34	29.919
317.70	29.324
318.07	29.982
318.43	30.053
318.80	28.371
319.16	29.545
319.53	29.912
319.89	28.763
320.26	32.495
320.62	29.945
320.99	30.219
321.35	30.334
321.72	31.594
322.08	31.487
322.45	30.972
322.81	31.930
323.18	31.972
323.54	32.753
323.91	32.729
324.27	31.565
324.64	30.017
325.00	32.241
325.37	30.354
325.73	32.040
326.10	30.986
326.46	30.966
326.83	30.320
327.19	31.727
327.56	32.588
327.92	33.115
328.29	33.306
328.65	32.363
329.01	31.565
329.38	32.403
329.74	31.853
330.11	33.275
330.47	32.310
330.84	30.802
331.20	31.218
331.56	32.815
331.93	33.105
332.29	31.037
332.66	31.122
333.02	30.670
333.38	31.501
333.75	31.860
334.11	29.782
334.48	31.966
334.84	30.997
335.20	30.796
335.57	30.982
335.93	30.278
336.29	29.851
336.66	31.389
337.02	30.111
337.38	29.923
337.75	30.321
338.11	30.211
338.47	29.636
338.84	29.467
339.20	30.649
339.56	29.941
339.93	30.936
340.29	28.571
340.65	30.847
341.02	30.652
341.38	29.310
341.74	30.233
342.11	29.299
342.47	29.122
342.83	30.517
343.20	29.507
343.56	28.674
343.92	28.489
344.28	29.585
344.65	29.421
345.01	29.683
345.37	28.766
345.73	29.365
346.10	27.729
346.46	30.064
346.82	27.238
347.19	29.212
347.55	28.259
347.91	27.795
348.27	27.963
348.63	29.747
349.00	28.408
349.36	29.105
349.72	28.976
350.08	28.804
350.45	28.256
350.81	28.746
351.17	27.196
351.53	28.176
351.89	28.361
352.26	29.025
352.62	27.903
352.98	28.834
353.34	30.431
353.70	27.141
354.07	27.846
354.43	27.957
354.79	27.335
355.15	27.259
355.51	27.946
355.87	27.711
356.24	28.637
356.60	27.397
356.96	27.824
357.32	28.109
357.68	27.974
358.04	27.508
358.40	27.286
358.77	28.475
359.13	27.928
359.49	26.612
359.85	28.593
360.21	27.340
360.57	27.153
360.93	26.551
361.29	27.706
361.66	26.995
362.02	27.486
362.38	27.056
362.74	26.681
363.10	27.279
363.46	26.312
363.82	28.050
364.18	26.743
364.54	26.896
364.90	27.041
365.26	27.759
365.62	27.279
365.98	26.635
366.35	26.138
366.71	26.995
367.07	26.416
367.43	27.401
367.79	26.995
368.15	26.459
368.51	26.947
368.87	26.970
369.23	27.374
369.59	26.028
369.95	26.993
370.31	25.873
370.67	26.440
371.03	28.011
371.39	27.078
371.75	26.657
372.11	26.920
372.47	27.055
372.83	26.785
373.19	27.622
373.55	26.873
373.91	26.796
374.27	26.653
374.63	27.593
374.99	26.348
375.35	26.411
375.71	26.847
376.07	26.658
376.42	25.767
376.78	27.103
377.14	26.868
377.50	26.654
377.86	27.226
378.22	26.143
378.58	26.998
378.94	27.218
379.30	27.107
379.66	26.309
380.02	26.862
380.38	26.347
380.74	26.874
381.09	27.395
381.45	25.838
381.81	25.118
382.17	26.007
382.53	26.275
382.89	26.138
383.25	26.939
383.61	26.282
383.97	25.975
384.32	26.100
384.68	27.392
385.04	26.729
385.40	27.046
385.76	26.214
386.12	27.335
386.48	26.991
386.83	27.323
387.19	26.148
387.55	25.736
387.91	26.674
388.27	27.365
388.62	26.408
388.98	26.531
389.34	25.996
389.70	25.884
390.06	26.341
390.42	26.033
390.77	25.676
391.13	26.373
391.49	27.102
391.85	26.154
392.20	26.579
392.56	27.300
392.92	26.221
393.28	25.953
393.64	26.663
393.99	26.971
394.35	26.486
394.71	26.055
395.07	25.973
395.42	27.049
395.78	27.205
396.14	27.590
396.50	26.053
396.85	26.646
397.21	26.895
397.57	26.479
397.92	25.592
398.28	26.310
398.64	27.516
399.00	25.708
399.35	25.497
399.71	25.442
400.07	25.742
400.42	26.507
400.78	26.100
401.14	26.130
401.49	25.518
401.85	26.246
402.21	26.479
402.57	25.733
402.92	26.242
403.28	25.955
403.63	26.133
403.99	25.633
404.35	26.495
404.70	26.344
405.06	26.277
405.42	26.272
405.77	26.185
406.13	26.085
406.49	25.242
406.84	25.776
407.20	25.970
407.55	26.892
407.91	25.654
408.27	26.501
408.62	26.198
408.98	25.843
409.34	25.599
409.69	25.576
410.05	25.343
410.40	25.854
410.76	24.442
411.11	25.770
411.47	25.247
411.83	25.483
412.18	26.630
412.54	25.706
412.89	25.959
413.25	26.454
413.60	25.058
413.96	26.152
414.31	25.797
414.67	25.947
415.03	26.054
415.38	26.372
415.74	26.090
416.09	26.858
416.45	26.568
416.80	26.427
417.16	25.143
417.51	26.369
417.87	26.783
418.22	25.273
418.58	26.752
418.93	26.234
419.29	25.816
419.64	25.681
420.00	26.850
420.35	25.958
420.71	25.613
421.06	25.191
421.42	26.137
421.77	26.097
422.12	25.358
422.48	26.091
422.83	26.339
423.19	25.270
423.54	24.959
423.90	26.104
424.25	25.812
424.61	26.640
424.96	26.426
425.31	25.725
425.67	27.048
426.02	26.136
426.38	25.613
426.73	25.390
427.09	25.860
427.44	25.830
427.79	26.072
428.15	26.989
428.50	25.657
428.85	27.748
429.21	26.094
429.56	26.171
429.92	26.504
430.27	26.463
430.62	25.893
430.98	26.297
431.33	25.504
431.68	25.827
432.04	26.384
432.39	26.839
432.74	27.283
433.10	26.467
433.45	27.111
433.80	27.799
434.16	26.695
434.51	27.090
434.86	27.273
435.22	26.472
435.57	27.564
435.92	27.718
436.28	27.535
436.63	27.661
436.98	28.153
437.34	27.454
437.69	26.316
438.04	27.258
438.39	27.262
438.75	27.339
439.10	26.821
439.45	26.738
439.81	26.778
440.16	27.188
440.51	27.196
440.86	28.034
441.22	27.435
441.57	28.294
441.92	27.394
442.27	27.113
442.63	26.728
442.98	26.832
443.33	27.102
443.68	27.565
444.03	27.097
444.39	27.684
444.74	27.019
445.09	26.646
445.44	28.215
445.79	27.242
446.15	28.158
446.50	27.795
446.85	27.639
447.20	27.214
447.55	28.004
447.91	28.077
448.26	27.849
448.61	27.363
448.96	27.941
449.31	28.053
449.66	28.793
450.02	26.796
450.37	28.706
450.72	28.099
451.07	27.574
451.42	28.216
451.77	28.522
452.12	27.907
452.47	28.007
452.83	28.901
453.18	29.550
453.53	28.182
453.88	28.343
454.23	28.007
454.58	29.079
454.93	29.123
455.28	28.580
455.63	28.901
455.98	27.806
456.34	28.207
456.69	28.780
457.04	28.401
457.39	28.229
457.74	28.829
458.09	28.467
458.44	28.204
458.79	28.488
459.14	28.096
459.49	28.029
459.84	28.315
460.19	27.627
460.54	27.920
460.89	27.985
461.24	27.950
461.59	28.515
461.94	28.428
462.29	28.833
462.64	29.334
462.99	28.855
463.34	28.775
463.69	29.220
464.04	29.016
464.39	28.506
464.74	27.550
465.09	29.019
465.44	29.217
465.79	28.307
466.14	28.140
466.49	28.215
466.84	27.871
467.19	28.002
467.54	27.928
467.89	28.638
468.24	28.315
468.59	28.869
468.94	28.986
469.29	28.589
469.64	28.360
469.99	28.728
470.34	27.451
470.68	27.517
471.03	28.486
471.38	29.007
471.73	27.368
472.08	29.746
472.43	28.864
472.78	28.425
473.13	27.660
473.48	28.362
473.83	28.092
474.17	28.754
474.52	27.962
474.87	27.743
475.22	27.813
475.57	27.545
475.92	27.747
476.27	27.911
476.61	28.043
476.96	27.273
477.31	27.404
477.66	28.717
478.01	27.695
478.36	28.115
478.70	27.444
479.05	28.033
479.40	27.927
479.75	27.954
480.10	28.219
480.45	27.311
480.79	27.465
481.14	27.437
481.49	27.630
481.84	27.089
482.19	27.031
482.53	26.834
482.88	27.330
483.23	27.379
483.58	28.232
483.92	28.748
484.27	26.884
484.62	28.014
484.97	26.802
485.31	27.590
485.66	27.491
486.01	26.209
486.36	26.270
486.70	25.826
487.05	25.929
487.40	26.021
487.75	25.985
488.09	25.938
488.44	26.450
488.79	26.866
489.13	27.249
489.48	27.167
489.83	26.856
490.17	26.548
490.52	27.046
490.87	27.371
491.22	27.970
491.56	27.492
491.91	26.478
492.26	26.771
492.60	27.790
492.95	27.639
493.30	27.207
493.64	27.718
493.99	26.431
494.34	27.073
494.68	27.402
495.03	26.897
495.37	27.060
495.72	27.552
496.07	26.864
496.41	26.803
496.76	27.016
497.11	27.549
497.45	26.786
497.80	27.757
498.14	26.676
498.49	27.298
498.84	27.850
499.18	26.234
499.53	27.285
499.87	26.909
500.22	26.946
500.56	27.577
500.91	26.716
501.26	27.607
501.60	25.956
501.95	26.389
502.29	27.200
502.64	26.026
502.98	26.545
503.33	27.216
503.67	26.578
504.02	26.108
504.36	26.652
504.71	27.152
505.06	26.326
505.40	26.579
505.75	26.567
506.09	27.018
506.44	26.974
506.78	27.410
507.13	26.418
507.47	26.298
507.82	27.105
508.16	27.878
508.51	26.860
508.85	26.781
509.19	26.676
509.54	26.953
509.88	27.250
510.23	26.863
510.57	26.448
510.92	26.474
511.26	27.962
511.61	25.406
511.95	26.132
512.30	26.450
512.64	26.272
512.98	26.807
513.33	26.076
513.67	26.929
514.02	25.818
514.36	25.753
514.70	26.453
515.05	26.638
515.39	26.645
515.74	26.845
516.08	26.906
516.42	27.596
516.77	27.093
517.11	25.707
517.46	26.886
517.80	26.761
518.14	27.493
518.49	26.185
518.83	25.440
519.17	25.790
519.52	27.307
519.86	26.921
520.20	26.466
520.55	26.456
520.89	26.379
521.23	25.701
521.58	26.277
521.92	26.356
522.26	25.592
522.61	26.857
522.95	26.667
523.29	26.199
523.64	25.434
523.98	26.819
524.32	25.952
524.66	25.043
525.01	25.799
525.35	25.869
525.69	26.309
526.04	25.758
526.38	25.898
526.72	25.656
527.06	25.784
527.41	27.449
527.75	25.806
528.09	25.888
528.43	26.663
528.78	25.164
529.12	26.430
529.46	25.190
529.80	24.766
530.15	25.339
530.49	24.850
530.83	25.411
531.17	25.953
531.51	25.506
531.86	25.000
532.20	24.969
532.54	26.114
532.88	25.734
533.22	25.472
533.57	26.113
533.91	24.359
534.25	25.043
534.59	26.433
534.93	25.028
535.27	24.075
535.62	24.971
535.96	25.887
536.30	25.838
536.64	25.217
536.98	24.670
537.32	26.000
537.66	26.084
538.01	25.635
538.35	24.828
538.69	25.061
539.03	24.440
539.37	24.211
539.71	25.123
540.05	25.169
540.39	24.969
540.73	25.253
541.07	24.718
541.42	24.378
541.76	25.586
542.10	24.353
542.44	25.561
542.78	24.733
543.12	24.479
543.46	23.559
543.80	25.501
544.14	25.449
544.48	24.331
544.82	24.954
545.16	24.226
545.50	25.138
545.84	24.179
546.18	25.813
546.52	25.639
546.86	25.081
547.20	24.031
547.54	24.256
547.88	24.453
548.22	24.347
548.56	24.396
548.90	24.140
549.24	25.079
549.58	23.840
549.92	24.623
550.26	25.017
550.60	24.351
550.94	24.898
551.28	24.690
551.62	25.517
551.96	23.851
552.30	23.995
552.64	25.243
552.98	23.196
553.32	24.008
553.66	22.997
554.00	24.775
554.34	24.234
554.68	24.328
555.02	23.625
555.36	23.404
555.69	24.411
556.03	23.758
556.37	23.327
556.71	24.837
557.05	22.477
557.39	24.467
557.73	24.191
558.07	23.944
558.41	23.441
558.75	24.419
559.08	24.446
559.42	24.195
559.76	24.947
560.10	23.331
560.44	24.154
560.78	24.488
561.12	23.840
561.45	23.967
561.79	24.345
562.13	23.184
562.47	22.128
562.81	23.943
563.15	23.982
563.48	22.547
563.82	23.706
564.16	24.005
564.50	23.508
564.84	24.681
565.17	22.579
565.51	24.631
565.85	24.183
566.19	23.333
566.52	23.285
566.86	24.402
567.20	23.427
567.54	23.472
567.88	24.517
568.21	22.966
568.55	23.152
568.89	22.217
569.23	22.045
569.56	23.163
569.90	22.242
570.24	22.521
570.57	22.875
570.91	21.810
571.25	22.242
571.59	21.715
571.92	21.529
572.26	21.132
572.60	21.550
572.93	21.507
573.27	21.654
573.61	21.900
573.95	21.439
574.28	21.886
574.62	21.565
574.96	21.135
575.29	20.897
575.63	21.319
575.97	20.959
576.30	20.729
576.64	21.503
576.98	21.152
577.31	21.814
577.65	21.512
577.98	21.070
578.32	20.856
578.66	20.918
578.99	21.145
579.33	21.065
579.67	20.909
580.00	21.027
580.34	21.010
580.67	21.051
581.01	21.747
581.35	21.387
581.68	20.741
582.02	21.057
582.35	20.880
582.69	20.930
583.02	20.710
583.36	20.818
583.70	20.936
584.03	21.178
584.37	21.277
584.70	21.075
585.04	20.914
585.37	20.537
585.71	21.034
586.04	20.642
586.38	20.900
586.72	20.798
587.05	20.973
587.39	20.733
587.72	21.030
588.06	21.207
588.39	21.034
588.73	21.248
589.06	20.747
589.40	21.158
589.73	21.075
590.07	21.448
590.40	21.115
590.73	21.594
591.07	22.049
591.40	21.038
591.74	21.550
592.07	21.090
592.41	21.423
592.74	21.055
593.08	20.540
593.41	21.305
593.75	20.820
594.08	21.189
594.41	20.560
594.75	20.479
595.08	20.233
595.42	20.375
595.75	20.895
596.09	21.585
596.42	20.357
596.75	20.994
597.09	21.378
597.42	20.612
597.75	20.649
598.09	20.886
598.42	20.726
598.76	20.817
599.09	20.706
599.42	20.692
599.76	20.726
600.09	20.169
600.42	20.615
600.76	20.292
601.09	20.504
601.42	20.415
601.76	20.408
602.09	20.898
602.42	20.222
602.76	20.607
603.09	20.249
603.42	20.697
603.76	20.390
604.09	20.087
604.42	20.753
604.76	20.664
605.09	20.898
605.42	20.398
605.75	19.897
606.09	20.620
606.42	20.406
606.75	20.521
607.09	20.253
607.42	20.008
607.75	20.462
608.08	20.471
608.42	20.344
608.75	19.726
609.08	19.886
609.41	20.318
609.75	20.467
610.08	19.649
610.41	19.807
610.74	20.000
611.07	20.691
611.41	21.316
611.74	20.698
612.07	20.809
612.40	19.834
612.73	20.719
613.07	20.476
613.40	20.251
613.73	20.320
614.06	20.600
614.39	20.758
614.72	20.191
615.06	20.079
615.39	20.396
615.72	20.765
616.05	20.593
616.38	20.751
616.71	20.727
617.05	19.440
617.38	20.281
617.71	19.685
618.04	20.191
618.37	19.789
618.70	20.497
619.03	20.513
619.36	19.661
619.69	20.251
620.03	21.265
620.36	19.268
620.69	21.073
621.02	20.652
621.35	20.057
621.68	20.206
622.01	20.738
622.34	20.029
622.67	20.225
623.00	20.286
623.33	20.918
623.66	20.426
623.99	20.822
624.32	20.867
624.65	20.342
624.99	20.825
625.32	19.706
625.65	20.552
625.98	20.502
626.31	20.401
626.64	19.362
626.97	20.275
627.30	20.342
627.63	19.937
627.96	21.127
628.29	20.545
628.62	19.932
628.95	20.035
629.28	20.859
629.61	21.002
629.94	21.003
630.26	20.364
630.59	21.454
630.92	20.359
631.25	20.490
631.58	20.540
631.91	21.028
632.24	20.311
632.57	20.138
632.90	20.911
633.23	21.511
633.56	21.180
633.89	21.008
634.22	20.344
634.55	20.215
634.88	21.577
635.20	21.076
635.53	22.067
635.86	20.805
636.19	20.651
636.52	19.351
636.85	20.280
637.18	21.560
637.51	19.330
637.83	21.854
638.16	21.336
638.49	21.198
638.82	21.714
639.15	20.799
639.48	23.578
639.81	20.635
640.13	19.755
640.46	21.239
640.79	21.977
641.12	20.866
641.45	21.992
641.77	20.872
642.10	21.687
642.43	21.195
642.76	21.449
643.09	21.182
643.41	20.337
643.74	23.309
644.07	20.796
644.40	21.893
644.73	21.922
645.05	22.734
645.38	21.440
645.71	22.003
646.04	23.206
646.36	21.440
646.69	20.000
647.02	23.360
647.35	20.000
647.67	21.880
648.00	22.476
648.33	21.053
648.66	22.727
648.98	21.159
649.31	21.188
649.64	19.917
649.96	20.910
650.29	20.000
650.62	21.649
650.94	22.741
651.27	23.604
651.60	21.440
651.92	22.888
652.25	21.102
652.58	20.567
652.90	21.856
653.23	20.532
653.56	21.513
653.88	22.026
654.21	20.968
654.54	21.523
654.86	21.091
655.19	22.955
655.52	18.313
655.84	16.143
656.17	18.467
656.49	27.376
656.82	32.089
657.15	26.410
657.47	19.206
657.80	13.758
658.13	10.400
658.45	14.188
658.78	17.082
659.10	17.372
659.43	18.081
659.75	19.588
660.08	19.612
660.41	22.505
660.73	23.087
661.06	23.724
661.38	22.828
661.71	20.683
662.03	23.004
662.36	22.857
662.68	22.533
663.01	22.523
663.33	21.132
663.66	21.302
663.98	22.619
664.31	24.440
664.63	23.563
664.96	24.015
665.28	22.976
665.61	21.321
665.93	25.660
666.26	21.308
666.58	25.872
666.91	21.236
667.23	22.892
667.56	21.971
667.88	21.369
668.21	22.541
668.53	22.379
668.86	22.445
669.18	23.422
669.50	21.901
669.83	24.025
670.15	22.245
670.48	21.484
670.80	24.303
671.13	20.916
671.45	22.044
671.77	23.006
672.10	22.442
672.42	21.382
672.75	21.677
673.07	21.463
673.39	19.808
673.72	22.491
674.04	21.505
674.37	21.960
674.69	20.074
675.01	21.269
675.34	22.287
675.66	22.070
675.98	22.485
676.31	22.400
676.63	23.459
676.95	22.024
677.28	22.110
677.60	22.736
677.92	21.032
678.25	23.062
678.57	21.415
678.89	23.146
679.22	21.507
679.54	21.174
679.86	21.815
680.18	19.508
680.51	19.071
680.83	21.284
681.15	23.397
681.48	22.049
681.80	21.541
682.12	22.664
682.44	21.261
682.77	21.174
683.09	20.000
683.41	24.082
683.73	24.606
684.06	20.238
684.38	22.481
684.70	21.223
685.02	18.750
685.34	21.831
685.67	24.116
685.99	20.197
686.31	21.263
686.63	20.813
686.96	22.222
687.28	19.799
687.60	20.478
687.92	21.943
688.24	21.897
688.56	22.776
688.89	19.885
689.21	21.387
689.53	23.123
689.85	19.309
690.17	21.942
690.49	22.581
690.82	20.588
691.14	23.636
691.46	22.587
691.78	22.222
692.10	21.947
692.42	21.234
692.74	23.837
693.06	20.349
693.39	22.530
693.71	22.004
694.03	24.260
694.35	24.900
694.67	20.978
694.99	24.390
695.31	23.423
695.63	21.493
695.95	22.172
696.27	23.230
696.59	21.002
696.91	22.785
697.23	23.303
697.56	18.050
697.88	22.754
698.20	23.208
698.52	18.872
698.84	23.614
699.16	24.307
699.48	22.034
699.80	23.529
700.12	24.942
700.44	23.364
700.76	25.060
701.08	26.110
701.40	25.714
701.72	25.134
702.04	25.745
702.36	25.269
702.68	23.138
703.00	20.802
703.32	23.325
703.64	23.426
703.96	23.958
704.28	22.751
704.60	24.507
704.91	24.370
705.23	24.432
705.55	22.255
705.87	27.302
706.19	26.959
706.51	27.586
706.83	26.844
707.15	24.599
707.47	23.971
707.79	22.989
708.11	22.676
708.43	23.371
708.74	22.398
709.06	19.767
709.38	27.543
709.70	24.251
710.02	23.913
710.34	23.204
710.66	24.167
710.98	22.951
711.29	25.905
711.61	23.677
711.93	25.532
712.25	25.301
712.57	27.010
712.89	23.333
713.20	27.157
713.52	21.807
713.84	24.471
714.16	22.609
714.48	21.037
714.80	24.661
715.11	19.947
715.43	23.464
715.75	23.380
716.07	23.988
716.39	23.429
716.70	22.430
717.02	27.609
717.34	28.058
717.66	29.167
717.97	32.197
718.29	25.352
718.61	22.635
718.93	25.952
719.24	27.181
719.56	26.207
719.88	25.478
720.20	23.871
720.51	24.837
720.83	26.756
721.15	26.190
721.46	29.452
721.78	26.829
722.10	26.736
722.42	29.097
722.73	25.632
723.05	30.175
723.37	31.095
723.68	25.000
724.00	27.652
724.32	28.897
724.63	28.846
724.95	24.706
725.27	28.996
725.58	25.735
725.90	24.296
726.22	22.260
726.53	28.763
726.85	26.710
727.16	24.832
727.48	26.246
727.80	29.137
728.11	27.143
728.43	27.536
728.74	28.671
729.06	24.373
729.38	25.263
729.69	28.667
730.01	23.355
730.32	23.826
730.64	28.571
730.96	26.126
731.27	22.630
731.59	22.126
731.90	23.398
732.22	28.000
732.53	23.647
732.85	28.363
733.16	27.410
733.48	27.273
733.80	26.957
734.11	27.607
734.43	23.977
734.74	20.912
735.06	25.132
735.37	23.969
735.69	21.739
736.00	28.440
736.32	23.333
736.63	21.767
736.95	22.671
737.26	31.707
737.58	24.540
737.89	23.494
738.21	23.841
738.52	27.425
738.83	28.571
739.15	28.571
739.46	22.414
739.78	25.510
740.09	27.405
740.41	23.926
740.72	26.349
741.04	26.224
741.35	32.031
741.66	27.668
741.98	31.760
742.29	26.852
742.61	27.876
742.92	31.780
743.23	26.000
743.55	30.189
743.86	28.235
744.18	30.508
744.49	32.231
744.80	27.650
745.12	28.125
745.43	32.243
745.74	25.333
746.06	22.807
746.37	31.163
746.68	31.416
747.00	32.287
747.31	26.891
747.62	27.459
747.94	28.755
748.25	28.016
748.56	27.119
748.88	29.911
749.19	33.023
749.50	27.854
749.82	31.276
750.13	31.621
750.44	23.667
750.75	28.188
751.07	28.289
751.38	28.053
751.69	23.569
752.01	27.622
752.32	25.914
752.63	26.510
752.94	27.972
753.26	29.297
753.57	31.518
753.88	25.094
754.19	29.603
754.51	25.249
754.82	24.497
755.13	22.973
755.44	23.704
755.75	29.553
756.07	27.397
756.38	25.163
756.69	26.875
757.00	27.893
757.31	25.915
757.63	21.763
757.94	23.936
758.25	24.879
758.56	23.112
758.87	25.564
759.18	27.907
759.50	22.188
759.81	27.300
760.12	24.438
760.43	22.969
760.74	24.304
761.05	24.668
761.36	22.396
761.67	26.415
761.99	24.225
762.30	27.331
762.61	22.222
762.92	26.515
763.23	27.547
763.54	28.077
763.85	25.292
764.16	27.778
764.47	23.649
764.78	23.779
765.10	23.171
765.41	22.727
765.72	23.204
766.03	20.544
766.34	25.087
766.65	34.221
766.96	30.364
767.27	32.710
767.58	33.663
767.89	32.597
768.20	34.756
768.51	33.163
768.82	30.702
769.13	25.882
769.44	28.947
769.75	25.468
770.06	25.630
770.37	31.140
770.68	23.556
770.99	30.508
771.30	28.033
771.61	27.692
771.92	26.336
772.23	28.226
772.54	34.667
772.85	35.644
773.16	29.348
773.47	32.222
773.78	30.693
774.09	34.659
774.39	41.818
774.70	32.941
775.01	32.237
775.32	38.509
775.63	43.836
775.94	43.210
776.25	37.241
776.56	35.115
776.87	40.458
777.18	36.364
777.48	46.457
777.79	39.231
778.10	44.697
778.41	40.299
778.72	41.353
779.03	32.692
779.34	33.108
779.65	43.478
779.95	38.509
780.26	33.929
780.57	46.259
780.88	46.099
781.19	44.167
781.50	39.645
781.80	35.519
782.11	33.333
782.42	26.437
782.73	33.333
783.04	32.903
783.34	38.760
783.65	39.456
783.96	38.710
784.27	35.099
784.57	35.526
784.88	51.449
785.19	43.333
785.50	43.103
785.81	46.512
786.11	43.704
786.42	32.283
786.73	50.450
787.04	51.887
787.34	35.772
787.65	50.758
787.96	41.667
788.26	39.370
788.57	44.526
788.88	40.141
789.19	43.511
789.49	40.541
789.80	40.625
790.11	46.281
790.41	47.222
790.72	34.259
791.03	48.077
791.33	48.485
791.64	48.421
791.95	57.895
792.25	36.458
792.56	41.000
792.87	53.659
793.17	59.091
793.48	64.706
793.79	56.322
794.09	47.727
794.40	56.034
794.70	42.063
795.01	44.615
795.32	38.168
795.62	43.590
795.93	46.218
796.23	47.154
796.54	56.122
796.85	56.818
797.15	62.338
797.46	65.854
797.76	52.500
798.07	65.333
798.37	58.750
798.68	63.750
798.99	60.976
799.29	61.333
799.60	51.163
799.90	57.895
800.21	68.182
800.51	70.423
800.82	62.069
801.12	72.308
801.43	68.000
801.73	67.241
802.04	66.234
802.34	57.534
802.65	92.157
802.95	93.478
803.26	75.806
803.56	78.333
803.87	74.627
804.17	58.730
804.48	73.585
804.78	52.778
805.09	69.697
805.39	79.365
805.70	56.140
806.00	61.429
806.30	71.875
806.61	63.529
806.91	60.000
807.22	44.565
807.52	56.579
807.83	77.632
808.13	65.217
808.43	72.581
808.74	76.712
809.04	66.071
809.35	86.765
809.65	51.515
809.95	86.275
810.26	87.037
810.56	95.312
810.86	69.388
811.17	80.702
811.47	80.435
811.77	81.034
812.08	60.345
812.38	102.381
812.69	95.238
812.99	84.444
813.29	117.143
813.59	129.032
813.90	72.414
814.20	95.082
814.50	64.000
814.81	71.930
815.11	107.407
815.41	83.929
815.72	71.429
816.02	88.000
816.32	114.634
816.62	79.310
816.93	103.030
817.23	119.512
817.53	91.071
817.84	97.778
818.14	100.000
818.44	97.917
818.74	86.792
819.04	89.744
819.35	118.182
819.65	100.000
819.95	98.148
820.25	100.000
820.56	108.108
820.86	118.421
821.16	72.340
821.46	102.632
821.76	83.636
822.07	73.810
822.37	94.737
822.67	125.581
822.97	110.526
823.27	95.652
823.57	143.750
823.88	125.641
824.18	121.212
824.48	160.870
824.78	113.889
825.08	156.522
825.38	120.690
825.69	126.471
825.99	61.702
826.29	69.444
826.59	122.857
826.89	136.667
827.19	91.429
827.49	154.839
827.79	146.154
828.09	85.714
828.39	83.333
828.70	89.189
829.00	164.286
829.30	212.500
829.60	111.111
829.90	151.613
830.20	78.788
830.50	135.135
830.80	137.500
831.10	161.538
831.40	166.667
831.70	158.333
832.00	113.333
832.30	152.174
832.60	166.667
832.90	166.667
833.20	205.000
833.50	136.842
833.80	105.882
834.10	107.895
834.40	157.895
834.70	106.667
835.00	148.000
835.30	97.297
835.60	134.375
835.90	127.027
836.20	161.538
836.50	118.182
836.80	97.561
837.10	178.261
837.40	353.846
837.70	163.158
838.00	123.333
838.30	162.500
838.60	172.000
838.90	270.000
839.19	175.000
839.49	163.333
839.79	106.897
840.09	119.231
840.39	226.667
840.69	205.263
840.99	157.143
841.29	165.217
841.59	180.000
841.88	180.000
842.18	311.111
842.48	167.857
842.78	151.852
843.08	176.923
843.38	204.545
843.68	292.857
843.97	428.571
844.27	152.174
844.57	1750.000
844.87	292.857
845.17	177.778
845.47	190.476
845.76	195.833
846.06	485.714
846.36	241.176
846.66	269.231
846.96	181.250
847.25	276.923
847.55	142.105
847.85	211.111
848.15	580.000
848.44	290.909
848.74	176.190
849.04	166.667
849.34	188.235
849.63	262.500
849.93	287.500
850.23	1033.333
850.53	337.500
850.82	281.818
851.12	170.588
851.42	162.500
851.71	293.750
852.01	0.000
852.31	252.941
852.61	380.000
852.90	162.500
853.20	355.556
853.50	-1600.000
853.79	172.000
854.09	140.625
854.39	182.759
854.68	168.966
854.98	180.952
855.28	103.226
855.57	307.143
855.87	161.111
856.17	155.556
856.46	194.737
856.76	135.484
857.05	217.647
857.35	327.273
857.65	292.308
857.94	205.000
858.24	511.111
858.53	292.857
858.83	628.571
859.13	173.913
859.42	377.778
859.72	412.500
860.01	258.333
860.31	750.000
860.60	300.000
860.90	412.500
861.20	246.154
861.49	514.286
861.79	-3700.000
862.08	714.286
862.38	411.111
862.67	285.714
862.97	360.000
863.26	176.667
863.56	975.000
863.85	353.846
864.15	264.706
864.44	216.667
864.74	341.667
865.03	390.909
865.33	412.500
865.62	286.667
865.92	583.333
866.21	850.000
866.51	760.000
866.80	250.000
867.10	1000.000
867.39	4000.000
867.69	880.000
867.98	925.000
868.27	180.952
868.57	240.000
868.86	925.000
869.16	161.905
869.45	3100.000
869.75	-583.333
870.04	975.000
870.33	720.000
870.63	450.000
870.92	211.765
871.22	800.000
871.51	457.143
871.80	358.333
872.10	376.923
>>>>>End Processed Spectral Data<<<<<
