SpectraSuite Data File
++++++++++++++++++++++++++++++++++++
Date: Tue May 12 16:11:10 PDT 2015
User: schluterlab
Dark Spectrum Present: Yes
Reference Spectrum Present: Yes
Number of Sampled Component Spectra: 1
Spectrometers: USB2E3373
Integration Time (usec): 3000 (USB2E3373)
Spectra Averaged: 3 (USB2E3373)
Boxcar Smoothing: 0 (USB2E3373)
Correct for Electrical Dark: No (USB2E3373)
Strobe/Lamp Enabled: No (USB2E3373)
Correct for Detector Non-linearity: No (USB2E3373)
Correct for Stray Light: No (USB2E3373)
Number of Pixels in Processed Spectrum: 2048
>>>>>Begin Processed Spectral Data<<<<<
178.53	0.000
178.91	-216.667
179.29	-650.000
179.67	-4700.000
180.04	-146.667
180.42	1025.000
180.80	2050.000
181.18	0.000
181.56	-412.500
181.94	0.000
182.31	1333.333
182.69	-3300.000
183.07	657.143
183.45	-3100.000
183.83	-1600.000
184.20	430.000
184.58	628.571
184.96	-223.077
185.34	-208.333
185.72	2100.000
186.09	-875.000
186.47	-4100.000
186.85	1133.333
187.23	760.000
187.61	1450.000
187.98	437.500
188.36	285.714
188.74	416.667
189.12	408.333
189.49	1125.000
189.87	0.000
190.25	650.000
190.63	2800.000
191.00	-275.000
191.38	-3800.000
191.76	-725.000
192.14	625.000
192.51	-4100.000
192.89	1900.000
193.27	1166.667
193.65	-800.000
194.02	-840.000
194.40	457.143
194.78	-242.857
195.15	260.000
195.53	-3900.000
195.91	-720.000
196.29	4000.000
196.66	318.750
197.04	1025.000
197.42	-1900.000
197.79	975.000
198.17	366.667
198.55	0.000
198.92	471.429
199.30	1233.333
199.68	2300.000
200.05	716.667
200.43	-333.333
200.81	272.222
201.18	4200.000
201.56	325.000
201.94	-700.000
202.31	-462.500
202.69	-740.000
203.07	3600.000
203.44	-750.000
203.82	375.000
204.19	780.000
204.57	-1500.000
204.95	-625.000
205.32	-780.000
205.70	733.333
206.08	975.000
206.45	-1033.333
206.83	388.889
207.20	236.842
207.58	325.000
207.96	860.000
208.33	0.000
208.71	514.286
209.08	880.000
209.46	-2500.000
209.84	-775.000
210.21	980.000
210.59	-500.000
210.96	316.667
211.34	-1100.000
211.71	409.091
212.09	825.000
212.46	2150.000
212.84	-583.333
213.22	433.333
213.59	-2600.000
213.97	340.000
214.34	1000.000
214.72	1533.333
215.09	800.000
215.47	-3500.000
215.84	-340.000
216.22	-462.500
216.59	0.000
216.97	0.000
217.34	1700.000
217.72	-1500.000
218.09	1466.667
218.47	525.000
218.84	800.000
219.22	1200.000
219.59	1100.000
219.97	671.429
220.34	400.000
220.72	1300.000
221.09	4200.000
221.47	350.000
221.84	1100.000
222.22	400.000
222.59	272.222
222.97	185.714
223.34	262.500
223.72	-1700.000
224.09	1400.000
224.46	276.923
224.84	-775.000
225.21	455.556
225.59	280.000
225.96	1466.667
226.34	-620.000
226.71	-825.000
227.08	-580.000
227.46	0.000
227.83	-483.333
228.21	-1950.000
228.58	408.333
228.95	975.000
229.33	422.222
229.70	900.000
230.08	407.692
230.45	4000.000
230.82	-1200.000
231.20	-866.667
231.57	-1000.000
231.95	680.000
232.32	350.000
232.69	633.333
233.07	291.667
233.44	-1100.000
233.81	220.000
234.19	177.778
234.56	181.250
234.93	205.882
235.31	210.000
235.68	325.000
236.05	189.286
236.43	140.741
236.80	314.286
237.17	179.310
237.55	125.000
237.92	160.000
238.29	154.545
238.67	156.250
239.04	148.780
239.41	112.500
239.79	120.000
240.16	129.167
240.53	96.721
240.91	82.609
241.28	96.610
241.65	100.000
242.02	111.268
242.40	94.286
242.77	81.319
243.14	89.873
243.51	86.869
243.89	70.093
244.26	73.832
244.63	72.277
245.00	67.890
245.38	67.797
245.75	68.939
246.12	74.815
246.49	64.539
246.87	66.393
247.24	62.000
247.61	63.125
247.98	67.347
248.36	61.212
248.73	65.816
249.10	57.143
249.47	61.500
249.84	55.224
250.22	62.703
250.59	61.500
250.96	55.696
251.33	57.209
251.70	58.929
252.08	54.622
252.45	52.590
252.82	54.373
253.19	54.941
253.56	55.769
253.94	54.348
254.31	54.264
254.68	51.916
255.05	52.414
255.42	54.745
255.79	49.837
256.16	53.220
256.54	52.597
256.91	54.575
257.28	52.174
257.65	48.589
258.02	51.327
258.39	51.003
258.76	51.884
259.14	48.571
259.51	51.895
259.88	51.368
260.25	47.253
260.62	52.329
260.99	45.455
261.36	51.811
261.73	49.734
262.10	49.738
262.47	47.250
262.85	49.600
263.22	52.699
263.59	50.384
263.96	47.368
264.33	48.889
264.70	49.877
265.07	48.049
265.44	45.183
265.81	47.406
266.18	48.741
266.55	50.118
266.92	47.651
267.29	51.535
267.66	49.552
268.03	47.085
268.40	47.992
268.77	45.374
269.14	46.638
269.51	48.330
269.88	47.959
270.25	47.084
270.62	46.781
270.99	46.247
271.36	47.764
271.73	48.008
272.10	43.636
272.47	45.635
272.84	45.110
273.21	48.140
273.58	46.761
273.95	48.049
274.32	44.942
274.69	49.016
275.06	44.262
275.43	45.402
275.80	46.981
276.17	46.691
276.54	45.047
276.91	45.522
277.28	44.526
277.65	43.727
278.02	45.037
278.39	46.583
278.76	43.793
279.13	47.687
279.50	46.909
279.87	45.065
280.23	44.567
280.60	45.255
280.97	44.828
281.34	42.244
281.71	44.000
282.08	44.615
282.45	43.581
282.82	43.813
283.19	47.059
283.56	41.983
283.92	45.440
284.29	44.426
284.66	43.025
285.03	43.449
285.40	41.983
285.77	41.975
286.14	42.415
286.51	40.951
286.87	41.772
287.24	40.841
287.61	41.945
287.98	41.045
288.35	40.889
288.72	41.123
289.08	39.039
289.45	40.091
289.82	41.875
290.19	39.824
290.56	42.067
290.93	38.561
291.29	38.674
291.66	36.723
292.03	39.130
292.40	37.534
292.77	39.136
293.13	37.660
293.50	36.302
293.87	34.688
294.24	38.042
294.60	38.762
294.97	36.503
295.34	37.052
295.71	35.348
296.08	38.133
296.44	37.992
296.81	35.484
297.18	33.460
297.55	36.084
297.91	32.759
298.28	35.628
298.65	33.988
299.02	34.138
299.38	34.293
299.75	33.171
300.12	34.060
300.48	34.192
300.85	34.565
301.22	32.558
301.59	32.547
301.95	31.739
302.32	32.829
302.69	33.258
303.05	35.354
303.42	30.717
303.79	31.419
304.15	31.023
304.52	31.712
304.89	31.450
305.25	32.592
305.62	31.023
305.99	32.609
306.35	30.105
306.72	31.530
307.09	32.505
307.45	31.151
307.82	29.424
308.19	31.134
308.55	31.200
308.92	32.287
309.29	31.164
309.65	30.624
310.02	31.643
310.38	30.409
310.75	29.990
311.12	30.939
311.48	31.467
311.85	30.725
312.22	30.181
312.58	29.932
312.95	29.320
313.31	30.899
313.68	29.737
314.05	29.579
314.41	28.864
314.78	30.682
315.14	30.521
315.51	30.274
315.87	28.832
316.24	29.412
316.61	29.275
316.97	28.991
317.34	28.122
317.70	28.622
318.07	30.249
318.43	30.141
318.80	29.860
319.16	28.759
319.53	29.292
319.89	28.495
320.26	31.192
320.62	28.938
320.99	30.029
321.35	27.829
321.72	29.127
322.08	29.363
322.45	29.700
322.81	28.820
323.18	28.597
323.54	29.878
323.91	27.743
324.27	28.028
324.64	27.595
325.00	29.569
325.37	27.993
325.73	27.319
326.10	27.672
326.46	27.333
326.83	28.000
327.19	27.550
327.56	27.556
327.92	28.934
328.29	28.969
328.65	29.452
329.01	28.229
329.38	28.257
329.74	27.925
330.11	28.410
330.47	27.195
330.84	26.488
331.20	27.919
331.56	29.534
331.93	28.058
332.29	27.211
332.66	28.316
333.02	26.890
333.38	26.178
333.75	27.606
334.11	27.433
334.48	26.923
334.84	27.280
335.20	27.117
335.57	25.693
335.93	26.913
336.29	27.197
336.66	27.530
337.02	26.775
337.38	26.053
337.75	27.111
338.11	27.764
338.47	27.180
338.84	26.757
339.20	26.840
339.56	26.493
339.93	27.341
340.29	25.798
340.65	27.829
341.02	25.905
341.38	27.094
341.74	25.748
342.11	25.459
342.47	26.825
342.83	26.743
343.20	26.516
343.56	25.338
343.92	26.342
344.28	25.997
344.65	27.139
345.01	25.476
345.37	24.840
345.73	26.270
346.10	25.418
346.46	24.960
346.82	24.306
347.19	26.043
347.55	25.527
347.91	25.151
348.27	25.097
348.63	27.057
349.00	26.580
349.36	25.136
349.72	25.612
350.08	26.786
350.45	26.352
350.81	25.765
351.17	25.886
351.53	25.019
351.89	24.942
352.26	24.868
352.62	25.113
352.98	25.460
353.34	26.965
353.70	23.777
354.07	23.923
354.43	25.499
354.79	24.146
355.15	24.732
355.51	25.076
355.87	25.075
356.24	24.942
356.60	24.125
356.96	25.019
357.32	24.567
357.68	24.596
358.04	25.076
358.40	24.963
358.77	24.267
359.13	24.249
359.49	24.463
359.85	23.380
360.21	24.368
360.57	23.577
360.93	25.108
361.29	23.665
361.66	24.683
362.02	23.935
362.38	24.820
362.74	23.638
363.10	24.053
363.46	23.826
363.82	24.825
364.18	25.107
364.54	24.464
364.90	24.364
365.26	24.427
365.62	23.550
365.98	23.606
366.35	23.379
366.71	24.289
367.07	23.003
367.43	24.244
367.79	23.138
368.15	22.592
368.51	24.121
368.87	23.098
369.23	22.869
369.59	23.061
369.95	23.497
370.31	23.272
370.67	23.872
371.03	24.370
371.39	23.684
371.75	23.168
372.11	23.453
372.47	24.452
372.83	23.114
373.19	24.606
373.55	23.574
373.91	22.790
374.27	24.272
374.63	23.051
374.99	23.315
375.35	24.261
375.71	22.889
376.07	23.873
376.42	22.442
376.78	24.149
377.14	23.657
377.50	22.971
377.86	22.357
378.22	24.254
378.58	23.547
378.94	23.778
379.30	22.923
379.66	23.179
380.02	23.226
380.38	22.365
380.74	23.356
381.09	22.780
381.45	22.254
381.81	23.463
382.17	22.589
382.53	23.275
382.89	22.531
383.25	21.374
383.61	22.882
383.97	22.555
384.32	22.664
384.68	23.529
385.04	23.212
385.40	23.665
385.76	22.528
386.12	23.562
386.48	22.796
386.83	22.861
387.19	22.497
387.55	23.675
387.91	22.979
388.27	23.022
388.62	22.594
388.98	22.507
389.34	21.892
389.70	22.642
390.06	22.256
390.42	22.825
390.77	23.219
391.13	23.054
391.49	22.202
391.85	23.200
392.20	23.361
392.56	22.461
392.92	21.561
393.28	21.693
393.64	22.076
393.99	22.347
394.35	22.013
394.71	21.230
395.07	21.837
395.42	21.780
395.78	22.147
396.14	22.530
396.50	21.721
396.85	21.768
397.21	22.022
397.57	22.475
397.92	22.126
398.28	21.787
398.64	21.990
399.00	21.539
399.35	21.417
399.71	22.406
400.07	22.260
400.42	22.269
400.78	22.346
401.14	21.785
401.49	21.256
401.85	22.074
402.21	21.734
402.57	22.083
402.92	22.182
403.28	21.778
403.63	21.071
403.99	21.954
404.35	22.802
404.70	21.382
405.06	21.449
405.42	21.664
405.77	22.216
406.13	21.421
406.49	20.978
406.84	20.756
407.20	21.233
407.55	21.108
407.91	22.208
408.27	22.013
408.62	21.644
408.98	20.816
409.34	21.157
409.69	21.593
410.05	21.467
410.40	21.496
410.76	20.721
411.11	21.386
411.47	20.741
411.83	21.148
412.18	22.283
412.54	21.141
412.89	20.649
413.25	21.608
413.60	21.495
413.96	21.424
414.31	20.720
414.67	22.098
415.03	21.903
415.38	21.956
415.74	20.657
416.09	20.800
416.45	22.043
416.80	21.681
417.16	20.687
417.51	20.828
417.87	20.588
418.22	20.109
418.58	21.338
418.93	21.832
419.29	20.394
419.64	20.594
420.00	22.613
420.35	20.964
420.71	20.478
421.06	20.600
421.42	21.128
421.77	21.655
422.12	21.169
422.48	20.647
422.83	20.257
423.19	20.086
423.54	21.613
423.90	21.065
424.25	20.418
424.61	21.938
424.96	20.723
425.31	21.018
425.67	21.100
426.02	20.135
426.38	19.603
426.73	21.342
427.09	22.005
427.44	21.384
427.79	21.041
428.15	20.625
428.50	20.114
428.85	21.105
429.21	20.583
429.56	20.738
429.92	20.736
430.27	19.594
430.62	20.362
430.98	21.208
431.33	19.859
431.68	20.296
432.04	20.486
432.39	21.186
432.74	20.492
433.10	20.653
433.45	20.908
433.80	20.794
434.16	21.282
434.51	20.485
434.86	20.523
435.22	20.800
435.57	20.332
435.92	21.172
436.28	21.256
436.63	21.016
436.98	21.171
437.34	20.890
437.69	20.213
438.04	21.290
438.39	21.191
438.75	21.214
439.10	20.561
439.45	20.577
439.81	20.995
440.16	21.134
440.51	20.890
440.86	20.513
441.22	20.346
441.57	21.207
441.92	20.138
442.27	20.309
442.63	20.274
442.98	20.205
443.33	21.050
443.68	20.825
444.03	20.264
444.39	20.716
444.74	20.652
445.09	20.432
445.44	21.148
445.79	20.517
446.15	20.737
446.50	20.200
446.85	19.920
447.20	19.950
447.55	20.935
447.91	20.511
448.26	20.714
448.61	20.564
448.96	21.078
449.31	20.352
449.66	21.650
450.02	20.475
450.37	21.433
450.72	21.102
451.07	20.768
451.42	20.806
451.77	21.306
452.12	20.874
452.47	21.081
452.83	20.845
453.18	21.982
453.53	20.841
453.88	20.514
454.23	21.034
454.58	20.280
454.93	20.417
455.28	21.481
455.63	21.040
455.98	20.699
456.34	21.155
456.69	20.244
457.04	19.869
457.39	20.629
457.74	20.552
458.09	19.708
458.44	20.099
458.79	20.000
459.14	20.513
459.49	20.612
459.84	20.054
460.19	20.791
460.54	20.798
460.89	20.522
461.24	20.275
461.59	21.655
461.94	21.040
462.29	20.595
462.64	21.294
462.99	20.985
463.34	21.517
463.69	20.992
464.04	21.013
464.39	20.721
464.74	19.871
465.09	20.894
465.44	20.620
465.79	20.033
466.14	20.085
466.49	20.347
466.84	19.565
467.19	20.445
467.54	20.420
467.89	20.775
468.24	20.266
468.59	20.298
468.94	20.169
469.29	20.525
469.64	20.965
469.99	19.794
470.34	20.430
470.68	20.069
471.03	20.013
471.38	21.325
471.73	21.032
472.08	20.613
472.43	19.988
472.78	19.910
473.13	19.212
473.48	20.844
473.83	20.024
474.17	20.000
474.52	19.550
474.87	20.125
475.22	20.274
475.57	20.094
475.92	19.213
476.27	19.695
476.61	20.054
476.96	20.324
477.31	19.434
477.66	20.612
478.01	19.907
478.36	20.082
478.70	19.653
479.05	19.351
479.40	20.040
479.75	20.109
480.10	20.087
480.45	19.374
480.79	19.447
481.14	18.925
481.49	18.893
481.84	19.217
482.19	20.000
482.53	19.104
482.88	19.131
483.23	19.305
483.58	19.255
483.92	19.607
484.27	18.964
484.62	19.482
484.97	19.984
485.31	19.637
485.66	19.425
486.01	19.792
486.36	19.636
486.70	18.790
487.05	19.249
487.40	18.898
487.75	19.450
488.09	18.807
488.44	19.120
488.79	19.542
489.13	19.448
489.48	19.976
489.83	19.141
490.17	19.282
490.52	18.863
490.87	18.836
491.22	19.504
491.56	18.928
491.91	18.459
492.26	19.465
492.60	19.636
492.95	18.804
493.30	19.245
493.64	18.868
493.99	18.873
494.34	18.691
494.68	19.389
495.03	19.219
495.37	19.586
495.72	19.953
496.07	19.048
496.41	18.940
496.76	18.531
497.11	19.109
497.45	19.114
497.80	19.741
498.14	18.816
498.49	19.174
498.84	20.234
499.18	18.556
499.53	18.695
499.87	19.048
500.22	19.622
500.56	18.338
500.91	19.944
501.26	18.466
501.60	18.898
501.95	18.548
502.29	19.378
502.64	18.615
502.98	18.631
503.33	18.931
503.67	19.249
504.02	18.316
504.36	18.643
504.71	19.347
505.06	18.254
505.40	18.858
505.75	18.382
506.09	19.319
506.44	18.703
506.78	18.715
507.13	19.098
507.47	18.341
507.82	19.173
508.16	19.451
508.51	18.454
508.85	19.326
509.19	18.453
509.54	18.848
509.88	19.543
510.23	18.480
510.57	18.581
510.92	18.831
511.26	19.177
511.61	18.710
511.95	18.566
512.30	18.750
512.64	18.692
512.98	18.811
513.33	18.955
513.67	18.384
514.02	18.597
514.36	18.224
514.70	17.973
515.05	18.007
515.39	18.037
515.74	19.081
516.08	19.227
516.42	19.781
516.77	17.920
517.11	19.040
517.46	18.373
517.80	19.388
518.14	18.479
518.49	18.412
518.83	17.912
519.17	18.525
519.52	18.624
519.86	18.038
520.20	18.904
520.55	18.315
520.89	18.276
521.23	19.100
521.58	17.785
521.92	18.484
522.26	17.891
522.61	19.311
522.95	18.198
523.29	18.246
523.64	18.035
523.98	18.955
524.32	17.762
524.66	18.145
525.01	17.988
525.35	17.501
525.69	18.182
526.04	18.560
526.38	18.599
526.72	18.079
527.06	17.623
527.41	19.347
527.75	18.442
528.09	17.941
528.43	18.792
528.78	18.306
529.12	19.446
529.46	18.001
529.80	18.516
530.15	18.209
530.49	17.449
530.83	18.464
531.17	17.897
531.51	18.271
531.86	17.512
532.20	18.789
532.54	17.577
532.88	17.614
533.22	18.891
533.57	19.097
533.91	18.007
534.25	18.638
534.59	18.304
534.93	18.828
535.27	17.473
535.62	18.553
535.96	17.967
536.30	19.013
536.64	17.826
536.98	17.873
537.32	18.563
537.66	17.474
538.01	18.080
538.35	18.091
538.69	18.022
539.03	18.781
539.37	18.204
539.71	18.889
540.05	17.600
540.39	18.805
540.73	18.671
541.07	17.942
541.42	17.226
541.76	18.126
542.10	17.571
542.44	18.392
542.78	17.810
543.12	18.037
543.46	18.484
543.80	18.045
544.14	18.885
544.48	18.005
544.82	19.205
545.16	18.033
545.50	17.701
545.84	18.119
546.18	18.986
546.52	18.230
546.86	18.827
547.20	16.860
547.54	18.556
547.88	18.370
548.22	17.972
548.56	18.621
548.90	18.446
549.24	17.498
549.58	17.977
549.92	18.271
550.26	18.661
550.60	18.896
550.94	18.385
551.28	18.345
551.62	19.241
551.96	19.324
552.30	16.809
552.64	18.252
552.98	17.397
553.32	18.182
553.66	19.088
554.00	17.568
554.34	19.108
554.68	18.481
555.02	18.466
555.36	17.886
555.69	17.801
556.03	17.707
556.37	17.846
556.71	19.361
557.05	16.514
557.39	18.667
557.73	19.070
558.07	18.779
558.41	18.780
558.75	19.289
559.08	18.799
559.42	18.039
559.76	18.603
560.10	18.238
560.44	18.115
560.78	19.437
561.12	18.881
561.45	17.772
561.79	17.603
562.13	17.183
562.47	17.521
562.81	18.022
563.15	18.552
563.48	17.329
563.82	19.401
564.16	18.408
564.50	17.902
564.84	18.602
565.17	17.944
565.51	18.781
565.85	18.816
566.19	19.226
566.52	17.509
566.86	19.206
567.20	18.820
567.54	18.395
567.88	18.362
568.21	17.723
568.55	17.996
568.89	18.568
569.23	18.335
569.56	18.411
569.90	18.577
570.24	18.978
570.57	18.722
570.91	18.253
571.25	18.624
571.59	18.895
571.92	17.976
572.26	18.059
572.60	18.023
572.93	18.401
573.27	18.466
573.61	18.625
573.95	18.401
574.28	18.783
574.62	18.514
574.96	18.354
575.29	18.021
575.63	18.021
575.97	18.184
576.30	17.869
576.64	18.949
576.98	18.714
577.31	18.701
577.65	19.013
577.98	18.799
578.32	18.359
578.66	18.332
578.99	18.628
579.33	18.493
579.67	18.001
580.00	18.115
580.34	18.350
580.67	18.277
581.01	18.631
581.35	18.565
581.68	18.499
582.02	18.806
582.35	18.672
582.69	18.335
583.02	18.305
583.36	18.878
583.70	18.515
584.03	18.817
584.37	18.930
584.70	18.636
585.04	18.558
585.37	18.215
585.71	19.371
586.04	18.404
586.38	18.291
586.72	18.404
587.05	18.914
587.39	18.837
587.72	18.687
588.06	18.376
588.39	18.884
588.73	18.524
589.06	18.559
589.40	18.842
589.73	18.551
590.07	19.149
590.40	19.129
590.73	19.831
591.07	18.748
591.40	18.603
591.74	18.831
592.07	18.220
592.41	18.185
592.74	18.198
593.08	18.717
593.41	18.223
593.75	18.155
594.08	18.663
594.41	18.736
594.75	18.801
595.08	18.861
595.42	18.762
595.75	18.723
596.09	18.978
596.42	18.572
596.75	19.511
597.09	18.655
597.42	18.816
597.75	18.621
598.09	18.506
598.42	18.605
598.76	17.810
599.09	18.978
599.42	18.512
599.76	18.623
600.09	18.271
600.42	18.474
600.76	18.049
601.09	18.329
601.42	18.444
601.76	18.618
602.09	18.985
602.42	18.632
602.76	19.279
603.09	19.344
603.42	19.193
603.76	18.655
604.09	18.856
604.42	18.757
604.76	18.412
605.09	18.531
605.42	18.448
605.75	19.226
606.09	18.592
606.42	18.452
606.75	18.694
607.09	17.923
607.42	18.763
607.75	18.551
608.08	18.075
608.42	18.540
608.75	17.587
609.08	18.170
609.41	18.636
609.75	18.819
610.08	19.020
610.41	18.797
610.74	18.745
611.07	18.645
611.41	19.231
611.74	18.451
612.07	18.738
612.40	18.324
612.73	19.421
613.07	19.209
613.40	18.546
613.73	18.572
614.06	18.250
614.39	18.990
614.72	18.533
615.06	18.200
615.39	17.822
615.72	18.393
616.05	18.483
616.38	18.316
616.71	18.123
617.05	18.671
617.38	18.483
617.71	19.010
618.04	18.732
618.37	18.733
618.70	18.418
619.03	19.414
619.36	19.598
619.69	18.536
620.03	19.439
620.36	17.662
620.69	18.455
621.02	19.158
621.35	18.195
621.68	19.027
622.01	19.410
622.34	17.917
622.67	18.750
623.00	18.312
623.33	18.219
623.66	17.831
623.99	19.178
624.32	18.225
624.65	18.433
624.99	18.594
625.32	18.437
625.65	18.207
625.98	18.131
626.31	17.804
626.64	18.299
626.97	17.368
627.30	18.789
627.63	19.623
627.96	18.153
628.29	18.729
628.62	18.135
628.95	19.149
629.28	18.755
629.61	18.541
629.94	17.373
630.26	18.371
630.59	18.972
630.92	16.592
631.25	18.948
631.58	19.479
631.91	18.934
632.24	18.270
632.57	17.092
632.90	18.944
633.23	17.838
633.56	18.967
633.89	18.114
634.22	18.515
634.55	18.602
634.88	18.729
635.20	19.283
635.53	19.512
635.86	19.128
636.19	18.182
636.52	16.649
636.85	17.368
637.18	18.960
637.51	18.436
637.83	16.247
638.16	17.585
638.49	18.443
638.82	19.836
639.15	17.626
639.48	20.024
639.81	19.048
640.13	17.178
640.46	19.090
640.79	18.986
641.12	17.979
641.45	20.181
641.77	17.834
642.10	19.411
642.43	18.777
642.76	18.182
643.09	18.876
643.41	16.830
643.74	19.281
644.07	19.174
644.40	19.675
644.73	18.168
645.05	20.357
645.38	18.989
645.71	18.513
646.04	18.931
646.36	19.249
646.69	19.040
647.02	19.520
647.35	16.850
647.67	18.152
648.00	18.567
648.33	19.850
648.66	18.182
648.98	17.246
649.31	18.623
649.64	16.736
649.96	18.208
650.29	18.000
650.62	20.324
650.94	19.127
651.27	21.212
651.60	20.344
651.92	21.352
652.25	20.157
652.58	16.879
652.90	19.611
653.23	18.021
653.56	19.585
653.88	20.264
654.21	17.889
654.54	18.302
654.86	20.649
655.19	19.789
655.52	18.399
655.84	17.161
656.17	20.428
656.49	29.591
656.82	33.913
657.15	27.038
657.47	20.020
657.80	14.802
658.13	11.655
658.45	15.963
658.78	19.398
659.10	19.379
659.43	19.943
659.75	20.596
660.08	21.805
660.41	20.962
660.73	20.954
661.06	20.571
661.38	19.591
661.71	19.784
662.03	19.011
662.36	20.571
662.68	18.063
663.01	19.820
663.33	18.868
663.66	23.274
663.98	21.230
664.31	20.149
664.63	19.157
664.96	21.013
665.28	21.092
665.61	19.811
665.93	20.000
666.26	19.813
666.58	21.284
666.91	21.236
667.23	18.876
667.56	19.918
667.88	19.087
668.21	20.287
668.53	20.968
668.86	21.242
669.18	19.959
669.50	19.835
669.83	20.534
670.15	22.245
670.48	17.383
670.80	19.721
671.13	19.323
671.45	22.244
671.77	20.779
672.10	22.621
672.42	18.750
672.75	18.671
673.07	20.509
673.39	19.329
673.72	21.799
674.04	18.638
674.37	18.693
674.69	19.145
675.01	19.963
675.34	19.574
675.66	22.266
675.98	21.105
676.31	21.000
676.63	18.091
676.95	21.429
677.28	19.067
677.60	22.133
677.92	18.849
678.25	20.736
678.57	18.808
678.89	22.061
679.22	21.691
679.54	22.064
679.86	20.942
680.18	19.684
680.51	19.071
680.83	17.568
681.15	20.971
681.48	20.833
681.80	18.564
682.12	22.145
682.44	16.396
682.77	22.420
683.09	20.971
683.41	22.857
683.73	22.638
684.06	19.841
684.38	22.287
684.70	20.144
685.02	17.708
685.34	22.183
685.67	21.222
685.99	21.839
686.31	19.569
686.63	18.374
686.96	21.405
687.28	19.966
687.60	20.137
687.92	22.111
688.24	23.103
688.56	20.819
688.89	18.356
689.21	20.231
689.53	21.146
689.85	20.935
690.17	20.388
690.49	21.774
690.82	21.218
691.14	22.222
691.46	21.561
691.78	21.442
692.10	21.565
692.42	21.053
692.74	22.674
693.06	23.062
693.39	20.158
693.71	21.807
694.03	21.893
694.35	20.281
694.67	20.570
694.99	20.399
695.31	20.721
695.63	21.041
695.95	23.077
696.27	24.779
696.59	21.241
696.91	21.519
697.23	20.814
697.56	18.257
697.88	16.966
698.20	21.132
698.52	18.872
698.84	22.998
699.16	22.175
699.48	23.941
699.80	24.619
700.12	24.711
700.44	21.028
700.76	20.764
701.08	21.671
701.40	21.299
701.72	26.738
702.04	21.138
702.36	22.581
702.68	22.606
703.00	19.048
703.32	25.062
703.64	22.166
703.96	21.094
704.28	23.016
704.60	23.662
704.91	21.849
705.23	25.284
705.55	28.487
705.87	23.175
706.19	24.765
706.51	26.959
706.83	23.304
707.15	24.866
707.47	23.729
707.79	20.920
708.11	23.810
708.43	23.146
708.74	20.588
709.06	23.721
709.38	21.588
709.70	20.708
710.02	22.283
710.34	23.757
710.66	23.056
710.98	25.683
711.29	23.677
711.61	26.741
711.93	27.660
712.25	23.193
712.57	27.010
712.89	27.576
713.20	24.281
713.52	25.234
713.84	27.190
714.16	20.580
714.48	21.614
714.80	24.390
715.11	24.468
715.43	21.788
715.75	23.662
716.07	26.590
716.39	19.714
716.70	23.053
717.02	27.609
717.34	27.698
717.66	28.125
717.97	29.167
718.29	28.521
718.61	25.338
718.93	24.913
719.24	28.859
719.56	25.862
719.88	22.293
720.20	24.516
720.51	22.549
720.83	24.415
721.15	27.551
721.46	26.370
721.78	26.132
722.10	29.167
722.42	28.428
722.73	25.993
723.05	27.368
723.37	30.035
723.68	23.437
724.00	30.303
724.32	31.939
724.63	26.923
724.95	24.706
725.27	30.483
725.58	28.309
725.90	22.887
726.22	25.685
726.53	24.415
726.85	28.664
727.16	26.510
727.48	25.914
727.80	25.899
728.11	27.500
728.43	28.261
728.74	28.322
729.06	21.147
729.38	29.123
729.69	30.667
730.01	24.013
730.32	26.174
730.64	25.581
730.96	27.928
731.27	20.489
731.59	25.287
731.90	25.348
732.22	25.143
732.53	25.356
732.85	26.023
733.16	23.795
733.48	27.273
733.80	26.377
734.11	27.301
734.43	26.023
734.74	26.273
735.06	30.952
735.37	25.000
735.69	22.899
736.00	29.358
736.32	21.818
736.63	21.767
736.95	27.019
737.26	28.659
737.58	24.233
737.89	25.602
738.21	24.503
738.52	29.766
738.83	26.374
739.15	28.223
739.46	25.517
739.78	27.211
740.09	28.280
740.41	27.607
740.72	27.302
741.04	27.972
741.35	35.937
741.66	27.668
741.98	31.760
742.29	29.167
742.61	28.761
742.92	27.542
743.23	32.000
743.55	28.302
743.86	25.882
744.18	28.814
744.49	30.579
744.80	33.641
745.12	28.571
745.43	29.907
745.74	31.556
746.06	28.947
746.37	30.233
746.68	35.841
747.00	26.906
747.31	29.832
747.62	27.459
747.94	30.043
748.25	26.848
748.56	33.475
748.88	29.911
749.19	28.837
749.50	27.854
749.82	28.395
750.13	25.296
750.44	22.333
750.75	28.523
751.07	23.684
751.38	24.422
751.69	26.599
752.01	29.021
752.32	26.910
752.63	27.852
752.94	28.671
753.26	28.516
753.57	26.070
753.88	27.715
754.19	27.076
754.51	27.575
754.82	23.154
755.13	28.041
755.44	27.037
755.75	31.959
756.07	26.712
756.38	24.183
756.69	23.750
757.00	25.816
757.31	29.859
757.63	26.722
757.94	25.798
758.25	26.087
758.56	25.172
758.87	26.065
759.18	27.907
759.50	26.444
759.81	29.080
760.12	28.371
760.43	25.210
760.74	28.354
761.05	25.199
761.36	22.135
761.67	24.259
761.99	30.141
762.30	27.974
762.61	24.653
762.92	29.167
763.23	29.811
763.54	29.615
763.85	28.405
764.16	30.556
764.47	29.392
764.78	26.384
765.10	24.390
765.41	25.284
765.72	23.481
766.03	28.097
766.34	28.920
766.65	27.757
766.96	31.984
767.27	31.308
767.58	36.139
767.89	36.464
768.20	39.024
768.51	35.204
768.82	38.158
769.13	27.843
769.44	28.571
769.75	32.584
770.06	34.454
770.37	24.123
770.68	29.333
770.99	31.356
771.30	30.544
771.61	35.000
771.92	29.389
772.23	31.048
772.54	34.222
772.85	34.653
773.16	29.891
773.47	32.778
773.78	29.703
774.09	37.500
774.39	39.394
774.70	34.706
775.01	30.921
775.32	35.404
775.63	41.096
775.94	53.086
776.25	48.276
776.56	41.985
776.87	36.641
777.18	44.697
777.48	37.008
777.79	44.615
778.10	38.636
778.41	42.537
778.72	39.850
779.03	30.769
779.34	41.216
779.65	35.404
779.95	36.025
780.26	30.357
780.57	45.578
780.88	35.461
781.19	37.500
781.50	40.828
781.80	34.426
782.11	38.624
782.42	33.333
782.73	35.028
783.04	38.710
783.34	36.434
783.65	38.095
783.96	43.871
784.27	37.086
784.57	35.526
784.88	42.029
785.19	37.500
785.50	45.690
785.81	45.736
786.11	34.074
786.42	42.520
786.73	42.342
787.04	49.057
787.34	39.024
787.65	46.212
787.96	42.424
788.26	38.583
788.57	42.336
788.88	42.958
789.19	38.931
789.49	43.919
789.80	43.750
790.11	41.322
790.41	49.074
790.72	40.741
791.03	58.654
791.33	59.596
791.64	60.000
791.95	49.474
792.25	47.917
792.56	51.000
792.87	53.659
793.17	61.364
793.48	56.471
793.79	62.069
794.09	56.818
794.40	59.483
794.70	43.651
795.01	40.000
795.32	35.115
795.62	41.880
795.93	49.580
796.23	47.967
796.54	57.143
796.85	54.545
797.15	70.130
797.46	65.854
797.76	52.500
798.07	68.000
798.37	61.250
798.68	60.000
798.99	62.195
799.29	64.000
799.60	52.326
799.90	59.211
800.21	66.667
800.51	60.563
800.82	72.414
801.12	73.846
801.43	72.000
801.73	60.345
802.04	61.039
802.34	65.753
802.65	84.314
802.95	86.957
803.26	69.355
803.56	98.333
803.87	74.627
804.17	80.952
804.48	88.679
804.78	68.056
805.09	75.758
805.39	65.079
805.70	85.965
806.00	52.857
806.30	67.188
806.61	56.471
806.91	51.111
807.22	51.087
807.52	65.789
807.83	77.632
808.13	79.710
808.43	70.968
808.74	60.274
809.04	101.786
809.35	69.118
809.65	87.879
809.95	96.078
810.26	88.889
810.56	79.688
810.86	65.306
811.17	108.772
811.47	86.957
811.77	82.759
812.08	74.138
812.38	95.238
812.69	88.095
812.99	82.222
813.29	94.286
813.59	109.677
813.90	94.828
814.20	78.689
814.50	84.000
814.81	70.175
815.11	77.778
815.41	91.071
815.72	100.000
816.02	100.000
816.32	117.073
816.62	98.276
816.93	136.364
817.23	114.634
817.53	94.643
817.84	97.778
818.14	100.000
818.44	110.417
818.74	100.000
819.04	115.385
819.35	100.000
819.65	96.154
819.95	100.000
820.25	114.894
820.56	100.000
820.86	113.158
821.16	68.085
821.46	126.316
821.76	74.545
822.07	100.000
822.37	110.526
822.67	95.349
822.97	81.579
823.27	117.391
823.57	156.250
823.88	89.744
824.18	109.091
824.48	121.739
824.78	119.444
825.08	156.522
825.38	182.759
825.69	132.353
825.99	82.979
826.29	94.444
826.59	114.286
826.89	156.667
827.19	77.143
827.49	164.516
827.79	153.846
828.09	135.714
828.39	111.111
828.70	97.297
829.00	167.857
829.30	168.750
829.60	116.667
829.90	109.677
830.20	124.242
830.50	113.514
830.80	145.833
831.10	184.615
831.40	180.952
831.70	187.500
832.00	140.000
832.30	182.609
832.60	216.667
832.90	142.424
833.20	210.000
833.50	126.316
833.80	88.235
834.10	110.526
834.40	215.789
834.70	120.000
835.00	164.000
835.30	102.703
835.60	134.375
835.90	143.243
836.20	150.000
836.50	150.000
836.80	107.317
837.10	147.826
837.40	315.385
837.70	168.421
838.00	160.000
838.30	175.000
838.60	164.000
838.90	410.000
839.19	262.500
839.49	150.000
839.79	155.172
840.09	200.000
840.39	213.333
840.69	226.316
840.99	152.381
841.29	191.304
841.59	180.000
841.88	176.000
842.18	466.667
842.48	164.286
842.78	174.074
843.08	230.769
843.38	190.909
843.68	257.143
843.97	500.000
844.27	165.217
844.57	1800.000
844.87	292.857
845.17	233.333
845.47	119.048
845.76	191.667
846.06	428.571
846.36	182.353
846.66	346.154
846.96	256.250
847.25	223.077
847.55	194.737
847.85	172.222
848.15	500.000
848.44	390.909
848.74	157.143
849.04	187.500
849.34	182.353
849.63	256.250
849.93	250.000
850.23	1033.333
850.53	500.000
850.82	236.364
851.12	217.647
851.42	229.167
851.71	268.750
852.01	0.000
852.31	235.294
852.61	420.000
852.90	175.000
853.20	388.889
853.50	-1900.000
853.79	188.000
854.09	146.875
854.39	137.931
854.68	162.069
854.98	195.238
855.28	129.032
855.57	307.143
855.87	216.667
856.17	122.222
856.46	205.263
856.76	141.935
857.05	252.941
857.35	309.091
857.65	246.154
857.94	185.000
858.24	522.222
858.53	228.571
858.83	542.857
859.13	204.348
859.42	488.889
859.72	350.000
860.01	350.000
860.31	1075.000
860.60	450.000
860.90	475.000
861.20	269.231
861.49	500.000
861.79	-2800.000
862.08	585.714
862.38	400.000
862.67	214.286
862.97	450.000
863.26	160.000
863.56	1100.000
863.85	307.692
864.15	288.235
864.44	272.222
864.74	391.667
865.03	354.545
865.33	425.000
865.62	273.333
865.92	666.667
866.21	875.000
866.51	660.000
866.80	227.778
867.10	1000.000
867.39	4100.000
867.69	720.000
867.98	925.000
868.27	185.714
868.57	300.000
868.86	1000.000
869.16	195.238
869.45	3300.000
869.75	-716.667
870.04	1100.000
870.33	760.000
870.63	450.000
870.92	200.000
871.22	1025.000
871.51	585.714
871.80	450.000
872.10	361.538
>>>>>End Processed Spectral Data<<<<<
