SpectraSuite Data File
++++++++++++++++++++++++++++++++++++
Date: Tue May 12 16:11:35 PDT 2015
User: schluterlab
Dark Spectrum Present: Yes
Reference Spectrum Present: Yes
Number of Sampled Component Spectra: 1
Spectrometers: USB2E3373
Integration Time (usec): 3000 (USB2E3373)
Spectra Averaged: 3 (USB2E3373)
Boxcar Smoothing: 0 (USB2E3373)
Correct for Electrical Dark: No (USB2E3373)
Strobe/Lamp Enabled: No (USB2E3373)
Correct for Detector Non-linearity: No (USB2E3373)
Correct for Stray Light: No (USB2E3373)
Number of Pixels in Processed Spectrum: 2048
>>>>>Begin Processed Spectral Data<<<<<
178.53	0.000
178.91	-283.333
179.29	-900.000
179.67	-3500.000
180.04	-146.667
180.42	750.000
180.80	2100.000
181.18	0.000
181.56	-425.000
181.94	0.000
182.31	966.667
182.69	-3000.000
183.07	542.857
183.45	-3500.000
183.83	-1350.000
184.20	380.000
184.58	514.286
184.96	-276.923
185.34	-300.000
185.72	2250.000
186.09	-950.000
186.47	-3300.000
186.85	1200.000
187.23	500.000
187.61	1450.000
187.98	500.000
188.36	264.286
188.74	375.000
189.12	416.667
189.49	1150.000
189.87	0.000
190.25	387.500
190.63	3600.000
191.00	-183.333
191.38	-4400.000
191.76	-750.000
192.14	537.500
192.51	-3000.000
192.89	1450.000
193.27	1000.000
193.65	-1133.333
194.02	-700.000
194.40	642.857
194.78	-207.143
195.15	246.667
195.53	-2500.000
195.91	-600.000
196.29	4400.000
196.66	193.750
197.04	1000.000
197.42	-1650.000
197.79	600.000
198.17	425.000
198.55	0.000
198.92	585.714
199.30	1600.000
199.68	1950.000
200.05	783.333
200.43	-566.667
200.81	238.889
201.18	3700.000
201.56	300.000
201.94	-700.000
202.31	-250.000
202.69	-520.000
203.07	3700.000
203.44	-300.000
203.82	408.333
204.19	740.000
204.57	-1450.000
204.95	-900.000
205.32	-560.000
205.70	666.667
206.08	975.000
206.45	-1200.000
206.83	300.000
207.20	194.737
207.58	283.333
207.96	820.000
208.33	0.000
208.71	628.571
209.08	800.000
209.46	-2700.000
209.84	-750.000
210.21	920.000
210.59	-500.000
210.96	325.000
211.34	-900.000
211.71	463.636
212.09	975.000
212.46	2100.000
212.84	-583.333
213.22	400.000
213.59	-3100.000
213.97	310.000
214.34	1050.000
214.72	1100.000
215.09	1233.333
215.47	-3300.000
215.84	-300.000
216.22	-350.000
216.59	0.000
216.97	0.000
217.34	1500.000
217.72	-2200.000
218.09	1300.000
218.47	612.500
218.84	950.000
219.22	866.667
219.59	1266.667
219.97	614.286
220.34	366.667
220.72	2300.000
221.09	3700.000
221.47	350.000
221.84	933.333
222.22	340.000
222.59	283.333
222.97	242.857
223.34	206.250
223.72	-1850.000
224.09	1566.667
224.46	292.308
224.84	-950.000
225.21	500.000
225.59	246.667
225.96	1466.667
226.34	-780.000
226.71	-1075.000
227.08	-620.000
227.46	0.000
227.83	-716.667
228.21	-2100.000
228.58	425.000
228.95	1125.000
229.33	433.333
229.70	950.000
230.08	384.615
230.45	3700.000
230.82	-925.000
231.20	-1066.667
231.57	-1133.333
231.95	620.000
232.32	308.333
232.69	500.000
233.07	291.667
233.44	-1650.000
233.81	253.333
234.19	207.407
234.56	256.250
234.93	241.176
235.31	215.000
235.68	281.250
236.05	171.429
236.43	166.667
236.80	314.286
237.17	162.069
237.55	137.500
237.92	140.000
238.29	154.545
238.67	143.750
239.04	119.512
239.41	87.500
239.79	112.500
240.16	97.917
240.53	101.639
240.91	84.058
241.28	81.356
241.65	89.394
242.02	80.282
242.40	97.143
242.77	69.231
243.14	67.089
243.51	86.869
243.89	63.551
244.26	65.421
244.63	65.347
245.00	76.147
245.38	50.000
245.75	59.848
246.12	59.259
246.49	54.610
246.87	63.115
247.24	58.000
247.61	48.750
247.98	57.823
248.36	50.909
248.73	56.122
249.10	48.810
249.47	50.000
249.84	50.746
250.22	47.568
250.59	44.000
250.96	45.992
251.33	47.907
251.70	50.446
252.08	41.597
252.45	43.028
252.82	41.445
253.19	46.640
253.56	40.000
253.94	45.652
254.31	41.473
254.68	43.902
255.05	44.483
255.42	44.526
255.79	43.322
256.16	44.407
256.54	43.506
256.91	40.850
257.28	44.816
257.65	40.125
258.02	38.643
258.39	41.261
258.76	43.188
259.14	39.714
259.51	37.026
259.88	42.857
260.25	35.165
260.62	41.096
260.99	35.813
261.36	38.162
261.73	38.298
262.10	37.435
262.47	37.250
262.85	38.933
263.22	37.789
263.59	36.317
263.96	35.338
264.33	36.790
264.70	43.243
265.07	39.756
265.44	38.532
265.81	40.566
266.18	40.732
266.55	39.480
266.92	37.360
267.29	37.500
267.66	36.996
268.03	35.650
268.40	41.015
268.77	38.106
269.14	36.876
269.51	38.085
269.88	37.755
270.25	35.637
270.62	40.129
270.99	38.945
271.36	37.805
271.73	35.220
272.10	36.364
272.47	37.500
272.84	34.930
273.21	35.537
273.58	34.615
273.95	35.524
274.32	35.409
274.69	37.205
275.06	35.883
275.43	34.674
275.80	35.472
276.17	34.559
276.54	36.449
276.91	37.313
277.28	33.942
277.65	34.686
278.02	35.110
278.39	33.273
278.76	35.172
279.13	34.875
279.50	35.273
279.87	34.451
280.23	33.517
280.60	34.489
280.97	36.207
281.34	34.818
281.71	36.522
282.08	37.607
282.45	33.108
282.82	34.783
283.19	35.612
283.56	31.405
283.92	35.993
284.29	34.276
284.66	32.269
285.03	34.992
285.40	33.719
285.77	30.864
286.14	33.746
286.51	32.822
286.87	31.962
287.24	30.631
287.61	33.131
287.98	34.030
288.35	33.481
288.72	32.929
289.08	33.784
289.45	32.774
289.82	32.812
290.19	30.161
290.56	32.897
290.93	31.942
291.29	31.077
291.66	31.215
292.03	32.679
292.40	32.249
292.77	30.362
293.13	32.810
293.50	30.769
293.87	32.114
294.24	32.727
294.60	34.590
294.97	32.867
295.34	32.271
295.71	30.880
296.08	33.733
296.44	32.529
296.81	32.258
297.18	31.939
297.55	32.020
297.91	30.911
298.28	33.213
298.65	32.761
299.02	33.293
299.38	31.415
299.75	32.195
300.12	31.881
300.48	32.787
300.85	34.446
301.22	32.674
301.59	32.783
301.95	33.022
302.32	32.945
302.69	33.258
303.05	34.007
303.42	31.614
303.79	32.936
304.15	34.323
304.52	32.558
304.89	33.262
305.25	35.150
305.62	32.729
305.99	32.717
306.35	33.789
306.72	34.339
307.09	33.644
307.45	33.157
307.82	33.539
308.19	33.505
308.55	31.900
308.92	33.562
309.29	34.517
309.65	33.399
310.02	33.671
310.38	33.799
310.75	33.462
311.12	33.525
311.48	35.907
311.85	34.637
312.22	34.862
312.58	33.819
312.95	34.563
313.31	35.861
313.68	34.240
314.05	34.707
314.41	35.382
314.78	36.080
315.14	35.924
315.51	35.289
315.87	35.766
316.24	33.800
316.61	34.557
316.97	34.587
317.34	35.220
317.70	34.680
318.07	36.388
318.43	35.413
318.80	35.289
319.16	34.878
319.53	34.513
319.89	35.305
320.26	36.778
320.62	35.531
320.99	36.606
321.35	36.085
321.72	35.769
322.08	35.457
322.45	35.695
322.81	36.139
323.18	35.702
323.54	36.063
323.91	37.353
324.27	36.074
324.64	35.640
325.00	35.086
325.37	33.811
325.73	34.486
326.10	35.626
326.46	36.003
326.83	33.760
327.19	35.582
327.56	34.265
327.92	35.246
328.29	34.534
328.65	34.760
329.01	34.987
329.38	35.702
329.74	33.903
330.11	35.187
330.47	34.271
330.84	33.736
331.20	34.687
331.56	34.456
331.93	35.158
332.29	32.823
332.66	34.949
333.02	33.591
333.38	34.729
333.75	34.195
334.11	33.473
334.48	32.821
334.84	34.206
335.20	34.645
335.57	33.417
335.93	33.474
336.29	32.504
336.66	33.619
337.02	32.849
337.38	32.760
337.75	33.277
338.11	33.671
338.47	32.176
338.84	32.854
339.20	31.861
339.56	31.960
339.93	32.107
340.29	32.185
340.65	32.607
341.02	32.663
341.38	33.498
341.74	31.478
342.11	31.636
342.47	30.845
342.83	32.650
343.20	32.255
343.56	30.898
343.92	31.957
344.28	32.217
344.65	31.459
345.01	30.476
345.37	30.769
345.73	30.714
346.10	30.120
346.46	32.217
346.82	30.633
347.19	31.839
347.55	30.211
347.91	29.532
348.27	29.899
348.63	30.696
349.00	30.998
349.36	31.051
349.72	29.740
350.08	30.668
350.45	29.474
350.81	29.664
351.17	29.353
351.53	30.177
351.89	30.070
352.26	29.554
352.62	30.618
352.98	29.985
353.34	30.817
353.70	28.135
354.07	29.923
354.43	30.415
354.79	29.689
355.15	29.862
355.51	29.079
355.87	29.292
356.24	29.484
356.60	28.234
356.96	28.279
357.32	29.088
357.68	28.855
358.04	30.319
358.40	29.310
358.77	29.602
359.13	28.003
359.49	27.872
359.85	28.518
360.21	28.009
360.57	28.613
360.93	28.860
361.29	27.201
361.66	29.157
362.02	27.273
362.38	27.922
362.74	29.158
363.10	27.489
363.46	27.417
363.82	27.279
364.18	27.667
364.54	28.326
364.90	27.711
365.26	27.203
365.62	27.417
365.98	26.497
366.35	27.517
366.71	27.689
367.07	27.031
367.43	27.334
367.79	26.795
368.15	25.780
368.51	27.292
368.87	26.902
369.23	27.027
369.59	26.837
369.95	27.203
370.31	25.873
370.67	26.509
371.03	26.681
371.39	26.524
371.75	27.355
372.11	26.920
372.47	27.397
372.83	26.037
373.19	27.142
373.55	26.804
373.91	25.552
374.27	26.190
374.63	25.627
374.99	26.685
375.35	26.546
375.71	26.187
376.07	26.790
376.42	24.872
376.78	26.654
377.14	26.081
377.50	25.156
377.86	25.881
378.22	25.046
378.58	26.332
378.94	26.313
379.30	25.288
379.66	25.587
380.02	26.393
380.38	25.176
380.74	26.586
381.09	26.051
381.45	25.491
381.81	25.473
382.17	24.847
382.53	25.315
382.89	26.434
383.25	25.281
383.61	24.265
383.97	25.195
384.32	24.533
384.68	25.847
385.04	24.971
385.40	24.911
385.76	25.219
386.12	25.170
386.48	25.836
386.83	25.367
387.19	25.147
387.55	24.558
387.91	24.480
388.27	25.342
388.62	25.352
388.98	24.373
389.34	24.271
389.70	24.175
390.06	24.756
390.42	24.491
390.77	24.263
391.13	25.045
391.49	24.682
391.85	24.369
392.20	24.076
392.56	24.612
392.92	24.031
393.28	23.711
393.64	23.968
393.99	24.363
394.35	23.955
394.71	23.703
395.07	24.209
395.42	24.122
395.78	23.627
396.14	24.759
396.50	23.466
396.85	24.146
397.21	24.067
397.57	23.072
397.92	23.166
398.28	23.221
398.64	24.084
399.00	23.463
399.35	22.974
399.71	23.455
400.07	23.801
400.42	23.761
400.78	23.930
401.14	23.194
401.49	23.272
401.85	24.218
402.21	22.671
402.57	23.160
402.92	23.697
403.28	22.673
403.63	23.190
403.99	23.160
404.35	24.209
404.70	23.272
405.06	22.347
405.42	22.801
405.77	23.319
406.13	22.993
406.49	23.593
406.84	22.955
407.20	23.116
407.55	22.769
407.91	23.931
408.27	23.347
408.62	23.773
408.98	23.477
409.34	22.618
409.69	22.713
410.05	22.779
410.40	22.144
410.76	23.183
411.11	22.334
411.47	22.407
411.83	22.027
412.18	22.886
412.54	23.423
412.89	22.124
413.25	23.033
413.60	22.138
413.96	22.322
414.31	22.255
414.67	24.084
415.03	22.925
415.38	23.218
415.74	22.363
416.09	23.173
416.45	23.335
416.80	23.605
417.16	22.788
417.51	23.248
417.87	22.278
418.22	22.236
418.58	22.548
418.93	22.665
419.29	22.428
419.64	22.774
420.00	23.210
420.35	22.009
420.71	22.287
421.06	22.778
421.42	22.740
421.77	22.099
422.12	22.051
422.48	21.674
422.83	22.210
423.19	22.624
423.54	22.436
423.90	23.273
424.25	22.179
424.61	22.577
424.96	22.021
425.31	22.332
425.67	22.447
426.02	22.546
426.38	21.412
426.73	23.077
427.09	23.191
427.44	21.272
427.79	21.841
428.15	22.982
428.50	23.371
428.85	23.516
429.21	22.853
429.56	21.685
429.92	22.079
430.27	22.303
430.62	21.586
430.98	22.505
431.33	21.371
431.68	21.086
432.04	21.521
432.39	22.613
432.74	23.068
433.10	22.315
433.45	22.458
433.80	23.221
434.16	21.597
434.51	22.601
434.86	22.646
435.22	21.988
435.57	22.762
435.92	23.278
436.28	22.753
436.63	22.744
436.98	23.029
437.34	23.288
437.69	21.613
438.04	22.473
438.39	23.468
438.75	22.439
439.10	22.234
439.45	21.764
439.81	23.424
440.16	23.060
440.51	22.860
440.86	23.191
441.22	22.078
441.57	22.625
441.92	22.507
442.27	22.680
442.63	21.951
442.98	22.522
443.33	22.335
443.68	22.133
444.03	22.526
444.39	23.117
444.74	22.723
445.09	22.696
445.44	22.529
445.79	22.271
446.15	22.895
446.50	22.416
446.85	23.008
447.20	22.388
447.55	22.893
447.91	22.749
448.26	22.364
448.61	22.499
448.96	23.148
449.31	22.662
449.66	23.256
450.02	22.096
450.37	23.376
450.72	22.810
451.07	23.444
451.42	22.881
451.77	23.597
452.12	23.199
452.47	23.633
452.83	23.268
453.18	23.363
453.53	23.209
453.88	23.714
454.23	23.475
454.58	22.902
454.93	23.421
455.28	24.786
455.63	24.291
455.98	23.689
456.34	24.377
456.69	22.744
457.04	23.926
457.39	23.143
457.74	23.930
458.09	23.470
458.44	23.877
458.79	23.130
459.14	22.859
459.49	23.556
459.84	23.859
460.19	22.429
460.54	23.989
460.89	22.868
461.24	23.310
461.59	23.980
461.94	22.872
462.29	23.684
462.64	24.497
462.99	24.440
463.34	24.433
463.69	24.501
464.04	23.719
464.39	23.698
464.74	24.091
465.09	23.680
465.44	23.504
465.79	24.115
466.14	22.682
466.49	23.060
466.84	23.356
467.19	24.019
467.54	23.483
467.89	23.063
468.24	23.972
468.59	23.036
468.94	23.732
469.29	23.580
469.64	23.666
469.99	25.643
470.34	24.352
470.68	24.483
471.03	23.883
471.38	24.834
471.73	24.233
472.08	24.918
472.43	25.202
472.78	24.712
473.13	24.155
473.48	23.716
473.83	23.969
474.17	24.559
474.52	24.585
474.87	24.105
475.22	24.500
475.57	23.190
475.92	23.097
476.27	23.069
476.61	23.056
476.96	23.929
477.31	23.702
477.66	24.262
478.01	23.259
478.36	24.459
478.70	23.722
479.05	23.222
479.40	23.562
479.75	24.429
480.10	23.766
480.45	22.969
480.79	23.548
481.14	23.300
481.49	22.324
481.84	23.527
482.19	23.406
482.53	23.057
482.88	23.656
483.23	23.139
483.58	23.833
483.92	23.720
484.27	23.373
484.62	23.260
484.97	23.335
485.31	22.602
485.66	21.745
486.01	20.443
486.36	20.087
486.70	19.711
487.05	20.203
487.40	21.439
487.75	21.577
488.09	22.244
488.44	22.498
488.79	22.700
489.13	23.218
489.48	22.932
489.83	23.103
490.17	23.204
490.52	23.730
490.87	23.793
491.22	24.202
491.56	24.023
491.91	23.342
492.26	24.098
492.60	23.508
492.95	23.879
493.30	24.158
493.64	23.765
493.99	23.837
494.34	23.173
494.68	23.285
495.03	23.978
495.37	24.088
495.72	24.848
496.07	23.360
496.41	22.850
496.76	24.019
497.11	23.993
497.45	23.981
497.80	23.865
498.14	24.041
498.49	23.909
498.84	24.206
499.18	22.761
499.53	23.473
499.87	23.450
500.22	24.551
500.56	23.491
500.91	23.887
501.26	23.886
501.60	23.588
501.95	23.029
502.29	23.733
502.64	23.599
502.98	23.344
503.33	23.875
503.67	23.885
504.02	23.601
504.36	23.439
504.71	24.314
505.06	24.214
505.40	23.912
505.75	24.041
506.09	24.265
506.44	24.154
506.78	23.866
507.13	24.091
507.47	24.017
507.82	24.818
508.16	24.988
508.51	24.686
508.85	24.454
509.19	24.327
509.54	24.756
509.88	24.863
510.23	23.480
510.57	23.793
510.92	24.675
511.26	24.197
511.61	24.914
511.95	24.739
512.30	24.600
512.64	24.974
512.98	23.936
513.33	24.488
513.67	24.858
514.02	24.779
514.36	24.351
514.70	24.587
515.05	24.028
515.39	25.658
515.74	24.986
516.08	25.871
516.42	26.339
516.77	25.600
517.11	24.907
517.46	25.539
517.80	24.577
518.14	25.521
518.49	25.634
518.83	24.505
519.17	24.958
519.52	26.051
519.86	25.341
520.20	25.370
520.55	24.873
520.89	25.747
521.23	26.051
521.58	25.416
521.92	25.131
522.26	25.711
522.61	26.797
522.95	26.366
523.29	25.848
523.64	25.838
523.98	25.704
524.32	25.490
524.66	25.855
525.01	25.621
525.35	25.103
525.69	27.393
526.04	26.889
526.38	26.133
526.72	25.835
527.06	25.488
527.41	26.119
527.75	26.050
528.09	25.286
528.43	26.174
528.78	26.416
529.12	25.587
529.46	25.132
529.80	26.168
530.15	25.751
530.49	25.812
530.83	25.960
531.17	25.523
531.51	26.180
531.86	26.449
532.20	25.896
532.54	26.051
532.88	26.171
533.22	26.569
533.57	25.991
533.91	24.883
534.25	25.216
534.59	25.965
534.93	25.597
535.27	24.132
535.62	24.912
535.96	25.236
536.30	25.411
536.64	26.522
536.98	25.236
537.32	26.625
537.66	26.339
538.01	25.697
538.35	26.450
538.69	24.697
539.03	24.938
539.37	25.303
539.71	25.679
540.05	25.046
540.39	26.604
540.73	25.696
541.07	25.784
541.42	25.746
541.76	25.277
542.10	25.894
542.44	26.122
542.78	25.802
543.12	24.724
543.46	26.065
543.80	25.877
544.14	25.635
544.48	25.426
544.82	25.810
545.16	25.076
545.50	25.753
545.84	25.884
546.18	26.528
546.52	26.164
546.86	26.564
547.20	25.711
547.54	26.092
547.88	25.669
548.22	25.865
548.56	24.219
548.90	24.318
549.24	24.953
549.58	25.387
549.92	26.195
550.26	26.910
550.60	25.749
550.94	26.594
551.28	26.276
551.62	27.379
551.96	24.797
552.30	24.588
552.64	24.984
552.98	25.129
553.32	25.864
553.66	24.821
554.00	24.775
554.34	26.099
554.68	26.882
555.02	25.526
555.36	24.269
555.69	25.327
556.03	25.223
556.37	25.175
556.71	26.467
557.05	24.574
557.39	26.000
557.73	25.472
558.07	25.419
558.41	25.565
558.75	25.787
559.08	25.661
559.42	26.628
559.76	26.515
560.10	25.120
560.44	25.083
560.78	25.895
561.12	25.747
561.45	24.781
561.79	25.281
562.13	25.142
562.47	25.762
562.81	25.634
563.15	24.952
563.48	24.037
563.82	25.265
564.16	25.062
564.50	24.533
564.84	24.438
565.17	24.005
565.51	25.123
565.85	24.985
566.19	24.881
566.52	25.511
566.86	24.402
567.20	25.169
567.54	23.526
567.88	24.204
568.21	22.666
568.55	23.735
568.89	22.765
569.23	22.476
569.56	22.204
569.90	21.667
570.24	21.704
570.57	21.609
570.91	20.655
571.25	20.403
571.59	19.966
571.92	20.022
572.26	20.054
572.60	20.189
572.93	20.759
573.27	20.276
573.61	20.005
573.95	19.920
574.28	20.165
574.62	19.865
574.96	19.326
575.29	19.040
575.63	19.246
575.97	20.083
576.30	19.084
576.64	19.338
576.98	19.689
577.31	19.642
577.65	19.346
577.98	18.857
578.32	18.303
578.66	18.915
578.99	18.859
579.33	19.508
579.67	19.201
580.00	19.537
580.34	18.842
580.67	18.747
581.01	19.311
581.35	18.684
581.68	18.499
582.02	18.473
582.35	18.354
582.69	18.614
583.02	18.534
583.36	19.342
583.70	19.437
584.03	20.159
584.37	19.233
584.70	19.084
585.04	18.939
585.37	18.688
585.71	18.944
586.04	19.173
586.38	19.033
586.72	19.485
587.05	19.635
587.39	19.520
587.72	19.663
588.06	19.121
588.39	19.473
588.73	19.886
589.06	20.163
589.40	20.282
589.73	20.551
590.07	20.933
590.40	20.767
590.73	21.337
591.07	21.556
591.40	21.118
591.74	21.266
592.07	20.840
592.41	21.023
592.74	20.908
593.08	20.020
593.41	20.108
593.75	19.707
594.08	20.419
594.41	20.267
594.75	20.068
595.08	20.267
595.42	20.770
595.75	20.336
596.09	21.098
596.42	20.539
596.75	21.955
597.09	21.750
597.42	21.551
597.75	20.730
598.09	20.394
598.42	20.808
598.76	20.355
599.09	20.338
599.42	20.208
599.76	20.183
600.09	20.034
600.42	20.166
600.76	19.714
601.09	20.021
601.42	20.767
601.76	21.160
602.09	21.082
602.42	20.702
602.76	20.835
603.09	21.078
603.42	20.514
603.76	20.463
604.09	20.195
604.42	20.527
604.76	21.098
605.09	21.102
605.42	20.926
605.75	21.121
606.09	20.811
606.42	20.594
606.75	20.560
607.09	20.253
607.42	20.892
607.75	20.541
608.08	20.715
608.42	20.973
608.75	20.710
609.08	21.073
609.41	21.409
609.75	21.795
610.08	20.998
610.41	21.124
610.74	21.212
611.07	21.919
611.41	20.528
611.74	22.036
612.07	22.254
612.40	21.832
612.73	23.265
613.07	21.997
613.40	21.955
613.73	22.267
614.06	21.450
614.39	22.576
614.72	21.798
615.06	21.563
615.39	22.327
615.72	20.910
616.05	22.250
616.38	21.766
616.71	21.975
617.05	22.735
617.38	22.472
617.71	23.003
618.04	22.434
618.37	22.346
618.70	22.460
619.03	23.382
619.36	23.807
619.69	23.615
620.03	24.331
620.36	23.121
620.69	24.904
621.02	24.321
621.35	23.854
621.68	24.631
622.01	25.904
622.34	23.889
622.67	25.211
623.00	23.622
623.33	23.752
623.66	23.087
623.99	23.288
624.32	24.322
624.65	23.634
624.99	23.867
625.32	24.248
625.65	24.069
625.98	23.710
626.31	25.816
626.64	23.690
626.97	23.948
627.30	24.224
627.63	25.903
627.96	24.804
628.29	26.238
628.62	25.406
628.95	27.039
629.28	27.082
629.61	25.659
629.94	26.707
630.26	27.730
630.59	27.039
630.92	25.561
631.25	27.471
631.58	27.097
631.91	26.261
632.24	26.433
632.57	25.540
632.90	28.261
633.23	28.541
633.56	28.240
633.89	27.438
634.22	31.001
634.55	27.957
634.88	29.463
635.20	30.045
635.53	28.571
635.86	27.405
636.19	28.732
636.52	25.081
636.85	27.292
637.18	27.736
637.51	28.156
637.83	27.689
638.16	29.191
638.49	28.383
638.82	29.460
639.15	27.497
639.48	30.213
639.81	29.670
640.13	28.957
640.46	29.836
640.79	31.469
641.12	31.496
641.45	31.565
641.77	29.987
642.10	30.924
642.43	29.445
642.76	30.824
643.09	30.836
643.41	29.313
643.74	30.647
644.07	33.038
644.40	32.396
644.73	34.685
645.05	34.027
645.38	33.078
645.71	30.197
646.04	31.450
646.36	32.551
646.69	30.080
647.02	33.760
647.35	30.866
647.67	31.280
648.00	33.225
648.33	30.376
648.66	31.515
648.98	29.710
649.31	28.610
649.64	27.801
649.96	29.161
650.29	30.714
650.62	32.548
650.94	31.024
651.27	33.812
651.60	28.951
651.92	31.797
652.25	31.496
652.58	30.213
652.90	29.491
653.23	31.167
653.56	31.157
653.88	29.662
654.21	30.059
654.54	28.990
654.86	30.236
655.19	29.551
655.52	22.828
655.84	15.792
656.17	17.415
656.49	24.864
656.82	28.482
657.15	22.601
657.47	16.958
657.80	12.876
658.13	10.535
658.45	14.439
658.78	17.676
659.10	18.277
659.43	19.186
659.75	20.990
660.08	22.682
660.41	25.318
660.73	30.238
661.06	30.030
661.38	32.368
661.71	32.914
662.03	31.939
662.36	32.762
662.68	32.030
663.01	35.135
663.33	32.830
663.66	34.714
663.98	35.714
664.31	35.075
664.63	36.782
664.96	33.771
665.28	32.957
665.61	32.453
665.93	32.642
666.26	32.897
666.58	33.394
666.91	34.363
667.23	32.530
667.56	34.908
667.88	34.440
668.21	33.197
668.53	33.065
668.86	34.669
669.18	35.438
669.50	30.372
669.83	33.881
670.15	32.225
670.48	32.422
670.80	34.661
671.13	33.267
671.45	36.072
671.77	33.024
672.10	32.675
672.42	30.428
672.75	29.905
673.07	31.161
673.39	30.671
673.72	32.007
674.04	31.720
674.37	31.216
674.69	33.643
675.01	30.970
675.34	31.395
675.66	34.180
675.98	34.911
676.31	30.600
676.63	32.406
676.95	33.532
677.28	32.860
677.60	35.412
677.92	31.151
678.25	31.589
678.57	32.588
678.89	33.816
679.22	30.147
679.54	30.961
679.86	32.984
680.18	28.120
680.51	28.027
680.83	28.885
681.15	29.116
681.48	31.076
681.80	29.072
682.12	31.488
682.44	29.730
682.77	31.851
683.09	32.039
683.41	34.490
683.73	32.087
684.06	32.738
684.38	30.039
684.70	28.957
685.02	28.819
685.34	31.514
685.67	30.547
685.99	29.228
686.31	27.119
686.63	26.667
686.96	29.739
687.28	28.356
687.60	28.840
687.92	26.968
688.24	30.172
688.56	30.071
688.89	29.063
689.21	31.792
689.53	30.237
689.85	30.894
690.17	31.650
690.49	31.855
690.82	32.983
691.14	34.141
691.46	32.444
691.78	30.214
692.10	32.824
692.42	26.860
692.74	31.202
693.06	30.233
693.39	31.225
693.71	31.631
694.03	32.939
694.35	31.526
694.67	30.550
694.99	34.146
695.31	35.586
695.63	34.615
695.95	31.674
696.27	35.398
696.59	32.697
696.91	32.405
697.23	33.710
697.56	28.631
697.88	28.144
698.20	29.057
698.52	28.988
698.84	31.211
699.16	32.196
699.48	33.051
699.80	35.512
700.12	33.256
700.44	33.411
700.76	32.697
701.08	32.637
701.40	34.805
701.72	38.770
702.04	35.772
702.36	38.710
702.68	36.702
703.00	33.083
703.32	34.988
703.64	33.249
703.96	34.115
704.28	32.011
704.60	33.803
704.91	36.134
705.23	37.216
705.55	38.872
705.87	40.000
706.19	37.931
706.51	39.498
706.83	36.578
707.15	36.364
707.47	32.203
707.79	29.425
708.11	29.932
708.43	31.910
708.74	29.864
709.06	31.860
709.38	33.002
709.70	35.967
710.02	32.337
710.34	32.597
710.66	34.444
710.98	36.066
711.29	35.376
711.61	35.933
711.93	36.170
712.25	32.831
712.57	33.762
712.89	38.485
713.20	35.783
713.52	34.579
713.84	38.671
714.16	29.855
714.48	32.565
714.80	31.978
715.11	32.447
715.43	27.933
715.75	34.085
716.07	31.503
716.39	34.857
716.70	39.252
717.02	38.047
717.34	39.928
717.66	37.153
717.97	43.939
718.29	38.380
718.61	37.162
718.93	36.332
719.24	37.248
719.56	38.276
719.88	30.892
720.20	33.548
720.51	33.987
720.83	37.124
721.15	36.395
721.46	38.699
721.78	35.889
722.10	37.847
722.42	38.462
722.73	34.296
723.05	34.737
723.37	38.869
723.68	36.719
724.00	36.742
724.32	38.403
724.63	39.615
724.95	42.745
725.27	39.033
725.58	37.132
725.90	36.972
726.22	34.932
726.53	36.455
726.85	34.853
727.16	36.913
727.48	33.555
727.80	35.252
728.11	41.429
728.43	39.855
728.74	38.112
729.06	33.692
729.38	36.842
729.69	40.000
730.01	35.855
730.32	32.550
730.64	40.199
730.96	34.835
731.27	27.523
731.59	32.471
731.90	33.983
732.22	32.857
732.53	27.635
732.85	34.503
733.16	30.422
733.48	34.169
733.80	30.435
734.11	37.117
734.43	32.164
734.74	31.903
735.06	33.333
735.37	28.093
735.69	31.884
736.00	34.862
736.32	33.030
736.63	28.076
736.95	31.988
737.26	32.927
737.58	30.675
737.89	33.434
738.21	29.801
738.52	35.452
738.83	32.234
739.15	35.540
739.46	33.103
739.78	38.095
740.09	37.026
740.41	30.675
740.72	33.651
741.04	34.615
741.35	36.719
741.66	39.526
741.98	39.914
742.29	41.204
742.61	37.168
742.92	36.441
743.23	39.600
743.55	33.208
743.86	39.216
744.18	36.017
744.49	37.190
744.80	42.396
745.12	37.946
745.43	40.654
745.74	44.889
746.06	39.474
746.37	41.860
746.68	38.938
747.00	34.978
747.31	39.496
747.62	33.607
747.94	38.627
748.25	36.576
748.56	43.644
748.88	40.179
749.19	41.395
749.50	35.160
749.82	37.037
750.13	35.968
750.44	36.333
750.75	33.557
751.07	32.237
751.38	30.363
751.69	35.354
752.01	32.517
752.32	30.897
752.63	32.886
752.94	34.615
753.26	34.375
753.57	37.743
753.88	35.581
754.19	35.379
754.51	33.555
754.82	29.866
755.13	34.459
755.44	33.704
755.75	35.395
756.07	34.589
756.38	33.333
756.69	30.625
757.00	32.641
757.31	29.014
757.63	28.099
757.94	27.394
758.25	27.295
758.56	27.689
758.87	29.574
759.18	33.140
759.50	33.739
759.81	30.861
760.12	30.618
760.43	27.451
760.74	30.127
761.05	29.443
761.36	27.344
761.67	30.728
761.99	30.704
762.30	30.225
762.61	29.514
762.92	38.636
763.23	36.981
763.54	35.000
763.85	29.572
764.16	39.931
764.47	35.473
764.78	29.316
765.10	29.268
765.41	29.545
765.72	27.348
766.03	29.003
766.34	28.920
766.65	37.643
766.96	38.462
767.27	36.916
767.58	37.624
767.89	50.276
768.20	46.951
768.51	36.735
768.82	35.965
769.13	30.980
769.44	32.331
769.75	33.333
770.06	35.294
770.37	35.526
770.68	29.778
770.99	36.864
771.30	36.402
771.61	33.462
771.92	34.733
772.23	35.484
772.54	40.000
772.85	38.614
773.16	39.674
773.47	38.333
773.78	41.584
774.09	40.341
774.39	40.000
774.70	41.176
775.01	42.105
775.32	43.478
775.63	50.000
775.94	44.444
776.25	57.241
776.56	51.908
776.87	50.382
777.18	57.576
777.48	51.181
777.79	60.769
778.10	50.758
778.41	52.985
778.72	43.609
779.03	48.718
779.34	50.000
779.65	46.584
779.95	48.447
780.26	46.429
780.57	47.619
780.88	51.064
781.19	47.500
781.50	44.379
781.80	43.716
782.11	38.624
782.42	36.207
782.73	39.548
783.04	40.000
783.34	38.760
783.65	46.259
783.96	49.677
784.27	37.748
784.57	42.105
784.88	40.580
785.19	45.833
785.50	57.759
785.81	55.039
786.11	46.667
786.42	55.906
786.73	54.054
787.04	59.434
787.34	46.341
787.65	51.515
787.96	52.273
788.26	50.394
788.57	55.474
788.88	40.141
789.19	48.092
789.49	49.324
789.80	43.750
790.11	48.760
790.41	46.296
790.72	56.481
791.03	57.692
791.33	60.606
791.64	63.158
791.95	51.579
792.25	45.833
792.56	50.000
792.87	65.854
793.17	52.273
793.48	57.647
793.79	66.667
794.09	57.955
794.40	63.793
794.70	49.206
795.01	46.923
795.32	53.435
795.62	41.880
795.93	57.983
796.23	48.780
796.54	71.429
796.85	68.182
797.15	66.234
797.46	62.195
797.76	66.250
798.07	73.333
798.37	68.750
798.68	70.000
798.99	69.512
799.29	69.333
799.60	58.140
799.90	63.158
800.21	71.212
800.51	54.930
800.82	79.310
801.12	81.538
801.43	81.333
801.73	91.379
802.04	68.831
802.34	80.822
802.65	92.157
802.95	102.174
803.26	100.000
803.56	96.667
803.87	82.090
804.17	85.714
804.48	77.358
804.78	72.222
805.09	92.424
805.39	79.365
805.70	94.737
806.00	60.000
806.30	71.875
806.61	70.588
806.91	73.333
807.22	57.609
807.52	60.526
807.83	73.684
808.13	73.913
808.43	77.419
808.74	72.603
809.04	87.500
809.35	83.824
809.65	84.848
809.95	88.235
810.26	83.333
810.56	101.563
810.86	91.837
811.17	110.526
811.47	95.652
811.77	81.034
812.08	81.034
812.38	102.381
812.69	78.571
812.99	93.333
813.29	154.286
813.59	122.581
813.90	82.759
814.20	78.689
814.50	76.000
814.81	68.421
815.11	98.148
815.41	94.643
815.72	117.857
816.02	98.000
816.32	104.878
816.62	120.690
816.93	112.121
817.23	126.829
817.53	112.500
817.84	86.667
818.14	107.143
818.44	97.917
818.74	109.434
819.04	92.308
819.35	130.303
819.65	90.385
819.95	100.000
820.25	114.894
820.56	140.541
820.86	115.789
821.16	100.000
821.46	123.684
821.76	105.455
822.07	69.048
822.37	134.211
822.67	116.279
822.97	76.316
823.27	106.522
823.57	140.625
823.88	110.256
824.18	145.455
824.48	178.261
824.78	127.778
825.08	195.652
825.38	175.862
825.69	105.882
825.99	78.723
826.29	111.111
826.59	125.714
826.89	146.667
827.19	97.143
827.49	158.065
827.79	157.692
828.09	121.429
828.39	119.444
828.70	110.811
829.00	142.857
829.30	212.500
829.60	141.667
829.90	103.226
830.20	115.152
830.50	140.541
830.80	179.167
831.10	153.846
831.40	161.905
831.70	208.333
832.00	146.667
832.30	204.348
832.60	183.333
832.90	142.424
833.20	255.000
833.50	121.053
833.80	117.647
834.10	107.895
834.40	173.684
834.70	130.000
835.00	172.000
835.30	113.514
835.60	153.125
835.90	135.135
836.20	123.077
836.50	163.636
836.80	112.195
837.10	178.261
837.40	300.000
837.70	173.684
838.00	146.667
838.30	195.833
838.60	200.000
838.90	450.000
839.19	262.500
839.49	153.333
839.79	124.138
840.09	150.000
840.39	260.000
840.69	205.263
840.99	195.238
841.29	173.913
841.59	240.000
841.88	196.000
842.18	322.222
842.48	139.286
842.78	166.667
843.08	253.846
843.38	177.273
843.68	285.714
843.97	428.571
844.27	213.043
844.57	1400.000
844.87	328.571
845.17	216.667
845.47	119.048
845.76	166.667
846.06	542.857
846.36	217.647
846.66	300.000
846.96	281.250
847.25	323.077
847.55	231.579
847.85	233.333
848.15	740.000
848.44	427.273
848.74	233.333
849.04	187.500
849.34	158.824
849.63	212.500
849.93	262.500
850.23	1033.333
850.53	550.000
850.82	418.182
851.12	223.529
851.42	220.833
851.71	243.750
852.01	0.000
852.31	258.824
852.61	390.000
852.90	166.667
853.20	422.222
853.50	-2600.000
853.79	140.000
854.09	131.250
854.39	168.966
854.68	155.172
854.98	204.762
855.28	161.290
855.57	300.000
855.87	222.222
856.17	148.148
856.46	215.789
856.76	129.032
857.05	276.471
857.35	309.091
857.65	338.462
857.94	140.000
858.24	411.111
858.53	300.000
858.83	714.286
859.13	230.435
859.42	266.667
859.72	475.000
860.01	266.667
860.31	1175.000
860.60	380.000
860.90	562.500
861.20	238.462
861.49	542.857
861.79	-3500.000
862.08	600.000
862.38	422.222
862.67	257.143
862.97	390.000
863.26	176.667
863.56	775.000
863.85	323.077
864.15	211.765
864.44	244.444
864.74	383.333
865.03	354.545
865.33	425.000
865.62	246.667
865.92	666.667
866.21	900.000
866.51	640.000
866.80	188.889
867.10	1133.333
867.39	3400.000
867.69	840.000
867.98	1000.000
868.27	209.524
868.57	246.667
868.86	875.000
869.16	200.000
869.45	4100.000
869.75	-633.333
870.04	800.000
870.33	800.000
870.63	475.000
870.92	229.412
871.22	975.000
871.51	557.143
871.80	425.000
872.10	338.462
>>>>>End Processed Spectral Data<<<<<
