SpectraSuite Data File
++++++++++++++++++++++++++++++++++++
Date: Tue May 12 16:11:01 PDT 2015
User: schluterlab
Dark Spectrum Present: Yes
Reference Spectrum Present: Yes
Number of Sampled Component Spectra: 1
Spectrometers: USB2E3373
Integration Time (usec): 3000 (USB2E3373)
Spectra Averaged: 3 (USB2E3373)
Boxcar Smoothing: 0 (USB2E3373)
Correct for Electrical Dark: No (USB2E3373)
Strobe/Lamp Enabled: No (USB2E3373)
Correct for Detector Non-linearity: No (USB2E3373)
Correct for Stray Light: No (USB2E3373)
Number of Pixels in Processed Spectrum: 2048
>>>>>Begin Processed Spectral Data<<<<<
178.53	0.000
178.91	-225.000
179.29	-825.000
179.67	-4600.000
180.04	-146.667
180.42	675.000
180.80	1300.000
181.18	0.000
181.56	-337.500
181.94	0.000
182.31	1433.333
182.69	-2200.000
183.07	600.000
183.45	-3900.000
183.83	-1450.000
184.20	440.000
184.58	657.143
184.96	-292.308
185.34	-241.667
185.72	1750.000
186.09	-675.000
186.47	-4600.000
186.85	1433.333
187.23	820.000
187.61	2350.000
187.98	512.500
188.36	307.143
188.74	350.000
189.12	308.333
189.49	1175.000
189.87	0.000
190.25	537.500
190.63	3100.000
191.00	-266.667
191.38	-3800.000
191.76	-800.000
192.14	637.500
192.51	-3300.000
192.89	1850.000
193.27	1333.333
193.65	-1066.667
194.02	-680.000
194.40	600.000
194.78	-207.143
195.15	253.333
195.53	-2400.000
195.91	-580.000
196.29	3700.000
196.66	256.250
197.04	950.000
197.42	-1800.000
197.79	625.000
198.17	308.333
198.55	0.000
198.92	628.571
199.30	1633.333
199.68	2450.000
200.05	766.667
200.43	-550.000
200.81	200.000
201.18	4900.000
201.56	325.000
201.94	-800.000
202.31	-337.500
202.69	-600.000
203.07	2900.000
203.44	-600.000
203.82	250.000
204.19	680.000
204.57	-2100.000
204.95	-975.000
205.32	-740.000
205.70	666.667
206.08	925.000
206.45	-900.000
206.83	322.222
207.20	189.474
207.58	300.000
207.96	920.000
208.33	0.000
208.71	628.571
209.08	860.000
209.46	-3700.000
209.84	-700.000
210.21	1000.000
210.59	-560.000
210.96	366.667
211.34	-1075.000
211.71	390.909
212.09	1025.000
212.46	1750.000
212.84	-550.000
213.22	533.333
213.59	-3600.000
213.97	320.000
214.34	1250.000
214.72	1433.333
215.09	1200.000
215.47	-4000.000
215.84	-420.000
216.22	-512.500
216.59	0.000
216.97	0.000
217.34	1350.000
217.72	-1450.000
218.09	1233.333
218.47	462.500
218.84	825.000
219.22	1533.333
219.59	1266.667
219.97	500.000
220.34	444.444
220.72	2150.000
221.09	3300.000
221.47	300.000
221.84	933.333
222.22	320.000
222.59	261.111
222.97	292.857
223.34	268.750
223.72	-1600.000
224.09	1233.333
224.46	284.615
224.84	-800.000
225.21	466.667
225.59	300.000
225.96	1633.333
226.34	-820.000
226.71	-775.000
227.08	-560.000
227.46	0.000
227.83	-583.333
228.21	-1250.000
228.58	350.000
228.95	825.000
229.33	355.556
229.70	1250.000
230.08	376.923
230.45	3800.000
230.82	-1025.000
231.20	-966.667
231.57	-1133.333
231.95	580.000
232.32	358.333
232.69	683.333
233.07	333.333
233.44	-1700.000
233.81	273.333
234.19	185.185
234.56	250.000
234.93	176.471
235.31	255.000
235.68	293.750
236.05	196.429
236.43	192.593
236.80	285.714
237.17	172.414
237.55	131.250
237.92	125.000
238.29	181.818
238.67	165.625
239.04	134.146
239.41	104.167
239.79	112.500
240.16	89.583
240.53	88.525
240.91	85.507
241.28	84.746
241.65	78.788
242.02	90.141
242.40	67.143
242.77	68.132
243.14	62.025
243.51	71.717
243.89	60.748
244.26	60.748
244.63	52.475
245.00	49.541
245.38	54.237
245.75	54.545
246.12	59.259
246.49	54.610
246.87	46.721
247.24	51.333
247.61	49.375
247.98	51.701
248.36	45.455
248.73	44.388
249.10	48.810
249.47	46.000
249.84	43.781
250.22	43.243
250.59	49.500
250.96	46.414
251.33	38.140
251.70	44.196
252.08	42.857
252.45	38.247
252.82	36.882
253.19	41.897
253.56	39.615
253.94	41.667
254.31	41.860
254.68	41.115
255.05	43.448
255.42	42.336
255.79	39.414
256.16	41.695
256.54	41.558
256.91	38.562
257.28	37.124
257.65	35.423
258.02	33.333
258.39	36.103
258.76	38.261
259.14	35.143
259.51	39.942
259.88	39.210
260.25	33.242
260.62	37.260
260.99	36.088
261.36	36.212
261.73	35.904
262.10	37.958
262.47	35.000
262.85	32.000
263.22	35.990
263.59	36.573
263.96	39.098
264.33	32.346
264.70	36.364
265.07	35.854
265.44	34.174
265.81	35.849
266.18	37.071
266.55	32.388
266.92	33.557
267.29	35.746
267.66	35.202
268.03	32.511
268.40	34.461
268.77	37.885
269.14	34.056
269.51	34.298
269.88	34.490
270.25	34.773
270.62	32.833
270.99	34.483
271.36	34.553
271.73	34.382
272.10	31.919
272.47	32.540
272.84	31.138
273.21	32.231
273.58	34.008
273.95	33.060
274.32	33.852
274.69	35.039
275.06	31.876
275.43	32.567
275.80	32.830
276.17	35.110
276.54	31.776
276.91	33.022
277.28	33.577
277.65	30.996
278.02	30.882
278.39	32.014
278.76	31.552
279.13	30.427
279.50	33.818
279.87	29.981
280.23	33.702
280.60	32.299
280.97	31.207
281.34	29.703
281.71	31.304
282.08	30.598
282.45	30.574
282.82	31.773
283.19	31.002
283.56	30.579
283.92	32.248
284.29	32.612
284.66	28.571
285.03	31.177
285.40	30.909
285.77	28.241
286.14	30.031
286.51	30.521
286.87	28.481
287.24	29.279
287.61	29.787
287.98	28.507
288.35	29.926
288.72	27.921
289.08	28.378
289.45	29.878
289.82	30.469
290.19	27.086
290.56	29.840
290.93	29.209
291.29	28.039
291.66	26.695
292.03	29.313
292.40	26.152
292.77	26.741
293.13	26.391
293.50	25.641
293.87	25.339
294.24	25.035
294.60	26.245
294.97	26.294
295.34	24.967
295.71	26.675
296.08	25.600
296.44	25.794
296.81	25.186
297.18	23.828
297.55	25.862
297.91	23.030
298.28	24.155
298.65	23.436
299.02	23.643
299.38	24.341
299.75	23.293
300.12	22.133
300.48	23.536
300.85	24.434
301.22	23.372
301.59	22.642
301.95	23.337
302.32	23.166
302.69	23.643
303.05	22.783
303.42	21.973
303.79	21.668
304.15	22.112
304.52	21.987
304.89	23.774
305.25	22.692
305.62	22.601
305.99	22.283
306.35	22.632
306.72	21.852
307.09	21.429
307.45	22.175
307.82	20.679
308.19	22.165
308.55	21.800
308.92	21.884
309.29	21.696
309.65	21.110
310.02	23.022
310.38	20.140
310.75	19.865
311.12	20.115
311.48	22.104
311.85	21.947
312.22	21.394
312.58	21.477
312.95	20.583
313.31	20.412
313.68	20.732
314.05	21.429
314.41	21.415
314.78	20.833
315.14	20.569
315.51	20.530
315.87	21.168
316.24	19.795
316.61	20.949
316.97	19.725
317.34	20.485
317.70	20.018
318.07	22.153
318.43	21.090
318.80	21.278
319.16	20.804
319.53	19.115
319.89	19.713
320.26	22.346
320.62	21.337
320.99	20.591
321.35	21.150
321.72	22.011
322.08	21.237
322.45	20.618
322.81	19.762
323.18	21.581
323.54	21.254
323.91	21.396
324.27	21.132
324.64	19.550
325.00	20.172
325.37	19.562
325.73	20.152
326.10	20.961
326.46	19.158
326.83	20.720
327.19	20.803
327.56	20.607
327.92	20.246
328.29	22.177
328.65	21.404
329.01	21.044
329.38	20.643
329.74	19.385
330.11	20.765
330.47	19.693
330.84	19.758
331.20	19.036
331.56	20.725
331.93	19.675
332.29	19.728
332.66	20.238
333.02	19.158
333.38	19.546
333.75	20.767
334.11	18.876
334.48	19.915
334.84	20.017
335.20	19.333
335.57	18.640
335.93	19.680
336.29	19.652
336.66	20.412
337.02	19.333
337.38	19.433
337.75	20.186
338.11	20.338
338.47	19.644
338.84	19.644
339.20	18.095
339.56	19.344
339.93	19.816
340.29	18.739
340.65	20.201
341.02	19.147
341.38	19.622
341.74	18.771
342.11	18.781
342.47	18.622
342.83	20.180
343.20	18.998
343.56	17.315
343.92	18.249
344.28	19.298
344.65	19.071
345.01	19.365
345.37	18.429
345.73	19.127
346.10	19.124
346.46	18.820
346.82	17.670
347.19	19.397
347.55	18.189
347.91	18.051
348.27	18.978
348.63	18.513
349.00	18.812
349.36	20.078
349.72	18.884
350.08	19.876
350.45	18.583
350.81	18.349
351.17	17.411
351.53	18.014
351.89	17.871
352.26	18.141
352.62	18.250
352.98	19.862
353.34	17.565
353.70	17.431
354.07	18.538
354.43	18.280
354.79	16.781
355.15	18.147
355.51	18.051
355.87	18.223
356.24	18.245
356.60	17.884
356.96	18.271
357.32	19.066
357.68	17.841
358.04	17.553
358.40	19.265
358.77	18.182
359.13	17.793
359.49	18.681
359.85	17.945
360.21	17.533
360.57	17.737
360.93	17.172
361.29	18.110
361.66	17.972
362.02	17.685
362.38	17.677
362.74	18.330
363.10	17.882
363.46	16.851
363.82	18.093
364.18	18.137
364.54	16.738
364.90	18.340
365.26	16.863
365.62	17.196
365.98	16.862
366.35	17.310
366.71	17.488
367.07	17.474
367.43	17.730
367.79	17.021
368.15	16.689
368.51	18.401
368.87	17.120
369.23	16.771
369.59	17.465
369.95	17.133
370.31	17.043
370.67	16.724
371.03	18.417
371.39	17.313
371.75	17.655
372.11	18.219
372.47	17.808
372.83	16.995
373.19	17.889
373.55	17.457
373.91	17.196
374.27	16.733
374.63	17.017
374.99	17.049
375.35	17.876
375.71	17.414
376.07	16.976
376.42	17.072
376.78	17.598
377.14	17.104
377.50	17.416
377.86	15.951
378.22	17.124
378.58	17.797
378.94	16.898
379.30	16.798
379.66	16.857
380.02	17.889
380.38	16.159
380.74	17.128
381.09	16.998
381.45	17.052
381.81	16.194
382.17	16.361
382.53	16.617
382.89	16.736
383.25	16.519
383.61	16.888
383.97	15.777
384.32	17.239
384.68	17.944
385.04	17.761
385.40	17.675
385.76	16.852
386.12	16.883
386.48	16.717
386.83	17.787
387.19	16.372
387.55	17.138
387.91	17.494
388.27	17.371
388.62	17.664
388.98	15.918
389.34	16.419
389.70	16.156
390.06	17.439
390.42	17.088
390.77	16.585
391.13	16.838
391.49	16.334
391.85	17.846
392.20	17.759
392.56	17.503
392.92	17.069
393.28	16.592
393.64	16.342
393.99	16.538
394.35	15.951
394.71	16.466
395.07	16.545
395.42	16.101
395.78	17.027
396.14	17.289
396.50	16.125
396.85	16.524
397.21	16.727
397.57	16.975
397.92	16.696
398.28	17.209
398.64	17.277
399.00	16.622
399.35	16.747
399.71	16.777
400.07	15.982
400.42	15.881
400.78	15.718
401.14	16.442
401.49	17.108
401.85	16.686
402.21	16.169
402.57	16.218
402.92	16.485
403.28	15.811
403.63	16.892
403.99	16.405
404.35	16.999
404.70	17.720
405.06	16.395
405.42	16.756
405.77	16.924
406.13	16.432
406.49	16.828
406.84	16.413
407.20	16.781
407.55	16.246
407.91	17.167
408.27	16.495
408.62	17.090
408.98	17.031
409.34	15.956
409.69	16.553
410.05	16.756
410.40	15.430
410.76	16.027
411.11	16.469
411.47	16.173
411.83	16.110
412.18	16.304
412.54	16.036
412.89	16.047
413.25	16.306
413.60	16.180
413.96	15.799
414.31	16.057
414.67	16.822
415.03	16.092
415.38	16.530
415.74	15.919
416.09	17.114
416.45	16.484
416.80	17.062
417.16	16.614
417.51	16.752
417.87	15.394
418.22	16.282
418.58	15.987
418.93	16.002
419.29	15.773
419.64	16.293
420.00	17.303
420.35	15.215
420.71	16.161
421.06	16.421
421.42	17.041
421.77	15.880
422.12	15.601
422.48	16.127
422.83	16.295
423.19	15.929
423.54	16.182
423.90	16.195
424.25	16.346
424.61	16.541
424.96	15.810
425.31	14.997
425.67	16.386
426.02	15.480
426.38	15.578
426.73	16.021
427.09	16.667
427.44	15.757
427.79	14.866
428.15	16.971
428.50	16.857
428.85	16.049
429.21	15.883
429.56	16.152
429.92	16.012
430.27	15.481
430.62	15.810
430.98	15.818
431.33	15.020
431.68	15.160
432.04	15.416
432.39	16.136
432.74	16.803
433.10	15.670
433.45	16.944
433.80	16.437
434.16	16.132
434.51	15.325
434.86	16.440
435.22	15.883
435.57	15.768
435.92	16.847
436.28	16.590
436.63	15.829
436.98	16.104
437.34	16.153
437.69	14.446
438.04	16.183
438.39	16.696
438.75	16.927
439.10	15.920
439.45	15.432
439.81	15.500
440.16	15.905
440.51	16.273
440.86	16.638
441.22	16.017
441.57	16.220
441.92	16.436
442.27	15.619
442.63	16.311
442.98	15.517
443.33	15.801
443.68	16.197
444.03	15.316
444.39	15.772
444.74	15.321
445.09	15.745
445.44	16.312
445.79	15.789
446.15	15.158
446.50	15.454
446.85	15.538
447.20	15.522
447.55	16.150
447.91	16.782
448.26	16.347
448.61	15.589
448.96	16.449
449.31	16.172
449.66	16.777
450.02	15.343
450.37	15.936
450.72	15.868
451.07	16.870
451.42	16.420
451.77	15.693
452.12	15.655
452.47	15.978
452.83	16.056
453.18	16.036
453.53	16.400
453.88	15.714
454.23	16.328
454.58	16.142
454.93	15.328
455.28	16.034
455.63	16.489
455.98	16.074
456.34	16.839
456.69	15.915
457.04	15.453
457.39	15.600
457.74	17.005
458.09	15.778
458.44	15.827
458.79	16.499
459.14	15.767
459.49	15.742
459.84	15.652
460.19	15.932
460.54	16.068
460.89	16.098
461.24	15.578
461.59	16.327
461.94	16.194
462.29	16.304
462.64	16.206
462.99	15.995
463.34	16.980
463.69	17.120
464.04	16.580
464.39	16.543
464.74	15.064
465.09	16.019
465.44	15.832
465.79	15.623
466.14	14.997
466.49	15.735
466.84	16.165
467.19	16.169
467.54	16.456
467.89	16.491
468.24	15.518
468.59	15.893
468.94	15.761
469.29	17.471
469.64	15.949
469.99	16.645
470.34	16.192
470.68	16.345
471.03	16.344
471.38	16.358
471.73	15.741
472.08	16.438
472.43	16.263
472.78	16.069
473.13	15.645
473.48	15.587
473.83	16.078
474.17	15.988
474.52	15.225
474.87	15.122
475.22	15.762
475.57	15.635
475.92	15.534
476.27	15.125
476.61	15.603
476.96	15.726
477.31	16.247
477.66	16.425
478.01	16.039
478.36	15.963
478.70	15.385
479.05	15.743
479.40	16.121
479.75	15.988
480.10	15.924
480.45	15.546
480.79	15.899
481.14	14.979
481.49	14.913
481.84	15.787
482.19	15.371
482.53	15.503
482.88	15.278
483.23	15.156
483.58	15.126
483.92	16.042
484.27	15.068
484.62	15.407
484.97	15.349
485.31	14.894
485.66	15.340
486.01	15.123
486.36	14.821
486.70	14.204
487.05	14.538
487.40	14.744
487.75	14.860
488.09	15.028
488.44	14.850
488.79	15.134
489.13	15.342
489.48	15.142
489.83	14.846
490.17	15.194
490.52	15.159
490.87	15.560
491.22	14.982
491.56	15.459
491.91	15.905
492.26	15.323
492.60	15.216
492.95	15.315
493.30	15.560
493.64	15.409
493.99	15.564
494.34	15.598
494.68	14.564
495.03	15.492
495.37	15.894
495.72	15.711
496.07	15.364
496.41	15.639
496.76	15.450
497.11	15.338
497.45	15.256
497.80	16.033
498.14	15.303
498.49	15.692
498.84	15.888
499.18	15.448
499.53	16.031
499.87	15.049
500.22	15.431
500.56	15.877
500.91	15.724
501.26	15.572
501.60	15.574
501.95	14.785
502.29	15.600
502.64	14.733
502.98	15.251
503.33	15.679
503.67	15.364
504.02	15.405
504.36	15.158
504.71	15.421
505.06	15.157
505.40	15.349
505.75	14.780
506.09	15.586
506.44	15.038
506.78	15.454
507.13	15.172
507.47	15.575
507.82	16.204
508.16	15.973
508.51	14.734
508.85	15.480
509.19	14.929
509.54	15.869
509.88	15.365
510.23	15.294
510.57	14.768
510.92	15.534
511.26	15.361
511.61	15.953
511.95	15.331
512.30	15.600
512.64	14.901
512.98	15.838
513.33	15.676
513.67	15.847
514.02	15.117
514.36	15.317
514.70	15.573
515.05	15.290
515.39	15.789
515.74	15.746
516.08	15.795
516.42	16.393
516.77	15.307
517.11	15.893
517.46	15.140
517.80	15.620
518.14	15.662
518.49	15.436
518.83	14.890
519.17	15.530
519.52	15.948
519.86	15.640
520.20	15.562
520.55	15.206
520.89	15.230
521.23	15.596
521.58	15.318
521.92	15.685
522.26	15.107
522.61	15.330
522.95	15.976
523.29	15.965
523.64	15.434
523.98	15.845
524.32	16.148
524.66	15.304
525.01	15.325
525.35	15.203
525.69	15.894
526.04	15.705
526.38	15.892
526.72	15.036
527.06	15.494
527.41	16.264
527.75	15.460
528.09	15.232
528.43	15.985
528.78	15.981
529.12	16.195
529.46	16.306
529.80	15.654
530.15	16.500
530.49	14.681
530.83	16.453
531.17	15.498
531.51	15.083
531.86	15.399
532.20	15.822
532.54	15.191
532.88	15.428
533.22	15.356
533.57	15.741
533.91	15.152
534.25	15.291
534.59	16.140
534.93	15.131
535.27	14.627
535.62	15.228
535.96	15.662
536.30	16.392
536.64	15.528
536.98	15.481
537.32	16.312
537.66	14.286
538.01	15.728
538.35	15.409
538.69	15.413
539.03	15.174
539.37	15.291
539.71	15.370
540.05	15.754
540.39	16.164
540.73	15.696
541.07	14.806
541.42	15.174
541.76	15.598
542.10	15.413
542.44	15.711
542.78	15.293
543.12	16.012
543.46	15.476
543.80	15.852
544.14	15.480
544.48	14.903
544.82	15.107
545.16	14.329
545.50	15.734
545.84	15.909
546.18	16.060
546.52	15.082
546.86	16.054
547.20	14.729
547.54	16.719
547.88	15.876
548.22	15.786
548.56	15.321
548.90	15.421
549.24	14.908
549.58	14.820
549.92	16.110
550.26	15.348
550.60	15.502
550.94	16.079
551.28	16.483
551.62	15.586
551.96	15.676
552.30	15.821
552.64	15.987
552.98	15.271
553.32	14.533
553.66	15.049
554.00	15.830
554.34	16.445
554.68	15.323
555.02	16.090
555.36	14.894
555.69	15.052
556.03	15.860
556.37	15.679
556.71	15.319
557.05	15.072
557.39	15.467
557.73	15.566
558.07	16.030
558.41	16.107
558.75	16.553
559.08	16.083
559.42	15.963
559.76	16.108
560.10	15.760
560.44	16.656
560.78	16.432
561.12	16.084
561.45	14.956
561.79	15.855
562.13	15.224
562.47	15.704
562.81	15.810
563.15	15.966
563.48	14.969
563.82	15.596
564.16	16.604
564.50	15.069
564.84	15.805
565.17	14.676
565.51	15.764
565.85	15.608
566.19	15.060
566.52	14.200
566.86	16.229
567.20	16.517
567.54	15.066
567.88	15.441
568.21	15.876
568.55	15.272
568.89	15.876
569.23	14.927
569.56	15.096
569.90	14.768
570.24	14.753
570.57	14.731
570.91	14.914
571.25	14.561
571.59	14.608
571.92	14.747
572.26	14.528
572.60	14.329
572.93	14.606
573.27	14.618
573.61	14.618
573.95	14.741
574.28	14.857
574.62	14.718
574.96	14.354
575.29	14.965
575.63	14.441
575.97	14.289
576.30	14.325
576.64	14.619
576.98	14.604
577.31	14.804
577.65	14.661
577.98	14.431
578.32	14.042
578.66	14.561
578.99	14.579
579.33	14.502
579.67	14.332
580.00	14.171
580.34	14.417
580.67	14.273
581.01	14.439
581.35	14.669
581.68	14.611
582.02	14.738
582.35	14.573
582.69	14.714
583.02	14.335
583.36	14.343
583.70	14.803
584.03	14.666
584.37	14.715
584.70	14.581
585.04	14.442
585.37	14.247
585.71	14.787
586.04	14.492
586.38	14.819
586.72	14.672
587.05	14.720
587.39	14.665
587.72	14.979
588.06	14.601
588.39	14.688
588.73	14.873
589.06	15.086
589.40	15.524
589.73	15.143
590.07	15.546
590.40	15.366
590.73	15.057
591.07	15.598
591.40	15.010
591.74	15.300
592.07	15.349
592.41	15.108
592.74	14.866
593.08	14.941
593.41	14.931
593.75	15.110
594.08	14.875
594.41	14.923
594.75	14.658
595.08	15.158
595.42	15.537
595.75	15.038
596.09	14.911
596.42	15.186
596.75	15.224
597.09	15.229
597.42	15.020
597.75	14.686
598.09	14.403
598.42	14.688
598.76	15.497
599.09	15.300
599.42	14.879
599.76	15.129
600.09	14.712
600.42	14.710
600.76	15.194
601.09	14.808
601.42	15.241
601.76	14.751
602.09	15.305
602.42	15.120
602.76	15.104
603.09	15.158
603.42	15.339
603.76	15.474
604.09	15.273
604.42	14.727
604.76	15.093
605.09	14.816
605.42	15.156
605.75	15.713
606.09	15.340
606.42	14.769
606.75	15.235
607.09	15.081
607.42	14.785
607.75	15.088
608.08	14.825
608.42	15.310
608.75	15.019
609.08	14.474
609.41	15.636
609.75	15.934
610.08	15.153
610.41	15.064
610.74	15.152
611.07	15.507
611.41	15.107
611.74	15.440
612.07	15.125
612.40	16.131
612.73	16.026
613.07	15.712
613.40	15.539
613.73	15.177
614.06	15.200
614.39	15.051
614.72	15.269
615.06	14.936
615.39	15.198
615.72	15.344
616.05	15.470
616.38	15.322
616.71	15.193
617.05	15.321
617.38	15.506
617.71	16.535
618.04	15.648
618.37	15.175
618.70	15.589
619.03	15.690
619.36	15.955
619.69	16.425
620.03	16.438
620.36	16.121
620.69	16.284
621.02	15.965
621.35	14.971
621.68	15.413
622.01	16.089
622.34	15.076
622.67	16.503
623.00	16.610
623.33	15.115
623.66	15.702
623.99	15.890
624.32	15.718
624.65	15.471
624.99	16.227
625.32	15.631
625.65	13.931
625.98	15.830
626.31	16.320
626.64	15.718
626.97	14.767
627.30	15.761
627.63	15.856
627.96	15.493
628.29	16.584
628.62	15.654
628.95	17.199
629.28	17.441
629.61	16.081
629.94	15.212
630.26	17.071
630.59	16.755
630.92	15.426
631.25	16.954
631.58	17.165
631.91	17.031
632.24	17.104
632.57	15.914
632.90	17.495
633.23	17.838
633.56	16.860
633.89	15.863
634.22	16.900
634.55	16.129
634.88	16.648
635.20	17.601
635.53	16.144
635.86	16.890
636.19	16.498
636.52	16.108
636.85	15.642
637.18	18.635
637.51	16.201
637.83	15.446
638.16	18.875
638.49	17.605
638.82	17.488
639.15	16.099
639.48	17.062
639.81	17.582
640.13	16.810
640.46	18.710
640.79	17.555
641.12	16.798
641.45	18.887
641.77	18.098
642.10	17.403
642.43	18.777
642.76	16.477
643.09	15.994
643.41	18.934
643.74	17.266
644.07	19.469
644.40	17.604
644.73	19.219
645.05	19.168
645.38	18.070
645.71	17.451
646.04	18.931
646.36	18.623
646.69	17.760
647.02	19.360
647.35	17.795
647.67	17.990
648.00	16.775
648.33	18.947
648.66	17.576
648.98	18.116
649.31	15.924
649.64	16.183
649.96	16.358
650.29	15.000
650.62	19.588
650.94	20.783
651.27	18.022
651.60	17.214
651.92	19.048
652.25	18.740
652.58	17.163
652.90	18.114
653.23	18.907
653.56	17.359
653.88	16.593
654.21	17.595
654.54	16.691
654.86	17.109
655.19	18.074
655.52	16.354
655.84	13.230
656.17	15.590
656.49	22.598
656.82	26.385
657.15	21.015
657.47	15.499
657.80	11.263
658.13	8.830
658.45	11.993
658.78	13.856
659.10	14.558
659.43	14.673
659.75	15.206
660.08	14.787
660.41	16.425
660.73	18.821
661.06	17.868
661.38	18.910
661.71	17.986
662.03	18.061
662.36	19.810
662.68	18.808
663.01	19.099
663.33	19.623
663.66	20.907
663.98	18.849
664.31	21.269
664.63	19.157
664.96	19.512
665.28	17.702
665.61	17.358
665.93	19.245
666.26	19.252
666.58	19.633
666.91	21.236
667.23	19.277
667.56	19.713
667.88	19.710
668.21	20.902
668.53	17.944
668.86	19.639
669.18	19.756
669.50	18.595
669.83	18.070
670.15	20.790
670.48	17.578
670.80	19.124
671.13	19.522
671.45	21.443
671.77	19.666
672.10	17.774
672.42	19.901
672.75	18.829
673.07	17.170
673.39	17.093
673.72	17.647
674.04	19.355
674.37	18.330
674.69	18.216
675.01	19.030
675.34	19.186
675.66	20.898
675.98	18.738
676.31	18.200
676.63	17.296
676.95	21.429
677.28	18.661
677.60	19.920
677.92	18.849
678.25	19.767
678.57	19.367
678.89	19.530
679.22	18.015
679.54	19.039
679.86	19.197
680.18	18.278
680.51	18.076
680.83	18.919
681.15	18.544
681.48	20.139
681.80	19.089
682.12	17.820
682.44	16.757
682.77	20.107
683.09	17.670
683.41	20.000
683.73	16.929
684.06	19.246
684.38	20.155
684.70	18.345
685.02	15.799
685.34	18.838
685.67	20.257
685.99	18.227
686.31	17.565
686.63	17.886
686.96	19.281
687.28	19.295
687.60	17.918
687.92	18.425
688.24	19.483
688.56	18.683
688.89	17.782
689.21	19.268
689.53	22.332
689.85	18.496
690.17	18.641
690.49	19.556
690.82	17.017
691.14	22.424
691.46	19.918
691.78	19.883
692.10	18.702
692.42	18.330
692.74	17.442
693.06	19.186
693.39	21.344
693.71	19.646
694.03	21.302
694.35	23.494
694.67	16.701
694.99	20.843
695.31	22.297
695.63	19.005
695.95	19.231
696.27	18.805
696.59	21.718
696.91	16.962
697.23	17.873
697.56	20.124
697.88	17.764
698.20	20.189
698.52	18.093
698.84	19.302
699.16	20.682
699.48	19.915
699.80	22.440
700.12	22.402
700.44	19.626
700.76	21.002
701.08	20.888
701.40	21.558
701.72	23.797
702.04	24.390
702.36	19.892
702.68	18.085
703.00	19.799
703.32	23.821
703.64	22.166
703.96	22.135
704.28	22.222
704.60	21.127
704.91	20.448
705.23	22.159
705.55	24.926
705.87	20.000
706.19	26.959
706.51	29.467
706.83	21.534
707.15	22.460
707.47	21.308
707.79	23.908
708.11	18.821
708.43	21.124
708.74	20.814
709.06	20.930
709.38	21.092
709.70	21.526
710.02	18.207
710.34	22.099
710.66	22.500
710.98	24.590
711.29	20.056
711.61	24.513
711.93	25.228
712.25	23.795
712.57	21.543
712.89	24.848
713.20	24.601
713.52	19.938
713.84	23.263
714.16	17.971
714.48	18.156
714.80	20.867
715.11	19.947
715.43	18.994
715.75	20.845
716.07	19.653
716.39	22.286
716.70	20.872
717.02	23.906
717.34	23.381
717.66	26.736
717.97	29.545
718.29	25.000
718.61	22.297
718.93	26.990
719.24	23.826
719.56	23.448
719.88	23.567
720.20	24.516
720.51	22.876
720.83	25.084
721.15	24.830
721.46	24.315
721.78	25.784
722.10	25.347
722.42	26.421
722.73	20.578
723.05	25.614
723.37	22.261
723.68	19.922
724.00	26.136
724.32	25.475
724.63	28.846
724.95	24.314
725.27	23.420
725.58	25.735
725.90	20.775
726.22	23.288
726.53	21.405
726.85	20.847
727.16	24.161
727.48	27.243
727.80	26.978
728.11	22.857
728.43	23.188
728.74	23.077
729.06	22.222
729.38	27.368
729.69	27.333
730.01	25.987
730.32	23.826
730.64	29.236
730.96	26.126
731.27	21.407
731.59	20.402
731.90	21.170
732.22	22.857
732.53	21.083
732.85	27.193
733.16	22.892
733.48	25.705
733.80	28.406
734.11	27.607
734.43	19.883
734.74	21.984
735.06	20.106
735.37	20.876
735.69	18.551
736.00	27.523
736.32	21.515
736.63	21.136
736.95	22.671
737.26	23.476
737.58	22.699
737.89	25.904
738.21	24.503
738.52	25.084
738.83	24.542
739.15	28.223
739.46	24.138
739.78	22.789
740.09	22.741
740.41	25.153
740.72	26.984
741.04	25.524
741.35	30.859
741.66	26.482
741.98	27.897
742.29	29.630
742.61	21.239
742.92	29.237
743.23	22.000
743.55	27.547
743.86	29.020
744.18	29.237
744.49	32.231
744.80	29.493
745.12	26.339
745.43	25.234
745.74	28.000
746.06	23.246
746.37	28.837
746.68	27.876
747.00	27.803
747.31	27.311
747.62	23.770
747.94	24.893
748.25	24.514
748.56	27.542
748.88	29.018
749.19	26.977
749.50	31.507
749.82	29.218
750.13	28.854
750.44	23.333
750.75	26.846
751.07	25.658
751.38	23.762
751.69	23.906
752.01	23.427
752.32	25.581
752.63	25.839
752.94	26.224
753.26	24.219
753.57	28.405
753.88	25.468
754.19	25.993
754.51	26.578
754.82	22.819
755.13	19.595
755.44	24.815
755.75	27.148
756.07	26.712
756.38	22.222
756.69	24.063
757.00	26.409
757.31	26.197
757.63	20.937
757.94	16.755
758.25	23.430
758.56	21.510
758.87	21.554
759.18	25.581
759.50	22.796
759.81	26.113
760.12	25.562
760.43	19.048
760.74	23.291
761.05	24.138
761.36	21.615
761.67	21.024
761.99	24.225
762.30	23.794
762.61	21.528
762.92	26.136
763.23	26.038
763.54	27.692
763.85	22.568
764.16	26.042
764.47	29.054
764.78	23.779
765.10	21.646
765.41	25.000
765.72	24.033
766.03	22.356
766.34	26.132
766.65	23.954
766.96	32.389
767.27	33.645
767.58	28.713
767.89	35.359
768.20	38.415
768.51	31.122
768.82	29.386
769.13	31.373
769.44	25.564
769.75	28.090
770.06	28.571
770.37	25.000
770.68	25.778
770.99	33.051
771.30	30.126
771.61	23.846
771.92	25.573
772.23	23.790
772.54	32.444
772.85	35.644
773.16	32.065
773.47	34.444
773.78	29.208
774.09	35.795
774.39	33.333
774.70	29.412
775.01	27.632
775.32	29.193
775.63	31.507
775.94	40.123
776.25	41.379
776.56	45.802
776.87	50.382
777.18	39.394
777.48	51.181
777.79	39.231
778.10	40.152
778.41	40.299
778.72	41.353
779.03	30.128
779.34	32.432
779.65	37.267
779.95	40.373
780.26	33.333
780.57	44.898
780.88	35.461
781.19	42.500
781.50	37.278
781.80	31.148
782.11	31.217
782.42	33.333
782.73	38.418
783.04	29.677
783.34	30.233
783.65	40.136
783.96	41.935
784.27	35.762
784.57	38.158
784.88	34.783
785.19	44.167
785.50	37.069
785.81	51.938
786.11	38.519
786.42	37.008
786.73	43.243
787.04	41.509
787.34	39.837
787.65	56.061
787.96	40.152
788.26	45.669
788.57	44.526
788.88	38.732
789.19	38.168
789.49	35.135
789.80	39.844
790.11	42.149
790.41	51.852
790.72	41.667
791.03	42.308
791.33	50.505
791.64	46.316
791.95	53.684
792.25	48.958
792.56	47.000
792.87	59.756
793.17	48.864
793.48	58.824
793.79	50.575
794.09	39.773
794.40	54.310
794.70	39.683
795.01	36.923
795.32	37.405
795.62	40.171
795.93	48.739
796.23	51.220
796.54	59.184
796.85	61.364
797.15	63.636
797.46	71.951
797.76	48.750
798.07	66.667
798.37	60.000
798.68	62.500
798.99	63.415
799.29	58.667
799.60	56.977
799.90	51.316
800.21	66.667
800.51	63.380
800.82	65.517
801.12	58.462
801.43	72.000
801.73	79.310
802.04	63.636
802.34	61.644
802.65	72.549
802.95	73.913
803.26	79.032
803.56	86.667
803.87	73.134
804.17	79.365
804.48	58.491
804.78	70.833
805.09	68.182
805.39	73.016
805.70	82.456
806.00	65.714
806.30	64.062
806.61	51.765
806.91	61.111
807.22	50.000
807.52	52.632
807.83	81.579
808.13	68.116
808.43	88.710
808.74	53.425
809.04	78.571
809.35	83.824
809.65	63.636
809.95	86.275
810.26	101.852
810.56	67.187
810.86	67.347
811.17	77.193
811.47	102.174
811.77	86.207
812.08	60.345
812.38	92.857
812.69	76.190
812.99	64.444
813.29	91.429
813.59	119.355
813.90	89.655
814.20	75.410
814.50	60.000
814.81	73.684
815.11	100.000
815.41	80.357
815.72	80.357
816.02	74.000
816.32	114.634
816.62	79.310
816.93	109.091
817.23	97.561
817.53	78.571
817.84	102.222
818.14	92.857
818.44	81.250
818.74	90.566
819.04	92.308
819.35	118.182
819.65	105.769
819.95	118.519
820.25	102.128
820.56	113.514
820.86	107.895
821.16	70.213
821.46	89.474
821.76	94.545
822.07	85.714
822.37	107.895
822.67	95.349
822.97	65.789
823.27	91.304
823.57	96.875
823.88	102.564
824.18	106.061
824.48	147.826
824.78	138.889
825.08	182.609
825.38	134.483
825.69	114.706
825.99	68.085
826.29	83.333
826.59	114.286
826.89	120.000
827.19	111.429
827.49	125.806
827.79	146.154
828.09	92.857
828.39	88.889
828.70	91.892
829.00	167.857
829.30	187.500
829.60	119.444
829.90	125.806
830.20	87.879
830.50	116.216
830.80	175.000
831.10	142.308
831.40	171.429
831.70	162.500
832.00	143.333
832.30	186.957
832.60	187.500
832.90	142.424
833.20	190.000
833.50	139.474
833.80	120.588
834.10	139.474
834.40	142.105
834.70	130.000
835.00	172.000
835.30	94.595
835.60	128.125
835.90	113.514
836.20	157.692
836.50	122.727
836.80	92.683
837.10	152.174
837.40	323.077
837.70	168.421
838.00	166.667
838.30	158.333
838.60	176.000
838.90	380.000
839.19	156.250
839.49	146.667
839.79	134.483
840.09	176.923
840.39	213.333
840.69	226.316
840.99	123.810
841.29	204.348
841.59	185.000
841.88	180.000
842.18	255.556
842.48	185.714
842.78	162.963
843.08	223.077
843.38	190.909
843.68	278.571
843.97	514.286
844.27	147.826
844.57	1400.000
844.87	278.571
845.17	250.000
845.47	128.571
845.76	137.500
846.06	628.571
846.36	164.706
846.66	292.308
846.96	256.250
847.25	215.385
847.55	242.105
847.85	216.667
848.15	600.000
848.44	290.909
848.74	190.476
849.04	200.000
849.34	200.000
849.63	250.000
849.93	300.000
850.23	1166.667
850.53	412.500
850.82	245.455
851.12	205.882
851.42	216.667
851.71	268.750
852.01	0.000
852.31	235.294
852.61	330.000
852.90	145.833
853.20	355.556
853.50	-1500.000
853.79	164.000
854.09	131.250
854.39	137.931
854.68	127.586
854.98	176.190
855.28	138.710
855.57	278.571
855.87	211.111
856.17	144.444
856.46	189.474
856.76	129.032
857.05	270.588
857.35	327.273
857.65	269.231
857.94	165.000
858.24	533.333
858.53	321.429
858.83	657.143
859.13	186.957
859.42	455.556
859.72	525.000
860.01	291.667
860.31	750.000
860.60	400.000
860.90	487.500
861.20	192.308
861.49	385.714
861.79	-4000.000
862.08	671.429
862.38	311.111
862.67	257.143
862.97	400.000
863.26	150.000
863.56	825.000
863.85	338.462
864.15	247.059
864.44	233.333
864.74	358.333
865.03	436.364
865.33	512.500
865.62	293.333
865.92	600.000
866.21	800.000
866.51	820.000
866.80	216.667
867.10	833.333
867.39	3400.000
867.69	660.000
867.98	875.000
868.27	223.810
868.57	260.000
868.86	850.000
869.16	171.429
869.45	3400.000
869.75	-500.000
870.04	775.000
870.33	880.000
870.63	512.500
870.92	217.647
871.22	950.000
871.51	500.000
871.80	341.667
872.10	338.462
>>>>>End Processed Spectral Data<<<<<
