SpectraSuite Data File
++++++++++++++++++++++++++++++++++++
Date: Tue May 12 15:28:32 PDT 2015
User: schluterlab
Dark Spectrum Present: Yes
Reference Spectrum Present: Yes
Number of Sampled Component Spectra: 1
Spectrometers: USB2E3373
Integration Time (usec): 3000 (USB2E3373)
Spectra Averaged: 3 (USB2E3373)
Boxcar Smoothing: 0 (USB2E3373)
Correct for Electrical Dark: No (USB2E3373)
Strobe/Lamp Enabled: No (USB2E3373)
Correct for Detector Non-linearity: No (USB2E3373)
Correct for Stray Light: No (USB2E3373)
Number of Pixels in Processed Spectrum: 2048
>>>>>Begin Processed Spectral Data<<<<<
178.53	0.000
178.91	-258.333
179.29	-925.000
179.67	-3900.000
180.04	-100.000
180.42	675.000
180.80	1300.000
181.18	0.000
181.56	-387.500
181.94	0.000
182.31	866.667
182.69	-4300.000
183.07	600.000
183.45	-3800.000
183.83	-1750.000
184.20	360.000
184.58	585.714
184.96	-253.846
185.34	-200.000
185.72	1950.000
186.09	-700.000
186.47	-2800.000
186.85	1100.000
187.23	640.000
187.61	1700.000
187.98	650.000
188.36	242.857
188.74	350.000
189.12	383.333
189.49	950.000
189.87	0.000
190.25	550.000
190.63	2800.000
191.00	-291.667
191.38	-3200.000
191.76	-600.000
192.14	462.500
192.51	-2800.000
192.89	2050.000
193.27	966.667
193.65	-1200.000
194.02	-700.000
194.40	585.714
194.78	-285.714
195.15	266.667
195.53	-2500.000
195.91	-360.000
196.29	4200.000
196.66	250.000
197.04	900.000
197.42	-1600.000
197.79	700.000
198.17	366.667
198.55	0.000
198.92	528.571
199.30	1166.667
199.68	2100.000
200.05	683.333
200.43	-566.667
200.81	238.889
201.18	3200.000
201.56	283.333
201.94	-975.000
202.31	-400.000
202.69	-340.000
203.07	3600.000
203.44	-650.000
203.82	300.000
204.19	600.000
204.57	-1650.000
204.95	-1000.000
205.32	-740.000
205.70	633.333
206.08	925.000
206.45	-900.000
206.83	433.333
207.20	157.895
207.58	241.667
207.96	940.000
208.33	0.000
208.71	628.571
209.08	580.000
209.46	-3100.000
209.84	-650.000
210.21	900.000
210.59	-540.000
210.96	325.000
211.34	-850.000
211.71	427.273
212.09	825.000
212.46	1700.000
212.84	-400.000
213.22	400.000
213.59	-3400.000
213.97	320.000
214.34	725.000
214.72	1133.333
215.09	1000.000
215.47	-3400.000
215.84	-260.000
216.22	-350.000
216.59	0.000
216.97	0.000
217.34	1700.000
217.72	-1400.000
218.09	1266.667
218.47	512.500
218.84	900.000
219.22	1300.000
219.59	1200.000
219.97	557.143
220.34	355.556
220.72	1600.000
221.09	3700.000
221.47	291.667
221.84	1300.000
222.22	340.000
222.59	277.778
222.97	235.714
223.34	162.500
223.72	-2100.000
224.09	1033.333
224.46	361.538
224.84	-825.000
225.21	400.000
225.59	313.333
225.96	1566.667
226.34	-760.000
226.71	-750.000
227.08	-520.000
227.46	0.000
227.83	-566.667
228.21	-1700.000
228.58	283.333
228.95	975.000
229.33	466.667
229.70	1175.000
230.08	269.231
230.45	4000.000
230.82	-1025.000
231.20	-866.667
231.57	-966.667
231.95	640.000
232.32	333.333
232.69	533.333
233.07	333.333
233.44	-2100.000
233.81	246.667
234.19	144.444
234.56	231.250
234.93	182.353
235.31	205.000
235.68	300.000
236.05	153.571
236.43	174.074
236.80	264.286
237.17	168.966
237.55	121.875
237.92	130.000
238.29	142.424
238.67	118.750
239.04	95.122
239.41	66.667
239.79	70.000
240.16	79.167
240.53	83.607
240.91	75.362
241.28	72.881
241.65	57.576
242.02	73.239
242.40	70.000
242.77	64.835
243.14	46.835
243.51	63.636
243.89	50.467
244.26	55.140
244.63	49.505
245.00	39.450
245.38	37.288
245.75	50.758
246.12	55.556
246.49	41.135
246.87	38.525
247.24	50.000
247.61	43.750
247.98	45.578
248.36	30.909
248.73	40.306
249.10	34.524
249.47	34.500
249.84	36.318
250.22	41.081
250.59	35.500
250.96	37.131
251.33	33.023
251.70	38.839
252.08	34.874
252.45	31.076
252.82	33.840
253.19	30.040
253.56	30.000
253.94	30.435
254.31	29.070
254.68	31.359
255.05	31.724
255.42	32.847
255.79	28.013
256.16	30.169
256.54	32.792
256.91	27.124
257.28	29.097
257.65	25.705
258.02	29.794
258.39	28.080
258.76	29.855
259.14	27.143
259.51	27.988
259.88	28.875
260.25	21.154
260.62	24.384
260.99	20.661
261.36	25.627
261.73	27.394
262.10	27.749
262.47	25.500
262.85	26.933
263.22	25.707
263.59	26.854
263.96	26.065
264.33	22.222
264.70	26.290
265.07	26.098
265.44	25.229
265.81	25.708
266.18	24.943
266.55	22.931
266.92	24.161
267.29	23.246
267.66	21.973
268.03	22.422
268.40	21.776
268.77	25.771
269.14	23.644
269.51	21.604
269.88	24.286
270.25	20.734
270.62	22.103
270.99	21.704
271.36	23.171
271.73	21.384
272.10	21.212
272.47	24.008
272.84	22.355
273.21	21.074
273.58	22.672
273.95	20.534
274.32	21.401
274.69	21.260
275.06	21.494
275.43	21.648
275.80	22.642
276.17	21.875
276.54	21.121
276.91	20.896
277.28	20.255
277.65	20.664
278.02	21.140
278.39	20.683
278.76	21.724
279.13	18.505
279.50	18.909
279.87	20.112
280.23	22.284
280.60	18.978
280.97	20.690
281.34	18.317
281.71	21.043
282.08	20.684
282.45	19.426
282.82	20.903
283.19	18.760
283.56	18.678
283.92	20.033
284.29	17.970
284.66	17.479
285.03	20.564
285.40	19.174
285.77	18.827
286.14	19.505
286.51	20.859
286.87	16.930
287.24	16.066
287.61	18.389
287.98	18.955
288.35	19.259
288.72	18.361
289.08	18.919
289.45	20.274
289.82	19.375
290.19	17.277
290.56	20.378
290.93	18.273
291.29	17.956
291.66	16.667
292.03	18.093
292.40	18.564
292.77	17.131
293.13	17.689
293.50	17.814
293.87	16.802
294.24	17.203
294.60	16.151
294.97	17.762
295.34	16.335
295.71	16.689
296.08	17.733
296.44	16.137
296.81	16.873
297.18	15.970
297.55	17.611
297.91	16.010
298.28	15.459
298.65	15.460
299.02	16.526
299.38	14.868
299.75	15.366
300.12	18.119
300.48	17.799
300.85	15.971
301.22	15.698
301.59	13.679
301.95	15.169
302.32	16.182
302.69	15.724
303.05	16.611
303.42	13.901
303.79	15.385
304.15	14.631
304.52	14.905
304.89	15.778
305.25	15.573
305.62	15.032
305.99	13.478
306.35	13.895
306.72	14.152
307.09	15.010
307.45	14.467
307.82	14.300
308.19	15.052
308.55	13.500
308.92	15.015
309.29	14.596
309.65	14.866
310.02	13.692
310.38	14.257
310.75	13.500
311.12	13.506
311.48	15.734
311.85	13.550
312.22	14.518
312.58	14.189
312.95	14.757
313.31	13.951
313.68	14.447
314.05	13.919
314.41	14.246
314.78	13.826
315.14	14.502
315.51	14.664
315.87	13.777
316.24	14.192
316.61	14.951
316.97	14.220
317.34	15.723
317.70	14.574
318.07	14.413
318.43	14.499
318.80	14.273
319.16	14.598
319.53	13.982
319.89	14.785
320.26	16.108
320.62	16.026
320.99	15.157
321.35	15.028
321.72	15.844
322.08	15.051
322.45	15.259
322.81	14.822
323.18	15.187
323.54	15.070
323.91	15.594
324.27	14.854
324.64	14.446
325.00	15.000
325.37	14.924
325.73	14.503
326.10	15.742
326.46	15.772
326.83	15.280
327.19	15.502
327.56	14.617
327.92	14.672
328.29	15.385
328.65	15.668
329.01	15.997
329.38	15.482
329.74	15.798
330.11	14.335
330.47	16.454
330.84	13.546
331.20	16.074
331.56	16.580
331.93	15.312
332.29	14.286
332.66	17.092
333.02	15.034
333.38	15.009
333.75	16.347
334.11	14.346
334.48	15.128
334.84	14.274
335.20	15.740
335.57	14.442
335.93	14.802
336.29	14.096
336.66	16.038
337.02	14.371
337.38	14.703
337.75	14.527
338.11	15.612
338.47	14.225
338.84	14.649
339.20	14.805
339.56	15.055
339.93	14.047
340.29	14.118
340.65	15.088
341.02	16.492
341.38	15.846
341.74	14.037
342.11	13.272
342.47	14.028
342.83	14.766
343.20	14.066
343.56	12.947
343.92	14.616
344.28	14.434
344.65	15.159
345.01	13.968
345.37	13.782
345.73	13.016
346.10	12.510
346.46	15.152
346.82	12.886
347.19	14.297
347.55	12.959
347.91	13.520
348.27	13.168
348.63	13.370
349.00	14.623
349.36	13.619
349.72	14.297
350.08	13.276
350.45	14.623
350.81	13.609
351.17	13.251
351.53	13.241
351.89	13.520
352.26	12.472
352.62	14.480
352.98	13.497
353.34	13.328
353.70	12.003
354.07	14.385
354.43	12.519
354.79	13.667
355.15	14.012
355.51	13.595
355.87	13.027
356.24	13.626
356.60	13.090
356.96	12.509
357.32	13.715
357.68	13.730
358.04	13.450
358.40	13.643
358.77	13.223
359.13	12.462
359.49	12.305
359.85	12.435
360.21	12.927
360.57	12.701
360.93	13.203
361.29	13.420
361.66	13.497
362.02	12.358
362.38	12.410
362.74	13.659
363.10	12.973
363.46	12.845
363.82	13.745
364.18	12.660
364.54	12.804
364.90	13.320
365.26	12.769
365.62	12.293
365.98	12.457
366.35	12.552
366.71	12.561
367.07	13.106
367.43	12.895
367.79	12.301
368.15	12.483
368.51	12.681
368.87	12.024
369.23	11.850
369.59	12.947
369.95	12.937
370.31	12.115
370.67	13.116
371.03	13.515
371.39	12.396
371.75	11.933
372.11	13.460
372.47	13.562
372.83	12.508
373.19	13.023
373.55	13.127
373.91	12.983
374.27	12.632
374.63	13.424
374.99	13.140
375.35	13.172
375.71	12.533
376.07	11.936
376.42	12.788
376.78	13.231
377.14	12.910
377.50	13.670
377.86	12.556
378.22	13.102
378.58	13.741
378.94	13.156
379.30	12.674
379.66	12.342
380.02	13.021
380.38	12.354
380.74	13.033
381.09	12.909
381.45	12.832
381.81	12.057
382.17	12.759
382.53	12.118
382.89	12.714
383.25	12.078
383.61	12.104
383.97	12.717
384.32	12.357
384.68	13.666
385.04	13.130
385.40	12.693
385.76	11.995
386.12	13.544
386.48	12.644
386.83	13.081
387.19	13.486
387.55	13.192
387.91	12.875
388.27	13.206
388.62	13.322
388.98	12.828
389.34	12.374
389.70	12.205
390.06	12.866
390.42	12.338
390.77	13.636
391.13	12.492
391.49	13.067
391.85	13.292
392.20	13.349
392.56	13.799
392.92	12.521
393.28	11.827
393.64	11.927
393.99	13.041
394.35	12.066
394.71	11.942
395.07	12.165
395.42	12.881
395.78	12.955
396.14	12.771
396.50	12.635
396.85	12.805
397.21	13.418
397.57	12.433
397.92	11.554
398.28	11.914
398.64	12.565
399.00	12.507
399.35	12.131
399.71	12.252
400.07	12.443
400.42	11.940
400.78	12.258
401.14	12.507
401.49	12.212
401.85	12.920
402.21	12.595
402.57	13.226
402.92	11.818
403.28	12.053
403.63	12.125
403.99	12.304
404.35	13.540
404.70	12.758
405.06	12.240
405.42	11.909
405.77	12.734
406.13	11.605
406.49	11.200
406.84	12.408
407.20	13.527
407.55	12.677
407.91	13.274
408.27	12.189
408.62	13.483
408.98	13.306
409.34	12.332
409.69	13.068
410.05	12.463
410.40	11.779
410.76	11.505
411.11	12.263
411.47	11.605
411.83	12.127
412.18	12.198
412.54	12.733
412.89	11.799
413.25	13.284
413.60	12.792
413.96	12.627
414.31	12.338
414.67	12.787
415.03	13.091
415.38	13.249
415.74	12.824
416.09	12.867
416.45	12.734
416.80	13.342
417.16	12.540
417.51	12.420
417.87	12.265
418.22	12.880
418.58	12.293
418.93	13.206
419.29	12.877
419.64	12.901
420.00	13.842
420.35	12.776
420.71	12.252
421.06	12.184
421.42	12.666
421.77	12.104
422.12	13.010
422.48	12.378
422.83	12.556
423.19	12.473
423.54	11.849
423.90	12.458
424.25	12.548
424.61	12.420
424.96	11.858
425.31	12.972
425.67	12.346
426.02	12.731
426.38	12.135
426.73	11.567
427.09	12.337
427.44	11.874
427.79	13.036
428.15	12.905
428.50	13.486
428.85	12.228
429.21	12.318
429.56	12.712
429.92	12.233
430.27	12.095
430.62	12.139
430.98	12.675
431.33	11.946
431.68	11.556
432.04	11.950
432.39	12.843
432.74	12.705
433.10	11.849
433.45	13.441
433.80	12.410
434.16	12.874
434.51	12.900
434.86	13.119
435.22	11.885
435.57	12.330
435.92	13.773
436.28	14.055
436.63	13.020
436.98	13.007
437.34	13.014
437.69	11.814
438.04	12.957
438.39	13.368
438.75	12.918
439.10	12.682
439.45	12.889
439.81	13.187
440.16	12.988
440.51	12.782
440.86	13.219
441.22	13.582
441.57	12.913
441.92	12.586
442.27	12.062
442.63	12.703
442.98	12.177
443.33	12.962
443.68	12.626
444.03	12.582
444.39	13.418
444.74	12.940
445.09	12.691
445.44	12.965
445.79	12.914
446.15	12.526
446.50	12.289
446.85	13.247
447.20	12.139
447.55	12.833
447.91	14.065
448.26	13.472
448.61	12.935
448.96	13.562
449.31	12.651
449.66	13.566
450.02	12.534
450.37	12.715
450.72	13.278
451.07	13.322
451.42	13.515
451.77	13.746
452.12	14.124
452.47	14.338
452.83	13.183
453.18	14.054
453.53	13.914
453.88	13.543
454.23	14.410
454.58	14.219
454.93	14.040
455.28	14.015
455.63	13.889
455.98	13.988
456.34	13.556
456.69	14.024
457.04	13.783
457.39	13.486
457.74	15.259
458.09	13.083
458.44	13.582
458.79	14.164
459.14	12.930
459.49	13.703
459.84	13.750
460.19	13.729
460.54	13.789
460.89	13.380
461.24	13.345
461.59	13.946
461.94	13.771
462.29	14.416
462.64	14.824
462.99	14.715
463.34	14.452
463.69	14.580
464.04	14.508
464.39	13.795
464.74	13.247
465.09	13.581
465.44	13.602
465.79	13.881
466.14	13.831
466.49	13.836
466.84	13.712
467.19	14.294
467.54	13.814
467.89	13.674
468.24	14.071
468.59	13.869
468.94	14.614
469.29	14.783
469.64	14.662
469.99	15.231
470.34	14.927
470.68	14.828
471.03	15.010
471.38	14.636
471.73	15.349
472.08	16.112
472.43	14.339
472.78	15.365
473.13	13.705
473.48	14.487
473.83	14.841
474.17	14.650
474.52	15.107
474.87	13.701
475.22	13.935
475.57	13.694
475.92	14.614
476.27	12.731
476.61	13.727
476.96	14.734
477.31	14.447
477.66	15.030
478.01	14.905
478.36	14.006
478.70	14.690
479.05	14.017
479.40	14.385
479.75	15.045
480.10	14.279
480.45	14.146
480.79	13.779
481.14	14.503
481.49	13.769
481.84	14.292
482.19	14.760
482.53	13.834
482.88	14.471
483.23	13.938
483.58	14.363
483.92	14.580
484.27	14.127
484.62	14.601
484.97	13.674
485.31	13.150
485.66	12.388
486.01	11.570
486.36	11.061
486.70	10.718
487.05	11.391
487.40	12.298
487.75	12.422
488.09	12.869
488.44	13.066
488.79	13.468
489.13	14.334
489.48	14.343
489.83	14.137
490.17	14.327
490.52	14.169
490.87	14.871
491.22	14.849
491.56	14.888
491.91	14.830
492.26	14.833
492.60	14.624
492.95	14.907
493.30	15.150
493.64	15.499
493.99	15.474
494.34	14.523
494.68	14.874
495.03	14.773
495.37	15.443
495.72	14.825
496.07	15.004
496.41	14.857
496.76	14.648
497.11	15.081
497.45	15.563
497.80	15.431
498.14	14.748
498.49	15.924
498.84	15.421
499.18	14.762
499.53	16.123
499.87	15.184
500.22	14.970
500.56	14.949
500.91	15.770
501.26	15.710
501.60	15.118
501.95	14.247
502.29	15.156
502.64	14.998
502.98	14.984
503.33	14.744
503.67	15.497
504.02	15.092
504.36	15.475
504.71	15.610
505.06	16.237
505.40	16.425
505.75	15.154
506.09	16.052
506.44	15.930
506.78	15.170
507.13	15.754
507.47	16.012
507.82	16.302
508.16	16.805
508.51	16.184
508.85	16.144
509.19	15.859
509.54	16.553
509.88	16.857
510.23	16.667
510.57	15.830
510.92	16.683
511.26	16.014
511.61	16.199
511.95	16.426
512.30	16.700
512.64	16.719
512.98	16.812
513.33	17.213
513.67	16.779
514.02	16.779
514.36	16.978
514.70	16.640
515.05	16.729
515.39	16.776
515.74	17.933
516.08	17.375
516.42	17.978
516.77	17.440
517.11	17.333
517.46	17.188
517.80	17.695
518.14	17.915
518.49	18.026
518.83	16.538
519.17	17.859
519.52	17.859
519.86	17.439
520.20	18.356
520.55	17.694
520.89	18.161
521.23	18.633
521.58	18.302
521.92	18.134
522.26	18.128
522.61	18.598
522.95	19.039
523.29	17.895
523.64	18.208
523.98	17.782
524.32	18.224
524.66	18.725
525.01	18.225
525.35	18.032
525.69	18.784
526.04	19.631
526.38	18.776
526.72	17.661
527.06	18.569
527.41	19.105
527.75	18.503
528.09	18.964
528.43	19.463
528.78	19.141
529.12	18.844
529.46	17.884
529.80	17.757
530.15	18.680
530.49	18.351
530.83	18.708
531.17	18.081
531.51	18.700
531.86	18.357
532.20	18.665
532.54	19.083
532.88	18.801
533.22	18.769
533.57	18.670
533.91	17.774
534.25	17.542
534.59	17.719
534.93	18.089
535.27	17.075
535.62	17.970
535.96	18.085
536.30	18.221
536.64	17.826
536.98	18.376
537.32	18.938
537.66	19.005
538.01	18.700
538.35	18.653
538.69	17.840
539.03	17.662
539.37	17.718
539.71	18.457
540.05	18.092
540.39	18.491
540.73	19.304
541.07	18.005
541.42	18.408
541.76	18.311
542.10	18.249
542.44	18.828
542.78	18.313
543.12	18.528
543.46	18.609
543.80	19.236
544.14	18.390
544.48	18.370
544.82	18.654
545.16	17.911
545.50	19.176
545.84	18.434
546.18	19.636
546.52	19.541
546.86	18.698
547.20	17.959
547.54	19.063
547.88	19.161
548.22	17.547
548.56	18.209
548.90	17.319
549.24	18.383
549.58	19.072
549.92	19.122
550.26	17.782
550.60	18.629
550.94	19.539
551.28	18.759
551.62	20.069
551.96	20.203
552.30	18.194
552.64	18.252
552.98	17.848
553.32	18.246
553.66	18.176
554.00	18.726
554.34	18.575
554.68	19.153
555.02	19.009
555.36	19.282
555.69	17.801
556.03	18.790
556.37	18.611
556.71	19.166
557.05	18.152
557.39	18.867
557.73	19.744
558.07	18.981
558.41	19.260
558.75	18.878
559.08	19.585
559.42	20.186
559.76	19.886
560.10	18.995
560.44	18.182
560.78	19.373
561.12	19.008
561.45	18.085
561.79	18.102
562.13	18.636
562.47	18.689
562.81	18.412
563.15	19.586
563.48	17.888
563.82	18.278
564.16	18.470
564.50	17.661
564.84	18.663
565.17	18.122
565.51	19.027
565.85	18.014
566.19	18.214
566.52	18.111
566.86	19.381
567.20	17.528
567.54	17.085
567.88	17.319
568.21	15.926
568.55	16.732
568.89	15.785
569.23	15.617
569.56	15.335
569.90	15.056
570.24	14.446
570.57	13.822
570.91	13.323
571.25	13.405
571.59	13.142
571.92	12.863
572.26	12.561
572.60	12.524
572.93	13.140
573.27	13.067
573.61	12.886
573.95	12.600
574.28	12.797
574.62	12.459
574.96	11.958
575.29	12.158
575.63	12.014
575.97	11.879
576.30	12.528
576.64	12.479
576.98	12.282
577.31	12.542
577.65	11.787
577.98	11.353
578.32	11.545
578.66	11.372
578.99	12.125
579.33	11.908
579.67	12.116
580.00	11.603
580.34	11.600
580.67	11.633
581.01	12.157
581.35	11.668
581.68	11.175
582.02	11.404
582.35	11.293
582.69	11.562
583.02	11.395
583.36	11.538
583.70	12.082
584.03	12.677
584.37	12.367
584.70	12.540
585.04	12.110
585.37	11.790
585.71	12.247
586.04	11.734
586.38	11.803
586.72	12.741
587.05	12.892
587.39	12.440
587.72	12.174
588.06	12.069
588.39	12.487
588.73	12.503
589.06	12.752
589.40	13.459
589.73	12.979
590.07	13.795
590.40	13.798
590.73	14.286
591.07	14.725
591.40	13.972
591.74	14.570
592.07	13.686
592.41	14.868
592.74	13.768
593.08	13.542
593.41	12.537
593.75	12.416
594.08	12.781
594.41	13.001
594.75	13.459
595.08	13.340
595.42	13.594
595.75	13.360
596.09	13.903
596.42	13.802
596.75	14.663
597.09	13.950
597.42	14.449
597.75	14.158
598.09	14.362
598.42	13.994
598.76	14.379
599.09	13.902
599.42	13.287
599.76	13.840
600.09	13.119
600.42	13.398
600.76	13.018
601.09	13.290
601.42	13.833
601.76	13.391
602.09	13.650
602.42	14.048
602.76	13.700
603.09	14.065
603.42	14.018
603.76	13.015
604.09	12.848
604.42	13.446
604.76	13.829
605.09	13.918
605.42	14.303
605.75	14.528
606.09	13.542
606.42	13.792
606.75	13.914
607.09	13.897
607.42	13.861
607.75	14.570
608.08	13.851
608.42	13.884
608.75	14.249
609.08	14.562
609.41	15.000
609.75	15.522
610.08	14.928
610.41	15.020
610.74	14.113
611.07	15.734
611.41	15.292
611.74	15.535
612.07	15.173
612.40	14.912
612.73	15.427
613.07	16.067
613.40	15.589
613.73	15.527
614.06	14.700
614.39	15.657
614.72	15.419
615.06	14.936
615.39	15.248
615.72	15.005
616.05	15.922
616.38	15.221
616.71	16.278
617.05	15.870
617.38	16.180
617.71	16.535
618.04	16.209
618.37	16.231
618.70	15.531
619.03	16.484
619.36	16.960
619.69	17.150
620.03	17.808
620.36	16.827
620.69	17.433
621.02	18.546
621.35	18.052
621.68	19.100
622.01	19.114
622.34	17.189
622.67	18.539
623.00	17.971
623.33	18.151
623.66	17.498
623.99	18.630
624.32	18.022
624.65	16.985
624.99	17.579
625.32	18.170
625.65	18.207
625.98	17.085
626.31	18.917
626.64	18.223
626.97	18.822
627.30	18.944
627.63	19.623
627.96	18.701
628.29	19.637
628.62	19.589
628.95	21.277
629.28	21.209
629.61	21.178
629.94	20.398
630.26	20.884
630.59	22.163
630.92	21.345
631.25	20.943
631.58	22.565
631.91	21.123
632.24	21.866
632.57	20.923
632.90	23.602
633.23	22.980
633.56	22.445
633.89	22.615
634.22	23.681
634.55	22.366
634.88	24.096
635.20	24.215
635.53	24.158
635.86	23.826
636.19	22.896
636.52	22.595
636.85	21.899
637.18	23.077
637.51	22.793
637.83	23.341
638.16	24.736
638.49	23.593
638.82	24.178
639.15	22.797
639.48	25.000
639.81	23.199
640.13	25.153
640.46	26.549
640.79	25.098
641.12	22.835
641.45	25.485
641.77	25.627
642.10	25.167
642.43	26.458
642.76	25.284
643.09	26.081
643.41	26.928
643.74	27.914
644.07	27.434
644.40	25.888
644.73	28.228
645.05	27.043
645.38	28.025
645.71	28.376
646.04	28.244
646.36	25.039
646.69	26.720
647.02	26.720
647.35	28.189
647.67	26.904
648.00	27.524
648.33	27.669
648.66	24.242
648.98	23.913
649.31	24.966
649.64	23.651
649.96	23.898
650.29	26.714
650.62	27.393
650.94	28.313
651.27	28.708
651.60	27.543
651.92	27.343
652.25	26.142
652.58	26.099
652.90	27.395
653.23	24.372
653.56	25.668
653.88	23.789
654.21	27.273
654.54	25.037
654.86	25.369
655.19	23.483
655.52	17.547
655.84	9.405
656.17	9.853
656.49	14.078
656.82	16.057
657.15	12.624
657.47	9.603
657.80	7.308
658.13	5.921
658.45	8.457
658.78	10.570
659.10	11.011
659.43	11.739
659.75	13.234
660.08	15.288
660.41	18.966
660.73	21.706
661.06	24.775
661.38	28.620
661.71	28.058
662.03	28.897
662.36	30.476
662.68	26.816
663.01	28.288
663.33	29.434
663.66	29.389
663.98	30.754
664.31	31.530
664.63	30.077
664.96	31.144
665.28	29.002
665.61	27.358
665.93	27.547
666.26	29.346
666.58	29.908
666.91	31.660
667.23	28.112
667.56	29.774
667.88	30.083
668.21	30.123
668.53	31.048
668.86	28.858
669.18	29.328
669.50	29.545
669.83	29.158
670.15	29.730
670.48	27.344
670.80	30.279
671.13	28.486
671.45	29.459
671.77	28.757
672.10	25.314
672.42	25.658
672.75	24.842
673.07	26.073
673.39	23.642
673.72	25.952
674.04	25.627
674.37	28.494
674.69	26.022
675.01	27.612
675.34	25.194
675.66	32.227
675.98	26.824
676.31	28.400
676.63	28.827
676.95	28.571
677.28	27.586
677.60	28.571
677.92	26.190
678.25	26.163
678.57	28.678
678.89	30.018
679.22	27.390
679.54	24.377
679.86	26.702
680.18	26.714
680.51	23.715
680.83	23.480
681.15	26.170
681.48	27.604
681.80	26.095
682.12	27.336
682.44	24.144
682.77	27.224
683.09	27.379
683.41	27.551
683.73	26.575
684.06	28.770
684.38	28.682
684.70	25.360
685.02	25.521
685.34	25.704
685.67	24.437
685.99	22.496
686.31	23.729
686.63	24.553
686.96	24.510
687.28	24.664
687.60	24.573
687.92	24.288
688.24	27.069
688.56	26.690
688.89	24.474
689.21	27.168
689.53	30.435
689.85	26.829
690.17	26.602
690.49	26.411
690.82	28.361
691.14	26.263
691.46	28.131
691.78	27.096
692.10	28.244
692.42	26.134
692.74	27.519
693.06	27.132
693.39	23.320
693.71	25.933
694.03	26.233
694.35	28.514
694.67	28.106
694.99	27.716
695.31	29.054
695.63	26.923
695.95	26.697
696.27	31.195
696.59	28.640
696.91	28.861
697.23	28.281
697.56	26.556
697.88	23.952
698.20	24.340
698.52	23.541
698.84	28.542
699.16	26.652
699.48	27.119
699.80	32.680
700.12	31.640
700.44	29.439
700.76	31.265
701.08	29.243
701.40	30.130
701.72	35.027
702.04	30.352
702.36	31.183
702.68	33.245
703.00	26.817
703.32	30.521
703.64	28.715
703.96	29.167
704.28	32.275
704.60	33.521
704.91	29.692
705.23	36.364
705.55	33.828
705.87	33.016
706.19	36.050
706.51	38.245
706.83	36.283
707.15	31.016
707.47	27.119
707.79	25.517
708.11	26.077
708.43	25.843
708.74	27.602
709.06	27.907
709.38	28.536
709.70	29.428
710.02	31.250
710.34	27.072
710.66	31.389
710.98	33.333
711.29	32.033
711.61	34.262
711.93	28.267
712.25	28.916
712.57	32.154
712.89	31.515
713.20	36.102
713.52	33.333
713.84	31.420
714.16	29.275
714.48	28.242
714.80	30.623
715.11	29.521
715.43	27.654
715.75	28.732
716.07	31.214
716.39	29.429
716.70	31.464
717.02	32.660
717.34	37.050
717.66	40.278
717.97	40.152
718.29	36.620
718.61	32.095
718.93	31.834
719.24	33.893
719.56	32.414
719.88	27.389
720.20	29.677
720.51	31.046
720.83	32.776
721.15	35.034
721.46	35.616
721.78	31.359
722.10	34.028
722.42	37.458
722.73	31.408
723.05	35.439
723.37	40.636
723.68	33.984
724.00	32.955
724.32	34.981
724.63	31.923
724.95	36.078
725.27	32.714
725.58	31.250
725.90	30.986
726.22	26.712
726.53	29.431
726.85	31.922
727.16	35.906
727.48	31.894
727.80	30.216
728.11	31.071
728.43	33.696
728.74	28.671
729.06	26.165
729.38	35.088
729.69	35.333
730.01	33.882
730.32	32.886
730.64	30.897
730.96	30.631
731.27	26.300
731.59	25.000
731.90	25.905
732.22	27.143
732.53	25.356
732.85	30.702
733.16	25.000
733.48	28.840
733.80	27.826
734.11	30.982
734.43	23.977
734.74	24.665
735.06	27.513
735.37	25.773
735.69	25.217
736.00	28.135
736.32	25.152
736.63	24.606
736.95	24.224
737.26	32.317
737.58	29.755
737.89	25.602
738.21	31.126
738.52	29.431
738.83	30.769
739.15	29.617
739.46	32.069
739.78	28.912
740.09	33.236
740.41	27.607
740.72	28.571
741.04	31.119
741.35	38.672
741.66	30.830
741.98	36.052
742.29	37.037
742.61	35.841
742.92	30.508
743.23	31.600
743.55	32.075
743.86	30.588
744.18	30.085
744.49	40.496
744.80	34.562
745.12	37.500
745.43	36.916
745.74	39.111
746.06	35.965
746.37	33.953
746.68	38.938
747.00	37.220
747.31	36.134
747.62	32.787
747.94	32.618
748.25	34.241
748.56	36.864
748.88	33.929
749.19	33.488
749.50	35.616
749.82	33.745
750.13	30.435
750.44	31.667
750.75	29.530
751.07	30.921
751.38	29.373
751.69	28.956
752.01	26.923
752.32	28.239
752.63	34.899
752.94	30.420
753.26	33.594
753.57	36.965
753.88	30.712
754.19	28.520
754.51	32.226
754.82	29.195
755.13	30.068
755.44	34.074
755.75	31.615
756.07	30.479
756.38	29.412
756.69	27.813
757.00	28.190
757.31	28.451
757.63	24.793
757.94	22.872
758.25	25.121
758.56	24.256
758.87	24.311
759.18	28.488
759.50	27.964
759.81	30.564
760.12	25.562
760.43	25.770
760.74	23.797
761.05	23.342
761.36	22.396
761.67	25.067
761.99	26.761
762.30	27.653
762.61	27.778
762.92	29.545
763.23	30.566
763.54	31.538
763.85	31.518
764.16	29.861
764.47	28.041
764.78	29.642
765.10	28.049
765.41	23.580
765.72	23.757
766.03	26.586
766.34	26.132
766.65	28.137
766.96	32.389
767.27	39.720
767.58	35.644
767.89	43.646
768.20	41.463
768.51	32.653
768.82	35.965
769.13	33.333
769.44	29.323
769.75	31.086
770.06	31.933
770.37	32.456
770.68	31.556
770.99	30.085
771.30	30.126
771.61	28.077
771.92	28.626
772.23	27.823
772.54	34.667
772.85	37.624
773.16	38.043
773.47	40.000
773.78	34.158
774.09	43.182
774.39	39.394
774.70	40.000
775.01	32.895
775.32	36.646
775.63	47.260
775.94	45.679
776.25	45.517
776.56	50.382
776.87	48.855
777.18	44.697
777.48	48.031
777.79	48.462
778.10	50.000
778.41	50.000
778.72	45.113
779.03	39.103
779.34	44.595
779.65	38.509
779.95	42.857
780.26	29.762
780.57	55.782
780.88	49.645
781.19	55.833
781.50	43.787
781.80	36.612
782.11	37.566
782.42	36.207
782.73	37.288
783.04	43.871
783.34	34.109
783.65	43.537
783.96	44.516
784.27	38.411
784.57	36.842
784.88	43.478
785.19	45.000
785.50	50.000
785.81	49.612
786.11	45.185
786.42	40.945
786.73	40.541
787.04	53.774
787.34	41.463
787.65	51.515
787.96	51.515
788.26	46.457
788.57	47.445
788.88	38.028
789.19	41.221
789.49	43.919
789.80	44.531
790.11	49.587
790.41	49.074
790.72	49.074
791.03	49.038
791.33	62.626
791.64	48.421
791.95	60.000
792.25	43.750
792.56	49.000
792.87	65.854
793.17	50.000
793.48	58.824
793.79	57.471
794.09	62.500
794.40	57.759
794.70	47.619
795.01	40.769
795.32	39.695
795.62	43.590
795.93	46.218
796.23	52.033
796.54	57.143
796.85	59.091
797.15	59.740
797.46	76.829
797.76	53.750
798.07	62.667
798.37	77.500
798.68	83.750
798.99	69.512
799.29	69.333
799.60	53.488
799.90	50.000
800.21	84.848
800.51	70.423
800.82	89.655
801.12	66.154
801.43	70.667
801.73	75.862
802.04	62.338
802.34	69.863
802.65	88.235
802.95	73.913
803.26	98.387
803.56	85.000
803.87	91.045
804.17	71.429
804.48	83.019
804.78	66.667
805.09	71.212
805.39	77.778
805.70	84.211
806.00	65.714
806.30	78.125
806.61	61.176
806.91	61.111
807.22	55.435
807.52	61.842
807.83	86.842
808.13	75.362
808.43	69.355
808.74	83.562
809.04	75.000
809.35	76.471
809.65	75.758
809.95	80.392
810.26	111.111
810.56	90.625
810.86	89.796
811.17	80.702
811.47	78.261
811.77	79.310
812.08	96.552
812.38	95.238
812.69	123.810
812.99	86.667
813.29	125.714
813.59	129.032
813.90	86.207
814.20	77.049
814.50	80.000
814.81	63.158
815.11	100.000
815.41	87.500
815.72	101.786
816.02	108.000
816.32	100.000
816.62	77.586
816.93	106.061
817.23	107.317
817.53	107.143
817.84	80.000
818.14	100.000
818.44	116.667
818.74	88.679
819.04	76.923
819.35	151.515
819.65	119.231
819.95	98.148
820.25	104.255
820.56	121.622
820.86	102.632
821.16	93.617
821.46	115.789
821.76	101.818
822.07	78.571
822.37	89.474
822.67	116.279
822.97	105.263
823.27	123.913
823.57	115.625
823.88	102.564
824.18	87.879
824.48	121.739
824.78	108.333
825.08	156.522
825.38	113.793
825.69	117.647
825.99	82.979
826.29	91.667
826.59	117.143
826.89	126.667
827.19	105.714
827.49	161.290
827.79	150.000
828.09	88.095
828.39	111.111
828.70	100.000
829.00	128.571
829.30	243.750
829.60	94.444
829.90	125.806
830.20	121.212
830.50	110.811
830.80	170.833
831.10	176.923
831.40	152.381
831.70	200.000
832.00	116.667
832.30	169.565
832.60	191.667
832.90	160.606
833.20	230.000
833.50	134.211
833.80	132.353
834.10	115.789
834.40	168.421
834.70	86.667
835.00	160.000
835.30	94.595
835.60	159.375
835.90	159.459
836.20	169.231
836.50	131.818
836.80	109.756
837.10	147.826
837.40	338.462
837.70	226.316
838.00	146.667
838.30	158.333
838.60	132.000
838.90	440.000
839.19	237.500
839.49	123.333
839.79	172.414
840.09	169.231
840.39	220.000
840.69	210.526
840.99	147.619
841.29	156.522
841.59	205.000
841.88	196.000
842.18	411.111
842.48	150.000
842.78	155.556
843.08	284.615
843.38	168.182
843.68	328.571
843.97	485.714
844.27	178.261
844.57	1650.000
844.87	164.286
845.17	250.000
845.47	133.333
845.76	200.000
846.06	614.286
846.36	235.294
846.66	361.538
846.96	287.500
847.25	246.154
847.55	257.895
847.85	238.889
848.15	720.000
848.44	281.818
848.74	176.190
849.04	166.667
849.34	229.412
849.63	187.500
849.93	243.750
850.23	1000.000
850.53	537.500
850.82	281.818
851.12	247.059
851.42	220.833
851.71	200.000
852.01	0.000
852.31	235.294
852.61	400.000
852.90	166.667
853.20	377.778
853.50	-2700.000
853.79	152.000
854.09	146.875
854.39	134.483
854.68	168.966
854.98	200.000
855.28	116.129
855.57	207.143
855.87	222.222
856.17	148.148
856.46	157.895
856.76	129.032
857.05	252.941
857.35	263.636
857.65	246.154
857.94	190.000
858.24	377.778
858.53	292.857
858.83	557.143
859.13	182.609
859.42	322.222
859.72	387.500
860.01	258.333
860.31	875.000
860.60	330.000
860.90	362.500
861.20	315.385
861.49	500.000
861.79	-3800.000
862.08	557.143
862.38	311.111
862.67	314.286
862.97	360.000
863.26	136.667
863.56	750.000
863.85	284.615
864.15	300.000
864.44	227.778
864.74	391.667
865.03	318.182
865.33	450.000
865.62	206.667
865.92	600.000
866.21	1000.000
866.51	880.000
866.80	261.111
867.10	1133.333
867.39	4200.000
867.69	800.000
867.98	750.000
868.27	171.429
868.57	226.667
868.86	1050.000
869.16	152.381
869.45	2700.000
869.75	-650.000
870.04	675.000
870.33	700.000
870.63	437.500
870.92	188.235
871.22	900.000
871.51	500.000
871.80	333.333
872.10	292.308
>>>>>End Processed Spectral Data<<<<<
