SpectraSuite Data File
++++++++++++++++++++++++++++++++++++
Date: Tue May 12 16:02:43 PDT 2015
User: schluterlab
Dark Spectrum Present: Yes
Reference Spectrum Present: Yes
Number of Sampled Component Spectra: 1
Spectrometers: USB2E3373
Integration Time (usec): 3000 (USB2E3373)
Spectra Averaged: 3 (USB2E3373)
Boxcar Smoothing: 0 (USB2E3373)
Correct for Electrical Dark: No (USB2E3373)
Strobe/Lamp Enabled: No (USB2E3373)
Correct for Detector Non-linearity: No (USB2E3373)
Correct for Stray Light: No (USB2E3373)
Number of Pixels in Processed Spectrum: 2048
>>>>>Begin Processed Spectral Data<<<<<
178.53	0.000
178.91	-258.333
179.29	-725.000
179.67	-4200.000
180.04	-126.667
180.42	500.000
180.80	1700.000
181.18	0.000
181.56	-437.500
181.94	0.000
182.31	1166.667
182.69	-3400.000
183.07	657.143
183.45	-3200.000
183.83	-1850.000
184.20	480.000
184.58	642.857
184.96	-184.615
185.34	-175.000
185.72	1350.000
186.09	-725.000
186.47	-3500.000
186.85	1066.667
187.23	680.000
187.61	1600.000
187.98	500.000
188.36	228.571
188.74	341.667
189.12	333.333
189.49	925.000
189.87	0.000
190.25	475.000
190.63	2700.000
191.00	-241.667
191.38	-3600.000
191.76	-775.000
192.14	575.000
192.51	-2700.000
192.89	1850.000
193.27	1200.000
193.65	-766.667
194.02	-880.000
194.40	485.714
194.78	-157.143
195.15	246.667
195.53	-3300.000
195.91	-560.000
196.29	4200.000
196.66	250.000
197.04	675.000
197.42	-1850.000
197.79	900.000
198.17	350.000
198.55	0.000
198.92	471.429
199.30	1233.333
199.68	2100.000
200.05	666.667
200.43	-533.333
200.81	211.111
201.18	4200.000
201.56	233.333
201.94	-675.000
202.31	-275.000
202.69	-520.000
203.07	3600.000
203.44	-483.333
203.82	350.000
204.19	500.000
204.57	-1300.000
204.95	-900.000
205.32	-700.000
205.70	566.667
206.08	775.000
206.45	-1133.333
206.83	288.889
207.20	157.895
207.58	333.333
207.96	700.000
208.33	0.000
208.71	714.286
209.08	640.000
209.46	-2900.000
209.84	-1100.000
210.21	860.000
210.59	-640.000
210.96	300.000
211.34	-625.000
211.71	436.364
212.09	950.000
212.46	1700.000
212.84	-400.000
213.22	511.111
213.59	-2800.000
213.97	290.000
214.34	825.000
214.72	1266.667
215.09	1266.667
215.47	-3200.000
215.84	-370.000
216.22	-375.000
216.59	0.000
216.97	0.000
217.34	1900.000
217.72	-1550.000
218.09	1433.333
218.47	525.000
218.84	1000.000
219.22	1133.333
219.59	833.333
219.97	585.714
220.34	422.222
220.72	1700.000
221.09	3900.000
221.47	366.667
221.84	1166.667
222.22	380.000
222.59	266.667
222.97	271.429
223.34	293.750
223.72	-2100.000
224.09	1100.000
224.46	269.231
224.84	-700.000
225.21	411.111
225.59	266.667
225.96	1533.333
226.34	-700.000
226.71	-900.000
227.08	-520.000
227.46	0.000
227.83	-566.667
228.21	-1350.000
228.58	291.667
228.95	1000.000
229.33	411.111
229.70	1175.000
230.08	407.692
230.45	2800.000
230.82	-875.000
231.20	-600.000
231.57	-1033.333
231.95	420.000
232.32	208.333
232.69	633.333
233.07	275.000
233.44	-1300.000
233.81	240.000
234.19	140.741
234.56	193.750
234.93	229.412
235.31	170.000
235.68	293.750
236.05	153.571
236.43	151.852
236.80	207.143
237.17	172.414
237.55	125.000
237.92	97.500
238.29	124.242
238.67	125.000
239.04	117.073
239.41	64.583
239.79	72.500
240.16	60.417
240.53	50.820
240.91	49.275
241.28	57.627
241.65	51.515
242.02	61.972
242.40	58.571
242.77	39.560
243.14	34.177
243.51	47.475
243.89	39.252
244.26	28.037
244.63	39.604
245.00	37.615
245.38	29.661
245.75	27.273
246.12	32.593
246.49	27.660
246.87	21.311
247.24	28.000
247.61	20.000
247.98	17.687
248.36	16.970
248.73	25.510
249.10	19.048
249.47	19.500
249.84	14.428
250.22	18.919
250.59	15.500
250.96	19.831
251.33	14.419
251.70	19.196
252.08	14.706
252.45	13.944
252.82	15.970
253.19	13.834
253.56	16.923
253.94	15.217
254.31	12.403
254.68	14.286
255.05	14.483
255.42	15.693
255.79	14.332
256.16	13.220
256.54	11.039
256.91	11.765
257.28	9.699
257.65	10.658
258.02	12.389
258.39	11.175
258.76	13.623
259.14	10.286
259.51	13.994
259.88	10.942
260.25	9.341
260.62	13.151
260.99	9.091
261.36	10.864
261.73	9.043
262.10	12.565
262.47	9.500
262.85	8.800
263.22	11.825
263.59	12.020
263.96	12.782
264.33	7.654
264.70	11.794
265.07	9.512
265.44	11.009
265.81	8.726
266.18	10.297
266.55	7.329
266.92	8.501
267.29	10.526
267.66	9.641
268.03	6.726
268.40	8.457
268.77	10.132
269.14	5.857
269.51	9.131
269.88	10.816
270.25	7.991
270.62	8.369
270.99	11.359
271.36	9.553
271.73	6.289
272.10	6.667
272.47	7.540
272.84	9.182
273.21	8.471
273.58	10.526
273.95	5.544
274.32	7.393
274.69	9.055
275.06	9.654
275.43	7.471
275.80	7.547
276.17	8.456
276.54	10.467
276.91	8.769
277.28	6.934
277.65	7.565
278.02	7.904
278.39	7.734
278.76	7.241
279.13	8.007
279.50	7.818
279.87	7.449
280.23	5.341
280.60	4.380
280.97	7.069
281.34	7.261
281.71	7.130
282.08	6.154
282.45	5.743
282.82	6.689
283.19	6.518
283.56	5.289
283.92	7.655
284.29	6.156
284.66	5.210
285.03	6.799
285.40	8.099
285.77	4.784
286.14	7.121
286.51	7.055
286.87	4.430
287.24	4.354
287.61	6.231
287.98	7.313
288.35	6.074
288.72	5.615
289.08	7.808
289.45	7.470
289.82	6.562
290.19	6.296
290.56	6.405
290.93	5.899
291.29	5.387
291.66	5.932
292.03	6.452
292.40	7.046
292.77	5.850
293.13	6.562
293.50	5.803
293.87	3.930
294.24	6.434
294.60	7.133
294.97	6.014
295.34	5.976
295.71	5.913
296.08	7.200
296.44	6.480
296.81	5.211
297.18	5.196
297.55	5.542
297.91	5.049
298.28	5.435
298.65	5.767
299.02	6.031
299.38	6.595
299.75	6.463
300.12	5.734
300.48	6.792
300.85	5.006
301.22	6.395
301.59	4.599
301.95	3.967
302.32	5.355
302.69	5.090
303.05	6.285
303.42	5.605
303.79	5.309
304.15	4.950
304.52	5.285
304.89	5.330
305.25	6.563
305.62	5.544
305.99	4.130
306.35	4.842
306.72	5.411
307.09	5.176
307.45	4.118
307.82	5.453
308.19	5.464
308.55	4.400
308.92	5.692
309.29	6.509
309.65	4.361
310.02	4.868
310.38	5.184
310.75	4.918
311.12	4.598
311.48	6.081
311.85	5.630
312.22	6.399
312.58	5.053
312.95	5.728
313.31	5.993
313.68	5.066
314.05	5.769
314.41	5.028
314.78	4.451
315.14	5.403
315.51	6.149
315.87	4.927
316.24	6.162
316.61	5.372
316.97	5.138
317.34	6.828
317.70	6.058
318.07	6.495
318.43	6.503
318.80	6.567
319.16	6.294
319.53	5.664
319.89	5.824
320.26	7.263
320.62	5.952
320.99	6.006
321.35	6.865
321.72	6.641
322.08	7.572
322.45	7.175
322.81	6.038
323.18	6.838
323.54	8.101
323.91	7.434
324.27	7.427
324.64	6.055
325.00	7.414
325.37	6.661
325.73	7.167
326.10	8.285
326.46	6.276
326.83	6.560
327.19	7.470
327.56	7.588
327.92	7.131
328.29	7.856
328.65	7.962
329.01	6.843
329.38	8.291
329.74	7.088
330.11	7.211
330.47	9.292
330.84	7.420
331.20	8.291
331.56	8.117
331.93	7.956
332.29	5.527
332.66	7.823
333.02	7.131
333.38	7.766
333.75	8.757
334.11	7.466
334.48	7.094
334.84	7.432
335.20	7.528
335.57	7.809
335.93	7.485
336.29	7.463
336.66	7.719
337.02	6.672
337.38	7.567
337.75	7.095
338.11	7.932
338.47	7.959
338.84	7.790
339.20	5.368
339.56	6.981
339.93	7.023
340.29	6.471
340.65	6.790
341.02	8.126
341.38	7.718
341.74	6.478
342.11	5.927
342.47	6.809
342.83	6.973
343.20	7.276
343.56	5.957
343.92	6.441
344.28	7.576
344.65	7.172
345.01	6.825
345.37	6.410
345.73	7.302
346.10	7.331
346.46	6.778
346.82	5.478
347.19	7.264
347.55	6.011
347.91	6.647
348.27	6.042
348.63	6.883
349.00	6.550
349.36	6.381
349.72	6.575
350.08	7.298
350.45	5.941
350.81	6.881
351.17	5.470
351.53	6.390
351.89	6.061
352.26	5.896
352.62	5.581
352.98	6.365
353.34	7.627
353.70	6.040
354.07	6.385
354.43	6.221
354.79	6.226
355.15	6.738
355.51	5.891
355.87	6.702
356.24	6.390
356.60	5.936
356.96	6.823
357.32	6.933
357.68	6.681
358.04	6.383
358.40	7.346
358.77	6.236
359.13	5.856
359.49	5.930
359.85	5.957
360.21	6.018
360.57	6.058
360.93	5.916
361.29	6.421
361.66	5.891
362.02	5.966
362.38	5.772
362.74	6.157
363.10	6.381
363.46	6.008
363.82	6.452
364.18	6.330
364.54	6.652
364.90	6.627
365.26	5.899
365.62	5.870
365.98	5.919
366.35	5.310
366.71	5.690
367.07	5.666
367.43	6.447
367.79	5.918
368.15	4.749
368.51	5.858
368.87	5.435
369.23	4.990
369.59	6.406
369.95	6.364
370.31	6.092
370.67	6.176
371.03	6.723
371.39	6.371
371.75	5.373
372.11	6.934
372.47	6.507
372.83	5.235
373.19	7.539
373.55	6.460
373.91	5.456
374.27	6.085
374.63	5.763
374.99	6.334
375.35	6.519
375.71	6.135
376.07	6.167
376.42	5.946
376.78	6.358
377.14	6.619
377.50	6.242
377.86	5.701
378.22	5.911
378.58	6.477
378.94	6.457
379.30	5.943
379.66	6.141
380.02	6.569
380.38	6.030
380.74	6.632
381.09	6.776
381.45	6.301
381.81	6.028
382.17	6.777
382.53	6.179
382.89	6.446
383.25	6.157
383.61	6.628
383.97	6.479
384.32	6.811
384.68	7.130
385.04	6.213
385.40	6.109
385.76	7.022
386.12	6.926
386.48	6.565
386.83	6.051
387.19	6.243
387.55	6.302
387.91	6.697
388.27	6.425
388.62	7.336
388.98	6.239
389.34	6.187
389.70	5.660
390.06	6.646
390.42	7.094
390.77	7.187
391.13	5.794
391.49	6.655
391.85	7.015
392.20	6.973
392.56	6.750
392.92	5.952
393.28	6.390
393.64	6.135
393.99	6.283
394.35	6.121
394.71	6.514
395.07	6.326
395.42	6.733
395.78	7.403
396.14	7.048
396.50	6.558
396.85	6.768
397.21	6.318
397.57	6.216
397.92	5.777
398.28	5.571
398.64	6.864
399.00	6.574
399.35	6.334
399.71	6.291
400.07	6.164
400.42	6.388
400.78	6.393
401.14	6.577
401.49	5.760
401.85	5.620
402.21	5.858
402.57	5.984
402.92	6.000
403.28	5.728
403.63	6.180
403.99	5.911
404.35	6.682
404.70	5.729
405.06	6.457
405.42	5.745
405.77	5.954
406.13	6.670
406.49	6.310
406.84	6.543
407.20	6.393
407.55	6.215
407.91	5.999
408.27	5.943
408.62	6.742
408.98	6.091
409.34	6.254
409.69	6.409
410.05	5.188
410.40	5.300
410.76	5.495
411.11	5.865
411.47	6.358
411.83	5.741
412.18	5.918
412.54	6.066
412.89	6.195
413.25	6.499
413.60	5.841
413.96	5.625
414.31	5.785
414.67	6.145
415.03	5.492
415.38	6.183
415.74	5.496
416.09	6.371
416.45	6.787
416.80	6.671
417.16	5.920
417.51	5.605
417.87	5.194
418.22	5.346
418.58	5.987
418.93	5.532
419.29	5.360
419.64	6.420
420.00	6.623
420.35	5.807
420.71	5.601
421.06	5.297
421.42	5.584
421.77	5.719
422.12	5.678
422.48	5.598
422.83	5.971
423.19	5.562
423.54	5.376
423.90	5.663
424.25	5.669
424.61	6.152
424.96	4.969
425.31	5.802
425.67	5.387
426.02	5.777
426.38	5.426
426.73	5.147
427.09	6.109
427.44	4.727
427.79	5.146
428.15	6.246
428.50	6.171
428.85	6.290
429.21	5.727
429.56	5.833
429.92	6.017
430.27	5.660
430.62	5.678
430.98	4.940
431.33	4.990
431.68	4.938
432.04	5.691
432.39	5.763
432.74	6.499
433.10	5.039
433.45	5.686
433.80	5.626
434.16	5.570
434.51	5.676
434.86	6.042
435.22	4.808
435.57	5.453
435.92	5.805
436.28	6.797
436.63	6.321
436.98	6.532
437.34	5.993
437.69	5.375
438.04	5.914
438.39	6.130
438.75	5.624
439.10	5.343
439.45	5.822
439.81	5.957
440.16	5.889
440.51	5.687
440.86	6.097
441.22	6.223
441.57	5.669
441.92	5.676
442.27	5.567
442.63	5.589
442.98	5.819
443.33	6.213
443.68	5.734
444.03	5.419
444.39	5.414
444.74	5.849
445.09	5.687
445.44	5.526
445.79	4.873
446.15	5.474
446.50	5.643
446.85	6.225
447.20	4.776
447.55	5.383
447.91	6.074
448.26	6.390
448.61	5.804
448.96	6.046
449.31	5.336
449.66	5.869
450.02	5.402
450.37	5.830
450.72	6.116
451.07	6.225
451.42	5.809
451.77	5.842
452.12	6.069
452.47	6.258
452.83	5.690
453.18	6.607
453.53	6.572
453.88	6.343
454.23	6.392
454.58	6.469
454.93	5.763
455.28	5.998
455.63	5.969
455.98	5.979
456.34	6.261
456.69	6.341
457.04	5.788
457.39	6.171
457.74	7.038
458.09	5.671
458.44	5.750
458.79	5.782
459.14	5.456
459.49	6.795
459.84	5.815
460.19	5.819
460.54	6.382
460.89	6.023
461.24	6.014
461.59	5.952
461.94	5.615
462.29	5.950
462.64	6.533
462.99	6.590
463.34	6.481
463.69	6.594
464.04	6.563
464.39	6.640
464.74	5.217
465.09	6.268
465.44	6.094
465.79	5.607
466.14	5.988
466.49	5.643
466.84	5.686
467.19	7.323
467.54	6.607
467.89	6.573
468.24	5.964
468.59	6.190
468.94	6.280
469.29	6.109
469.64	6.495
469.99	6.812
470.34	6.072
470.68	6.690
471.03	5.203
471.38	5.894
471.73	5.879
472.08	6.523
472.43	6.890
472.78	6.402
473.13	5.882
473.48	6.051
473.83	6.125
474.17	6.383
474.52	6.754
474.87	5.514
475.22	6.453
475.57	6.086
475.92	5.723
476.27	5.441
476.61	6.059
476.96	6.426
477.31	5.604
477.66	6.227
478.01	6.498
478.36	6.025
478.70	5.608
479.05	5.335
479.40	5.407
479.75	6.256
480.10	5.954
480.45	5.415
480.79	5.853
481.14	4.945
481.49	5.261
481.84	5.541
482.19	5.764
482.53	5.665
482.88	5.197
483.23	5.187
483.58	5.521
483.92	6.444
484.27	5.865
484.62	6.239
484.97	5.454
485.31	4.883
485.66	4.929
486.01	4.781
486.36	4.692
486.70	4.521
487.05	4.873
487.40	4.843
487.75	5.342
488.09	5.028
488.44	5.131
488.79	5.380
489.13	5.226
489.48	5.993
489.83	5.379
490.17	5.367
490.52	5.211
490.87	6.078
491.22	5.363
491.56	6.412
491.91	5.780
492.26	5.167
492.60	5.649
492.95	5.618
493.30	5.505
493.64	5.121
493.99	5.411
494.34	5.648
494.68	5.622
495.03	6.017
495.37	6.213
495.72	5.641
496.07	5.166
496.41	6.082
496.76	6.121
497.11	5.527
497.45	6.313
497.80	6.395
498.14	6.380
498.49	6.221
498.84	6.262
499.18	5.256
499.53	6.247
499.87	5.660
500.22	5.712
500.56	5.385
500.91	5.705
501.26	5.742
501.60	5.647
501.95	5.242
502.29	5.600
502.64	6.131
502.98	5.736
503.33	5.924
503.67	5.916
504.02	5.732
504.36	5.430
504.71	5.866
505.06	6.147
505.40	5.943
505.75	6.080
506.09	7.000
506.44	6.297
506.78	6.002
507.13	5.381
507.47	6.114
507.82	6.861
508.16	6.761
508.51	6.377
508.85	6.410
509.19	5.678
509.54	6.885
509.88	6.813
510.23	6.275
510.57	5.936
510.92	6.394
511.26	5.974
511.61	6.253
511.95	6.322
512.30	5.800
512.64	5.452
512.98	6.817
513.33	6.096
513.67	6.732
514.02	5.766
514.36	6.023
514.70	5.813
515.05	6.127
515.39	5.811
515.74	6.178
516.08	6.046
516.42	6.393
516.77	6.133
517.11	6.880
517.46	6.627
517.80	6.008
518.14	7.042
518.49	6.395
518.83	6.484
519.17	6.656
519.52	6.663
519.86	6.322
520.20	7.233
520.55	6.727
520.89	5.747
521.23	6.717
521.58	7.057
521.92	6.297
522.26	6.517
522.61	6.833
522.95	6.667
523.29	6.667
523.64	5.896
523.98	6.455
524.32	5.882
524.66	6.029
525.01	5.680
525.35	6.187
525.69	7.164
526.04	6.722
526.38	6.886
526.72	6.026
527.06	6.387
527.41	7.255
527.75	6.756
528.09	6.442
528.43	6.833
528.78	6.321
529.12	7.104
529.46	6.897
529.80	6.776
530.15	6.718
530.49	5.836
530.83	6.338
531.17	6.335
531.51	7.357
531.86	6.341
532.20	6.799
532.54	6.529
532.88	6.558
533.22	6.947
533.57	6.589
533.91	5.886
534.25	6.463
534.59	6.667
534.93	6.655
535.27	5.919
535.62	7.235
535.96	6.856
536.30	6.642
536.64	6.025
536.98	6.293
537.32	6.937
537.66	6.696
538.01	7.059
538.35	6.987
538.69	6.250
539.03	5.784
539.37	6.432
539.71	6.111
540.05	6.338
540.39	6.855
540.73	6.582
541.07	6.085
541.42	6.592
541.76	6.720
542.10	6.905
542.44	6.359
542.78	6.356
543.12	6.135
543.46	6.391
543.80	7.331
544.14	7.183
544.48	7.360
544.82	6.789
545.16	6.254
545.50	6.577
545.84	7.449
546.18	7.152
546.52	6.951
546.86	6.770
547.20	7.041
547.54	6.966
547.88	6.873
548.22	6.436
548.56	7.130
548.90	7.117
549.24	7.202
549.58	7.410
549.92	6.745
550.26	6.761
550.60	6.853
550.94	6.649
551.28	7.172
551.62	7.103
551.96	7.027
552.30	6.328
552.64	7.702
552.98	5.735
553.32	6.338
553.66	5.928
554.00	6.950
554.34	7.124
554.68	6.788
555.02	6.449
555.36	6.715
555.69	6.348
556.03	7.707
556.37	7.075
556.71	7.888
557.05	6.619
557.39	7.000
557.73	7.345
558.07	7.243
558.41	6.717
558.75	7.250
559.08	7.219
559.42	7.087
559.76	7.484
560.10	6.951
560.44	7.697
560.78	7.545
561.12	7.184
561.45	6.383
561.79	7.054
562.13	5.938
562.47	5.970
562.81	6.962
563.15	6.529
563.48	6.025
563.82	6.987
564.16	7.152
564.50	6.510
564.84	6.869
565.17	6.774
565.51	6.958
565.85	6.786
566.19	6.964
566.52	6.137
566.86	6.538
567.20	6.966
567.54	6.386
567.88	6.990
568.21	6.191
568.55	6.372
568.89	6.159
569.23	5.997
569.56	6.030
569.90	5.785
570.24	5.826
570.57	5.775
570.91	5.148
571.25	5.308
571.59	5.415
571.92	5.517
572.26	5.148
572.60	5.360
572.93	5.348
573.27	5.629
573.61	5.198
573.95	5.154
574.28	5.526
574.62	5.123
574.96	5.289
575.29	5.298
575.63	5.041
575.97	5.258
576.30	5.113
576.64	5.546
576.98	5.154
577.31	5.330
577.65	5.206
577.98	4.907
578.32	4.975
578.66	4.918
578.99	5.349
579.33	5.097
579.67	5.308
580.00	5.182
580.34	5.118
580.67	5.302
581.01	5.267
581.35	5.267
581.68	5.099
582.02	4.952
582.35	4.969
582.69	5.224
583.02	5.154
583.36	5.210
583.70	5.234
584.03	5.319
584.37	5.401
584.70	5.424
585.04	5.163
585.37	4.869
585.71	5.438
586.04	5.132
586.38	5.075
586.72	5.225
587.05	5.378
587.39	5.360
587.72	5.172
588.06	5.140
588.39	5.092
588.73	5.121
589.06	5.398
589.40	5.352
589.73	5.605
590.07	5.079
590.40	5.679
590.73	6.096
591.07	6.224
591.40	5.469
591.74	5.844
592.07	5.408
592.41	6.315
592.74	5.236
593.08	4.915
593.41	5.416
593.75	4.861
594.08	5.359
594.41	5.474
594.75	5.651
595.08	5.556
595.42	5.662
595.75	5.429
596.09	5.561
596.42	5.426
596.75	5.689
597.09	6.067
597.42	5.755
597.75	5.639
598.09	5.334
598.42	5.794
598.76	5.436
599.09	6.032
599.42	5.536
599.76	5.665
600.09	5.593
600.42	5.352
600.76	5.133
601.09	5.316
601.42	5.385
601.76	5.227
602.09	5.519
602.42	5.397
602.76	5.617
603.09	4.940
603.42	6.018
603.76	5.387
604.09	5.501
604.42	5.198
604.76	5.768
605.09	5.510
605.42	5.689
605.75	5.922
606.09	5.432
606.42	5.975
606.75	5.558
607.09	5.922
607.42	5.424
607.75	5.653
608.08	5.240
608.42	5.789
608.75	5.092
609.08	5.411
609.41	5.955
609.75	5.678
610.08	6.295
610.41	5.621
610.74	5.801
611.07	5.957
611.41	6.163
611.74	5.832
612.07	6.166
612.40	5.604
612.73	5.791
613.07	6.386
613.40	6.015
613.73	5.941
614.06	5.500
614.39	5.657
614.72	5.676
615.06	5.638
615.39	5.891
615.72	5.760
616.05	6.278
616.38	5.987
616.71	5.697
617.05	6.150
617.38	5.843
617.71	5.849
618.04	5.777
618.37	5.725
618.70	6.062
619.03	5.983
619.36	6.910
619.69	6.596
620.03	7.045
620.36	5.202
620.69	6.705
621.02	5.774
621.35	5.587
621.68	6.932
622.01	6.937
622.34	5.681
622.67	7.093
623.00	6.331
623.33	6.613
623.66	5.389
623.99	6.233
624.32	5.623
624.65	6.649
624.99	6.491
625.32	6.747
625.65	6.000
625.98	6.834
626.31	6.157
626.64	6.454
626.97	6.274
627.30	6.444
627.63	6.122
627.96	6.495
628.29	6.106
628.62	5.646
628.95	7.092
629.28	6.486
629.61	6.151
629.94	6.309
630.26	7.279
630.59	7.447
630.92	6.906
631.25	7.525
631.58	6.654
631.91	6.946
632.24	7.386
632.57	5.992
632.90	7.453
633.23	7.345
633.56	6.322
633.89	6.752
634.22	7.320
634.55	6.882
634.88	7.777
635.20	7.623
635.53	7.549
635.86	8.837
636.19	6.734
636.52	5.514
636.85	7.120
637.18	7.801
637.51	6.369
637.83	6.064
638.16	8.558
638.49	8.503
638.82	9.272
639.15	6.933
639.48	7.938
639.81	6.227
640.13	6.748
640.46	7.080
640.79	8.322
641.12	7.218
641.45	8.409
641.77	7.530
642.10	9.103
642.43	8.677
642.76	5.682
643.09	6.196
643.41	9.257
643.74	8.058
644.07	8.997
644.40	7.101
644.73	9.459
645.05	9.064
645.38	7.198
645.71	7.132
646.04	10.687
646.36	7.981
646.69	7.360
647.02	8.800
647.35	7.559
647.67	7.942
648.00	6.189
648.33	8.571
648.66	7.121
648.98	7.681
649.31	7.962
649.64	6.916
649.96	6.828
650.29	6.857
650.62	10.309
650.94	9.187
651.27	8.931
651.60	8.920
651.92	6.912
652.25	8.661
652.58	8.652
652.90	8.533
653.23	7.238
653.56	7.122
653.88	8.811
654.21	9.238
654.54	7.321
654.86	7.817
655.19	6.992
655.52	5.707
655.84	3.299
656.17	3.624
656.49	5.049
656.82	5.805
657.15	4.573
657.47	3.427
657.80	2.682
658.13	2.205
658.45	3.005
658.78	3.662
659.10	3.841
659.43	4.071
659.75	4.777
660.08	4.825
660.41	5.717
660.73	7.403
661.06	9.309
661.38	10.903
661.71	8.813
662.03	9.506
662.36	10.667
662.68	8.566
663.01	9.910
663.33	8.113
663.66	8.481
663.98	7.738
664.31	9.328
664.63	11.303
664.96	10.319
665.28	6.968
665.61	8.491
665.93	9.623
666.26	8.785
666.58	11.009
666.91	8.494
667.23	8.434
667.56	9.240
667.88	11.203
668.21	9.221
668.53	8.266
668.86	13.627
669.18	8.554
669.50	9.091
669.83	12.936
670.15	9.771
670.48	8.398
670.80	8.964
671.13	8.367
671.45	9.619
671.77	11.317
672.10	8.259
672.42	9.868
672.75	9.019
673.07	8.108
673.39	6.709
673.72	8.304
674.04	8.781
674.37	7.985
674.69	8.922
675.01	8.769
675.34	8.140
675.66	11.133
675.98	10.454
676.31	10.000
676.63	8.549
676.95	8.929
677.28	8.316
677.60	9.457
677.92	7.738
678.25	11.434
678.57	8.380
678.89	11.392
679.22	9.191
679.54	8.363
679.86	7.504
680.18	7.557
680.51	6.799
680.83	6.419
681.15	10.745
681.48	8.854
681.80	8.757
682.12	9.689
682.44	7.027
682.77	10.676
683.09	8.932
683.41	10.408
683.73	9.252
684.06	7.540
684.38	10.271
684.70	9.532
685.02	7.986
685.34	9.331
685.67	10.129
685.99	6.897
686.31	8.166
686.63	7.642
686.96	9.314
687.28	8.221
687.60	6.485
687.92	8.710
688.24	11.034
688.56	9.964
688.89	7.266
689.21	10.019
689.53	10.672
689.85	8.740
690.17	9.320
690.49	9.274
690.82	9.034
691.14	8.889
691.46	9.240
691.78	11.891
692.10	10.687
692.42	9.437
692.74	10.271
693.06	9.884
693.39	8.300
693.71	8.644
694.03	10.059
694.35	10.843
694.67	9.776
694.99	8.869
695.31	8.333
695.63	10.633
695.95	9.955
696.27	12.611
696.59	10.024
696.91	7.342
697.23	11.312
697.56	8.506
697.88	5.988
698.20	11.132
698.52	7.004
698.84	10.678
699.16	10.448
699.48	10.805
699.80	13.508
700.12	10.624
700.44	10.514
700.76	10.740
701.08	11.749
701.40	10.909
701.72	16.310
702.04	14.363
702.36	12.097
702.68	10.106
703.00	8.020
703.32	12.655
703.64	10.579
703.96	9.635
704.28	9.788
704.60	10.141
704.91	11.204
705.23	10.511
705.55	10.682
705.87	12.381
706.19	12.853
706.51	13.480
706.83	13.864
707.15	13.102
707.47	12.833
707.79	11.724
708.11	11.111
708.43	9.213
708.74	7.919
709.06	9.767
709.38	12.903
709.70	7.902
710.02	12.228
710.34	11.602
710.66	13.889
710.98	10.656
711.29	11.699
711.61	13.092
711.93	11.550
712.25	12.952
712.57	9.003
712.89	12.727
713.20	15.655
713.52	15.576
713.84	12.689
714.16	9.855
714.48	10.375
714.80	8.130
715.11	10.372
715.43	9.777
715.75	10.141
716.07	12.717
716.39	14.286
716.70	14.330
717.02	13.131
717.34	15.468
717.66	14.583
717.97	18.561
718.29	13.380
718.61	7.432
718.93	14.533
719.24	16.107
719.56	10.000
719.88	9.236
720.20	12.581
720.51	12.745
720.83	14.381
721.15	16.667
721.46	12.329
721.78	13.589
722.10	14.236
722.42	18.729
722.73	14.079
723.05	18.246
723.37	15.548
723.68	12.109
724.00	14.773
724.32	18.251
724.63	12.692
724.95	14.510
725.27	13.383
725.58	18.015
725.90	10.211
726.22	12.329
726.53	9.365
726.85	14.658
727.16	14.765
727.48	15.615
727.80	14.748
728.11	14.643
728.43	15.942
728.74	11.888
729.06	14.695
729.38	18.947
729.69	15.000
730.01	12.500
730.32	14.430
730.64	15.947
730.96	14.114
731.27	10.703
731.59	10.632
731.90	12.813
732.22	13.429
732.53	11.681
732.85	16.374
733.16	9.036
733.48	10.658
733.80	13.043
734.11	13.497
734.43	14.035
734.74	10.992
735.06	13.492
735.37	11.598
735.69	8.986
736.00	11.009
736.32	9.091
736.63	6.625
736.95	11.180
737.26	14.634
737.58	14.110
737.89	11.446
738.21	9.934
738.52	16.388
738.83	13.187
739.15	13.589
739.46	10.000
739.78	12.585
740.09	11.953
740.41	11.350
740.72	14.921
741.04	12.937
741.35	13.672
741.66	17.787
741.98	17.597
742.29	17.130
742.61	14.602
742.92	11.441
743.23	14.400
743.55	16.604
743.86	15.294
744.18	17.373
744.49	18.595
744.80	18.433
745.12	21.429
745.43	21.963
745.74	17.778
746.06	14.035
746.37	16.279
746.68	16.814
747.00	17.937
747.31	13.025
747.62	15.984
747.94	16.738
748.25	16.342
748.56	17.797
748.88	15.625
749.19	13.023
749.50	14.612
749.82	18.107
750.13	14.229
750.44	11.333
750.75	13.087
751.07	14.803
751.38	12.211
751.69	15.152
752.01	10.490
752.32	13.953
752.63	15.101
752.94	14.685
753.26	15.234
753.57	15.953
753.88	14.981
754.19	14.440
754.51	18.605
754.82	10.067
755.13	11.486
755.44	15.185
755.75	14.777
756.07	16.096
756.38	10.458
756.69	13.438
757.00	13.650
757.31	17.183
757.63	11.019
757.94	10.904
758.25	9.903
758.56	11.442
758.87	10.777
759.18	10.465
759.50	13.982
759.81	11.276
760.12	13.202
760.43	12.045
760.74	12.152
761.05	8.753
761.36	7.812
761.67	11.321
761.99	13.239
762.30	12.540
762.61	15.278
762.92	10.985
763.23	19.245
763.54	13.462
763.85	14.008
764.16	12.500
764.47	11.149
764.78	12.052
765.10	12.195
765.41	12.216
765.72	10.773
766.03	10.876
766.34	12.892
766.65	15.970
766.96	17.814
767.27	18.224
767.58	19.802
767.89	27.624
768.20	16.463
768.51	14.286
768.82	17.544
769.13	14.510
769.44	18.045
769.75	14.232
770.06	18.067
770.37	14.035
770.68	12.444
770.99	17.373
771.30	15.900
771.61	15.385
771.92	14.504
772.23	14.113
772.54	21.333
772.85	26.238
773.16	14.130
773.47	13.889
773.78	18.317
774.09	21.023
774.39	21.818
774.70	20.000
775.01	15.132
775.32	19.255
775.63	26.027
775.94	27.160
776.25	28.276
776.56	29.771
776.87	32.824
777.18	27.273
777.48	40.157
777.79	19.231
778.10	34.848
778.41	32.090
778.72	31.579
779.03	22.436
779.34	23.649
779.65	22.360
779.95	26.708
780.26	21.429
780.57	34.694
780.88	26.241
781.19	35.833
781.50	24.260
781.80	21.311
782.11	22.222
782.42	19.540
782.73	19.209
783.04	23.226
783.34	14.729
783.65	21.769
783.96	27.097
784.27	20.530
784.57	25.658
784.88	24.638
785.19	27.500
785.50	34.483
785.81	40.310
786.11	20.741
786.42	23.622
786.73	27.928
787.04	24.528
787.34	17.073
787.65	35.606
787.96	27.273
788.26	27.559
788.57	29.197
788.88	21.831
789.19	20.611
789.49	30.405
789.80	28.125
790.11	25.620
790.41	28.704
790.72	33.333
791.03	40.385
791.33	41.414
791.64	42.105
791.95	36.842
792.25	35.417
792.56	44.000
792.87	39.024
793.17	39.773
793.48	37.647
793.79	39.080
794.09	36.364
794.40	37.931
794.70	33.333
795.01	23.077
795.32	21.374
795.62	16.239
795.93	28.571
796.23	30.081
796.54	44.898
796.85	44.318
797.15	53.247
797.46	48.780
797.76	33.750
798.07	54.667
798.37	48.750
798.68	52.500
798.99	64.634
799.29	49.333
799.60	29.070
799.90	38.158
800.21	54.545
800.51	53.521
800.82	53.448
801.12	46.154
801.43	54.667
801.73	62.069
802.04	44.156
802.34	56.164
802.65	54.902
802.95	43.478
803.26	67.742
803.56	63.333
803.87	64.179
804.17	66.667
804.48	71.698
804.78	50.000
805.09	63.636
805.39	57.143
805.70	73.684
806.00	55.714
806.30	59.375
806.61	38.824
806.91	37.778
807.22	41.304
807.52	39.474
807.83	67.105
808.13	53.623
808.43	41.935
808.74	45.205
809.04	55.357
809.35	38.235
809.65	62.121
809.95	62.745
810.26	77.778
810.56	60.938
810.86	79.592
811.17	84.211
811.47	63.043
811.77	58.621
812.08	41.379
812.38	66.667
812.69	66.667
812.99	77.778
813.29	57.143
813.59	103.226
813.90	51.724
814.20	60.656
814.50	46.000
814.81	77.193
815.11	94.444
815.41	66.071
815.72	80.357
816.02	90.000
816.32	85.366
816.62	63.793
816.93	112.121
817.23	109.756
817.53	78.571
817.84	75.556
818.14	59.524
818.44	72.917
818.74	69.811
819.04	66.667
819.35	115.152
819.65	96.154
819.95	79.630
820.25	87.234
820.56	75.676
820.86	131.579
821.16	48.936
821.46	94.737
821.76	67.273
822.07	71.429
822.37	57.895
822.67	93.023
822.97	78.947
823.27	82.609
823.57	112.500
823.88	112.821
824.18	87.879
824.48	95.652
824.78	111.111
825.08	139.130
825.38	110.345
825.69	117.647
825.99	68.085
826.29	47.222
826.59	88.571
826.89	113.333
827.19	82.857
827.49	129.032
827.79	126.923
828.09	78.571
828.39	86.111
828.70	67.568
829.00	135.714
829.30	150.000
829.60	91.667
829.90	116.129
830.20	57.576
830.50	129.730
830.80	137.500
831.10	173.077
831.40	142.857
831.70	175.000
832.00	66.667
832.30	121.739
832.60	170.833
832.90	115.152
833.20	185.000
833.50	121.053
833.80	135.294
834.10	100.000
834.40	131.579
834.70	116.667
835.00	152.000
835.30	89.189
835.60	109.375
835.90	127.027
836.20	130.769
836.50	86.364
836.80	97.561
837.10	117.391
837.40	300.000
837.70	142.105
838.00	96.667
838.30	183.333
838.60	108.000
838.90	350.000
839.19	168.750
839.49	106.667
839.79	100.000
840.09	150.000
840.39	86.667
840.69	142.105
840.99	76.190
841.29	139.130
841.59	160.000
841.88	148.000
842.18	355.556
842.48	135.714
842.78	122.222
843.08	207.692
843.38	172.727
843.68	242.857
843.97	371.429
844.27	160.870
844.57	850.000
844.87	278.571
845.17	205.556
845.47	104.762
845.76	154.167
846.06	400.000
846.36	176.471
846.66	246.154
846.96	243.750
847.25	230.769
847.55	173.684
847.85	177.778
848.15	420.000
848.44	345.455
848.74	152.381
849.04	129.167
849.34	147.059
849.63	212.500
849.93	231.250
850.23	1166.667
850.53	400.000
850.82	281.818
851.12	135.294
851.42	187.500
851.71	225.000
852.01	0.000
852.31	235.294
852.61	370.000
852.90	133.333
853.20	333.333
853.50	-2300.000
853.79	152.000
854.09	118.750
854.39	113.793
854.68	134.483
854.98	109.524
855.28	138.710
855.57	314.286
855.87	183.333
856.17	151.852
856.46	157.895
856.76	122.581
857.05	200.000
857.35	181.818
857.65	200.000
857.94	150.000
858.24	488.889
858.53	285.714
858.83	700.000
859.13	208.696
859.42	300.000
859.72	450.000
860.01	250.000
860.31	750.000
860.60	310.000
860.90	450.000
861.20	300.000
861.49	428.571
861.79	-3200.000
862.08	414.286
862.38	255.556
862.67	214.286
862.97	420.000
863.26	140.000
863.56	675.000
863.85	276.923
864.15	252.941
864.44	222.222
864.74	225.000
865.03	327.273
865.33	350.000
865.62	220.000
865.92	550.000
866.21	825.000
866.51	880.000
866.80	250.000
867.10	1000.000
867.39	3200.000
867.69	680.000
867.98	875.000
868.27	157.143
868.57	286.667
868.86	1000.000
869.16	204.762
869.45	3100.000
869.75	-516.667
870.04	750.000
870.33	640.000
870.63	225.000
870.92	200.000
871.22	850.000
871.51	471.429
871.80	316.667
872.10	261.538
>>>>>End Processed Spectral Data<<<<<
