SpectraSuite Data File
++++++++++++++++++++++++++++++++++++
Date: Tue May 12 17:01:44 PDT 2015
User: schluterlab
Dark Spectrum Present: Yes
Reference Spectrum Present: Yes
Number of Sampled Component Spectra: 1
Spectrometers: USB2E3373
Integration Time (usec): 3000 (USB2E3373)
Spectra Averaged: 3 (USB2E3373)
Boxcar Smoothing: 0 (USB2E3373)
Correct for Electrical Dark: No (USB2E3373)
Strobe/Lamp Enabled: No (USB2E3373)
Correct for Detector Non-linearity: No (USB2E3373)
Correct for Stray Light: No (USB2E3373)
Number of Pixels in Processed Spectrum: 2048
>>>>>Begin Processed Spectral Data<<<<<
178.53	0.000
178.91	-225.000
179.29	-825.000
179.67	-3800.000
180.04	-153.333
180.42	750.000
180.80	1550.000
181.18	0.000
181.56	-287.500
181.94	0.000
182.31	866.667
182.69	-3300.000
183.07	585.714
183.45	-2800.000
183.83	-1600.000
184.20	380.000
184.58	442.857
184.96	-269.231
185.34	-216.667
185.72	1500.000
186.09	-825.000
186.47	-3600.000
186.85	1000.000
187.23	680.000
187.61	1650.000
187.98	400.000
188.36	321.429
188.74	316.667
189.12	341.667
189.49	800.000
189.87	0.000
190.25	437.500
190.63	2300.000
191.00	-225.000
191.38	-4100.000
191.76	-675.000
192.14	662.500
192.51	-2200.000
192.89	1700.000
193.27	766.667
193.65	-1033.333
194.02	-740.000
194.40	442.857
194.78	-192.857
195.15	233.333
195.53	-3500.000
195.91	-420.000
196.29	3900.000
196.66	231.250
197.04	775.000
197.42	-1300.000
197.79	800.000
198.17	275.000
198.55	0.000
198.92	614.286
199.30	1100.000
199.68	1450.000
200.05	500.000
200.43	-416.667
200.81	166.667
201.18	3300.000
201.56	258.333
201.94	-825.000
202.31	-462.500
202.69	-620.000
203.07	4100.000
203.44	-550.000
203.82	383.333
204.19	840.000
204.57	-1200.000
204.95	-950.000
205.32	-740.000
205.70	433.333
206.08	600.000
206.45	-900.000
206.83	422.222
207.20	189.474
207.58	266.667
207.96	740.000
208.33	0.000
208.71	571.429
209.08	880.000
209.46	-3000.000
209.84	-650.000
210.21	1020.000
210.59	-540.000
210.96	250.000
211.34	-975.000
211.71	463.636
212.09	775.000
212.46	2000.000
212.84	-516.667
213.22	466.667
213.59	-3800.000
213.97	420.000
214.34	675.000
214.72	1166.667
215.09	933.333
215.47	-2900.000
215.84	-240.000
216.22	-450.000
216.59	0.000
216.97	0.000
217.34	1450.000
217.72	-2150.000
218.09	1366.667
218.47	462.500
218.84	850.000
219.22	1166.667
219.59	966.667
219.97	600.000
220.34	377.778
220.72	1800.000
221.09	3300.000
221.47	266.667
221.84	866.667
222.22	310.000
222.59	188.889
222.97	271.429
223.34	250.000
223.72	-1300.000
224.09	1033.333
224.46	276.923
224.84	-900.000
225.21	455.556
225.59	300.000
225.96	1400.000
226.34	-640.000
226.71	-725.000
227.08	-600.000
227.46	0.000
227.83	-650.000
228.21	-1800.000
228.58	433.333
228.95	1150.000
229.33	333.333
229.70	1125.000
230.08	361.538
230.45	3800.000
230.82	-900.000
231.20	-633.333
231.57	-1166.667
231.95	540.000
232.32	341.667
232.69	550.000
233.07	300.000
233.44	-2050.000
233.81	206.667
234.19	185.185
234.56	193.750
234.93	247.059
235.31	235.000
235.68	262.500
236.05	175.000
236.43	159.259
236.80	271.429
237.17	168.966
237.55	112.500
237.92	130.000
238.29	145.455
238.67	134.375
239.04	107.317
239.41	81.250
239.79	82.500
240.16	83.333
240.53	70.492
240.91	73.913
241.28	79.661
241.65	77.273
242.02	70.423
242.40	85.714
242.77	53.846
243.14	58.228
243.51	64.646
243.89	62.617
244.26	45.794
244.63	54.455
245.00	57.798
245.38	49.153
245.75	48.485
246.12	58.519
246.49	49.645
246.87	47.541
247.24	50.000
247.61	46.250
247.98	46.939
248.36	41.212
248.73	46.429
249.10	44.048
249.47	40.000
249.84	37.811
250.22	48.108
250.59	39.500
250.96	40.506
251.33	38.605
251.70	38.839
252.08	36.555
252.45	37.450
252.82	38.783
253.19	33.202
253.56	32.692
253.94	39.493
254.31	37.209
254.68	39.373
255.05	36.552
255.42	35.401
255.79	36.482
256.16	33.898
256.54	36.364
256.91	30.392
257.28	38.796
257.65	30.721
258.02	29.794
258.39	36.676
258.76	31.884
259.14	32.857
259.51	36.443
259.88	34.347
260.25	28.297
260.62	31.507
260.99	30.028
261.36	34.819
261.73	30.319
262.10	34.031
262.47	33.000
262.85	31.733
263.22	31.620
263.59	30.435
263.96	31.328
264.33	29.136
264.70	34.644
265.07	30.976
265.44	32.569
265.81	30.189
266.18	31.350
266.55	30.260
266.92	29.978
267.29	30.702
267.66	30.045
268.03	27.354
268.40	32.135
268.77	30.837
269.14	29.718
269.51	32.294
269.88	31.429
270.25	26.782
270.62	32.833
270.99	30.426
271.36	31.301
271.73	29.769
272.10	30.505
272.47	28.968
272.84	27.345
273.21	28.926
273.58	29.960
273.95	28.131
274.32	30.545
274.69	32.874
275.06	31.148
275.43	28.544
275.80	29.434
276.17	29.228
276.54	28.411
276.91	31.157
277.28	31.387
277.65	28.967
278.02	27.757
278.39	28.777
278.76	29.138
279.13	28.470
279.50	28.545
279.87	26.629
280.23	28.177
280.60	29.015
280.97	27.586
281.34	26.733
281.71	27.130
282.08	30.427
282.45	27.534
282.82	27.090
283.19	27.663
283.56	26.612
283.92	29.153
284.29	27.953
284.66	28.403
285.03	27.861
285.40	25.455
285.77	26.389
286.14	25.232
286.51	24.540
286.87	25.791
287.24	25.526
287.61	24.012
287.98	26.866
288.35	25.037
288.72	27.162
289.08	25.976
289.45	26.677
289.82	27.031
290.19	24.451
290.56	26.929
290.93	25.468
291.29	25.967
291.66	25.706
292.03	25.526
292.40	26.016
292.77	24.095
293.13	23.538
293.50	23.887
293.87	22.358
294.24	23.776
294.60	24.361
294.97	25.175
295.34	24.834
295.71	22.208
296.08	24.267
296.44	23.888
296.81	23.325
297.18	22.307
297.55	24.384
297.91	21.552
298.28	22.947
298.65	22.577
299.02	22.557
299.38	21.223
299.75	22.439
300.12	22.821
300.48	23.302
300.85	22.288
301.22	23.605
301.59	21.344
301.95	22.170
302.32	21.769
302.69	22.624
303.05	23.008
303.42	22.197
303.79	22.860
304.15	21.672
304.52	21.459
304.89	22.495
305.25	22.692
305.62	22.495
305.99	22.500
306.35	22.211
306.72	21.540
307.09	22.464
307.45	21.014
307.82	21.399
308.19	21.753
308.55	22.300
308.92	23.847
309.29	23.274
309.65	23.191
310.02	23.022
310.38	21.735
310.75	22.758
311.12	22.031
311.48	24.131
311.85	23.569
312.22	23.973
312.58	23.810
312.95	23.301
313.31	24.813
313.68	23.265
314.05	25.275
314.41	23.929
314.78	24.716
315.14	24.739
315.51	26.112
315.87	25.000
316.24	26.144
316.61	25.246
316.97	26.606
317.34	27.134
317.70	26.427
318.07	27.224
318.43	28.120
318.80	27.583
319.16	28.147
319.53	27.699
319.89	27.151
320.26	29.050
320.62	28.663
320.99	28.217
321.35	29.314
321.72	30.076
322.08	29.548
322.45	30.699
322.81	31.290
323.18	29.840
323.54	31.446
323.91	32.004
324.27	31.477
324.64	32.180
325.00	33.534
325.37	32.968
325.73	32.715
326.10	34.797
326.46	33.278
326.83	32.720
327.19	34.378
327.56	33.706
327.92	35.082
328.29	34.861
328.65	34.760
329.01	34.303
329.38	34.856
329.74	33.732
330.11	34.666
330.47	36.147
330.84	33.995
331.20	33.672
331.56	35.060
331.93	34.731
332.29	33.844
332.66	34.609
333.02	33.247
333.38	34.555
333.75	34.696
334.11	34.396
334.48	34.103
334.84	33.953
335.20	35.329
335.57	34.173
335.93	34.735
336.29	34.992
336.66	34.991
337.02	35.329
337.38	33.964
337.75	35.220
338.11	35.359
338.47	34.378
338.84	34.208
339.20	34.372
339.56	35.576
339.93	34.783
340.29	33.950
340.65	35.541
341.02	35.157
341.38	35.304
341.74	34.967
342.11	33.973
342.47	33.798
342.83	34.290
343.20	34.196
343.56	31.771
343.92	33.939
344.28	33.812
344.65	34.474
345.01	34.286
345.37	33.173
345.73	34.683
346.10	33.705
346.46	35.088
346.82	33.333
347.19	34.080
347.55	33.724
347.91	33.535
348.27	32.920
348.63	33.703
349.00	33.359
349.36	34.163
349.72	34.251
350.08	34.550
350.45	34.425
350.81	34.174
351.17	32.435
351.53	34.334
351.89	32.789
352.26	33.409
352.62	32.730
352.98	32.822
353.34	35.901
353.70	33.486
354.07	34.615
354.43	33.410
354.79	32.422
355.15	33.691
355.51	33.610
355.87	35.166
356.24	34.565
356.60	33.638
356.96	33.283
357.32	33.760
357.68	33.113
358.04	33.967
358.40	33.508
358.77	34.861
359.13	33.859
359.49	33.358
359.85	33.507
360.21	32.764
360.57	34.526
360.93	33.333
361.29	34.488
361.66	34.079
362.02	33.310
362.38	33.838
362.74	35.032
363.10	32.328
363.46	33.011
363.82	33.520
364.18	34.068
364.54	34.120
364.90	34.337
365.26	34.629
365.62	34.392
365.98	34.136
366.35	32.690
366.71	34.143
367.07	33.174
367.43	32.707
367.79	34.309
368.15	33.175
368.51	33.770
368.87	33.967
369.23	32.848
369.59	33.109
369.95	33.986
370.31	32.649
370.67	34.421
371.03	33.754
371.39	33.795
371.75	33.566
372.11	33.719
372.47	33.973
372.83	34.262
373.19	34.133
373.55	32.852
373.91	32.251
374.27	33.267
374.63	34.441
374.99	33.693
375.35	34.073
375.71	33.179
376.07	34.151
376.42	33.824
376.78	36.159
377.14	33.486
377.50	33.770
377.86	33.824
378.22	33.760
378.58	34.504
378.94	34.098
379.30	33.657
379.66	34.136
380.02	34.839
380.38	33.021
380.74	35.063
381.09	34.813
381.45	34.162
381.81	33.215
382.17	34.860
382.53	34.553
382.89	35.009
383.25	34.517
383.61	34.524
383.97	33.833
384.32	34.358
384.68	35.175
385.04	34.525
385.40	34.935
385.76	34.465
386.12	34.818
386.48	34.286
386.83	34.719
387.19	34.865
387.55	33.922
387.91	35.681
388.27	34.801
388.62	34.683
388.98	33.586
389.34	33.908
389.70	34.257
390.06	34.634
390.42	35.102
390.77	34.398
391.13	34.701
391.49	33.273
391.85	35.323
392.20	34.684
392.56	34.648
392.92	34.924
393.28	33.744
393.64	33.142
393.99	34.143
394.35	34.079
394.71	33.353
395.07	35.097
395.42	34.602
395.78	33.991
396.14	35.542
396.50	33.394
396.85	33.659
397.21	34.597
397.57	34.130
397.92	33.622
398.28	34.197
398.64	34.904
399.00	34.153
399.35	33.548
399.71	33.499
400.07	34.589
400.42	33.851
400.78	34.721
401.14	34.645
401.49	34.217
401.85	33.893
402.21	33.333
402.57	33.333
402.92	34.545
403.28	33.890
403.63	33.843
403.99	34.077
404.35	34.525
404.70	34.672
405.06	33.689
405.42	33.633
405.77	34.289
406.13	33.460
406.49	33.542
406.84	33.672
407.20	34.361
407.55	33.662
407.91	34.971
408.27	34.081
408.62	34.772
408.98	34.654
409.34	33.489
409.69	34.225
410.05	34.168
410.40	33.981
410.76	33.257
411.11	34.656
411.47	34.012
411.83	33.158
412.18	33.454
412.54	32.613
412.89	33.392
413.25	33.466
413.60	33.353
413.96	33.633
414.31	33.884
414.67	33.954
415.03	33.653
415.38	33.691
415.74	34.239
416.09	33.979
416.45	35.165
416.80	34.445
417.16	34.755
417.51	34.013
417.87	33.917
418.22	33.961
418.58	33.885
418.93	33.670
419.29	32.779
419.64	33.737
420.00	34.248
420.35	34.437
420.71	33.722
421.06	33.843
421.42	33.045
421.77	33.370
422.12	34.675
422.48	33.487
422.83	33.650
423.19	33.045
423.54	32.364
423.90	34.145
424.25	33.517
424.61	34.707
424.96	33.710
425.31	33.662
425.67	33.502
426.02	33.875
426.38	33.022
426.73	33.661
427.09	33.037
427.44	33.596
427.79	32.876
428.15	35.121
428.50	34.286
428.85	34.803
429.21	33.712
429.56	34.098
429.92	33.516
430.27	32.898
430.62	32.991
430.98	32.834
431.33	33.871
431.68	31.802
432.04	32.850
432.39	34.523
432.74	32.904
433.10	33.887
433.45	33.774
433.80	34.749
434.16	32.790
434.51	32.663
434.86	34.186
435.22	33.549
435.57	33.906
435.92	35.117
436.28	33.180
436.63	33.441
436.98	34.065
437.34	33.733
437.69	32.755
438.04	33.602
438.39	33.567
438.75	34.410
439.10	33.243
439.45	33.352
439.81	33.430
440.16	33.187
440.51	33.727
440.86	34.929
441.22	33.550
441.57	33.386
441.92	33.021
442.27	32.835
442.63	32.724
442.98	32.866
443.33	32.833
443.68	32.696
444.03	33.035
444.39	33.616
444.74	33.385
445.09	33.491
445.44	33.103
445.79	32.651
446.15	33.316
446.50	33.439
446.85	33.466
447.20	32.189
447.55	32.790
447.91	34.630
448.26	32.481
448.61	33.941
448.96	33.606
449.31	34.103
449.66	33.499
450.02	32.847
450.37	33.981
450.72	34.490
451.07	33.101
451.42	33.017
451.77	33.620
452.12	32.842
452.47	33.232
452.83	32.958
453.18	33.814
453.53	34.991
453.88	32.857
454.23	33.876
454.58	33.916
454.93	33.844
455.28	34.211
455.63	33.747
455.98	32.657
456.34	34.103
456.69	34.146
457.04	32.816
457.39	33.143
457.74	34.403
458.09	33.184
458.44	32.913
458.79	34.005
459.14	32.188
459.49	33.862
459.84	33.967
460.19	32.373
460.54	32.821
460.89	33.156
461.24	32.417
461.59	33.900
461.94	33.392
462.29	33.696
462.64	34.045
462.99	33.845
463.34	34.738
463.69	34.362
464.04	34.024
464.39	33.143
464.74	32.532
465.09	33.430
465.44	33.351
465.79	31.954
466.14	31.638
466.49	32.881
466.84	32.441
467.19	33.216
467.54	32.613
467.89	33.451
468.24	33.584
468.59	33.095
468.94	32.911
469.29	33.476
469.64	34.084
469.99	33.419
470.34	33.207
470.68	34.000
471.03	32.955
471.38	33.709
471.73	33.377
472.08	33.659
472.43	33.768
472.78	33.739
473.13	33.417
473.48	32.824
473.83	33.451
474.17	32.888
474.52	32.820
474.87	32.064
475.22	33.124
475.57	32.371
475.92	32.805
476.27	32.862
476.61	32.601
476.96	32.288
477.31	33.008
477.66	33.494
478.01	31.821
478.36	32.750
478.70	31.811
479.05	32.531
479.40	31.647
479.75	32.969
480.10	32.527
480.45	31.653
480.79	31.889
481.14	31.526
481.49	31.107
481.84	31.662
482.19	32.271
482.53	31.489
482.88	32.482
483.23	32.296
483.58	31.194
483.92	32.038
484.27	31.336
484.62	31.791
484.97	30.697
485.31	30.415
485.66	29.626
486.01	28.999
486.36	28.507
486.70	28.276
487.05	28.325
487.40	29.368
487.75	29.201
488.09	29.460
488.44	30.370
488.79	30.406
489.13	31.392
489.48	31.083
489.83	31.068
490.17	29.934
490.52	31.481
490.87	30.517
491.22	31.383
491.56	31.006
491.91	31.586
492.26	31.269
492.60	31.162
492.95	31.264
493.30	31.756
493.64	31.671
493.99	31.306
494.34	30.928
494.68	30.766
495.03	31.028
495.37	31.112
495.72	31.375
496.07	31.132
496.41	31.712
496.76	31.237
497.11	31.362
497.45	31.127
497.80	31.742
498.14	31.114
498.49	31.616
498.84	31.028
499.18	30.622
499.53	31.282
499.87	30.099
500.22	31.690
500.56	31.430
500.91	31.076
501.26	30.547
501.60	30.601
501.95	30.018
502.29	31.022
502.64	30.966
502.98	29.835
503.33	30.468
503.67	30.905
504.02	30.676
504.36	31.176
504.71	30.700
505.06	31.065
505.40	30.650
505.75	29.560
506.09	30.518
506.44	30.780
506.78	31.333
507.13	30.926
507.47	29.597
507.82	31.290
508.16	30.916
508.51	30.966
508.85	30.722
509.19	30.396
509.54	30.908
509.88	31.477
510.23	30.539
510.57	30.019
510.92	30.420
511.26	30.522
511.61	30.576
511.95	30.463
512.30	31.700
512.64	30.374
512.98	31.215
513.33	30.891
513.67	30.451
514.02	30.442
514.36	31.568
514.70	30.613
515.05	30.634
515.39	31.963
515.74	30.727
516.08	31.373
516.42	31.803
516.77	30.933
517.11	30.667
517.46	31.358
517.80	30.421
518.14	31.493
518.49	30.209
518.83	30.440
519.17	31.004
519.52	31.677
519.86	31.444
520.20	30.904
520.55	31.091
520.89	30.920
521.23	31.425
521.58	30.293
521.92	30.554
522.26	31.102
522.61	31.551
522.95	31.411
523.29	30.643
523.64	30.462
523.98	31.338
524.32	30.507
524.66	31.130
525.01	30.710
525.35	31.349
525.69	31.367
526.04	32.302
526.38	30.842
526.72	30.847
527.06	31.106
527.41	31.318
527.75	31.345
528.09	29.801
528.43	30.384
528.78	30.948
529.12	31.306
529.46	30.450
529.80	29.673
530.15	29.935
530.49	30.385
530.83	31.505
531.17	31.365
531.51	30.779
531.86	29.891
532.20	30.717
532.54	30.383
532.88	29.794
533.22	31.079
533.57	31.117
533.91	29.254
534.25	29.429
534.59	30.526
534.93	29.863
535.27	28.742
535.62	29.872
535.96	29.492
536.30	30.713
536.64	29.255
536.98	29.578
537.32	30.938
537.66	29.145
538.01	29.969
538.35	29.258
538.69	28.883
539.03	28.918
539.37	29.126
539.71	29.321
540.05	28.985
540.39	30.692
540.73	30.063
541.07	28.795
541.42	29.415
541.76	30.703
542.10	28.792
542.44	29.800
542.78	28.634
543.12	29.448
543.46	29.699
543.80	29.825
544.14	29.040
544.48	29.380
544.82	28.991
545.16	28.597
545.50	29.010
545.84	30.114
546.18	30.624
546.52	30.557
546.86	30.496
547.20	28.747
547.54	28.942
547.88	28.467
548.22	27.930
548.56	27.755
548.90	28.707
549.24	29.311
549.58	28.286
549.92	29.928
550.26	28.533
550.60	28.809
550.94	29.240
551.28	29.862
551.62	30.621
551.96	29.662
552.30	28.214
552.64	29.061
552.98	27.706
553.32	28.489
553.66	28.274
554.00	29.344
554.34	29.960
554.68	29.099
555.02	29.328
555.36	29.122
555.69	28.272
556.03	28.471
556.37	29.063
556.71	28.683
557.05	27.130
557.39	28.600
557.73	28.504
558.07	28.840
558.41	29.267
558.75	28.933
559.08	30.093
559.42	29.778
559.76	29.722
560.10	28.837
560.44	27.007
560.78	27.877
561.12	29.053
561.45	28.285
561.79	28.215
562.13	27.290
562.47	28.099
562.81	27.716
563.15	27.796
563.48	26.522
563.82	28.197
564.16	28.358
564.50	28.451
564.84	27.599
565.17	27.273
565.51	27.648
565.85	27.699
566.19	26.905
566.52	28.039
566.86	27.671
567.20	27.135
567.54	26.747
567.88	27.543
568.21	25.711
568.55	25.827
568.89	26.095
569.23	25.280
569.56	25.479
569.90	24.829
570.24	24.770
570.57	24.562
570.91	23.900
571.25	23.695
571.59	23.096
571.92	22.928
572.26	22.803
572.60	23.132
572.93	23.606
573.27	23.980
573.61	23.741
573.95	23.108
574.28	23.170
574.62	22.823
574.96	22.310
575.29	22.187
575.63	22.638
575.97	22.395
576.30	22.728
576.64	22.963
576.98	22.684
577.31	23.247
577.65	22.574
577.98	22.398
578.32	22.245
578.66	21.948
578.99	22.215
579.33	22.553
579.67	22.733
580.00	22.105
580.34	22.396
580.67	21.924
581.01	22.844
581.35	22.341
581.68	22.188
582.02	21.857
582.35	21.884
582.69	21.766
583.02	21.569
583.36	22.063
583.70	22.665
584.03	23.117
584.37	22.539
584.70	22.593
585.04	22.103
585.37	22.182
585.71	22.697
586.04	22.089
586.38	21.906
586.72	22.162
587.05	22.645
587.39	23.059
587.72	22.542
588.06	22.250
588.39	22.416
588.73	22.337
589.06	22.731
589.40	23.286
589.73	23.304
590.07	23.507
590.40	24.042
590.73	24.422
591.07	24.137
591.40	23.992
591.74	24.148
592.07	22.546
592.41	23.861
592.74	22.629
593.08	22.852
593.41	22.741
593.75	22.343
594.08	22.236
594.41	22.711
594.75	22.432
595.08	22.634
595.42	22.646
595.75	22.376
596.09	23.045
596.42	23.125
596.75	23.518
597.09	24.061
597.42	23.102
597.75	23.327
598.09	23.143
598.42	23.174
598.76	22.629
599.09	22.876
599.42	22.388
599.76	22.354
600.09	22.407
600.42	22.445
600.76	22.128
601.09	22.264
601.42	22.774
601.76	22.198
602.09	22.185
602.42	21.774
602.76	22.770
603.09	23.303
603.42	22.752
603.76	22.921
604.09	22.222
604.42	22.674
604.76	23.271
605.09	23.020
605.42	22.552
605.75	23.174
606.09	22.762
606.42	22.247
606.75	22.658
607.09	22.740
607.42	23.102
607.75	22.930
608.08	22.055
608.42	22.987
608.75	22.422
609.08	22.789
609.41	22.818
609.75	23.031
610.08	22.617
610.41	22.837
610.74	22.771
611.07	22.738
611.41	22.845
611.74	23.805
612.07	23.170
612.40	23.099
612.73	23.565
613.07	23.568
613.40	22.957
613.73	23.265
614.06	22.700
614.39	23.788
614.72	23.255
615.06	22.849
615.39	23.168
615.72	22.168
616.05	23.355
616.38	23.085
616.71	23.440
617.05	23.668
617.38	23.820
617.71	24.578
618.04	23.107
618.37	23.513
618.70	22.979
619.03	24.237
619.36	24.749
619.69	24.208
620.03	26.027
620.36	23.956
620.69	25.798
621.02	24.932
621.35	24.857
621.68	24.705
622.01	26.052
622.34	24.909
622.67	25.281
623.00	24.506
623.33	25.236
623.66	24.351
623.99	24.932
624.32	24.322
624.65	24.753
624.99	23.732
625.32	24.382
625.65	23.931
625.98	24.756
626.31	25.668
626.64	24.981
626.97	25.631
627.30	25.078
627.63	24.882
627.96	25.039
628.29	26.238
628.62	25.406
628.95	26.507
629.28	26.906
629.61	26.362
629.94	27.485
630.26	25.997
630.59	28.103
630.92	26.009
631.25	26.383
631.58	27.580
631.91	27.022
632.24	26.725
632.57	26.130
632.90	27.536
633.23	28.856
633.56	28.662
633.89	27.867
634.22	28.095
634.55	27.742
634.88	30.011
635.20	28.027
635.53	28.223
635.86	29.083
636.19	26.824
636.52	27.243
636.85	27.616
637.18	28.169
637.51	26.257
637.83	27.117
638.16	27.902
638.49	27.425
638.82	28.873
639.15	26.439
639.48	27.844
639.81	26.740
640.13	28.589
640.46	27.939
640.79	28.869
641.12	26.903
641.45	28.331
641.77	28.930
642.10	28.648
642.43	30.156
642.76	28.267
643.09	29.539
643.41	29.032
643.74	30.504
644.07	29.941
644.40	28.550
644.73	31.231
645.05	30.461
645.38	29.250
645.71	31.715
646.04	30.229
646.36	29.734
646.69	28.960
647.02	32.800
647.35	28.819
647.67	29.822
648.00	30.945
648.33	31.128
648.66	27.424
648.98	28.116
649.31	28.745
649.64	27.386
649.96	26.458
650.29	27.000
650.62	30.191
650.94	32.229
651.27	31.260
651.60	29.108
651.92	32.412
652.25	30.394
652.58	27.518
652.90	28.892
653.23	27.622
653.56	29.674
653.88	29.515
654.21	28.006
654.54	31.040
654.86	28.319
655.19	27.836
655.52	22.572
655.84	17.442
656.17	19.961
656.49	28.658
656.82	32.454
657.15	25.554
657.47	19.155
657.80	14.293
658.13	11.519
658.45	15.865
658.78	19.596
659.10	20.235
659.43	20.701
659.75	21.954
660.08	23.622
660.41	25.136
660.73	30.238
661.06	29.129
661.38	29.642
661.71	31.835
662.03	29.087
662.36	29.143
662.68	30.540
663.01	31.351
663.33	29.057
663.66	29.389
663.98	31.349
664.31	31.157
664.63	30.268
664.96	33.208
665.28	28.814
665.61	32.453
665.93	29.811
666.26	29.720
666.58	31.927
666.91	32.432
667.23	27.711
667.56	32.649
667.88	33.402
668.21	29.303
668.53	30.242
668.86	32.665
669.18	32.790
669.50	29.339
669.83	32.238
670.15	31.185
670.48	27.539
670.80	30.677
671.13	30.677
671.45	31.864
671.77	30.612
672.10	28.187
672.42	27.961
672.75	28.323
673.07	28.617
673.39	27.955
673.72	30.277
674.04	31.900
674.37	29.220
674.69	27.881
675.01	29.291
675.34	29.457
675.66	30.859
675.98	29.783
676.31	30.200
676.63	29.622
676.95	31.746
677.28	30.020
677.60	32.596
677.92	28.571
678.25	33.721
678.57	30.726
678.89	31.646
679.22	28.493
679.54	29.004
679.86	30.541
680.18	28.998
680.51	26.534
680.83	27.703
681.15	28.943
681.48	28.125
681.80	26.270
682.12	28.720
682.44	27.568
682.77	28.292
683.09	30.680
683.41	29.388
683.73	28.937
684.06	28.571
684.38	29.845
684.70	27.158
685.02	26.215
685.34	28.345
685.67	29.100
685.99	26.765
686.31	28.351
686.63	26.179
686.96	26.471
687.28	26.174
687.60	27.816
687.92	26.968
688.24	29.655
688.56	27.046
688.89	27.533
689.21	29.865
689.53	28.854
689.85	28.862
690.17	29.709
690.49	31.452
690.82	29.412
691.14	30.303
691.46	29.363
691.78	30.799
692.10	29.198
692.42	26.316
692.74	29.845
693.06	28.101
693.39	29.447
693.71	27.308
694.03	30.178
694.35	29.719
694.67	28.717
694.99	29.933
695.31	30.180
695.63	30.543
695.95	32.353
696.27	34.071
696.59	28.162
696.91	30.633
697.23	30.543
697.56	26.763
697.88	26.946
698.20	29.057
698.52	26.654
698.84	29.569
699.16	28.571
699.48	30.720
699.80	33.769
700.12	31.640
700.44	28.972
700.76	32.458
701.08	29.765
701.40	28.571
701.72	33.957
702.04	33.875
702.36	31.720
702.68	35.638
703.00	28.321
703.32	32.258
703.64	34.509
703.96	29.687
704.28	33.862
704.60	30.704
704.91	34.734
705.23	35.795
705.55	34.421
705.87	34.603
706.19	35.737
706.51	33.229
706.83	32.743
707.15	32.620
707.47	29.298
707.79	30.115
708.11	29.025
708.43	28.989
708.74	29.186
709.06	27.907
709.38	29.032
709.70	29.700
710.02	28.804
710.34	33.149
710.66	31.667
710.98	32.514
711.29	33.983
711.61	30.919
711.93	34.650
712.25	32.229
712.57	32.476
712.89	34.545
713.20	36.102
713.52	35.514
713.84	29.909
714.16	31.304
714.48	29.971
714.80	32.249
715.11	31.649
715.43	34.078
715.75	27.042
716.07	31.792
716.39	30.286
716.70	31.153
717.02	34.680
717.34	34.532
717.66	34.722
717.97	39.015
718.29	35.915
718.61	33.108
718.93	34.602
719.24	34.228
719.56	28.276
719.88	28.662
720.20	29.677
720.51	34.967
720.83	33.110
721.15	34.354
721.46	35.274
721.78	33.101
722.10	36.111
722.42	32.776
722.73	36.462
723.05	35.439
723.37	38.163
723.68	38.281
724.00	30.682
724.32	38.023
724.63	35.769
724.95	33.333
725.27	34.201
725.58	31.250
725.90	32.394
726.22	31.507
726.53	32.441
726.85	31.596
727.16	34.899
727.48	32.558
727.80	37.410
728.11	35.357
728.43	32.971
728.74	33.566
729.06	31.900
729.38	35.789
729.69	32.333
730.01	38.158
730.32	34.228
730.64	34.551
730.96	32.733
731.27	27.829
731.59	29.885
731.90	29.805
732.22	29.714
732.53	28.205
732.85	32.164
733.16	31.325
733.48	32.915
733.80	31.014
734.11	34.663
734.43	28.947
734.74	30.563
735.06	30.688
735.37	30.155
735.69	30.145
736.00	32.416
736.32	28.485
736.63	31.546
736.95	29.193
737.26	27.134
737.58	30.368
737.89	27.711
738.21	29.139
738.52	32.441
738.83	36.996
739.15	31.707
739.46	30.000
739.78	30.272
740.09	31.778
740.41	28.221
740.72	33.651
741.04	33.217
741.35	35.547
741.66	36.364
741.98	38.197
742.29	42.130
742.61	38.053
742.92	31.780
743.23	34.800
743.55	31.321
743.86	33.333
744.18	36.864
744.49	36.777
744.80	38.249
745.12	36.607
745.43	38.318
745.74	35.556
746.06	31.579
746.37	38.605
746.68	39.381
747.00	35.874
747.31	35.294
747.62	29.508
747.94	38.627
748.25	33.852
748.56	37.712
748.88	35.714
749.19	35.814
749.50	31.963
749.82	40.329
750.13	34.387
750.44	31.333
750.75	34.564
751.07	31.579
751.38	35.974
751.69	28.283
752.01	35.315
752.32	34.884
752.63	32.215
752.94	30.070
753.26	37.891
753.57	33.074
753.88	30.712
754.19	31.769
754.51	30.897
754.82	30.201
755.13	29.392
755.44	31.111
755.75	34.708
756.07	31.849
756.38	28.105
756.69	31.250
757.00	30.861
757.31	30.986
757.63	29.201
757.94	28.457
758.25	27.053
758.56	27.231
758.87	29.574
759.18	29.070
759.50	28.875
759.81	29.674
760.12	28.090
760.43	29.412
760.74	28.354
761.05	27.586
761.36	26.042
761.67	26.415
761.99	32.394
762.30	27.653
762.61	29.861
762.92	31.439
763.23	33.585
763.54	31.538
763.85	29.572
764.16	33.681
764.47	29.054
764.78	26.059
765.10	28.963
765.41	26.989
765.72	26.243
766.03	29.305
766.34	32.056
766.65	33.840
766.96	35.223
767.27	36.449
767.58	34.158
767.89	40.884
768.20	44.512
768.51	40.816
768.82	35.965
769.13	32.157
769.44	33.835
769.75	32.210
770.06	34.874
770.37	28.070
770.68	28.444
770.99	38.559
771.30	33.054
771.61	34.231
771.92	28.626
772.23	29.839
772.54	39.556
772.85	38.119
773.16	37.500
773.47	31.111
773.78	40.594
774.09	41.477
774.39	38.788
774.70	32.353
775.01	44.737
775.32	42.236
775.63	41.781
775.94	51.852
776.25	49.655
776.56	43.511
776.87	45.038
777.18	51.515
777.48	51.181
777.79	42.308
778.10	56.818
778.41	47.761
778.72	44.361
779.03	35.897
779.34	38.514
779.65	38.509
779.95	42.857
780.26	35.714
780.57	41.497
780.88	41.844
781.19	52.500
781.50	44.970
781.80	46.448
782.11	37.566
782.42	36.782
782.73	41.243
783.04	35.484
783.34	41.085
783.65	41.497
783.96	48.387
784.27	35.099
784.57	33.553
784.88	35.507
785.19	47.500
785.50	55.172
785.81	61.240
786.11	42.963
786.42	51.181
786.73	43.243
787.04	42.453
787.34	38.211
787.65	56.818
787.96	45.455
788.26	52.756
788.57	51.095
788.88	45.775
789.19	40.458
789.49	49.324
789.80	44.531
790.11	40.496
790.41	47.222
790.72	36.111
791.03	53.846
791.33	62.626
791.64	52.632
791.95	51.579
792.25	48.958
792.56	57.000
792.87	64.634
793.17	60.227
793.48	62.353
793.79	57.471
794.09	62.500
794.40	52.586
794.70	46.032
795.01	38.462
795.32	41.221
795.62	44.444
795.93	51.261
796.23	51.220
796.54	55.102
796.85	59.091
797.15	67.532
797.46	81.707
797.76	61.250
798.07	73.333
798.37	60.000
798.68	66.250
798.99	69.512
799.29	60.000
799.60	63.953
799.90	69.737
800.21	81.818
800.51	70.423
800.82	79.310
801.12	81.538
801.43	65.333
801.73	68.966
802.04	63.636
802.34	61.644
802.65	76.471
802.95	84.783
803.26	69.355
803.56	103.333
803.87	92.537
804.17	66.667
804.48	66.038
804.78	69.444
805.09	86.364
805.39	77.778
805.70	91.228
806.00	58.571
806.30	81.250
806.61	67.059
806.91	58.889
807.22	46.739
807.52	59.211
807.83	61.842
808.13	78.261
808.43	90.323
808.74	57.534
809.04	78.571
809.35	82.353
809.65	84.848
809.95	84.314
810.26	79.630
810.56	79.688
810.86	85.714
811.17	91.228
811.47	93.478
811.77	96.552
812.08	65.517
812.38	85.714
812.69	95.238
812.99	84.444
813.29	128.571
813.59	145.161
813.90	81.034
814.20	80.328
814.50	82.000
814.81	77.193
815.11	90.741
815.41	76.786
815.72	94.643
816.02	90.000
816.32	97.561
816.62	86.207
816.93	130.303
817.23	85.366
817.53	78.571
817.84	97.778
818.14	97.619
818.44	81.250
818.74	90.566
819.04	110.256
819.35	109.091
819.65	115.385
819.95	96.296
820.25	125.532
820.56	154.054
820.86	121.053
821.16	63.830
821.46	118.421
821.76	85.455
822.07	61.905
822.37	100.000
822.67	104.651
822.97	97.368
823.27	126.087
823.57	118.750
823.88	133.333
824.18	148.485
824.48	178.261
824.78	147.222
825.08	104.348
825.38	141.379
825.69	126.471
825.99	110.638
826.29	88.889
826.59	111.429
826.89	123.333
827.19	102.857
827.49	158.065
827.79	146.154
828.09	116.667
828.39	108.333
828.70	91.892
829.00	146.429
829.30	231.250
829.60	102.778
829.90	112.903
830.20	96.970
830.50	143.243
830.80	208.333
831.10	184.615
831.40	123.810
831.70	158.333
832.00	140.000
832.30	204.348
832.60	166.667
832.90	148.485
833.20	205.000
833.50	136.842
833.80	114.706
834.10	81.579
834.40	168.421
834.70	96.667
835.00	208.000
835.30	124.324
835.60	128.125
835.90	121.622
836.20	150.000
836.50	186.364
836.80	104.878
837.10	160.870
837.40	261.538
837.70	147.368
838.00	136.667
838.30	187.500
838.60	204.000
838.90	420.000
839.19	225.000
839.49	126.667
839.79	127.586
840.09	134.615
840.39	226.667
840.69	210.526
840.99	123.810
841.29	160.870
841.59	195.000
841.88	192.000
842.18	411.111
842.48	167.857
842.78	192.593
843.08	276.923
843.38	195.455
843.68	307.143
843.97	400.000
844.27	160.870
844.57	1700.000
844.87	257.143
845.17	211.111
845.47	119.048
845.76	150.000
846.06	485.714
846.36	164.706
846.66	223.077
846.96	312.500
847.25	223.077
847.55	131.579
847.85	244.444
848.15	480.000
848.44	290.909
848.74	142.857
849.04	212.500
849.34	235.294
849.63	262.500
849.93	293.750
850.23	1133.333
850.53	237.500
850.82	290.909
851.12	200.000
851.42	162.500
851.71	187.500
852.01	0.000
852.31	200.000
852.61	350.000
852.90	187.500
853.20	377.778
853.50	-2300.000
853.79	164.000
854.09	140.625
854.39	106.897
854.68	124.138
854.98	228.571
855.28	132.258
855.57	228.571
855.87	188.889
856.17	125.926
856.46	184.211
856.76	122.581
857.05	241.176
857.35	290.909
857.65	238.462
857.94	185.000
858.24	311.111
858.53	328.571
858.83	571.429
859.13	156.522
859.42	477.778
859.72	325.000
860.01	200.000
860.31	1000.000
860.60	440.000
860.90	437.500
861.20	215.385
861.49	471.429
861.79	-3500.000
862.08	457.143
862.38	344.444
862.67	242.857
862.97	390.000
863.26	146.667
863.56	900.000
863.85	346.154
864.15	282.353
864.44	222.222
864.74	358.333
865.03	300.000
865.33	387.500
865.62	200.000
865.92	500.000
866.21	725.000
866.51	460.000
866.80	222.222
867.10	1066.667
867.39	3600.000
867.69	780.000
867.98	750.000
868.27	200.000
868.57	313.333
868.86	1000.000
869.16	195.238
869.45	3300.000
869.75	-516.667
870.04	775.000
870.33	620.000
870.63	437.500
870.92	194.118
871.22	675.000
871.51	471.429
871.80	383.333
872.10	384.615
>>>>>End Processed Spectral Data<<<<<
