SpectraSuite Data File
++++++++++++++++++++++++++++++++++++
Date: Tue May 12 15:35:14 PDT 2015
User: schluterlab
Dark Spectrum Present: Yes
Reference Spectrum Present: Yes
Number of Sampled Component Spectra: 1
Spectrometers: USB2E3373
Integration Time (usec): 3000 (USB2E3373)
Spectra Averaged: 3 (USB2E3373)
Boxcar Smoothing: 0 (USB2E3373)
Correct for Electrical Dark: No (USB2E3373)
Strobe/Lamp Enabled: No (USB2E3373)
Correct for Detector Non-linearity: No (USB2E3373)
Correct for Stray Light: No (USB2E3373)
Number of Pixels in Processed Spectrum: 2048
>>>>>Begin Processed Spectral Data<<<<<
178.53	0.000
178.91	-258.333
179.29	-825.000
179.67	-3500.000
180.04	-140.000
180.42	725.000
180.80	1450.000
181.18	0.000
181.56	-300.000
181.94	0.000
182.31	1133.333
182.69	-2700.000
183.07	714.286
183.45	-3600.000
183.83	-1300.000
184.20	350.000
184.58	471.429
184.96	-230.769
185.34	-250.000
185.72	1650.000
186.09	-975.000
186.47	-3300.000
186.85	1100.000
187.23	560.000
187.61	2050.000
187.98	575.000
188.36	271.429
188.74	283.333
189.12	316.667
189.49	1000.000
189.87	0.000
190.25	562.500
190.63	3000.000
191.00	-183.333
191.38	-3900.000
191.76	-875.000
192.14	550.000
192.51	-3100.000
192.89	2150.000
193.27	1233.333
193.65	-1166.667
194.02	-760.000
194.40	514.286
194.78	-228.571
195.15	253.333
195.53	-3000.000
195.91	-620.000
196.29	4600.000
196.66	262.500
197.04	975.000
197.42	-1800.000
197.79	875.000
198.17	258.333
198.55	0.000
198.92	585.714
199.30	1166.667
199.68	2350.000
200.05	716.667
200.43	-466.667
200.81	216.667
201.18	2700.000
201.56	275.000
201.94	-825.000
202.31	-375.000
202.69	-360.000
203.07	2900.000
203.44	-433.333
203.82	333.333
204.19	640.000
204.57	-2000.000
204.95	-750.000
205.32	-540.000
205.70	516.667
206.08	900.000
206.45	-1133.333
206.83	511.111
207.20	168.421
207.58	250.000
207.96	820.000
208.33	0.000
208.71	657.143
209.08	680.000
209.46	-2100.000
209.84	-925.000
210.21	1040.000
210.59	-720.000
210.96	341.667
211.34	-1100.000
211.71	381.818
212.09	700.000
212.46	1700.000
212.84	-400.000
213.22	522.222
213.59	-3400.000
213.97	370.000
214.34	850.000
214.72	1033.333
215.09	1066.667
215.47	-4400.000
215.84	-370.000
216.22	-325.000
216.59	0.000
216.97	0.000
217.34	1650.000
217.72	-1400.000
218.09	1133.333
218.47	487.500
218.84	950.000
219.22	1133.333
219.59	733.333
219.97	457.143
220.34	388.889
220.72	1700.000
221.09	4200.000
221.47	241.667
221.84	733.333
222.22	340.000
222.59	266.667
222.97	221.429
223.34	250.000
223.72	-2200.000
224.09	833.333
224.46	300.000
224.84	-925.000
225.21	366.667
225.59	346.667
225.96	1233.333
226.34	-660.000
226.71	-800.000
227.08	-700.000
227.46	0.000
227.83	-400.000
228.21	-1400.000
228.58	316.667
228.95	1150.000
229.33	466.667
229.70	1050.000
230.08	284.615
230.45	3600.000
230.82	-975.000
231.20	-1133.333
231.57	-933.333
231.95	720.000
232.32	291.667
232.69	366.667
233.07	241.667
233.44	-1750.000
233.81	240.000
234.19	181.481
234.56	243.750
234.93	217.647
235.31	165.000
235.68	262.500
236.05	164.286
236.43	133.333
236.80	300.000
237.17	124.138
237.55	137.500
237.92	107.500
238.29	136.364
238.67	140.625
239.04	95.122
239.41	70.833
239.79	102.500
240.16	83.333
240.53	60.656
240.91	65.217
241.28	72.881
241.65	71.212
242.02	73.239
242.40	71.429
242.77	54.945
243.14	55.696
243.51	66.667
243.89	45.794
244.26	51.402
244.63	49.505
245.00	53.211
245.38	37.288
245.75	48.485
246.12	53.333
246.49	39.716
246.87	31.148
247.24	44.667
247.61	41.250
247.98	38.776
248.36	38.788
248.73	43.367
249.10	27.976
249.47	40.000
249.84	35.821
250.22	36.216
250.59	32.500
250.96	35.443
251.33	31.163
251.70	34.375
252.08	29.412
252.45	29.880
252.82	28.897
253.19	28.458
253.56	29.615
253.94	31.159
254.31	26.744
254.68	33.449
255.05	32.759
255.42	29.927
255.79	28.013
256.16	30.847
256.54	29.221
256.91	28.431
257.28	29.766
257.65	27.273
258.02	27.729
258.39	33.524
258.76	29.855
259.14	23.143
259.51	30.321
259.88	26.748
260.25	27.747
260.62	31.781
260.99	23.140
261.36	28.691
261.73	26.330
262.10	26.702
262.47	26.500
262.85	24.800
263.22	25.707
263.59	27.110
263.96	27.068
264.33	25.926
264.70	26.536
265.07	27.073
265.44	25.229
265.81	25.000
266.18	27.231
266.55	25.296
266.92	23.490
267.29	25.219
267.66	25.112
268.03	21.973
268.40	23.890
268.77	27.753
269.14	24.512
269.51	24.499
269.88	24.898
270.25	21.814
270.62	25.107
270.99	24.746
271.36	26.016
271.73	24.528
272.10	23.838
272.47	23.413
272.84	22.954
273.21	22.521
273.58	22.672
273.95	21.355
274.32	23.930
274.69	25.984
275.06	25.137
275.43	23.946
275.80	21.321
276.17	22.978
276.54	24.486
276.91	22.388
277.28	21.715
277.65	21.402
278.02	24.265
278.39	23.201
278.76	23.793
279.13	24.733
279.50	24.000
279.87	21.229
280.23	23.389
280.60	22.445
280.97	22.759
281.34	21.782
281.71	22.957
282.08	21.709
282.45	22.973
282.82	22.742
283.19	22.258
283.56	20.331
283.92	22.964
284.29	20.466
284.66	21.849
285.03	21.725
285.40	22.314
285.77	20.062
286.14	20.279
286.51	20.552
286.87	18.987
287.24	21.471
287.61	20.821
287.98	20.896
288.35	21.333
288.72	19.423
289.08	21.171
289.45	21.037
289.82	20.000
290.19	20.791
290.56	20.961
290.93	20.576
291.29	20.856
291.66	18.220
292.03	19.074
292.40	19.377
292.77	18.106
293.13	19.829
293.50	17.274
293.87	17.073
294.24	18.881
294.60	18.035
294.97	19.161
295.34	17.397
295.71	20.368
296.08	20.133
296.44	17.916
296.81	17.866
297.18	19.265
297.55	17.488
297.91	18.473
298.28	18.478
298.65	19.632
299.02	18.697
299.38	17.506
299.75	18.049
300.12	17.775
300.48	18.735
300.85	17.521
301.22	19.767
301.59	18.160
301.95	18.903
302.32	17.928
302.69	19.118
303.05	18.406
303.42	19.170
303.79	18.418
304.15	17.052
304.52	18.076
304.89	18.763
305.25	18.242
305.62	18.337
305.99	17.283
306.35	18.842
306.72	18.314
307.09	18.634
307.45	18.691
307.82	17.284
308.19	18.969
308.55	17.700
308.92	19.333
309.29	19.132
309.65	19.029
310.02	20.487
310.38	19.442
310.75	19.961
311.12	20.019
311.48	21.622
311.85	20.134
312.22	22.063
312.58	20.894
312.95	22.427
313.31	21.348
313.68	21.107
314.05	23.352
314.41	22.346
314.78	22.822
315.14	23.886
315.51	26.017
315.87	23.540
316.24	25.303
316.61	25.157
316.97	24.954
317.34	26.415
317.70	26.602
318.07	26.068
318.43	27.856
318.80	27.846
319.16	28.934
319.53	29.292
319.89	28.495
320.26	32.495
320.62	31.410
320.99	31.268
321.35	31.540
321.72	33.491
322.08	34.534
322.45	34.968
322.81	34.950
323.18	36.767
323.54	36.237
323.91	37.081
324.27	38.815
324.64	39.706
325.00	41.207
325.37	41.568
325.73	42.664
326.10	44.242
326.46	44.839
326.83	44.880
327.19	46.747
327.56	46.645
327.92	49.508
328.29	48.936
328.65	50.257
329.01	51.326
329.38	51.269
329.74	50.726
330.11	52.215
330.47	51.748
330.84	52.114
331.20	53.723
331.56	55.699
331.93	55.774
332.29	53.656
332.66	55.102
333.02	53.866
333.38	56.370
333.75	56.547
334.11	55.789
334.48	55.726
334.84	54.561
335.20	55.945
335.57	55.751
335.93	57.275
336.29	55.058
336.66	57.633
337.02	56.801
337.38	56.664
337.75	57.855
338.11	57.637
338.47	57.494
338.84	55.631
339.20	57.749
339.56	57.359
339.93	57.776
340.29	55.966
340.65	55.993
341.02	55.994
341.38	57.225
341.74	56.312
342.11	56.177
342.47	55.865
342.83	57.998
343.20	55.780
343.56	56.235
343.92	57.308
344.28	56.380
344.65	58.843
345.01	55.952
345.37	57.212
345.73	56.190
346.10	57.530
346.46	58.214
346.82	56.559
347.19	56.801
347.55	56.831
347.91	55.438
348.27	56.778
348.63	57.120
349.00	56.969
349.36	57.743
349.72	57.492
350.08	57.143
350.45	56.283
350.81	57.187
351.17	56.857
351.53	57.044
351.89	56.022
352.26	55.782
352.62	55.732
352.98	56.595
353.34	58.012
353.70	57.110
354.07	56.846
354.43	56.912
354.79	57.403
355.15	58.040
355.51	57.251
355.87	56.476
356.24	58.276
356.60	57.078
356.96	58.074
357.32	57.121
357.68	58.150
358.04	57.447
358.40	57.871
358.77	59.204
359.13	57.432
359.49	57.746
359.85	58.228
360.21	59.212
360.57	57.664
360.93	58.586
361.29	57.864
361.66	58.464
362.02	57.528
362.38	58.442
362.74	57.962
363.10	57.504
363.46	57.113
363.82	57.784
364.18	57.752
364.54	60.014
364.90	57.965
365.26	59.750
365.62	58.356
365.98	59.119
366.35	59.241
366.71	60.028
367.07	59.317
367.43	59.503
367.79	57.713
368.15	57.598
368.51	58.580
368.87	57.269
369.23	58.628
369.59	58.395
369.95	59.231
370.31	58.316
370.67	57.252
371.03	59.594
371.39	59.834
371.75	58.688
372.11	57.988
372.47	58.288
372.83	58.600
373.19	59.013
373.55	58.144
373.91	59.599
374.27	59.524
374.63	60.000
374.99	57.615
375.35	59.610
375.71	59.631
376.07	59.416
376.42	59.143
376.78	60.951
377.14	60.288
377.50	59.551
377.86	59.193
378.22	58.501
378.58	60.533
378.94	60.410
379.30	59.673
379.66	59.302
380.02	60.880
380.38	59.778
380.74	60.381
381.09	59.463
381.45	58.497
381.81	59.456
382.17	59.585
382.53	58.608
382.89	59.846
383.25	59.384
383.61	57.810
383.97	59.508
384.32	58.529
384.68	60.131
385.04	59.144
385.40	59.312
385.76	59.450
386.12	59.246
386.48	60.000
386.83	60.636
387.19	60.306
387.55	60.071
387.91	59.873
388.27	60.678
388.62	58.509
388.98	58.776
389.34	59.369
389.70	59.788
390.06	60.793
390.42	59.716
390.77	59.644
391.13	60.410
391.49	58.984
391.85	59.815
392.20	60.131
392.56	58.901
392.92	59.629
393.28	57.735
393.64	58.544
393.99	58.447
394.35	57.504
394.71	59.168
395.07	59.976
395.42	58.021
395.78	59.963
396.14	60.301
396.50	59.446
396.85	58.598
397.21	57.762
397.57	58.159
397.92	58.174
398.28	58.853
398.64	58.930
399.00	58.311
399.35	56.951
399.71	58.223
400.07	57.763
400.42	57.552
400.78	58.240
401.14	59.072
401.49	58.295
401.85	58.343
402.21	58.524
402.57	58.348
402.92	58.667
403.28	56.742
403.63	58.387
403.99	57.419
404.35	58.441
404.70	58.949
405.06	57.440
405.42	57.989
405.77	57.938
406.13	56.236
406.49	56.055
406.84	55.838
407.20	56.393
407.55	56.677
407.91	57.881
408.27	57.368
408.62	57.481
408.98	57.363
409.34	56.634
409.69	56.752
410.05	56.052
410.40	56.184
410.76	55.810
411.11	56.043
411.47	56.296
411.83	56.649
412.18	56.763
412.54	56.757
412.89	55.634
413.25	56.385
413.60	55.199
413.96	56.732
414.31	56.080
414.67	57.294
415.03	57.280
415.38	56.972
415.74	56.601
416.09	56.652
416.45	57.725
416.80	57.793
417.16	55.188
417.51	56.115
417.87	55.444
418.22	56.440
418.58	57.070
418.93	56.395
419.29	55.330
419.64	56.693
420.00	57.876
420.35	56.620
420.71	57.293
421.06	56.210
421.42	56.477
421.77	55.858
422.12	56.174
422.48	55.110
422.83	56.808
423.19	56.425
423.54	56.007
423.90	56.059
424.25	57.622
424.61	57.458
424.96	56.635
425.31	57.198
425.67	57.856
426.02	57.151
426.38	56.243
426.73	58.126
427.09	57.473
427.44	56.612
427.79	57.404
428.15	58.986
428.50	57.371
428.85	58.671
429.21	57.320
429.56	56.281
429.92	57.434
430.27	56.604
430.62	55.947
430.98	57.685
431.33	56.401
431.68	54.716
432.04	56.079
432.39	57.794
432.74	56.674
433.10	58.804
433.45	58.300
433.80	59.404
434.16	57.698
434.51	57.740
434.86	57.703
435.22	57.753
435.57	58.803
435.92	58.793
436.28	58.295
436.63	56.942
436.98	58.896
437.34	58.562
437.69	57.223
438.04	56.989
438.39	58.844
438.75	57.906
439.10	57.420
439.45	57.660
439.81	57.953
440.16	57.898
440.51	57.264
440.86	58.917
441.22	57.359
441.57	57.218
441.92	57.552
442.27	58.299
442.63	56.758
442.98	56.950
443.33	57.954
443.68	57.193
444.03	57.634
444.39	58.145
444.74	55.642
445.09	58.189
445.44	56.695
445.79	57.992
446.15	56.684
446.50	57.648
446.85	57.620
447.20	57.114
447.55	58.510
447.91	57.912
448.26	56.337
448.61	58.596
448.96	58.170
449.31	57.371
449.66	57.697
450.02	57.428
450.37	57.690
450.72	57.466
451.07	57.708
451.42	57.617
451.77	58.018
452.12	57.289
452.47	57.473
452.83	56.676
453.18	58.258
453.53	57.667
453.88	58.171
454.23	56.769
454.58	57.226
454.93	56.714
455.28	57.038
455.63	57.861
455.98	57.191
456.34	57.751
456.69	58.171
457.04	57.160
457.39	56.743
457.74	56.137
458.09	56.036
458.44	57.174
458.79	56.127
459.14	55.319
459.49	57.305
459.84	57.337
460.19	56.497
460.54	55.954
460.89	55.597
461.24	55.498
461.59	56.803
461.94	55.319
462.29	56.579
462.64	58.103
462.99	56.174
463.34	56.384
463.69	57.592
464.04	56.707
464.39	55.409
464.74	55.920
465.09	55.194
465.44	55.713
465.79	54.927
466.14	54.425
466.49	54.259
466.84	54.794
467.19	55.243
467.54	54.775
467.89	55.223
468.24	54.545
468.59	55.655
468.94	55.737
469.29	54.429
469.64	56.077
469.99	55.077
470.34	54.712
470.68	54.276
471.03	55.170
471.38	55.894
471.73	55.650
472.08	56.164
472.43	54.190
472.78	56.082
473.13	54.255
473.48	54.707
473.83	54.594
474.17	54.590
474.52	53.199
474.87	53.496
475.22	55.054
475.57	54.092
475.92	54.011
476.27	52.666
476.61	53.190
476.96	53.501
477.31	54.087
477.66	55.448
478.01	53.584
478.36	52.214
478.70	53.449
479.05	52.929
479.40	53.274
479.75	53.873
480.10	53.582
480.45	52.801
480.79	51.567
481.14	52.116
481.49	50.961
481.84	51.407
482.19	52.445
482.53	51.383
482.88	52.464
483.23	51.737
483.58	52.648
483.92	52.651
484.27	50.642
484.62	52.250
484.97	51.305
485.31	50.471
485.66	49.710
486.01	47.675
486.36	46.637
486.70	45.833
487.05	47.005
487.40	47.460
487.75	48.185
488.09	48.864
488.44	48.438
488.79	49.497
489.13	50.653
489.48	50.100
489.83	49.374
490.17	49.711
490.52	51.163
490.87	49.914
491.22	50.709
491.56	50.417
491.91	49.418
492.26	49.978
492.60	51.025
492.95	50.023
493.30	50.637
493.64	50.494
493.99	49.374
494.34	50.471
494.68	49.624
495.03	50.022
495.37	49.347
495.72	50.070
496.07	50.045
496.41	49.696
496.76	48.544
497.11	48.458
497.45	49.057
497.80	49.305
498.14	48.960
498.49	49.257
498.84	49.626
499.18	48.446
499.53	48.966
499.87	49.012
500.22	49.010
500.56	49.211
500.91	49.119
501.26	49.747
501.60	49.909
501.95	48.566
502.29	48.533
502.64	47.684
502.98	47.399
503.33	47.661
503.67	47.417
504.02	47.515
504.36	48.326
504.71	49.858
505.06	48.381
505.40	48.245
505.75	47.521
506.09	47.690
506.44	47.979
506.78	49.575
507.13	49.346
507.47	48.083
507.82	48.856
508.16	49.339
508.51	48.309
508.85	48.718
509.19	48.018
509.54	47.998
509.88	47.936
510.23	47.745
510.57	46.911
510.92	48.501
511.26	48.193
511.61	47.612
511.95	48.084
512.30	48.600
512.64	47.871
512.98	47.924
513.33	47.643
513.67	48.731
514.02	47.896
514.36	47.664
514.70	48.587
515.05	47.576
515.39	47.423
515.74	48.223
516.08	47.222
516.42	48.852
516.77	47.787
517.11	48.053
517.46	48.114
517.80	47.023
518.14	48.732
518.49	46.968
518.83	47.033
519.17	46.700
519.52	47.624
519.86	47.357
520.20	46.740
520.55	47.880
520.89	49.023
521.23	48.131
521.58	47.390
521.92	46.880
522.26	46.979
522.61	47.831
522.95	48.408
523.29	47.602
523.64	47.572
523.98	47.535
524.32	47.059
524.66	47.362
525.01	47.101
525.35	46.965
525.69	47.923
526.04	46.520
526.38	47.322
526.72	47.673
527.06	46.067
527.41	48.005
527.75	47.900
528.09	45.575
528.43	47.041
528.78	47.346
529.12	48.104
529.46	46.347
529.80	46.379
530.15	46.199
530.49	45.608
530.83	46.618
531.17	46.433
531.51	46.291
531.86	45.954
532.20	45.859
532.54	47.395
532.88	47.533
533.22	46.679
533.57	47.407
533.91	44.814
534.25	44.778
534.59	45.614
534.93	44.482
535.27	44.337
535.62	45.158
535.96	44.149
536.30	46.374
536.64	45.652
536.98	44.997
537.32	45.688
537.66	44.579
538.01	44.706
538.35	45.789
538.69	43.629
539.03	44.590
539.37	43.022
539.71	44.691
540.05	44.800
540.39	45.346
540.73	44.747
541.07	43.852
541.42	44.092
541.76	44.760
542.10	44.143
542.44	44.701
542.78	45.626
543.12	43.926
543.46	42.857
543.80	44.799
544.14	44.768
544.48	44.526
544.82	43.731
545.16	43.169
545.50	43.762
545.84	44.697
546.18	46.164
546.52	43.934
546.86	44.745
547.20	44.380
547.54	42.052
547.88	43.735
548.22	43.716
548.56	42.310
548.90	41.222
549.24	44.283
549.58	43.235
549.92	43.746
550.26	44.625
550.60	42.515
550.94	44.098
551.28	44.897
551.62	45.931
551.96	44.054
552.30	43.045
552.64	43.236
552.98	43.170
553.32	43.214
553.66	43.062
554.00	43.372
554.34	45.140
554.68	43.683
555.02	45.350
555.36	42.553
555.69	42.801
556.03	41.783
556.37	41.874
556.71	43.481
557.05	42.923
557.39	43.600
557.73	43.127
558.07	42.790
558.41	43.112
558.75	43.434
559.08	45.104
559.42	44.023
559.76	43.763
560.10	43.496
560.44	41.805
560.78	42.327
561.12	42.594
561.45	41.990
561.79	42.135
562.13	41.567
562.47	42.570
562.81	41.574
563.15	41.758
563.48	40.248
563.82	43.169
564.16	41.480
564.50	40.446
564.84	40.790
565.17	41.592
565.51	42.365
565.85	42.628
566.19	41.190
566.52	40.915
566.86	41.740
567.20	41.966
567.54	40.502
567.88	40.532
568.21	39.391
568.55	39.835
568.89	38.139
569.23	38.956
569.56	38.379
569.90	37.334
570.24	37.445
570.57	37.184
570.91	36.942
571.25	35.706
571.59	35.110
571.92	35.495
572.26	34.933
572.60	34.851
572.93	35.796
573.27	35.841
573.61	35.192
573.95	34.736
574.28	35.191
574.62	34.886
574.96	34.765
575.29	34.299
575.63	34.064
575.97	33.763
576.30	34.219
576.64	34.201
576.98	34.479
577.31	34.737
577.65	33.944
577.98	33.539
578.32	33.809
578.66	33.320
578.99	33.228
579.33	34.078
579.67	33.926
580.00	33.341
580.34	33.482
580.67	33.691
581.01	33.728
581.35	33.751
581.68	33.092
582.02	33.128
582.35	33.227
582.69	33.223
583.02	33.384
583.36	33.769
583.70	33.595
584.03	34.452
584.37	34.250
584.70	34.312
585.04	33.976
585.37	33.521
585.71	33.955
586.04	33.733
586.38	33.804
586.72	34.054
587.05	33.917
587.39	33.881
587.72	34.057
588.06	33.698
588.39	34.826
588.73	33.969
589.06	34.432
589.40	35.274
589.73	35.267
590.07	36.102
590.40	36.551
590.73	36.210
591.07	36.622
591.40	35.888
591.74	36.323
592.07	35.483
592.41	35.931
592.74	35.335
593.08	34.505
593.41	34.979
593.75	33.382
594.08	34.093
594.41	34.669
594.75	35.068
595.08	34.396
595.42	34.694
595.75	35.406
596.09	35.488
596.42	35.361
596.75	36.098
597.09	36.071
597.42	35.796
597.75	35.456
598.09	36.069
598.42	35.904
598.76	34.773
599.09	35.013
599.42	34.360
599.76	34.905
600.09	34.644
600.42	34.289
600.76	34.500
601.09	34.070
601.42	34.002
601.76	34.622
602.09	34.584
602.42	34.381
602.76	34.611
603.09	35.558
603.42	35.486
603.76	34.454
604.09	34.962
604.42	34.614
604.76	35.362
605.09	35.061
605.42	35.961
605.75	34.465
606.09	34.583
606.42	34.987
606.75	34.901
607.09	35.176
607.42	34.673
607.75	35.589
608.08	33.916
608.42	34.983
608.75	34.489
609.08	35.064
609.41	35.727
609.75	36.218
610.08	34.982
610.41	34.914
610.74	34.892
611.07	35.516
611.41	35.728
611.74	35.994
612.07	36.175
612.40	35.819
612.73	36.495
613.07	36.290
613.40	36.842
613.73	35.347
614.06	35.300
614.39	35.859
614.72	35.560
615.06	35.213
615.39	35.396
615.72	35.189
616.05	35.811
616.38	34.805
616.71	36.191
617.05	36.848
617.38	36.573
617.71	36.445
618.04	36.568
618.37	35.686
618.70	36.952
619.03	36.447
619.36	38.191
619.69	37.335
620.03	38.421
620.36	37.701
620.69	37.739
621.02	37.976
621.35	38.682
621.68	38.864
622.01	40.812
622.34	38.893
622.67	38.062
623.00	37.645
623.33	37.449
623.66	37.325
623.99	37.877
624.32	37.805
624.65	36.932
624.99	38.945
625.32	38.343
625.65	37.379
625.98	37.727
626.31	38.947
626.64	38.648
626.97	38.485
627.30	39.053
627.63	39.639
627.96	37.559
628.29	40.677
628.62	38.666
628.95	39.894
629.28	41.280
629.61	39.807
629.94	39.844
630.26	40.121
630.59	40.780
630.92	39.641
631.25	40.163
631.58	43.009
631.91	42.436
632.24	40.816
632.57	39.489
632.90	41.718
633.23	44.176
633.56	42.360
633.89	43.194
634.22	41.658
634.55	41.183
634.88	41.512
635.20	42.265
635.53	43.438
635.86	42.170
636.19	43.322
636.52	41.081
636.85	41.208
637.18	42.037
637.51	42.235
637.83	42.105
638.16	42.556
638.49	44.192
638.82	42.488
639.15	41.128
639.48	42.062
639.81	43.956
640.13	44.049
640.46	44.248
640.79	43.173
641.12	43.570
641.45	46.313
641.77	45.971
642.10	45.382
642.43	45.661
642.76	43.324
643.09	44.669
643.41	45.302
643.74	45.612
644.07	48.230
644.40	45.710
644.73	48.348
645.05	46.805
645.38	46.095
645.71	45.675
646.04	47.939
646.36	46.322
646.69	47.520
647.02	44.480
647.35	45.039
647.67	43.760
648.00	48.046
648.33	45.414
648.66	45.303
648.98	43.623
649.31	41.430
649.64	42.739
649.96	41.963
650.29	43.571
650.62	44.477
650.94	44.428
651.27	46.411
651.60	46.635
651.92	45.469
652.25	46.299
652.58	42.128
652.90	44.311
653.23	43.870
653.56	44.362
653.88	43.759
654.21	44.868
654.54	42.460
654.86	43.953
655.19	43.536
655.52	35.945
655.84	27.847
656.17	31.851
656.49	45.121
656.82	51.803
657.15	41.334
657.47	30.921
657.80	22.874
658.13	18.203
658.45	24.364
658.78	30.067
659.10	30.781
659.43	30.830
659.75	32.691
660.08	35.526
660.41	38.385
660.73	43.162
661.06	45.946
661.38	44.634
661.71	47.302
662.03	46.958
662.36	46.095
662.68	46.369
663.01	46.486
663.33	46.226
663.66	49.704
663.98	46.627
664.31	49.627
664.63	49.042
664.96	49.719
665.28	47.269
665.61	44.717
665.93	46.604
666.26	48.785
666.58	47.339
666.91	46.525
667.23	46.185
667.56	49.487
667.88	50.000
668.21	47.541
668.53	47.984
668.86	49.499
669.18	48.065
669.50	47.314
669.83	49.281
670.15	48.025
670.48	44.141
670.80	48.207
671.13	48.008
671.45	47.295
671.77	48.237
672.10	44.883
672.42	43.092
672.75	42.405
673.07	43.561
673.39	41.374
673.72	43.599
674.04	44.086
674.37	43.194
674.69	45.167
675.01	44.590
675.34	41.860
675.66	47.070
675.98	46.548
676.31	49.000
676.63	44.533
676.95	46.429
677.28	45.233
677.60	44.869
677.92	46.429
678.25	46.512
678.57	43.762
678.89	45.389
679.22	46.140
679.54	43.772
679.86	43.630
680.18	44.112
680.51	41.294
680.83	43.243
681.15	45.581
681.48	43.750
681.80	42.382
682.12	41.522
682.44	41.261
682.77	42.527
683.09	44.660
683.41	46.531
683.73	44.094
684.06	44.444
684.38	46.124
684.70	41.727
685.02	41.146
685.34	43.134
685.67	43.408
685.99	40.722
686.31	40.370
686.63	41.951
686.96	42.647
687.28	41.275
687.60	42.150
687.92	41.709
688.24	43.276
688.56	43.416
688.89	41.491
689.21	41.426
689.53	46.245
689.85	44.715
690.17	43.301
690.49	44.960
690.82	44.538
691.14	43.636
691.46	43.326
691.78	42.885
692.10	43.893
692.42	42.105
692.74	45.543
693.06	42.054
693.39	42.490
693.71	45.187
694.03	45.365
694.35	47.590
694.67	42.363
694.99	44.124
695.31	46.396
695.63	47.285
695.95	43.213
696.27	45.796
696.59	49.642
696.91	44.810
697.23	45.249
697.56	41.909
697.88	40.719
698.20	42.264
698.52	42.607
698.84	43.737
699.16	43.497
699.48	44.492
699.80	42.919
700.12	44.573
700.44	46.963
700.76	44.869
701.08	44.125
701.40	44.935
701.72	49.198
702.04	51.220
702.36	48.387
702.68	46.277
703.00	46.115
703.32	49.628
703.64	48.111
703.96	46.875
704.28	47.884
704.60	50.423
704.91	46.779
705.23	48.580
705.55	48.071
705.87	50.159
706.19	53.918
706.51	51.411
706.83	48.378
707.15	47.326
707.47	46.489
707.79	45.517
708.11	44.218
708.43	42.921
708.74	44.344
709.06	43.953
709.38	47.395
709.70	43.869
710.02	46.739
710.34	43.923
710.66	47.778
710.98	48.907
711.29	49.025
711.61	47.632
711.93	49.848
712.25	50.602
712.57	50.482
712.89	48.485
713.20	52.716
713.52	48.910
713.84	48.338
714.16	45.797
714.48	41.499
714.80	47.425
715.11	41.755
715.43	43.855
715.75	47.042
716.07	45.376
716.39	43.714
716.70	49.221
717.02	49.495
717.34	51.439
717.66	53.472
717.97	58.333
718.29	51.408
718.61	42.568
718.93	54.671
719.24	47.987
719.56	48.621
719.88	46.497
720.20	49.032
720.51	46.732
720.83	46.154
721.15	50.000
721.46	49.658
721.78	49.129
722.10	46.875
722.42	46.488
722.73	46.209
723.05	47.719
723.37	51.590
723.68	46.484
724.00	56.439
724.32	49.810
724.63	50.769
724.95	53.333
725.27	52.416
725.58	50.735
725.90	48.239
726.22	48.288
726.53	47.492
726.85	52.769
727.16	48.993
727.48	47.841
727.80	50.360
728.11	46.786
728.43	49.275
728.74	51.049
729.06	44.803
729.38	52.632
729.69	50.333
730.01	47.697
730.32	47.315
730.64	48.837
730.96	45.345
731.27	44.037
731.59	41.667
731.90	44.011
732.22	46.857
732.53	44.729
732.85	42.105
733.16	47.289
733.48	44.514
733.80	44.348
734.11	49.080
734.43	43.567
734.74	41.555
735.06	41.799
735.37	43.041
735.69	44.058
736.00	45.566
736.32	43.636
736.63	46.688
736.95	46.584
737.26	43.598
737.58	44.172
737.89	43.675
738.21	42.384
738.52	44.147
738.83	46.886
739.15	44.599
739.46	46.207
739.78	46.939
740.09	41.691
740.41	40.798
740.72	42.857
741.04	50.000
741.35	51.562
741.66	48.617
741.98	53.648
742.29	56.944
742.61	49.115
742.92	42.373
743.23	50.400
743.55	48.302
743.86	46.667
744.18	49.153
744.49	54.132
744.80	52.074
745.12	48.214
745.43	56.542
745.74	54.222
746.06	44.298
746.37	50.233
746.68	50.442
747.00	55.605
747.31	55.042
747.62	46.311
747.94	50.644
748.25	50.973
748.56	46.610
748.88	50.446
749.19	52.558
749.50	53.425
749.82	54.321
750.13	47.036
750.44	43.667
750.75	49.329
751.07	45.066
751.38	48.515
751.69	43.434
752.01	43.706
752.32	45.183
752.63	52.013
752.94	46.154
753.26	50.781
753.57	45.914
753.88	46.442
754.19	46.570
754.51	49.502
754.82	44.295
755.13	43.919
755.44	45.185
755.75	46.735
756.07	48.630
756.38	42.810
756.69	43.125
757.00	43.027
757.31	40.000
757.63	36.639
757.94	38.564
758.25	39.614
758.56	41.190
758.87	39.850
759.18	43.895
759.50	39.818
759.81	43.917
760.12	42.135
760.43	41.737
760.74	41.519
761.05	41.645
761.36	36.979
761.67	39.892
761.99	41.127
762.30	44.373
762.61	45.486
762.92	47.348
763.23	47.547
763.54	45.769
763.85	45.136
764.16	45.139
764.47	42.230
764.78	42.671
765.10	39.939
765.41	40.057
765.72	40.608
766.03	38.973
766.34	47.038
766.65	44.867
766.96	47.368
767.27	52.336
767.58	51.485
767.89	59.669
768.20	60.366
768.51	45.918
768.82	49.561
769.13	44.706
769.44	45.489
769.75	43.071
770.06	50.000
770.37	49.123
770.68	48.889
770.99	49.576
771.30	48.954
771.61	46.154
771.92	41.985
772.23	49.194
772.54	48.000
772.85	52.475
773.16	50.543
773.47	50.000
773.78	51.485
774.09	55.682
774.39	56.970
774.70	47.647
775.01	53.947
775.32	52.795
775.63	60.274
775.94	56.790
776.25	58.621
776.56	62.595
776.87	66.412
777.18	53.788
777.48	72.441
777.79	62.308
778.10	62.879
778.41	64.179
778.72	60.150
779.03	50.000
779.34	58.108
779.65	50.311
779.95	52.174
780.26	55.952
780.57	65.986
780.88	57.447
781.19	62.500
781.50	55.621
781.80	51.913
782.11	49.735
782.42	47.701
782.73	54.802
783.04	47.097
783.34	59.690
783.65	48.299
783.96	56.774
784.27	47.020
784.57	46.711
784.88	56.522
785.19	51.667
785.50	72.414
785.81	57.364
786.11	62.222
786.42	47.244
786.73	68.468
787.04	65.094
787.34	60.163
787.65	68.182
787.96	58.333
788.26	55.118
788.57	57.664
788.88	53.521
789.19	60.305
789.49	62.162
789.80	58.594
790.11	71.074
790.41	63.889
790.72	58.333
791.03	73.077
791.33	68.687
791.64	69.474
791.95	84.211
792.25	58.333
792.56	71.000
792.87	73.171
793.17	84.091
793.48	63.529
793.79	75.862
794.09	70.455
794.40	70.690
794.70	62.698
795.01	56.923
795.32	53.435
795.62	48.718
795.93	69.748
796.23	60.163
796.54	62.245
796.85	72.727
797.15	90.909
797.46	80.488
797.76	77.500
798.07	92.000
798.37	86.250
798.68	82.500
798.99	89.024
799.29	74.667
799.60	63.953
799.90	67.105
800.21	81.818
800.51	73.239
800.82	94.828
801.12	103.077
801.43	84.000
801.73	101.724
802.04	75.325
802.34	90.411
802.65	101.961
802.95	104.348
803.26	91.935
803.56	95.000
803.87	97.015
804.17	95.238
804.48	98.113
804.78	76.389
805.09	86.364
805.39	100.000
805.70	87.719
806.00	74.286
806.30	76.563
806.61	70.588
806.91	75.556
807.22	73.913
807.52	72.368
807.83	82.895
808.13	88.406
808.43	95.161
808.74	73.973
809.04	96.429
809.35	94.118
809.65	80.303
809.95	107.843
810.26	111.111
810.56	117.188
810.86	89.796
811.17	114.035
811.47	110.870
811.77	94.828
812.08	91.379
812.38	102.381
812.69	116.667
812.99	106.667
813.29	105.714
813.59	145.161
813.90	86.207
814.20	83.607
814.50	104.000
814.81	84.211
815.11	101.852
815.41	89.286
815.72	98.214
816.02	106.000
816.32	129.268
816.62	101.724
816.93	133.333
817.23	124.390
817.53	103.571
817.84	95.556
818.14	114.286
818.44	110.417
818.74	101.887
819.04	105.128
819.35	139.394
819.65	100.000
819.95	114.815
820.25	112.766
820.56	140.541
820.86	139.474
821.16	89.362
821.46	136.842
821.76	110.909
822.07	92.857
822.37	118.421
822.67	141.860
822.97	142.105
823.27	119.565
823.57	115.625
823.88	151.282
824.18	109.091
824.48	191.304
824.78	141.667
825.08	165.217
825.38	137.931
825.69	117.647
825.99	89.362
826.29	108.333
826.59	131.429
826.89	166.667
827.19	122.857
827.49	151.613
827.79	173.077
828.09	126.190
828.39	100.000
828.70	100.000
829.00	146.429
829.30	181.250
829.60	138.889
829.90	135.484
830.20	103.030
830.50	137.838
830.80	187.500
831.10	188.462
831.40	152.381
831.70	191.667
832.00	133.333
832.30	178.261
832.60	179.167
832.90	157.576
833.20	235.000
833.50	128.947
833.80	141.176
834.10	144.737
834.40	157.895
834.70	143.333
835.00	168.000
835.30	108.108
835.60	143.750
835.90	145.946
836.20	153.846
836.50	127.273
836.80	124.390
837.10	178.261
837.40	369.231
837.70	168.421
838.00	170.000
838.30	212.500
838.60	168.000
838.90	350.000
839.19	212.500
839.49	170.000
839.79	117.241
840.09	196.154
840.39	240.000
840.69	247.368
840.99	128.571
841.29	178.261
841.59	200.000
841.88	156.000
842.18	355.556
842.48	167.857
842.78	166.667
843.08	230.769
843.38	195.455
843.68	285.714
843.97	471.429
844.27	182.609
844.57	1600.000
844.87	257.143
845.17	272.222
845.47	157.143
845.76	183.333
846.06	485.714
846.36	241.176
846.66	284.615
846.96	262.500
847.25	253.846
847.55	205.263
847.85	200.000
848.15	520.000
848.44	254.545
848.74	185.714
849.04	179.167
849.34	205.882
849.63	256.250
849.93	262.500
850.23	866.667
850.53	375.000
850.82	272.727
851.12	235.294
851.42	216.667
851.71	262.500
852.01	0.000
852.31	282.353
852.61	380.000
852.90	162.500
853.20	344.444
853.50	-1500.000
853.79	164.000
854.09	153.125
854.39	141.379
854.68	162.069
854.98	238.095
855.28	158.065
855.57	200.000
855.87	183.333
856.17	166.667
856.46	178.947
856.76	112.903
857.05	282.353
857.35	309.091
857.65	315.385
857.94	165.000
858.24	422.222
858.53	357.143
858.83	628.571
859.13	221.739
859.42	255.556
859.72	375.000
860.01	300.000
860.31	850.000
860.60	360.000
860.90	487.500
861.20	253.846
861.49	528.571
861.79	-2500.000
862.08	542.857
862.38	444.444
862.67	292.857
862.97	430.000
863.26	146.667
863.56	725.000
863.85	261.538
864.15	276.471
864.44	255.556
864.74	416.667
865.03	354.545
865.33	425.000
865.62	286.667
865.92	666.667
866.21	1025.000
866.51	500.000
866.80	288.889
867.10	1100.000
867.39	3900.000
867.69	680.000
867.98	725.000
868.27	190.476
868.57	300.000
868.86	700.000
869.16	214.286
869.45	4100.000
869.75	-400.000
870.04	900.000
870.33	740.000
870.63	475.000
870.92	164.706
871.22	725.000
871.51	414.286
871.80	325.000
872.10	276.923
>>>>>End Processed Spectral Data<<<<<
