SpectraSuite Data File
++++++++++++++++++++++++++++++++++++
Date: Tue May 12 17:01:40 PDT 2015
User: schluterlab
Dark Spectrum Present: Yes
Reference Spectrum Present: Yes
Number of Sampled Component Spectra: 1
Spectrometers: USB2E3373
Integration Time (usec): 3000 (USB2E3373)
Spectra Averaged: 3 (USB2E3373)
Boxcar Smoothing: 0 (USB2E3373)
Correct for Electrical Dark: No (USB2E3373)
Strobe/Lamp Enabled: No (USB2E3373)
Correct for Detector Non-linearity: No (USB2E3373)
Correct for Stray Light: No (USB2E3373)
Number of Pixels in Processed Spectrum: 2048
>>>>>Begin Processed Spectral Data<<<<<
178.53	0.000
178.91	-233.333
179.29	-750.000
179.67	-3900.000
180.04	-166.667
180.42	900.000
180.80	1200.000
181.18	0.000
181.56	-312.500
181.94	0.000
182.31	1300.000
182.69	-3600.000
183.07	671.429
183.45	-4400.000
183.83	-1550.000
184.20	330.000
184.58	371.429
184.96	-269.231
185.34	-225.000
185.72	1550.000
186.09	-875.000
186.47	-3600.000
186.85	1133.333
187.23	460.000
187.61	1800.000
187.98	575.000
188.36	200.000
188.74	341.667
189.12	358.333
189.49	1000.000
189.87	0.000
190.25	412.500
190.63	2600.000
191.00	-233.333
191.38	-3800.000
191.76	-700.000
192.14	550.000
192.51	-2800.000
192.89	2100.000
193.27	1300.000
193.65	-1000.000
194.02	-740.000
194.40	428.571
194.78	-214.286
195.15	346.667
195.53	-2500.000
195.91	-600.000
196.29	4000.000
196.66	225.000
197.04	875.000
197.42	-1850.000
197.79	550.000
198.17	366.667
198.55	0.000
198.92	400.000
199.30	1266.667
199.68	2000.000
200.05	650.000
200.43	-500.000
200.81	266.667
201.18	3100.000
201.56	275.000
201.94	-725.000
202.31	-437.500
202.69	-540.000
203.07	3300.000
203.44	-500.000
203.82	458.333
204.19	700.000
204.57	-1200.000
204.95	-725.000
205.32	-700.000
205.70	700.000
206.08	775.000
206.45	-933.333
206.83	466.667
207.20	221.053
207.58	275.000
207.96	580.000
208.33	0.000
208.71	628.571
209.08	740.000
209.46	-3600.000
209.84	-925.000
210.21	920.000
210.59	-680.000
210.96	350.000
211.34	-975.000
211.71	390.909
212.09	850.000
212.46	2400.000
212.84	-416.667
213.22	522.222
213.59	-3000.000
213.97	380.000
214.34	875.000
214.72	1333.333
215.09	900.000
215.47	-2800.000
215.84	-430.000
216.22	-425.000
216.59	0.000
216.97	0.000
217.34	1650.000
217.72	-1150.000
218.09	1166.667
218.47	425.000
218.84	750.000
219.22	1333.333
219.59	1033.333
219.97	457.143
220.34	388.889
220.72	1550.000
221.09	3800.000
221.47	375.000
221.84	1033.333
222.22	330.000
222.59	288.889
222.97	250.000
223.34	256.250
223.72	-1850.000
224.09	1500.000
224.46	253.846
224.84	-1100.000
225.21	366.667
225.59	246.667
225.96	1566.667
226.34	-680.000
226.71	-775.000
227.08	-680.000
227.46	0.000
227.83	-583.333
228.21	-1550.000
228.58	475.000
228.95	925.000
229.33	411.111
229.70	1175.000
230.08	407.692
230.45	3500.000
230.82	-1125.000
231.20	-1100.000
231.57	-1100.000
231.95	580.000
232.32	283.333
232.69	566.667
233.07	325.000
233.44	-2000.000
233.81	286.667
234.19	181.481
234.56	312.500
234.93	270.588
235.31	240.000
235.68	293.750
236.05	178.571
236.43	140.741
236.80	271.429
237.17	179.310
237.55	156.250
237.92	140.000
238.29	151.515
238.67	196.875
239.04	121.951
239.41	114.583
239.79	132.500
240.16	106.250
240.53	100.000
240.91	91.304
241.28	130.508
241.65	103.030
242.02	92.958
242.40	101.429
242.77	100.000
243.14	81.013
243.51	93.939
243.89	77.570
244.26	81.308
244.63	90.099
245.00	88.991
245.38	73.729
245.75	72.727
246.12	82.222
246.49	77.305
246.87	81.967
247.24	80.667
247.61	74.375
247.98	79.592
248.36	67.273
248.73	69.898
249.10	72.024
249.47	67.000
249.84	68.657
250.22	73.514
250.59	71.500
250.96	66.667
251.33	71.628
251.70	63.839
252.08	69.328
252.45	63.347
252.82	63.498
253.19	65.613
253.56	68.462
253.94	65.942
254.31	68.217
254.68	68.990
255.05	65.517
255.42	66.788
255.79	62.541
256.16	64.068
256.54	67.532
256.91	60.784
257.28	65.552
257.65	61.755
258.02	63.127
258.39	59.026
258.76	60.000
259.14	63.143
259.51	63.848
259.88	68.085
260.25	62.912
260.62	59.452
260.99	57.300
261.36	63.510
261.73	64.628
262.10	62.827
262.47	63.750
262.85	61.067
263.22	59.897
263.59	57.033
263.96	58.396
264.33	59.506
264.70	62.899
265.07	61.220
265.44	58.028
265.81	61.557
266.18	61.098
266.55	60.284
266.92	60.179
267.29	62.281
267.66	60.538
268.03	60.090
268.40	57.505
268.77	62.775
269.14	59.653
269.51	61.247
269.88	60.204
270.25	56.803
270.62	60.944
270.99	59.026
271.36	59.756
271.73	60.587
272.10	55.960
272.47	55.754
272.84	57.285
273.21	57.851
273.58	57.490
273.95	56.879
274.32	55.837
274.69	60.236
275.06	60.109
275.43	55.939
275.80	57.358
276.17	57.537
276.54	58.505
276.91	57.276
277.28	56.752
277.65	57.565
278.02	54.412
278.39	56.475
278.76	53.621
279.13	56.584
279.50	55.455
279.87	54.376
280.23	55.249
280.60	57.847
280.97	56.034
281.34	53.300
281.71	56.696
282.08	56.239
282.45	53.209
282.82	55.017
283.19	54.849
283.56	54.876
283.92	56.026
284.29	53.078
284.66	53.109
285.03	54.229
285.40	56.198
285.77	51.852
286.14	53.406
286.51	52.454
286.87	53.956
287.24	50.601
287.61	52.736
287.98	50.149
288.35	49.037
288.72	51.290
289.08	50.450
289.45	51.067
289.82	49.688
290.19	51.977
290.56	50.509
290.93	48.345
291.29	47.790
291.66	47.458
292.03	47.405
292.40	47.154
292.77	44.847
293.13	47.504
293.50	44.804
293.87	44.986
294.24	46.853
294.60	46.568
294.97	46.993
295.34	44.223
295.71	44.547
296.08	44.667
296.44	44.346
296.81	41.315
297.18	41.698
297.55	43.103
297.91	40.148
298.28	41.063
298.65	40.982
299.02	41.978
299.38	40.647
299.75	39.756
300.12	41.514
300.48	41.803
300.85	43.147
301.22	39.302
301.59	39.269
301.95	42.707
302.32	40.629
302.69	39.932
303.05	42.088
303.42	39.350
303.79	40.087
304.15	39.824
304.52	39.746
304.89	38.699
305.25	40.156
305.62	39.659
305.99	38.478
306.35	38.211
306.72	39.646
307.09	39.234
307.45	38.754
307.82	39.403
308.19	38.763
308.55	38.500
308.92	39.647
309.29	38.757
309.65	39.346
310.02	39.047
310.38	38.883
310.75	37.994
311.12	38.889
311.48	40.734
311.85	37.118
312.22	38.968
312.58	38.678
312.95	40.388
313.31	39.139
313.68	39.775
314.05	40.385
314.41	37.803
314.78	40.814
315.14	40.758
315.51	40.114
315.87	41.058
316.24	41.083
316.61	41.719
316.97	39.908
317.34	41.330
317.70	40.737
318.07	42.171
318.43	42.882
318.80	42.207
319.16	43.182
319.53	42.743
319.89	42.921
320.26	44.879
320.62	42.949
320.99	42.898
321.35	42.393
321.72	45.256
322.08	44.783
322.45	45.504
322.81	43.458
323.18	44.316
323.54	45.122
323.91	45.875
324.27	44.828
324.64	45.502
325.00	46.121
325.37	46.290
325.73	45.194
326.10	45.816
326.46	46.656
326.83	46.080
327.19	46.104
327.56	46.486
327.92	46.557
328.29	45.908
328.65	47.089
329.01	47.562
329.38	46.193
329.74	45.687
330.11	48.219
330.47	47.656
330.84	45.902
331.20	45.347
331.56	47.755
331.93	47.990
332.29	45.748
332.66	47.959
333.02	45.619
333.38	46.510
333.75	46.872
334.11	46.812
334.48	47.350
334.84	44.764
335.20	46.022
335.57	45.844
335.93	46.426
336.29	45.771
336.66	47.256
337.02	43.969
337.38	44.970
337.75	44.932
338.11	45.907
338.47	45.555
338.84	44.708
339.20	45.541
339.56	44.996
339.93	44.565
340.29	43.529
340.65	43.588
341.02	44.891
341.38	45.484
341.74	45.930
342.11	44.324
342.47	44.217
342.83	45.447
343.20	43.735
343.56	43.209
343.92	45.087
344.28	44.817
344.65	44.662
345.01	43.968
345.37	43.269
345.73	43.730
346.10	43.028
346.46	44.498
346.82	42.130
347.19	44.049
347.55	43.091
347.91	42.296
348.27	42.293
348.63	43.908
349.00	42.498
349.36	43.658
349.72	42.737
350.08	42.702
350.45	42.574
350.81	42.966
351.17	41.834
351.53	42.032
351.89	42.813
352.26	41.043
352.62	41.403
352.98	41.948
353.34	43.143
353.70	41.972
354.07	42.615
354.43	43.088
354.79	41.306
355.15	42.113
355.51	40.483
355.87	40.663
356.24	41.724
356.60	40.791
356.96	41.319
357.32	40.090
357.68	40.896
358.04	41.641
358.40	40.555
358.77	40.346
359.13	41.066
359.49	39.956
359.85	41.325
360.21	40.342
360.57	39.708
360.93	41.558
361.29	40.620
361.66	41.984
362.02	39.915
362.38	40.620
362.74	39.703
363.10	40.673
363.46	39.434
363.82	41.024
364.18	39.331
364.54	41.059
364.90	40.562
365.26	38.931
365.62	38.950
365.98	38.610
366.35	39.379
366.71	39.972
367.07	40.205
367.43	39.825
367.79	39.229
368.15	38.060
368.51	40.248
368.87	39.606
369.23	38.254
369.59	38.570
369.95	40.000
370.31	38.330
370.67	37.960
371.03	38.725
371.39	39.404
371.75	38.521
372.11	38.613
372.47	38.630
372.83	40.177
373.19	39.890
373.55	39.450
373.91	37.086
374.27	38.095
374.63	37.898
374.99	38.477
375.35	38.642
375.71	38.193
376.07	38.064
376.42	36.957
376.78	38.793
377.14	38.794
377.50	36.767
377.86	37.348
378.22	37.660
378.58	38.015
378.94	37.538
379.30	37.113
379.66	37.267
380.02	37.654
380.38	37.295
380.74	37.716
381.09	37.150
381.45	36.127
381.81	37.766
382.17	36.813
382.53	35.813
382.89	37.256
383.25	35.998
383.61	36.484
383.97	37.193
384.32	36.950
384.68	37.255
385.04	35.873
385.40	38.019
385.76	36.337
386.12	37.044
386.48	36.960
386.83	35.819
387.19	36.514
387.55	36.396
387.91	35.912
388.27	36.466
388.62	34.918
388.98	35.394
389.34	35.990
389.70	35.672
390.06	36.280
390.42	36.706
390.77	36.609
391.13	36.029
391.49	36.177
391.85	36.615
392.20	36.412
392.56	35.484
392.92	35.542
393.28	35.818
393.64	35.321
393.99	35.744
394.35	35.315
394.71	35.525
395.07	35.523
395.42	35.187
395.78	35.842
396.14	36.024
396.50	36.101
396.85	36.280
397.21	35.018
397.57	35.445
397.92	35.817
398.28	35.466
398.64	35.428
399.00	35.329
399.35	34.783
399.71	34.603
400.07	35.674
400.42	35.164
400.78	35.132
401.14	35.232
401.49	35.426
401.85	34.589
402.21	35.032
402.57	36.086
402.92	34.485
403.28	33.950
403.63	34.491
403.99	35.223
404.35	35.815
404.70	34.908
405.06	34.419
405.42	34.231
405.77	34.179
406.13	34.436
406.49	33.940
406.84	33.897
407.20	35.160
407.55	34.523
407.91	35.163
408.27	35.173
408.62	34.418
408.98	34.654
409.34	33.781
409.69	34.412
410.05	34.347
410.40	33.687
410.76	33.028
411.11	34.716
411.47	33.889
411.83	33.333
412.18	34.360
412.54	34.595
412.89	33.392
413.25	34.265
413.60	33.995
413.96	33.992
414.31	34.534
414.67	34.016
415.03	33.780
415.38	34.132
415.74	35.313
416.09	34.666
416.45	34.971
416.80	35.985
417.16	34.500
417.51	33.885
417.87	33.730
418.22	33.840
418.58	34.586
418.93	33.016
419.29	32.348
419.64	34.525
420.00	34.427
420.35	34.553
420.71	33.372
421.06	33.549
421.42	33.736
421.77	33.481
422.12	33.517
422.48	33.077
422.83	34.598
423.19	33.801
423.54	33.406
423.90	34.541
424.25	33.352
424.61	33.430
424.96	32.637
425.31	33.443
425.67	33.614
426.02	33.539
426.38	32.905
426.73	33.256
427.09	33.274
427.44	33.146
427.79	32.762
428.15	33.294
428.50	33.771
428.85	33.510
429.21	33.549
429.56	33.001
429.92	33.715
430.27	32.608
430.62	32.159
430.98	33.134
431.33	32.812
431.68	31.358
432.04	32.333
432.39	34.248
432.74	33.548
433.10	32.558
433.45	33.314
433.80	33.977
434.16	33.526
434.51	33.746
434.86	33.261
435.22	33.982
435.57	33.847
435.92	34.149
436.28	33.698
436.63	33.387
436.98	33.559
437.34	34.132
437.69	33.371
438.04	33.172
438.39	33.567
438.75	33.241
439.10	33.297
439.45	32.674
439.81	34.586
440.16	32.911
440.51	33.108
440.86	33.504
441.22	32.955
441.57	33.176
441.92	33.959
442.27	32.629
442.63	32.622
442.98	32.920
443.33	33.155
443.68	32.998
444.03	33.035
444.39	32.768
444.74	33.126
445.09	32.807
445.44	33.209
445.79	32.602
446.15	32.947
446.50	33.386
446.85	33.964
447.20	32.488
447.55	33.768
447.91	33.511
448.26	32.961
448.61	33.389
448.96	33.932
449.31	33.278
449.66	33.832
450.02	32.739
450.37	33.259
450.72	33.003
451.07	33.042
451.42	33.314
451.77	33.391
452.12	33.466
452.47	33.050
452.83	33.634
453.18	32.733
453.53	33.215
453.88	33.314
454.23	33.236
454.58	33.275
454.93	32.863
455.28	34.639
455.63	33.629
455.98	32.995
456.34	33.556
456.69	33.110
457.04	32.399
457.39	33.257
457.74	33.896
458.09	33.015
458.44	32.859
458.79	32.785
459.14	32.079
459.49	32.899
459.84	33.315
460.19	32.712
460.54	32.764
460.89	32.996
461.24	32.589
461.59	33.503
461.94	33.038
462.29	33.009
462.64	33.731
462.99	31.926
463.34	34.025
463.69	33.031
464.04	34.024
464.39	33.715
464.74	31.536
465.09	32.850
465.44	33.406
465.79	32.281
466.14	31.849
466.49	33.315
466.84	32.943
467.19	33.509
467.54	32.432
467.89	32.570
468.24	32.426
468.59	32.143
468.94	32.850
469.29	32.560
469.64	34.084
469.99	31.427
470.34	33.080
470.68	33.103
471.03	33.022
471.38	32.583
471.73	32.789
472.08	33.986
472.43	32.464
472.78	33.099
473.13	31.665
473.48	32.824
473.83	32.627
474.17	32.462
474.52	32.583
474.87	32.064
475.22	32.381
475.57	31.637
475.92	31.988
476.27	31.393
476.61	31.796
476.96	32.236
477.31	32.648
477.66	32.475
478.01	32.800
478.36	31.874
478.70	32.605
479.05	31.851
479.40	32.688
479.75	32.622
480.10	32.865
480.45	32.540
480.79	31.751
481.14	31.859
481.49	31.382
481.84	31.486
482.19	32.096
482.53	31.752
482.88	32.527
483.23	31.664
483.58	32.496
483.92	32.861
484.27	31.935
484.62	31.452
484.97	31.866
485.31	31.182
485.66	30.785
486.01	30.990
486.36	30.884
486.70	29.854
487.05	30.538
487.40	30.579
487.75	31.017
488.09	30.682
488.44	31.326
488.79	31.621
489.13	31.579
489.48	31.482
489.83	30.108
490.17	30.760
490.52	32.171
490.87	31.595
491.22	31.826
491.56	32.060
491.91	31.989
492.26	32.071
492.60	31.708
492.95	31.627
493.30	30.846
493.64	30.683
493.99	30.903
494.34	31.242
494.68	31.076
495.03	31.163
495.37	31.833
495.72	30.956
496.07	31.491
496.41	31.277
496.76	31.406
497.11	32.134
497.45	31.434
497.80	31.418
498.14	30.929
498.49	31.662
498.84	31.636
499.18	31.079
499.53	31.879
499.87	32.120
500.22	32.335
500.56	31.941
500.91	32.978
501.26	31.649
501.60	31.284
501.95	30.152
502.29	31.822
502.64	30.701
502.98	31.214
503.33	31.759
503.67	31.965
504.02	30.497
504.36	31.719
504.71	32.119
505.06	31.206
505.40	30.978
505.75	31.197
506.09	31.498
506.44	31.579
506.78	31.049
507.13	31.556
507.47	31.053
507.82	31.095
508.16	31.455
508.51	31.111
508.85	31.007
509.19	31.180
509.54	30.908
509.88	32.273
510.23	30.539
510.57	29.778
510.92	31.868
511.26	31.827
511.61	31.807
511.95	30.712
512.30	30.700
512.64	30.010
512.98	30.753
513.33	30.994
513.67	31.227
514.02	30.805
514.36	30.997
514.70	30.880
515.05	30.900
515.39	31.086
515.74	31.657
516.08	30.283
516.42	32.842
516.77	31.413
517.11	31.573
517.46	31.519
517.80	30.584
518.14	32.225
518.49	30.650
518.83	30.000
519.17	31.780
519.52	30.694
519.86	31.826
520.20	31.452
520.55	30.752
520.89	30.747
521.23	30.900
521.58	30.063
521.92	31.137
522.26	30.628
522.61	30.778
522.95	31.772
523.29	31.579
523.64	29.827
523.98	31.808
524.32	31.027
524.66	31.072
525.01	30.651
525.35	31.467
525.69	31.788
526.04	31.291
526.38	30.959
526.72	30.847
527.06	30.751
527.41	32.588
527.75	31.284
528.09	31.126
528.43	30.933
528.78	31.544
529.12	31.848
529.46	31.093
529.80	30.082
530.15	31.173
530.49	30.084
530.83	31.383
531.17	30.750
531.51	31.453
531.86	31.220
532.20	30.346
532.54	30.320
532.88	32.167
533.22	30.835
533.57	31.422
533.91	30.478
534.25	30.641
534.59	32.164
534.93	30.262
535.27	29.767
535.62	29.872
535.96	30.319
536.30	31.810
536.64	31.056
536.98	31.592
537.32	30.875
537.66	30.931
538.01	31.269
538.35	30.942
538.69	30.643
539.03	30.908
539.37	30.825
539.71	30.802
540.05	30.400
540.39	31.195
540.73	30.886
541.07	30.238
541.42	31.032
541.76	30.395
542.10	31.258
542.44	30.673
542.78	31.089
543.12	29.509
543.46	30.201
543.80	30.827
544.14	29.907
544.48	31.326
544.82	30.642
545.16	29.872
545.50	31.039
545.84	31.313
546.18	31.795
546.52	31.213
546.86	30.432
547.20	30.362
547.54	30.209
547.88	30.779
548.22	30.358
548.56	30.053
548.90	30.902
549.24	30.385
549.58	30.219
549.92	30.452
550.26	30.899
550.60	30.406
550.94	31.479
551.28	30.828
551.62	31.310
551.96	31.284
552.30	29.796
552.64	30.485
552.98	29.704
553.32	29.449
553.66	30.684
554.00	30.051
554.34	31.025
554.68	31.989
555.02	30.821
555.36	29.388
555.69	29.712
556.03	29.045
556.37	30.210
556.71	31.551
557.05	29.948
557.39	30.267
557.73	29.717
558.07	30.114
558.41	30.363
558.75	30.848
559.08	30.808
559.42	30.565
559.76	30.934
560.10	30.351
560.44	30.325
560.78	31.394
561.12	30.706
561.45	30.601
561.79	30.712
562.13	30.828
562.47	30.045
562.81	31.165
563.15	30.769
563.48	29.565
563.82	31.254
564.16	29.229
564.50	29.958
564.84	29.301
565.17	29.649
565.51	30.419
565.85	31.709
566.19	30.298
566.52	29.422
566.86	29.714
567.20	30.449
567.54	30.076
567.88	29.890
568.21	28.507
568.55	30.156
568.89	29.288
569.23	28.947
569.56	29.673
569.90	29.501
570.24	28.688
570.57	28.942
570.91	28.830
571.25	29.063
571.59	28.708
571.92	28.606
572.26	28.302
572.60	27.770
572.93	28.292
573.27	28.346
573.61	29.182
573.95	27.963
574.28	28.357
574.62	28.435
574.96	28.391
575.29	28.368
575.63	27.515
575.97	27.434
576.30	27.537
576.64	28.412
576.98	27.513
577.31	28.399
577.65	28.155
577.98	28.132
578.32	28.234
578.66	27.974
578.99	28.089
579.33	28.011
579.67	27.879
580.00	28.342
580.34	27.649
580.67	27.383
581.01	28.418
581.35	28.225
581.68	27.523
582.02	27.976
582.35	27.623
582.69	27.895
583.02	27.391
583.36	28.222
583.70	28.591
584.03	28.586
584.37	28.698
584.70	27.793
585.04	27.504
585.37	27.750
585.71	27.933
586.04	27.764
586.38	27.556
586.72	27.336
587.05	28.152
587.39	28.217
587.72	28.202
588.06	27.912
588.39	27.892
588.73	28.085
589.06	28.596
589.40	28.826
589.73	28.515
590.07	29.101
590.40	29.233
590.73	29.783
591.07	28.501
591.40	28.423
591.74	28.003
592.07	28.453
592.41	28.897
592.74	28.854
593.08	27.637
593.41	28.007
593.75	27.321
594.08	28.026
594.41	28.218
594.75	28.527
595.08	28.224
595.42	28.539
595.75	27.739
596.09	28.641
596.42	27.749
596.75	29.247
597.09	27.817
597.42	28.000
597.75	28.316
598.09	28.601
598.42	27.989
598.76	27.679
599.09	28.761
599.42	27.820
599.76	28.392
600.09	28.237
600.42	27.659
600.76	27.804
601.09	28.305
601.42	28.018
601.76	27.891
602.09	28.109
602.42	27.468
602.76	28.273
603.09	28.922
603.42	28.404
603.76	28.525
604.09	28.484
604.42	27.947
604.76	28.092
605.09	28.082
605.42	28.159
605.75	27.675
606.09	27.774
606.42	28.636
606.75	28.294
607.09	27.596
607.42	27.963
607.75	28.145
608.08	27.904
608.42	28.649
608.75	28.113
609.08	27.761
609.41	28.364
609.75	28.388
610.08	28.282
610.41	28.458
610.74	28.658
611.07	28.649
611.41	29.147
611.74	28.585
612.07	28.709
612.40	28.411
612.73	28.407
613.07	29.295
613.40	28.822
613.73	29.256
614.06	28.100
614.39	29.343
614.72	28.478
615.06	27.201
615.39	28.317
615.72	28.412
616.05	28.378
616.38	28.818
616.71	28.920
617.05	28.611
617.38	28.708
617.71	28.684
618.04	29.389
618.37	28.405
618.70	27.945
619.03	29.060
619.36	29.083
619.69	29.420
620.03	30.463
620.36	29.351
620.69	29.885
621.02	30.095
621.35	29.226
621.68	29.425
622.01	29.889
622.34	30.080
622.67	28.862
623.00	29.476
623.33	29.217
623.66	29.208
623.99	29.452
624.32	29.607
624.65	29.361
624.99	29.547
625.32	28.925
625.65	28.552
625.98	28.312
626.31	29.674
626.64	29.005
626.97	28.845
627.30	29.658
627.63	29.827
627.96	28.482
628.29	29.538
628.62	29.683
628.95	30.496
629.28	30.412
629.61	30.668
629.94	28.868
630.26	29.983
630.59	31.028
630.92	29.327
631.25	30.281
631.58	30.955
631.91	29.686
632.24	31.390
632.57	29.862
632.90	31.159
633.23	30.955
633.56	30.769
633.89	30.547
634.22	30.786
634.55	29.355
634.88	30.778
635.20	31.614
635.53	29.384
635.86	30.872
636.19	31.201
636.52	30.378
636.85	28.910
637.18	30.444
637.51	30.950
637.83	29.977
638.16	31.067
638.49	30.419
638.82	30.164
639.15	30.317
639.48	31.754
639.81	30.891
640.13	31.166
640.46	32.111
640.79	30.559
641.12	29.528
641.45	31.695
641.77	32.100
642.10	32.530
642.43	33.286
642.76	31.108
643.09	32.133
643.41	30.014
643.74	32.662
644.07	31.858
644.40	31.361
644.73	32.432
645.05	33.878
645.38	33.844
645.71	32.170
646.04	33.130
646.36	34.272
646.69	32.000
647.02	32.640
647.35	30.709
647.67	32.739
648.00	32.899
648.33	32.030
648.66	32.273
648.98	31.014
649.31	30.904
649.64	29.322
649.96	31.010
650.29	29.857
650.62	32.253
650.94	33.434
651.27	31.898
651.60	33.333
651.92	33.026
652.25	34.646
652.58	32.908
652.90	33.683
653.23	32.349
653.56	31.306
653.88	32.012
654.21	32.405
654.54	31.040
654.86	31.416
655.19	32.586
655.52	27.342
655.84	24.425
656.17	28.923
656.49	41.582
656.82	47.297
657.15	37.932
657.47	28.512
657.80	21.058
658.13	16.838
658.45	22.645
658.78	27.296
659.10	27.282
659.43	28.369
659.75	29.448
660.08	29.950
660.41	31.307
660.73	32.120
661.06	31.982
661.38	34.242
661.71	31.475
662.03	34.221
662.36	31.429
662.68	33.147
663.01	32.432
663.33	32.642
663.66	33.728
663.98	33.929
664.31	35.261
664.63	34.100
664.96	34.522
665.28	33.145
665.61	32.075
665.93	33.208
666.26	32.150
666.58	33.028
666.91	31.660
667.23	32.731
667.56	35.934
667.88	34.647
668.21	32.582
668.53	32.661
668.86	36.273
669.18	34.216
669.50	33.264
669.83	35.318
670.15	33.888
670.48	32.812
670.80	34.064
671.13	31.474
671.45	36.072
671.77	32.468
672.10	32.855
672.42	31.908
672.75	32.278
673.07	31.638
673.39	31.150
673.72	31.488
674.04	35.305
674.37	33.394
674.69	32.156
675.01	31.716
675.34	32.364
675.66	34.961
675.98	34.517
676.31	32.400
676.63	32.803
676.95	32.341
677.28	33.874
677.60	29.980
677.92	31.944
678.25	33.140
678.57	34.451
678.89	33.996
679.22	33.088
679.54	33.452
679.86	31.588
680.18	32.513
680.51	29.851
680.83	30.236
681.15	30.503
681.48	31.597
681.80	32.750
682.12	33.564
682.44	30.450
682.77	31.317
683.09	32.233
683.41	34.286
683.73	33.268
684.06	32.738
684.38	34.302
684.70	31.835
685.02	30.035
685.34	33.627
685.67	32.958
685.99	29.721
686.31	32.203
686.63	30.894
686.96	31.209
687.28	30.369
687.60	30.887
687.92	29.983
688.24	32.414
688.56	32.740
688.89	31.549
689.21	31.214
689.53	34.585
689.85	30.894
690.17	33.398
690.49	33.468
690.82	33.193
691.14	34.141
691.46	31.622
691.78	35.283
692.10	32.443
692.42	30.490
692.74	31.977
693.06	32.364
693.39	31.818
693.71	31.827
694.03	33.925
694.35	33.735
694.67	33.198
694.99	35.477
695.31	33.333
695.63	35.973
695.95	33.484
696.27	32.743
696.59	32.697
696.91	36.203
697.23	32.353
697.56	31.328
697.88	30.140
698.20	31.509
698.52	28.599
698.84	33.265
699.16	31.770
699.48	34.534
699.80	36.166
700.12	38.568
700.44	33.178
700.76	36.277
701.08	37.598
701.40	36.364
701.72	39.037
702.04	37.127
702.36	35.753
702.68	36.968
703.00	35.589
703.32	32.258
703.64	36.776
703.96	34.635
704.28	34.127
704.60	34.085
704.91	38.936
705.23	36.648
705.55	36.795
705.87	37.460
706.19	39.185
706.51	40.439
706.83	38.938
707.15	37.166
707.47	33.898
707.79	35.172
708.11	29.932
708.43	36.404
708.74	31.222
709.06	33.953
709.38	33.251
709.70	37.057
710.02	34.783
710.34	35.083
710.66	33.889
710.98	36.066
711.29	39.554
711.61	35.097
711.93	36.170
712.25	33.735
712.57	33.762
712.89	37.576
713.20	36.741
713.52	38.318
713.84	34.139
714.16	31.014
714.48	30.259
714.80	36.314
715.11	32.447
715.43	35.475
715.75	33.803
716.07	35.260
716.39	36.286
716.70	31.776
717.02	36.700
717.34	38.129
717.66	40.972
717.97	44.318
718.29	39.437
718.61	35.811
718.93	37.370
719.24	40.268
719.56	37.241
719.88	30.573
720.20	39.032
720.51	33.333
720.83	37.124
721.15	35.714
721.46	40.068
721.78	38.328
722.10	40.278
722.42	40.134
722.73	39.711
723.05	39.649
723.37	38.869
723.68	36.328
724.00	32.955
724.32	41.445
724.63	38.462
724.95	38.431
725.27	38.662
725.58	41.176
725.90	34.859
726.22	33.219
726.53	37.793
726.85	36.156
727.16	42.282
727.48	38.538
727.80	38.849
728.11	36.071
728.43	39.493
728.74	42.308
729.06	32.975
729.38	36.842
729.69	40.000
730.01	39.145
730.32	36.242
730.64	41.196
730.96	36.637
731.27	34.557
731.59	34.483
731.90	32.869
732.22	37.143
732.53	34.758
732.85	36.550
733.16	37.651
733.48	37.618
733.80	33.043
734.11	38.344
734.43	35.673
734.74	34.316
735.06	35.185
735.37	33.505
735.69	36.812
736.00	39.450
736.32	32.121
736.63	32.492
736.95	35.093
737.26	37.805
737.58	36.196
737.89	34.940
738.21	36.424
738.52	40.468
738.83	42.125
739.15	40.418
739.46	35.517
739.78	36.054
740.09	35.860
740.41	36.503
740.72	40.952
741.04	39.161
741.35	39.844
741.66	37.154
741.98	43.777
742.29	44.444
742.61	41.150
742.92	38.559
743.23	36.800
743.55	38.113
743.86	35.686
744.18	37.712
744.49	42.562
744.80	42.857
745.12	42.411
745.43	43.458
745.74	42.222
746.06	39.035
746.37	33.023
746.68	44.690
747.00	42.601
747.31	38.655
747.62	39.754
747.94	41.631
748.25	39.300
748.56	38.136
748.88	39.286
749.19	41.860
749.50	42.009
749.82	40.741
750.13	37.154
750.44	34.000
750.75	40.940
751.07	34.868
751.38	32.673
751.69	35.690
752.01	36.014
752.32	37.874
752.63	39.262
752.94	36.364
753.26	39.453
753.57	42.023
753.88	37.453
754.19	34.296
754.51	39.867
754.82	32.886
755.13	36.486
755.44	39.259
755.75	37.801
756.07	34.932
756.38	35.621
756.69	33.750
757.00	36.202
757.31	36.338
757.63	35.813
757.94	31.915
758.25	33.333
758.56	34.783
758.87	33.333
759.18	35.756
759.50	33.435
759.81	36.202
760.12	33.989
760.43	37.255
760.74	35.696
761.05	34.483
761.36	30.469
761.67	34.232
761.99	35.211
762.30	35.370
762.61	32.639
762.92	37.879
763.23	35.094
763.54	39.615
763.85	35.019
764.16	38.542
764.47	37.162
764.78	33.225
765.10	34.146
765.41	34.091
765.72	34.254
766.03	33.535
766.34	32.753
766.65	42.586
766.96	40.486
767.27	42.056
767.58	42.079
767.89	44.199
768.20	50.000
768.51	39.796
768.82	38.158
769.13	36.863
769.44	39.098
769.75	38.577
770.06	41.597
770.37	37.281
770.68	36.444
770.99	39.407
771.30	43.096
771.61	41.538
771.92	34.733
772.23	38.710
772.54	39.111
772.85	38.119
773.16	40.761
773.47	38.333
773.78	45.050
774.09	46.023
774.39	46.667
774.70	44.706
775.01	52.632
775.32	47.205
775.63	50.000
775.94	44.444
776.25	52.414
776.56	44.275
776.87	53.435
777.18	52.273
777.48	49.606
777.79	54.615
778.10	46.970
778.41	47.015
778.72	39.850
779.03	46.154
779.34	56.081
779.65	42.236
779.95	52.174
780.26	44.643
780.57	51.701
780.88	50.355
781.19	51.667
781.50	46.154
781.80	45.902
782.11	41.799
782.42	45.977
782.73	49.153
783.04	40.000
783.34	42.636
783.65	42.177
783.96	43.871
784.27	43.709
784.57	45.395
784.88	51.449
785.19	50.000
785.50	56.897
785.81	63.566
786.11	51.111
786.42	44.882
786.73	48.649
787.04	48.113
787.34	47.154
787.65	55.303
787.96	54.545
788.26	55.118
788.57	49.635
788.88	51.408
789.19	48.092
789.49	49.324
789.80	51.563
790.11	44.628
790.41	61.111
790.72	49.074
791.03	54.808
791.33	51.515
791.64	49.474
791.95	49.474
792.25	64.583
792.56	55.000
792.87	70.732
793.17	65.909
793.48	63.529
793.79	72.414
794.09	69.318
794.40	56.897
794.70	50.794
795.01	43.077
795.32	44.275
795.62	50.427
795.93	61.345
796.23	52.033
796.54	63.265
796.85	55.682
797.15	68.831
797.46	75.610
797.76	60.000
798.07	72.000
798.37	67.500
798.68	75.000
798.99	63.415
799.29	64.000
799.60	41.860
799.90	65.789
800.21	71.212
800.51	69.014
800.82	62.069
801.12	73.846
801.43	76.000
801.73	84.483
802.04	70.130
802.34	65.753
802.65	90.196
802.95	71.739
803.26	87.097
803.56	90.000
803.87	74.627
804.17	66.667
804.48	98.113
804.78	86.111
805.09	92.424
805.39	74.603
805.70	96.491
806.00	62.857
806.30	79.687
806.61	71.765
806.91	66.667
807.22	55.435
807.52	75.000
807.83	77.632
808.13	75.362
808.43	69.355
808.74	76.712
809.04	92.857
809.35	104.412
809.65	75.758
809.95	109.804
810.26	94.444
810.56	96.875
810.86	95.918
811.17	91.228
811.47	97.826
811.77	82.759
812.08	86.207
812.38	90.476
812.69	92.857
812.99	102.222
813.29	97.143
813.59	145.161
813.90	68.966
814.20	86.885
814.50	92.000
814.81	82.456
815.11	94.444
815.41	96.429
815.72	116.071
816.02	96.000
816.32	112.195
816.62	94.828
816.93	109.091
817.23	117.073
817.53	105.357
817.84	80.000
818.14	73.810
818.44	102.083
818.74	94.340
819.04	94.872
819.35	121.212
819.65	115.385
819.95	116.667
820.25	114.894
820.56	108.108
820.86	131.579
821.16	76.596
821.46	94.737
821.76	100.000
822.07	92.857
822.37	123.684
822.67	113.953
822.97	102.632
823.27	102.174
823.57	137.500
823.88	112.821
824.18	118.182
824.48	139.130
824.78	113.889
825.08	139.130
825.38	162.069
825.69	111.765
825.99	87.234
826.29	97.222
826.59	125.714
826.89	150.000
827.19	125.714
827.49	135.484
827.79	126.923
828.09	128.571
828.39	94.444
828.70	116.216
829.00	135.714
829.30	187.500
829.60	127.778
829.90	141.935
830.20	87.879
830.50	116.216
830.80	175.000
831.10	169.231
831.40	171.429
831.70	204.167
832.00	123.333
832.30	186.957
832.60	183.333
832.90	157.576
833.20	210.000
833.50	155.263
833.80	117.647
834.10	113.158
834.40	147.368
834.70	133.333
835.00	180.000
835.30	135.135
835.60	131.250
835.90	118.919
836.20	169.231
836.50	159.091
836.80	126.829
837.10	139.130
837.40	292.308
837.70	226.316
838.00	146.667
838.30	183.333
838.60	168.000
838.90	350.000
839.19	156.250
839.49	153.333
839.79	120.690
840.09	161.538
840.39	186.667
840.69	163.158
840.99	138.095
841.29	221.739
841.59	175.000
841.88	180.000
842.18	311.111
842.48	128.571
842.78	188.889
843.08	207.692
843.38	181.818
843.68	271.429
843.97	485.714
844.27	160.870
844.57	1600.000
844.87	285.714
845.17	188.889
845.47	147.619
845.76	175.000
846.06	385.714
846.36	152.941
846.66	315.385
846.96	231.250
847.25	200.000
847.55	247.368
847.85	166.667
848.15	720.000
848.44	172.727
848.74	133.333
849.04	195.833
849.34	241.176
849.63	193.750
849.93	243.750
850.23	1333.333
850.53	400.000
850.82	272.727
851.12	182.353
851.42	170.833
851.71	268.750
852.01	0.000
852.31	182.353
852.61	340.000
852.90	145.833
853.20	377.778
853.50	-2300.000
853.79	156.000
854.09	137.500
854.39	162.069
854.68	158.621
854.98	171.429
855.28	119.355
855.57	271.429
855.87	211.111
856.17	148.148
856.46	178.947
856.76	154.839
857.05	264.706
857.35	245.455
857.65	300.000
857.94	195.000
858.24	433.333
858.53	278.571
858.83	542.857
859.13	217.391
859.42	377.778
859.72	412.500
860.01	325.000
860.31	875.000
860.60	300.000
860.90	500.000
861.20	300.000
861.49	528.571
861.79	-2500.000
862.08	571.429
862.38	433.333
862.67	228.571
862.97	260.000
863.26	153.333
863.56	700.000
863.85	323.077
864.15	235.294
864.44	188.889
864.74	250.000
865.03	318.182
865.33	462.500
865.62	253.333
865.92	700.000
866.21	950.000
866.51	660.000
866.80	266.667
867.10	1166.667
867.39	3700.000
867.69	800.000
867.98	850.000
868.27	185.714
868.57	293.333
868.86	800.000
869.16	142.857
869.45	2700.000
869.75	-533.333
870.04	675.000
870.33	620.000
870.63	500.000
870.92	182.353
871.22	950.000
871.51	528.571
871.80	275.000
872.10	246.154
>>>>>End Processed Spectral Data<<<<<
