SpectraSuite Data File
++++++++++++++++++++++++++++++++++++
Date: Tue May 12 16:47:48 PDT 2015
User: schluterlab
Dark Spectrum Present: Yes
Reference Spectrum Present: Yes
Number of Sampled Component Spectra: 1
Spectrometers: USB2E3373
Integration Time (usec): 3000 (USB2E3373)
Spectra Averaged: 3 (USB2E3373)
Boxcar Smoothing: 0 (USB2E3373)
Correct for Electrical Dark: No (USB2E3373)
Strobe/Lamp Enabled: No (USB2E3373)
Correct for Detector Non-linearity: No (USB2E3373)
Correct for Stray Light: No (USB2E3373)
Number of Pixels in Processed Spectrum: 2048
>>>>>Begin Processed Spectral Data<<<<<
178.53	0.000
178.91	-250.000
179.29	-700.000
179.67	-3900.000
180.04	-140.000
180.42	850.000
180.80	1600.000
181.18	0.000
181.56	-275.000
181.94	0.000
182.31	1133.333
182.69	-2900.000
183.07	514.286
183.45	-3500.000
183.83	-1650.000
184.20	340.000
184.58	371.429
184.96	-169.231
185.34	-241.667
185.72	1650.000
186.09	-950.000
186.47	-3200.000
186.85	1066.667
187.23	540.000
187.61	2000.000
187.98	525.000
188.36	292.857
188.74	325.000
189.12	325.000
189.49	725.000
189.87	0.000
190.25	537.500
190.63	3300.000
191.00	-166.667
191.38	-4000.000
191.76	-600.000
192.14	487.500
192.51	-2700.000
192.89	2200.000
193.27	1333.333
193.65	-1300.000
194.02	-740.000
194.40	585.714
194.78	-128.571
195.15	280.000
195.53	-2300.000
195.91	-520.000
196.29	3900.000
196.66	287.500
197.04	875.000
197.42	-2350.000
197.79	675.000
198.17	358.333
198.55	0.000
198.92	385.714
199.30	1133.333
199.68	2300.000
200.05	750.000
200.43	-533.333
200.81	244.444
201.18	3200.000
201.56	225.000
201.94	-700.000
202.31	-487.500
202.69	-580.000
203.07	2900.000
203.44	-550.000
203.82	341.667
204.19	640.000
204.57	-1350.000
204.95	-800.000
205.32	-800.000
205.70	633.333
206.08	750.000
206.45	-900.000
206.83	455.556
207.20	168.421
207.58	241.667
207.96	720.000
208.33	0.000
208.71	528.571
209.08	720.000
209.46	-2600.000
209.84	-775.000
210.21	960.000
210.59	-740.000
210.96	350.000
211.34	-925.000
211.71	318.182
212.09	925.000
212.46	1750.000
212.84	-566.667
213.22	488.889
213.59	-1900.000
213.97	320.000
214.34	975.000
214.72	1033.333
215.09	1166.667
215.47	-2900.000
215.84	-340.000
216.22	-537.500
216.59	0.000
216.97	0.000
217.34	1000.000
217.72	-1300.000
218.09	1133.333
218.47	475.000
218.84	950.000
219.22	833.333
219.59	1000.000
219.97	471.429
220.34	500.000
220.72	1300.000
221.09	3700.000
221.47	308.333
221.84	1433.333
222.22	370.000
222.59	283.333
222.97	214.286
223.34	243.750
223.72	-1450.000
224.09	1300.000
224.46	223.077
224.84	-900.000
225.21	366.667
225.59	226.667
225.96	1466.667
226.34	-940.000
226.71	-675.000
227.08	-580.000
227.46	0.000
227.83	-516.667
228.21	-1900.000
228.58	408.333
228.95	675.000
229.33	344.444
229.70	950.000
230.08	323.077
230.45	3000.000
230.82	-750.000
231.20	-900.000
231.57	-866.667
231.95	800.000
232.32	341.667
232.69	583.333
233.07	366.667
233.44	-1550.000
233.81	240.000
234.19	196.296
234.56	206.250
234.93	247.059
235.31	220.000
235.68	268.750
236.05	175.000
236.43	140.741
236.80	207.143
237.17	131.034
237.55	150.000
237.92	132.500
238.29	133.333
238.67	103.125
239.04	124.390
239.41	68.750
239.79	100.000
240.16	75.000
240.53	54.098
240.91	65.217
241.28	81.356
241.65	66.667
242.02	76.056
242.40	71.429
242.77	48.352
243.14	43.038
243.51	51.515
243.89	48.598
244.26	49.533
244.63	43.564
245.00	52.294
245.38	35.593
245.75	38.636
246.12	47.407
246.49	43.262
246.87	29.508
247.24	40.667
247.61	34.375
247.98	35.374
248.36	30.303
248.73	37.755
249.10	30.357
249.47	28.500
249.84	31.343
250.22	32.973
250.59	27.000
250.96	27.848
251.33	26.512
251.70	26.786
252.08	27.311
252.45	27.490
252.82	24.335
253.19	26.482
253.56	26.538
253.94	27.536
254.31	26.744
254.68	26.829
255.05	28.621
255.42	24.818
255.79	25.733
256.16	29.492
256.54	22.403
256.91	21.895
257.28	26.421
257.65	22.257
258.02	22.714
258.39	22.636
258.76	22.609
259.14	21.429
259.51	25.656
259.88	24.620
260.25	20.330
260.62	20.548
260.99	22.039
261.36	18.942
261.73	19.947
262.10	22.251
262.47	20.750
262.85	21.067
263.22	22.879
263.59	18.159
263.96	21.805
264.33	18.025
264.70	20.885
265.07	22.683
265.44	23.165
265.81	22.170
266.18	23.112
266.55	18.676
266.92	19.911
267.29	19.737
267.66	19.731
268.03	20.628
268.40	22.199
268.77	20.264
269.14	17.354
269.51	18.708
269.88	21.429
270.25	15.983
270.62	19.742
270.99	21.095
271.36	21.951
271.73	20.126
272.10	19.394
272.47	17.857
272.84	17.964
273.21	19.215
273.58	19.231
273.95	18.070
274.32	17.704
274.69	17.323
275.06	20.765
275.43	17.816
275.80	17.358
276.17	18.382
276.54	17.383
276.91	21.642
277.28	18.248
277.65	18.635
278.02	18.566
278.39	17.986
278.76	20.172
279.13	17.616
279.50	16.909
279.87	17.132
280.23	17.311
280.60	19.161
280.97	19.138
281.34	17.162
281.71	17.565
282.08	19.145
282.45	17.061
282.82	16.890
283.19	17.806
283.56	18.678
283.92	17.264
284.29	15.973
284.66	16.303
285.03	18.408
285.40	17.355
285.77	16.358
286.14	17.183
286.51	18.712
286.87	15.823
287.24	15.315
287.61	17.781
287.98	18.060
288.35	17.630
288.72	14.871
289.08	17.267
289.45	16.768
289.82	17.500
290.19	19.473
290.56	17.613
290.93	17.554
291.29	17.265
291.66	16.667
292.03	15.708
292.40	17.209
292.77	16.713
293.13	19.401
293.50	14.305
293.87	16.260
294.24	17.483
294.60	18.708
294.97	17.762
295.34	18.592
295.71	17.214
296.08	18.800
296.44	18.043
296.81	15.633
297.18	15.970
297.55	16.995
297.91	17.365
298.28	17.029
298.65	17.669
299.02	17.129
299.38	17.146
299.75	18.293
300.12	18.119
300.48	18.384
300.85	17.998
301.22	18.256
301.59	17.925
301.95	18.436
302.32	16.880
302.69	18.213
303.05	19.865
303.42	16.480
303.79	17.876
304.15	17.822
304.52	17.970
304.89	20.043
305.25	19.132
305.62	19.403
305.99	17.826
306.35	19.158
306.72	19.251
307.09	19.565
307.45	20.169
307.82	20.062
308.19	20.206
308.55	20.000
308.92	21.394
309.29	20.907
309.65	21.903
310.02	22.110
310.38	20.837
310.75	20.444
311.12	21.839
311.48	23.552
311.85	22.424
312.22	21.777
312.58	22.643
312.95	23.301
313.31	23.408
313.68	22.795
314.05	24.451
314.41	24.209
314.78	24.053
315.14	27.014
315.51	26.112
315.87	25.821
316.24	25.210
316.61	25.067
316.97	25.046
317.34	27.942
317.70	27.480
318.07	29.359
318.43	28.120
318.80	28.809
319.16	29.196
319.53	27.965
319.89	29.391
320.26	30.447
320.62	31.685
320.99	30.029
321.35	30.334
321.72	33.681
322.08	32.502
322.45	33.243
322.81	32.754
323.18	34.636
323.54	35.105
323.91	34.814
324.27	35.721
324.64	35.554
325.00	36.983
325.37	36.762
325.73	37.690
326.10	39.519
326.46	39.224
326.83	39.280
327.19	39.036
327.56	41.214
327.92	42.213
328.29	42.062
328.65	43.236
329.01	43.114
329.38	43.401
329.74	42.528
330.11	43.267
330.47	45.524
330.84	43.572
331.20	45.093
331.56	45.682
331.93	45.851
332.29	45.238
332.66	46.514
333.02	45.189
333.38	47.295
333.75	46.289
334.11	46.728
334.48	47.009
334.84	45.946
335.20	46.707
335.57	46.096
335.93	46.762
336.29	46.434
336.66	48.370
337.02	47.648
337.38	46.776
337.75	47.382
338.11	48.861
338.47	47.925
338.84	47.841
339.20	46.753
339.56	46.594
339.93	48.495
340.29	46.975
340.65	48.114
341.02	48.190
341.38	47.619
341.74	49.419
342.11	47.913
342.47	47.416
342.83	48.072
343.20	48.262
343.56	46.386
343.92	48.059
344.28	48.006
344.65	49.063
345.01	47.381
345.37	47.436
345.73	49.524
346.10	48.526
346.46	48.166
346.82	47.377
347.19	48.377
347.55	48.634
347.91	47.583
348.27	49.187
348.63	49.763
349.00	48.972
349.36	49.961
349.72	48.700
350.08	49.689
350.45	49.276
350.81	50.535
351.17	48.382
351.53	49.346
351.89	47.708
352.26	49.131
352.62	49.397
352.98	48.850
353.34	50.693
353.70	51.223
354.07	51.308
354.43	48.925
354.79	49.279
355.15	49.847
355.51	50.453
355.87	50.753
356.24	51.270
356.60	50.000
356.96	49.128
357.32	50.038
357.68	50.954
358.04	50.912
358.40	51.799
358.77	51.390
359.13	49.700
359.49	50.704
359.85	51.005
360.21	51.337
360.57	52.482
360.93	51.082
361.29	52.165
361.66	51.454
362.02	50.497
362.38	52.742
362.74	52.583
363.10	52.384
363.46	50.414
363.82	51.753
364.18	52.560
364.54	53.290
364.90	53.012
365.26	52.186
365.62	53.246
365.98	52.994
366.35	51.310
366.71	53.088
367.07	52.765
367.43	53.392
367.79	53.723
368.15	52.782
368.51	53.411
368.87	53.193
369.23	54.262
369.59	53.742
369.95	55.245
370.31	52.841
370.67	53.851
371.03	54.622
371.39	56.163
371.75	54.920
372.11	54.657
372.47	55.137
372.83	55.744
373.19	55.175
373.55	54.570
373.91	53.729
374.27	55.291
374.63	54.644
374.99	55.728
375.35	56.989
375.71	56.003
376.07	54.973
376.42	54.668
376.78	55.491
377.14	57.077
377.50	54.806
377.86	57.399
378.22	57.038
378.58	57.506
378.94	56.970
379.30	56.640
379.66	55.930
380.02	56.716
380.38	57.611
380.74	57.958
381.09	57.477
381.45	55.145
381.81	57.270
382.17	57.875
382.53	57.528
382.89	57.776
383.25	58.259
383.61	57.003
383.97	57.528
384.32	58.590
384.68	58.824
385.04	58.499
385.40	57.236
385.76	58.455
386.12	59.678
386.48	58.237
386.83	59.230
387.19	58.657
387.55	59.423
387.91	58.718
388.27	60.143
388.62	58.333
388.98	59.942
389.34	58.715
389.70	59.493
390.06	60.549
390.42	59.284
390.77	59.951
391.13	59.626
391.49	60.436
391.85	60.985
392.20	59.952
392.56	59.618
392.92	58.956
393.28	60.314
393.64	59.060
393.99	60.225
394.35	59.682
394.71	59.650
395.07	59.672
395.42	60.539
395.78	60.210
396.14	59.940
396.50	59.266
396.85	62.073
397.21	60.650
397.57	61.028
397.92	60.427
398.28	60.507
398.64	59.802
399.00	58.792
399.35	59.206
399.71	60.596
400.07	61.016
400.42	61.612
400.78	60.762
401.14	62.126
401.49	60.599
401.85	61.530
402.21	61.511
402.57	62.178
402.92	61.636
403.28	61.396
403.63	61.330
403.99	61.158
404.35	60.727
404.70	62.079
405.06	60.247
405.42	61.041
405.77	60.805
406.13	60.575
406.49	61.285
406.84	60.180
407.20	61.187
407.55	61.723
407.91	62.987
408.27	61.916
408.62	62.212
408.98	61.325
409.34	62.127
409.69	63.783
410.05	62.016
410.40	61.425
410.76	60.904
411.11	62.441
411.47	63.148
411.83	61.219
412.18	62.138
412.54	61.682
412.89	61.947
413.25	62.486
413.60	62.617
413.96	62.358
414.31	63.459
414.67	63.377
415.03	62.835
415.38	64.101
415.74	62.413
416.09	63.960
416.45	63.801
416.80	65.876
417.16	63.081
417.51	64.395
417.87	63.955
418.22	62.940
418.58	64.713
418.93	63.891
419.29	63.093
419.64	63.416
420.00	64.439
420.35	63.589
420.71	63.652
421.06	63.979
421.42	63.615
421.77	63.298
422.12	63.947
422.48	63.020
422.83	64.118
423.19	64.201
423.54	64.454
423.90	64.949
424.25	65.493
424.61	64.887
424.96	64.145
425.31	64.696
425.67	65.544
426.02	65.283
426.38	64.119
426.73	65.529
427.09	65.421
427.44	64.378
427.79	66.152
428.15	66.470
428.50	66.571
428.85	66.020
429.21	65.694
429.56	65.005
429.92	65.241
430.27	64.344
430.62	63.240
430.98	64.521
431.33	65.121
431.68	64.494
432.04	65.856
432.39	67.289
432.74	67.096
433.10	67.497
433.45	67.835
433.80	67.954
434.16	65.738
434.51	65.325
434.86	66.304
435.22	66.775
435.57	66.449
435.92	68.640
436.28	67.512
436.63	67.585
436.98	68.694
437.34	68.379
437.69	66.909
438.04	68.065
438.39	66.900
438.75	66.815
439.10	68.861
439.45	66.817
439.81	67.727
440.16	67.254
440.51	67.286
440.86	68.604
441.22	66.071
441.57	67.454
441.92	67.275
442.27	66.804
442.63	67.073
442.98	67.188
443.33	66.470
443.68	67.404
444.03	67.201
444.39	69.115
444.74	68.789
445.09	68.878
445.44	67.588
445.79	68.275
446.15	68.316
446.50	67.932
446.85	67.878
447.20	68.557
447.55	69.386
447.91	69.686
448.26	68.637
448.61	69.320
448.96	68.954
449.31	70.132
449.66	68.826
450.02	67.261
450.37	69.461
450.72	69.642
451.07	68.703
451.42	68.998
451.77	70.160
452.12	69.711
452.47	70.413
452.83	69.239
453.18	69.429
453.53	69.745
453.88	69.429
454.23	69.494
454.58	69.172
454.93	69.528
455.28	69.706
455.63	70.567
455.98	71.404
456.34	71.368
456.69	71.463
457.04	67.780
457.39	70.057
457.74	70.552
458.09	69.512
458.44	68.456
458.79	69.867
459.14	69.394
459.49	69.762
459.84	69.457
460.19	68.588
460.54	69.687
460.89	69.190
461.24	69.129
461.59	70.181
461.94	68.853
462.29	69.451
462.64	70.101
462.99	70.377
463.34	69.929
463.69	69.752
464.04	69.718
464.39	68.746
464.74	68.406
465.09	68.891
465.44	69.423
465.79	69.407
466.14	67.992
466.49	69.452
466.84	68.896
467.19	69.361
467.54	68.589
467.89	69.131
468.24	70.411
468.59	69.762
468.94	69.928
469.29	69.395
469.64	69.711
469.99	70.244
470.34	69.070
470.68	69.241
471.03	72.582
471.38	70.397
471.73	70.346
472.08	72.146
472.43	70.826
472.78	70.615
473.13	69.274
473.48	69.621
473.83	70.141
474.17	70.638
474.52	70.261
474.87	69.812
475.22	71.045
475.57	68.993
475.92	69.494
476.27	68.662
476.61	69.705
476.96	68.757
477.31	70.643
477.66	71.712
478.01	69.469
478.36	69.619
478.70	68.337
479.05	70.345
479.40	68.552
479.75	69.166
480.10	70.620
480.45	68.114
480.79	69.078
481.14	70.328
481.49	68.253
481.84	68.997
482.19	68.297
482.53	68.555
482.88	69.265
483.23	68.381
483.58	70.287
483.92	70.612
484.27	68.408
484.62	69.185
484.97	67.433
485.31	66.864
485.66	64.734
486.01	62.612
486.36	60.820
486.70	60.825
487.05	62.132
487.40	63.604
487.75	64.834
488.09	65.398
488.44	66.157
488.79	67.129
489.13	67.376
489.48	69.197
489.83	67.973
490.17	68.415
490.52	69.208
490.87	68.578
491.22	69.681
491.56	69.082
491.91	68.011
492.26	68.998
492.60	71.253
492.95	69.280
493.30	69.654
493.64	69.587
493.99	69.499
494.34	68.803
494.68	69.544
495.03	69.511
495.37	69.743
495.72	69.837
496.07	68.823
496.41	69.027
496.76	68.848
497.11	68.552
497.45	69.487
497.80	70.250
498.14	69.903
498.49	69.638
498.84	70.000
499.18	68.190
499.53	70.464
499.87	69.182
500.22	70.106
500.56	70.427
500.91	69.527
501.26	70.051
501.60	69.217
501.95	69.489
502.29	69.289
502.64	68.813
502.98	68.164
503.33	68.731
503.67	68.168
504.02	68.607
504.36	68.416
504.71	70.482
505.06	68.794
505.40	69.303
505.75	69.738
506.09	69.482
506.44	70.583
506.78	69.991
507.13	71.159
507.47	69.820
507.82	70.462
508.16	71.730
508.51	69.130
508.85	69.326
509.19	71.072
509.54	70.117
509.88	70.960
510.23	71.078
510.57	69.160
510.92	71.329
511.26	70.733
511.61	69.572
511.95	70.284
512.30	70.150
512.64	70.561
512.98	70.784
513.33	70.338
513.67	70.792
514.02	71.221
514.36	70.457
514.70	71.200
515.05	71.763
515.39	72.533
515.74	72.280
516.08	72.440
516.42	74.645
516.77	71.520
517.11	72.747
517.46	71.552
517.80	72.201
518.14	74.535
518.49	71.058
518.83	71.868
519.17	72.768
519.52	72.474
519.86	72.262
520.20	72.767
520.55	72.979
520.89	72.989
521.23	73.890
521.58	73.035
521.92	74.752
522.26	73.934
522.61	73.500
522.95	74.955
523.29	74.094
523.64	72.890
523.98	73.885
524.32	73.299
524.66	73.275
525.01	73.609
525.35	71.420
525.69	73.028
526.04	73.290
526.38	72.925
526.72	73.210
527.06	72.797
527.41	74.849
527.75	73.402
528.09	74.052
528.43	74.375
528.78	73.584
529.12	75.256
529.46	73.115
529.80	72.371
530.15	73.777
530.49	72.744
530.83	72.700
531.17	74.908
531.51	74.188
531.86	70.954
532.20	71.446
532.54	72.881
532.88	74.266
533.22	72.882
533.57	74.802
533.91	72.261
534.25	71.091
534.59	71.871
534.93	70.876
535.27	69.664
535.62	70.828
535.96	70.922
536.30	72.943
536.64	71.429
536.98	70.736
537.32	72.188
537.66	72.449
538.01	70.093
538.35	71.990
538.69	71.602
539.03	70.833
539.37	71.299
539.71	69.877
540.05	69.785
540.39	71.321
540.73	71.203
541.07	72.334
541.42	72.077
541.76	70.099
542.10	70.777
542.44	72.007
542.78	71.303
543.12	70.613
543.46	70.677
543.80	71.742
544.14	70.402
544.48	70.073
544.82	71.254
545.16	70.856
545.50	70.805
545.84	70.328
546.18	72.562
546.52	72.459
546.86	71.373
547.20	71.124
547.54	70.488
547.88	68.917
548.22	69.824
548.56	69.358
548.90	68.624
549.24	71.131
549.58	70.232
549.92	71.971
550.26	72.143
550.60	70.659
550.94	71.913
551.28	72.690
551.62	72.138
551.96	71.824
552.30	71.786
552.64	71.392
552.98	70.490
553.32	70.230
553.66	69.837
554.00	69.949
554.34	70.972
554.68	73.320
555.02	71.419
555.36	70.545
555.69	70.223
556.03	70.510
556.37	70.172
556.71	71.317
557.05	70.183
557.39	70.800
557.73	71.765
558.07	72.233
558.41	71.830
558.75	72.025
559.08	73.910
559.42	73.586
559.76	70.848
560.10	71.438
560.44	70.936
560.78	71.164
561.12	71.329
561.45	70.213
561.79	69.288
562.13	69.046
562.47	69.890
562.81	69.811
563.15	70.394
563.48	67.950
563.82	71.429
564.16	69.527
564.50	68.174
564.84	69.058
565.17	68.271
565.51	69.828
565.85	70.820
566.19	68.690
566.52	68.833
566.86	70.111
567.20	68.315
567.54	67.686
567.88	65.989
568.21	65.652
568.55	66.148
568.89	64.234
569.23	63.158
569.56	63.059
569.90	60.223
570.24	61.158
570.57	60.286
570.91	59.314
571.25	59.786
571.59	57.812
571.92	57.374
572.26	57.574
572.60	57.901
572.93	59.172
573.27	58.673
573.61	58.202
573.95	56.897
574.28	57.465
574.62	56.800
574.96	56.103
575.29	56.373
575.63	55.948
575.97	55.794
576.30	55.859
576.64	57.261
576.98	55.932
577.31	57.021
577.65	55.768
577.98	54.705
578.32	54.853
578.66	54.296
578.99	54.877
579.33	55.210
579.67	55.458
580.00	54.735
580.34	55.565
580.67	54.698
581.01	55.848
581.35	54.999
581.68	54.376
582.02	53.951
582.35	53.790
582.69	53.892
583.02	54.552
583.36	55.115
583.70	55.730
584.03	57.942
584.37	56.714
584.70	56.233
585.04	55.341
585.37	54.959
585.71	55.596
586.04	55.076
586.38	56.069
586.72	56.293
587.05	56.511
587.39	56.056
587.72	56.209
588.06	56.196
588.39	56.346
588.73	56.252
589.06	57.514
589.40	58.717
589.73	58.178
590.07	59.197
590.40	59.164
590.73	60.705
591.07	60.645
591.40	60.160
591.74	60.349
592.07	60.399
592.41	59.992
592.74	58.916
593.08	57.747
593.41	57.331
593.75	56.428
594.08	57.068
594.41	57.380
594.75	57.603
595.08	57.339
595.42	58.097
595.75	57.157
596.09	58.255
596.42	58.740
596.75	60.737
597.09	61.246
597.42	60.245
597.75	60.365
598.09	59.869
598.42	58.956
598.76	58.597
599.09	59.544
599.42	57.647
599.76	57.700
600.09	57.593
600.42	58.046
600.76	58.158
601.09	57.853
601.42	56.917
601.76	58.539
602.09	58.278
602.42	57.190
602.76	58.861
603.09	59.050
603.42	58.972
603.76	58.207
604.09	58.125
604.42	58.531
604.76	58.949
605.09	58.122
605.42	59.447
605.75	58.784
606.09	58.761
606.42	58.249
606.75	58.570
607.09	58.152
607.42	59.060
607.75	57.842
608.08	58.611
608.42	58.683
608.75	58.237
609.08	59.569
609.41	60.773
609.75	60.027
610.08	60.117
610.41	60.255
610.74	58.831
611.07	60.118
611.41	59.778
611.74	61.520
612.07	61.368
612.40	60.331
612.73	61.008
613.07	62.696
613.40	61.454
613.73	62.456
614.06	60.100
614.39	60.808
614.72	60.422
615.06	59.842
615.39	60.000
615.72	60.116
616.05	61.577
616.38	60.832
616.71	62.181
617.05	62.878
617.38	61.292
617.71	62.711
618.04	63.432
618.37	62.535
618.70	63.626
619.03	63.736
619.36	64.322
619.69	64.644
620.03	66.341
620.36	64.611
620.69	66.092
621.02	66.304
621.35	65.974
621.68	65.855
622.01	68.635
622.34	66.934
622.67	66.011
623.00	64.602
623.33	66.059
623.66	65.269
623.99	66.575
624.32	66.260
624.65	64.450
624.99	65.585
625.32	65.464
625.65	65.103
625.98	66.109
626.31	66.766
626.64	66.667
626.97	67.330
627.30	69.022
627.63	69.859
627.96	67.840
628.29	72.195
628.62	68.948
628.95	71.365
629.28	71.429
629.61	72.056
629.94	72.688
630.26	72.184
630.59	70.124
630.92	70.314
631.25	71.260
631.58	74.349
631.91	71.741
632.24	73.955
632.57	72.593
632.90	76.501
633.23	73.872
633.56	75.869
633.89	76.635
634.22	76.964
634.55	74.624
634.88	75.027
635.20	76.457
635.53	77.700
635.86	77.852
636.19	75.982
636.52	74.378
636.85	73.031
637.18	75.515
637.51	76.648
637.83	75.744
638.16	79.132
638.49	77.365
638.82	76.408
639.15	75.911
639.48	77.844
639.81	77.411
640.13	75.828
640.46	80.784
640.79	80.624
641.12	76.378
641.45	78.784
641.77	78.071
642.10	77.108
642.43	81.650
642.76	79.830
643.09	80.980
643.41	79.523
643.74	79.712
644.07	82.596
644.40	82.988
644.73	83.483
645.05	82.764
645.38	82.848
645.71	82.549
646.04	84.885
646.36	82.316
646.69	83.680
647.02	83.520
647.35	82.047
647.67	81.361
648.00	83.388
648.33	81.805
648.66	82.576
648.98	77.536
649.31	73.684
649.64	77.593
649.96	78.521
650.29	75.714
650.62	80.412
650.94	81.325
651.27	85.167
651.60	79.656
651.92	78.648
652.25	80.787
652.58	75.745
652.90	77.395
653.23	79.173
653.56	79.674
653.88	76.946
654.21	74.194
654.54	76.281
654.86	79.056
655.19	72.823
655.52	59.284
655.84	45.868
656.17	51.532
656.49	72.794
656.82	82.543
657.15	66.090
657.47	50.823
657.80	38.033
658.13	30.316
658.45	42.102
658.78	51.485
659.10	52.630
659.43	54.875
659.75	58.282
660.08	62.531
660.41	68.330
660.73	75.157
661.06	80.931
661.38	81.772
661.71	82.914
662.03	83.460
662.36	86.476
662.68	83.613
663.01	82.162
663.33	82.075
663.66	84.221
663.98	84.921
664.31	83.396
664.63	83.716
664.96	83.677
665.28	81.168
665.61	79.811
665.93	81.887
666.26	83.738
666.58	82.936
666.91	84.942
667.23	83.333
667.56	88.501
667.88	87.967
668.21	86.066
668.53	86.089
668.86	82.766
669.18	84.929
669.50	82.851
669.83	85.216
670.15	81.289
670.48	80.078
670.80	82.470
671.13	82.072
671.45	82.565
671.77	81.818
672.10	78.815
672.42	73.191
672.75	75.000
673.07	75.676
673.39	73.323
673.72	78.028
674.04	79.749
674.37	78.947
674.69	80.669
675.01	79.478
675.34	81.395
675.66	80.469
675.98	83.037
676.31	81.200
676.63	79.125
676.95	79.960
677.28	80.933
677.60	80.885
677.92	81.151
678.25	80.233
678.57	77.467
678.89	80.470
679.22	79.412
679.54	77.936
679.86	77.312
680.18	77.153
680.51	75.290
680.83	75.000
681.15	75.910
681.48	77.604
681.80	75.306
682.12	73.702
682.44	73.514
682.77	75.267
683.09	78.252
683.41	81.224
683.73	80.315
684.06	78.770
684.38	82.171
684.70	75.180
685.02	74.306
685.34	73.944
685.67	70.740
685.99	71.921
686.31	69.183
686.63	71.870
686.96	73.366
687.28	71.309
687.60	73.038
687.92	73.367
688.24	74.483
688.56	71.886
688.89	74.187
689.21	75.915
689.53	77.668
689.85	75.610
690.17	76.699
690.49	78.629
690.82	78.361
691.14	77.980
691.46	79.261
691.78	76.413
692.10	75.000
692.42	70.962
692.74	75.000
693.06	75.000
693.39	73.715
693.71	74.656
694.03	76.134
694.35	76.104
694.67	76.171
694.99	79.379
695.31	77.027
695.63	78.959
695.95	77.149
696.27	77.434
696.59	81.623
696.91	81.266
697.23	76.244
697.56	73.859
697.88	71.058
698.20	71.321
698.52	70.233
698.84	75.359
699.16	77.825
699.48	76.907
699.80	75.817
700.12	77.136
700.44	80.607
700.76	77.088
701.08	83.290
701.40	83.636
701.72	86.364
702.04	79.946
702.36	83.333
702.68	83.511
703.00	79.198
703.32	80.645
703.64	79.597
703.96	77.344
704.28	81.217
704.60	84.225
704.91	79.832
705.23	86.648
705.55	83.383
705.87	90.794
706.19	88.088
706.51	89.342
706.83	85.546
707.15	79.144
707.47	76.998
707.79	76.322
708.11	74.150
708.43	77.753
708.74	68.778
709.06	73.256
709.38	77.171
709.70	83.379
710.02	76.902
710.34	78.177
710.66	78.889
710.98	78.689
711.29	77.716
711.61	78.273
711.93	81.459
712.25	80.120
712.57	82.637
712.89	80.303
713.20	83.706
713.52	76.324
713.84	80.363
714.16	77.391
714.48	76.081
714.80	76.423
715.11	70.213
715.43	79.330
715.75	80.563
716.07	76.590
716.39	78.000
716.70	76.324
717.02	86.869
717.34	80.935
717.66	85.417
717.97	95.076
718.29	85.915
718.61	80.405
718.93	81.661
719.24	83.557
719.56	84.828
719.88	74.841
720.20	77.419
720.51	79.412
720.83	76.589
721.15	81.293
721.46	78.425
721.78	79.791
722.10	81.250
722.42	77.592
722.73	80.866
723.05	83.158
723.37	81.625
723.68	86.328
724.00	82.576
724.32	86.692
724.63	82.692
724.95	87.843
725.27	78.439
725.58	83.824
725.90	77.113
726.22	77.397
726.53	77.926
726.85	74.919
727.16	84.899
727.48	76.744
727.80	80.935
728.11	78.929
728.43	75.000
728.74	76.573
729.06	76.703
729.38	80.351
729.69	81.333
730.01	77.961
730.32	77.517
730.64	82.060
730.96	75.375
731.27	71.560
731.59	69.828
731.90	73.538
732.22	73.714
732.53	72.080
732.85	75.146
733.16	72.590
733.48	72.727
733.80	69.565
734.11	76.074
734.43	66.959
734.74	71.850
735.06	68.519
735.37	65.979
735.69	71.304
736.00	74.006
736.32	66.970
736.63	73.502
736.95	70.186
737.26	71.951
737.58	71.779
737.89	71.687
738.21	75.828
738.52	73.244
738.83	78.388
739.15	76.655
739.46	76.207
739.78	72.789
740.09	73.178
740.41	71.472
740.72	76.508
741.04	79.021
741.35	82.812
741.66	84.190
741.98	81.116
742.29	87.500
742.61	85.841
742.92	78.390
743.23	76.800
743.55	77.358
743.86	78.039
744.18	80.932
744.49	76.860
744.80	83.871
745.12	86.161
745.43	89.252
745.74	86.667
746.06	85.088
746.37	89.302
746.68	85.398
747.00	81.166
747.31	77.731
747.62	77.459
747.94	81.545
748.25	75.486
748.56	80.508
748.88	81.696
749.19	83.721
749.50	85.845
749.82	77.778
750.13	75.889
750.44	72.667
750.75	76.174
751.07	71.053
751.38	69.637
751.69	69.360
752.01	73.077
752.32	71.429
752.63	72.819
752.94	73.776
753.26	82.813
753.57	78.210
753.88	77.154
754.19	76.895
754.51	73.090
754.82	69.799
755.13	73.311
755.44	75.556
755.75	70.790
756.07	75.000
756.38	71.242
756.69	65.625
757.00	67.656
757.31	63.662
757.63	64.463
757.94	63.298
758.25	60.870
758.56	60.641
758.87	61.905
759.18	71.512
759.50	66.565
759.81	67.953
760.12	65.730
760.43	62.185
760.74	63.291
761.05	66.844
761.36	64.062
761.67	66.577
761.99	65.915
762.30	65.916
762.61	68.056
762.92	73.106
763.23	69.057
763.54	74.615
763.85	71.984
764.16	67.708
764.47	65.541
764.78	68.730
765.10	64.329
765.41	62.500
765.72	64.917
766.03	64.350
766.34	72.474
766.65	73.004
766.96	75.709
767.27	81.308
767.58	80.198
767.89	86.740
768.20	95.122
768.51	71.939
768.82	72.368
769.13	70.588
769.44	69.925
769.75	66.292
770.06	75.210
770.37	71.930
770.68	70.667
770.99	70.339
771.30	72.385
771.61	72.308
771.92	67.939
772.23	70.161
772.54	70.222
772.85	75.248
773.16	72.283
773.47	77.222
773.78	75.248
774.09	77.841
774.39	82.424
774.70	76.471
775.01	78.289
775.32	77.019
775.63	86.986
775.94	86.420
776.25	94.483
776.56	87.786
776.87	99.237
777.18	91.667
777.48	96.850
777.79	93.077
778.10	91.667
778.41	86.567
778.72	75.940
779.03	78.846
779.34	93.243
779.65	75.155
779.95	80.124
780.26	80.357
780.57	85.034
780.88	85.816
781.19	104.167
781.50	71.598
781.80	77.596
782.11	78.307
782.42	75.862
782.73	74.576
783.04	73.548
783.34	89.922
783.65	82.993
783.96	77.419
784.27	70.861
784.57	74.342
784.88	77.536
785.19	88.333
785.50	90.517
785.81	88.372
786.11	85.185
786.42	94.488
786.73	97.297
787.04	95.283
787.34	82.927
787.65	86.364
787.96	81.061
788.26	82.677
788.57	83.942
788.88	85.211
789.19	80.916
789.49	78.378
789.80	78.906
790.11	91.736
790.41	94.444
790.72	80.556
791.03	90.385
791.33	96.970
791.64	97.895
791.95	101.053
792.25	85.417
792.56	84.000
792.87	101.220
793.17	90.909
793.48	105.882
793.79	98.851
794.09	96.591
794.40	89.655
794.70	81.746
795.01	83.846
795.32	76.336
795.62	77.778
795.93	84.874
796.23	86.179
796.54	103.061
796.85	95.455
797.15	111.688
797.46	109.756
797.76	96.250
798.07	113.333
798.37	100.000
798.68	107.500
798.99	107.317
799.29	98.667
799.60	91.860
799.90	105.263
800.21	122.727
800.51	94.366
800.82	132.759
801.12	123.077
801.43	109.333
801.73	122.414
802.04	94.805
802.34	112.329
802.65	135.294
802.95	150.000
803.26	120.968
803.56	118.333
803.87	116.418
804.17	114.286
804.48	132.075
804.78	81.944
805.09	119.697
805.39	109.524
805.70	131.579
806.00	97.143
806.30	96.875
806.61	100.000
806.91	94.444
807.22	90.217
807.52	109.211
807.83	101.316
808.13	117.391
808.43	127.419
808.74	98.630
809.04	117.857
809.35	117.647
809.65	113.636
809.95	145.098
810.26	146.296
810.56	121.875
810.86	118.367
811.17	140.351
811.47	136.957
811.77	129.310
812.08	89.655
812.38	130.952
812.69	147.619
812.99	131.111
813.29	180.000
813.59	180.645
813.90	94.828
814.20	111.475
814.50	126.000
814.81	101.754
815.11	144.444
815.41	125.000
815.72	141.071
816.02	132.000
816.32	141.463
816.62	110.345
816.93	148.485
817.23	148.780
817.53	121.429
817.84	133.333
818.14	130.952
818.44	118.750
818.74	126.415
819.04	138.462
819.35	175.758
819.65	123.077
819.95	135.185
820.25	140.426
820.56	148.649
820.86	147.368
821.16	97.872
821.46	139.474
821.76	132.727
822.07	130.952
822.37	160.526
822.67	120.930
822.97	144.737
823.27	145.652
823.57	165.625
823.88	156.410
824.18	148.485
824.48	204.348
824.78	150.000
825.08	239.130
825.38	165.517
825.69	144.118
825.99	121.277
826.29	113.889
826.59	145.714
826.89	173.333
827.19	142.857
827.49	170.968
827.79	200.000
828.09	152.381
828.39	138.889
828.70	145.946
829.00	210.714
829.30	262.500
829.60	144.444
829.90	161.290
830.20	124.242
830.50	162.162
830.80	216.667
831.10	246.154
831.40	209.524
831.70	241.667
832.00	183.333
832.30	173.913
832.60	233.333
832.90	145.455
833.20	235.000
833.50	150.000
833.80	161.765
834.10	128.947
834.40	200.000
834.70	163.333
835.00	196.000
835.30	108.108
835.60	175.000
835.90	189.189
836.20	169.231
836.50	222.727
836.80	143.902
837.10	226.087
837.40	407.692
837.70	194.737
838.00	176.667
838.30	225.000
838.60	232.000
838.90	400.000
839.19	237.500
839.49	143.333
839.79	141.379
840.09	150.000
840.39	320.000
840.69	252.632
840.99	147.619
841.29	226.087
841.59	215.000
841.88	168.000
842.18	522.222
842.48	142.857
842.78	203.704
843.08	284.615
843.38	190.909
843.68	300.000
843.97	657.143
844.27	208.696
844.57	2200.000
844.87	314.286
845.17	233.333
845.47	161.905
845.76	220.833
846.06	471.429
846.36	247.059
846.66	300.000
846.96	225.000
847.25	238.462
847.55	247.368
847.85	222.222
848.15	620.000
848.44	318.182
848.74	266.667
849.04	195.833
849.34	223.529
849.63	231.250
849.93	306.250
850.23	1266.667
850.53	525.000
850.82	363.636
851.12	247.059
851.42	183.333
851.71	300.000
852.01	0.000
852.31	217.647
852.61	580.000
852.90	208.333
853.20	388.889
853.50	-3700.000
853.79	176.000
854.09	196.875
854.39	172.414
854.68	210.345
854.98	214.286
855.28	148.387
855.57	321.429
855.87	244.444
856.17	162.963
856.46	205.263
856.76	174.194
857.05	288.235
857.35	381.818
857.65	284.615
857.94	215.000
858.24	455.556
858.53	307.143
858.83	628.571
859.13	221.739
859.42	477.778
859.72	487.500
860.01	366.667
860.31	975.000
860.60	380.000
860.90	525.000
861.20	253.846
861.49	414.286
861.79	-4000.000
862.08	628.571
862.38	455.556
862.67	271.429
862.97	450.000
863.26	153.333
863.56	975.000
863.85	346.154
864.15	288.235
864.44	266.667
864.74	316.667
865.03	336.364
865.33	375.000
865.62	226.667
865.92	566.667
866.21	700.000
866.51	680.000
866.80	188.889
867.10	900.000
867.39	3200.000
867.69	580.000
867.98	975.000
868.27	200.000
868.57	280.000
868.86	1175.000
869.16	185.714
869.45	3300.000
869.75	-650.000
870.04	975.000
870.33	720.000
870.63	325.000
870.92	252.941
871.22	600.000
871.51	614.286
871.80	375.000
872.10	353.846
>>>>>End Processed Spectral Data<<<<<
