SpectraSuite Data File
++++++++++++++++++++++++++++++++++++
Date: Tue May 12 17:01:19 PDT 2015
User: schluterlab
Dark Spectrum Present: Yes
Reference Spectrum Present: Yes
Number of Sampled Component Spectra: 1
Spectrometers: USB2E3373
Integration Time (usec): 3000 (USB2E3373)
Spectra Averaged: 3 (USB2E3373)
Boxcar Smoothing: 0 (USB2E3373)
Correct for Electrical Dark: No (USB2E3373)
Strobe/Lamp Enabled: No (USB2E3373)
Correct for Detector Non-linearity: No (USB2E3373)
Correct for Stray Light: No (USB2E3373)
Number of Pixels in Processed Spectrum: 2048
>>>>>Begin Processed Spectral Data<<<<<
178.53	0.000
178.91	-241.667
179.29	-725.000
179.67	-4300.000
180.04	-213.333
180.42	650.000
180.80	1350.000
181.18	0.000
181.56	-475.000
181.94	0.000
182.31	1000.000
182.69	-2700.000
183.07	685.714
183.45	-3900.000
183.83	-1300.000
184.20	470.000
184.58	500.000
184.96	-253.846
185.34	-225.000
185.72	2000.000
186.09	-875.000
186.47	-2700.000
186.85	1266.667
187.23	740.000
187.61	1800.000
187.98	437.500
188.36	314.286
188.74	400.000
189.12	316.667
189.49	1075.000
189.87	0.000
190.25	425.000
190.63	3000.000
191.00	-208.333
191.38	-2700.000
191.76	-725.000
192.14	475.000
192.51	-3100.000
192.89	1800.000
193.27	1066.667
193.65	-1333.333
194.02	-860.000
194.40	500.000
194.78	-178.571
195.15	186.667
195.53	-2800.000
195.91	-320.000
196.29	3300.000
196.66	200.000
197.04	825.000
197.42	-1900.000
197.79	750.000
198.17	366.667
198.55	0.000
198.92	385.714
199.30	1100.000
199.68	1450.000
200.05	800.000
200.43	-350.000
200.81	172.222
201.18	2800.000
201.56	308.333
201.94	-725.000
202.31	-250.000
202.69	-480.000
203.07	3500.000
203.44	-583.333
203.82	333.333
204.19	540.000
204.57	-1350.000
204.95	-875.000
205.32	-600.000
205.70	483.333
206.08	725.000
206.45	-500.000
206.83	355.556
207.20	178.947
207.58	275.000
207.96	920.000
208.33	0.000
208.71	542.857
209.08	740.000
209.46	-3200.000
209.84	-950.000
210.21	880.000
210.59	-700.000
210.96	300.000
211.34	-875.000
211.71	427.273
212.09	825.000
212.46	1650.000
212.84	-416.667
213.22	344.444
213.59	-4000.000
213.97	360.000
214.34	1075.000
214.72	1200.000
215.09	1100.000
215.47	-3900.000
215.84	-230.000
216.22	-425.000
216.59	0.000
216.97	0.000
217.34	1600.000
217.72	-1200.000
218.09	1333.333
218.47	400.000
218.84	850.000
219.22	1133.333
219.59	1066.667
219.97	585.714
220.34	344.444
220.72	1500.000
221.09	3500.000
221.47	250.000
221.84	966.667
222.22	400.000
222.59	238.889
222.97	250.000
223.34	218.750
223.72	-1650.000
224.09	1233.333
224.46	253.846
224.84	-1000.000
225.21	400.000
225.59	340.000
225.96	966.667
226.34	-520.000
226.71	-750.000
227.08	-460.000
227.46	0.000
227.83	-600.000
228.21	-1450.000
228.58	333.333
228.95	950.000
229.33	400.000
229.70	775.000
230.08	315.385
230.45	3400.000
230.82	-1050.000
231.20	-533.333
231.57	-966.667
231.95	560.000
232.32	325.000
232.69	583.333
233.07	225.000
233.44	-1150.000
233.81	220.000
234.19	177.778
234.56	168.750
234.93	217.647
235.31	205.000
235.68	218.750
236.05	150.000
236.43	144.444
236.80	185.714
237.17	137.931
237.55	109.375
237.92	135.000
238.29	115.152
238.67	118.750
239.04	82.927
239.41	47.917
239.79	67.500
240.16	60.417
240.53	65.574
240.91	57.971
241.28	62.712
241.65	46.970
242.02	54.930
242.40	58.571
242.77	45.055
243.14	41.772
243.51	52.525
243.89	34.579
244.26	37.383
244.63	22.772
245.00	32.110
245.38	20.339
245.75	31.061
246.12	33.333
246.49	26.241
246.87	15.574
247.24	24.667
247.61	23.750
247.98	19.048
248.36	16.364
248.73	25.510
249.10	17.262
249.47	14.000
249.84	22.886
250.22	18.378
250.59	15.500
250.96	14.768
251.33	17.209
251.70	17.411
252.08	18.067
252.45	14.343
252.82	15.209
253.19	15.020
253.56	10.385
253.94	14.493
254.31	15.504
254.68	16.725
255.05	16.552
255.42	14.599
255.79	14.984
256.16	12.542
256.54	14.610
256.91	14.706
257.28	12.375
257.65	9.404
258.02	11.799
258.39	12.607
258.76	11.884
259.14	10.000
259.51	12.828
259.88	8.511
260.25	11.264
260.62	9.589
260.99	10.744
261.36	11.142
261.73	10.638
262.10	12.827
262.47	11.500
262.85	9.867
263.22	9.254
263.59	9.463
263.96	10.025
264.33	7.654
264.70	11.057
265.07	8.780
265.44	10.550
265.81	10.142
266.18	9.153
266.55	7.565
266.92	9.172
267.29	12.281
267.66	10.538
268.03	8.296
268.40	9.302
268.77	11.894
269.14	6.291
269.51	10.245
269.88	9.184
270.25	7.991
270.62	10.300
270.99	10.548
271.36	9.553
271.73	8.176
272.10	8.081
272.47	8.532
272.84	7.784
273.21	8.058
273.58	8.907
273.95	6.366
274.32	7.977
274.69	9.843
275.06	9.472
275.43	8.621
275.80	7.170
276.17	9.191
276.54	8.785
276.91	9.328
277.28	7.299
277.65	7.011
278.02	7.169
278.39	7.734
278.76	8.793
279.13	7.651
279.50	6.909
279.87	5.214
280.23	5.157
280.60	7.482
280.97	7.241
281.34	7.591
281.71	7.826
282.08	7.863
282.45	7.432
282.82	6.856
283.19	8.267
283.56	8.595
283.92	5.049
284.29	7.820
284.66	6.891
285.03	6.302
285.40	5.455
285.77	6.173
286.14	7.895
286.51	6.748
286.87	6.804
287.24	4.955
287.61	7.751
287.98	7.612
288.35	6.370
288.72	6.980
289.08	7.357
289.45	7.774
289.82	6.250
290.19	6.003
290.56	6.550
290.93	7.338
291.29	5.939
291.66	6.073
292.03	7.013
292.40	7.046
292.77	3.760
293.13	6.562
293.50	4.184
293.87	6.504
294.24	6.154
294.60	6.864
294.97	5.594
295.34	6.507
295.71	6.439
296.08	6.533
296.44	6.734
296.81	5.335
297.18	5.450
297.55	5.788
297.91	4.310
298.28	6.763
298.65	5.031
299.02	5.428
299.38	5.396
299.75	5.000
300.12	5.390
300.48	6.089
300.85	5.959
301.22	5.116
301.59	4.245
301.95	3.967
302.32	4.889
302.69	5.204
303.05	6.285
303.42	4.596
303.79	5.525
304.15	6.271
304.52	3.805
304.89	4.797
305.25	4.116
305.62	4.904
305.99	3.913
306.35	4.421
306.72	5.203
307.09	3.830
307.45	4.857
307.82	4.218
308.19	4.330
308.55	4.100
308.92	5.103
309.29	5.917
309.65	5.649
310.02	5.375
310.38	4.586
310.75	3.761
311.12	4.885
311.48	5.792
311.85	4.771
312.22	5.253
312.58	4.373
312.95	5.437
313.31	5.243
313.68	4.597
314.05	5.678
314.41	5.959
314.78	4.924
315.14	5.118
315.51	5.676
315.87	5.292
316.24	5.229
316.61	5.192
316.97	4.771
317.34	6.289
317.70	5.531
318.07	7.295
318.43	6.239
318.80	5.779
319.16	6.031
319.53	6.726
319.89	5.824
320.26	7.076
320.62	7.143
320.99	7.150
321.35	7.607
321.72	9.393
322.08	8.033
322.45	7.902
322.81	7.411
323.18	9.414
323.54	9.669
323.91	9.429
324.27	8.842
324.64	7.612
325.00	10.690
325.37	10.034
325.73	10.624
326.10	12.759
326.46	11.313
326.83	11.520
327.19	12.209
327.56	11.661
327.92	12.541
328.29	14.239
328.65	14.384
329.01	13.516
329.38	13.706
329.74	12.980
330.11	14.944
330.47	16.198
330.84	14.150
331.20	15.736
331.56	15.717
331.93	16.938
332.29	14.966
332.66	15.221
333.02	14.347
333.38	15.707
333.75	17.014
334.11	16.275
334.48	16.239
334.84	16.216
335.20	17.109
335.57	16.625
335.93	16.653
336.29	17.579
336.66	18.268
337.02	16.766
337.38	16.595
337.75	17.568
338.11	17.890
338.47	16.681
338.84	16.935
339.20	16.104
339.56	18.587
339.93	17.308
340.29	16.807
340.65	18.609
341.02	18.906
341.38	17.816
341.74	16.694
342.11	17.279
342.47	16.489
342.83	18.212
343.20	18.351
343.56	16.998
343.92	17.836
344.28	17.544
344.65	17.930
345.01	17.778
345.37	17.308
345.73	16.905
346.10	17.450
346.46	17.943
346.82	17.670
347.19	18.006
347.55	17.330
347.91	17.749
348.27	16.731
348.63	18.196
349.00	17.822
349.36	17.977
349.72	18.272
350.08	18.401
350.45	18.812
350.81	18.349
351.17	17.720
351.53	18.553
351.89	17.483
352.26	18.972
352.62	17.647
352.98	18.558
353.34	18.413
353.70	17.431
354.07	19.308
354.43	18.203
354.79	18.147
355.15	18.989
355.51	17.900
355.87	18.825
356.24	17.783
356.60	17.884
356.96	18.347
357.32	18.011
357.68	18.429
358.04	18.693
358.40	18.966
358.77	17.656
359.13	18.018
359.49	18.384
359.85	18.764
360.21	17.533
360.57	19.051
360.93	17.677
361.29	17.821
361.66	19.761
362.02	18.395
362.38	17.460
362.74	18.754
363.10	18.654
363.46	18.508
363.82	18.724
364.18	19.630
364.54	18.598
364.90	17.938
365.26	18.529
365.62	17.196
365.98	17.756
366.35	18.207
366.71	19.292
367.07	19.044
367.43	17.797
367.79	18.684
368.15	18.453
368.51	18.746
368.87	19.022
369.23	17.602
369.59	18.543
369.95	17.972
370.31	18.275
370.67	18.945
371.03	19.678
371.39	18.075
371.75	18.981
372.11	19.239
372.47	19.863
372.83	18.287
373.19	19.602
373.55	19.588
373.91	17.610
374.27	19.246
374.63	18.576
374.99	19.137
375.35	18.750
375.71	19.921
376.07	19.562
376.42	18.478
376.78	19.717
377.14	18.938
377.50	18.789
377.86	18.962
378.22	19.317
378.58	20.157
378.94	19.312
379.30	19.224
379.66	19.326
380.02	19.003
380.38	18.852
380.74	19.089
381.09	19.801
381.45	18.613
381.81	19.385
382.17	19.353
382.53	19.016
382.89	19.397
383.25	18.946
383.61	19.424
383.97	18.296
384.32	19.650
384.68	21.093
385.04	19.930
385.40	19.810
385.76	19.427
386.12	19.171
386.48	20.304
386.83	18.826
387.19	18.610
387.55	19.729
387.91	19.169
388.27	19.393
388.62	19.542
388.98	18.834
389.34	18.858
389.70	19.929
390.06	19.268
390.42	19.186
390.77	20.209
391.13	19.916
391.49	19.782
391.85	19.138
392.20	20.203
392.56	20.072
392.92	19.427
393.28	19.787
393.64	18.865
393.99	19.443
394.35	19.717
394.71	19.059
395.07	18.735
395.42	19.614
395.78	20.111
396.14	20.843
396.50	19.194
396.85	19.756
397.21	20.277
397.57	19.486
397.92	18.544
398.28	19.360
398.64	20.303
399.00	19.188
399.35	18.304
399.71	19.371
400.07	20.148
400.42	19.164
400.78	20.117
401.14	19.025
401.49	19.585
401.85	19.757
402.21	19.684
402.57	19.868
402.92	20.061
403.28	18.437
403.63	19.070
403.99	20.145
404.35	19.812
404.70	19.669
405.06	18.866
405.42	19.031
405.77	19.184
406.13	19.143
406.49	18.874
406.84	19.120
407.20	19.406
407.55	19.877
407.91	19.911
408.27	20.073
408.62	19.811
408.98	19.338
409.34	19.287
409.69	19.602
410.05	20.274
410.40	19.140
410.76	18.603
411.11	18.602
411.47	18.951
411.83	18.864
412.18	18.901
412.54	19.159
412.89	19.705
413.25	19.954
413.60	19.159
413.96	19.928
414.31	19.421
414.67	20.298
415.03	19.285
415.38	20.189
415.74	19.773
416.09	20.237
416.45	20.168
416.80	20.783
417.16	19.987
417.51	19.236
417.87	19.086
418.22	19.320
418.58	21.401
418.93	18.977
419.29	18.546
419.64	19.867
420.00	19.928
420.35	18.990
420.71	19.837
421.06	19.364
421.42	19.689
421.77	19.767
422.12	19.846
422.48	18.952
422.83	20.926
423.19	19.114
423.54	19.748
423.90	20.215
424.25	20.088
424.61	19.907
424.96	19.198
425.31	19.540
425.67	19.529
426.02	19.237
426.38	19.020
426.73	19.896
427.09	20.344
427.44	20.597
427.79	19.897
428.15	21.450
428.50	19.486
428.85	20.047
429.21	19.665
429.56	19.840
429.92	19.891
430.27	19.545
430.62	19.285
430.98	19.711
431.33	19.405
431.68	18.519
432.04	19.555
432.39	19.978
432.74	20.258
433.10	19.491
433.45	20.333
433.80	20.518
434.16	19.968
434.51	19.711
434.86	20.686
435.22	19.773
435.57	20.451
435.92	20.034
436.28	20.565
436.63	21.124
436.98	20.270
437.34	21.062
437.69	19.933
438.04	20.215
438.39	19.848
438.75	20.100
439.10	20.345
439.45	20.124
439.81	21.805
440.16	20.308
440.51	20.214
440.86	21.937
441.22	20.887
441.57	21.312
441.92	20.039
442.27	19.742
442.63	20.122
442.98	19.774
443.33	21.157
443.68	20.121
444.03	20.500
444.39	20.198
444.74	20.238
445.09	20.484
445.44	20.085
445.79	19.883
446.15	20.105
446.50	20.200
446.85	20.568
447.20	19.900
447.55	20.827
447.91	21.257
448.26	21.459
448.61	20.896
448.96	21.024
449.31	20.902
449.66	20.875
450.02	19.665
450.37	21.155
450.72	21.267
451.07	21.350
451.42	20.865
451.77	20.848
452.12	20.533
452.47	21.446
452.83	21.352
453.18	21.261
453.53	20.485
453.88	21.771
454.23	21.267
454.58	20.921
454.93	21.091
455.28	21.359
455.63	20.981
455.98	21.151
456.34	22.128
456.69	21.768
457.04	20.943
457.39	20.229
457.74	21.622
458.09	20.326
458.44	20.756
458.79	20.955
459.14	20.185
459.49	20.498
459.84	21.630
460.19	20.904
460.54	20.912
460.89	21.482
461.24	20.561
461.59	20.805
461.94	21.040
462.29	21.167
462.64	21.796
462.99	20.537
463.34	21.841
463.69	21.174
464.04	21.474
464.39	21.694
464.74	20.106
465.09	20.836
465.44	21.110
465.79	20.523
466.14	20.509
466.49	21.053
466.84	20.847
467.19	21.031
467.54	21.141
467.89	20.833
468.24	21.193
468.59	20.357
468.94	21.075
469.29	21.503
469.64	22.186
469.99	21.465
470.34	21.252
470.68	21.931
471.03	21.281
471.38	22.119
471.73	20.836
472.08	21.983
472.43	20.795
472.78	21.127
473.13	21.652
473.48	21.027
473.83	21.260
474.17	21.641
474.52	21.564
474.87	20.694
475.22	21.302
475.57	20.147
475.92	19.315
476.27	20.457
476.61	20.214
476.96	20.690
477.31	21.080
477.66	21.524
478.01	21.042
478.36	21.164
478.70	20.893
479.05	20.502
479.40	21.379
479.75	21.797
480.10	21.249
480.45	20.868
480.79	20.783
481.14	20.685
481.49	20.677
481.84	20.493
482.19	20.306
482.53	20.246
482.88	20.609
483.23	20.568
483.58	20.467
483.92	21.344
484.27	20.077
484.62	21.010
484.97	20.179
485.31	19.428
485.66	18.766
486.01	18.843
486.36	18.596
486.70	18.774
487.05	19.371
487.40	18.970
487.75	19.528
488.09	19.148
488.44	19.375
488.79	20.062
489.13	19.895
489.48	20.216
489.83	20.267
490.17	20.396
490.52	20.370
490.87	20.431
491.22	21.055
491.56	20.553
491.91	20.609
492.26	20.713
492.60	21.093
492.95	20.480
493.30	21.110
493.64	20.440
493.99	20.751
494.34	20.305
494.68	20.407
495.03	21.374
495.37	21.612
495.72	20.886
496.07	20.934
496.41	20.721
496.76	20.177
497.11	20.608
497.45	20.649
497.80	20.806
498.14	20.712
498.49	21.031
498.84	20.561
499.18	20.704
499.53	20.946
499.87	20.440
500.22	20.912
500.56	21.077
500.91	21.011
501.26	21.176
501.60	20.811
501.95	20.341
502.29	20.356
502.64	20.291
502.98	20.320
503.33	20.445
503.67	21.192
504.02	20.197
504.36	20.633
504.71	20.435
505.06	21.211
505.40	21.151
505.75	20.346
506.09	21.092
506.44	20.677
506.78	21.030
507.13	20.795
507.47	20.912
507.82	21.703
508.16	21.264
508.51	21.159
508.85	21.035
509.19	21.047
509.54	21.338
509.88	21.233
510.23	20.735
510.57	19.836
510.92	21.728
511.26	21.235
511.61	21.221
511.95	20.707
512.30	21.150
512.64	20.976
512.98	21.117
513.33	21.773
513.67	21.077
514.02	21.195
514.36	20.613
514.70	21.280
515.05	21.257
515.39	22.039
515.74	22.034
516.08	21.296
516.42	22.186
516.77	21.600
517.11	21.280
517.46	22.091
517.80	22.174
518.14	22.648
518.49	21.334
518.83	21.264
519.17	20.965
519.52	21.300
519.86	21.580
520.20	22.301
520.55	21.255
520.89	22.126
521.23	21.904
521.58	20.654
521.92	21.050
522.26	22.453
522.61	21.687
522.95	22.342
523.29	21.696
523.64	21.387
523.98	21.890
524.32	22.145
524.66	22.435
525.01	21.361
525.35	21.509
525.69	22.396
526.04	22.725
526.38	22.072
526.72	21.360
527.06	21.467
527.41	23.096
527.75	22.763
528.09	21.011
528.43	22.758
528.78	21.944
529.12	23.058
529.46	21.742
529.80	21.787
530.15	21.803
530.49	21.540
530.83	21.755
531.17	21.894
531.51	22.011
531.86	21.618
532.20	21.137
532.54	21.720
532.88	22.174
533.22	21.999
533.57	21.843
533.91	21.270
534.25	21.466
534.59	22.398
534.93	21.274
535.27	21.229
535.62	21.879
535.96	21.277
536.30	22.243
536.64	22.174
536.98	22.215
537.32	23.063
537.66	21.875
538.01	21.858
538.35	21.397
538.69	21.420
539.03	21.642
539.37	22.209
539.71	21.790
540.05	21.354
540.39	21.887
540.73	22.025
541.07	21.769
541.42	21.642
541.76	21.578
542.10	21.270
542.44	21.633
542.78	22.404
543.12	21.718
543.46	22.243
543.80	22.180
544.14	21.300
544.48	22.202
544.82	22.141
545.16	21.372
545.50	21.696
545.84	21.717
546.18	22.562
546.52	22.426
546.86	22.566
547.20	21.705
547.54	21.786
547.88	22.080
548.22	22.283
548.56	21.273
548.90	21.945
549.24	21.920
549.58	21.714
549.92	22.397
550.26	22.921
550.60	21.956
550.94	23.677
551.28	23.034
551.62	23.586
551.96	22.365
552.30	21.688
552.64	21.748
552.98	21.134
553.32	21.511
553.66	21.498
554.00	22.008
554.34	23.635
554.68	22.849
555.02	21.996
555.36	22.141
555.69	22.382
556.03	22.229
556.37	21.670
556.71	22.555
557.05	22.018
557.39	22.333
557.73	22.439
558.07	22.871
558.41	22.344
558.75	22.161
559.08	23.588
559.42	23.980
559.76	23.806
560.10	22.987
560.44	21.831
560.78	22.123
561.12	21.742
561.45	21.151
561.79	21.099
562.13	21.162
562.47	21.544
562.81	21.861
563.15	22.172
563.48	21.491
563.82	21.647
564.16	22.015
564.50	21.338
564.84	21.702
565.17	21.509
565.51	21.798
565.85	22.394
566.19	21.786
566.52	21.480
566.86	21.775
567.20	22.247
567.54	21.234
567.88	21.753
568.21	21.268
568.55	20.331
568.89	20.757
569.23	20.406
569.56	20.567
569.90	20.050
570.24	20.681
570.57	19.630
570.91	19.501
571.25	19.603
571.59	19.064
571.92	18.757
572.26	18.922
572.60	18.828
572.93	19.810
573.27	19.472
573.61	19.193
573.95	18.625
574.28	19.583
574.62	18.840
574.96	18.671
575.29	18.814
575.63	18.563
575.97	18.525
576.30	18.957
576.64	19.168
576.98	19.341
577.31	18.925
577.65	18.638
577.98	18.318
578.32	18.509
578.66	18.507
578.99	19.278
579.33	18.832
579.67	18.901
580.00	18.620
580.34	18.552
580.67	18.837
581.01	19.157
581.35	18.744
581.68	18.535
582.02	18.389
582.35	18.220
582.69	18.753
583.02	18.458
583.36	18.983
583.70	19.299
584.03	19.165
584.37	19.182
584.70	19.234
585.04	19.058
585.37	18.733
585.71	19.281
586.04	18.630
586.38	19.009
586.72	19.022
587.05	19.171
587.39	19.039
587.72	19.102
588.06	19.121
588.39	19.371
588.73	19.423
589.06	18.879
589.40	19.562
589.73	19.502
590.07	20.007
590.40	19.930
590.73	21.043
591.07	21.063
591.40	20.040
591.74	20.657
592.07	20.258
592.41	20.264
592.74	20.322
593.08	18.913
593.41	19.270
593.75	19.063
594.08	20.018
594.41	19.746
594.75	19.315
595.08	19.822
595.42	19.980
595.75	20.039
596.09	20.021
596.42	20.029
596.75	20.713
597.09	20.429
597.42	20.327
597.75	20.041
598.09	20.107
598.42	20.481
598.76	19.892
599.09	20.191
599.42	19.827
599.76	20.014
600.09	19.288
600.42	19.820
600.76	19.782
601.09	19.503
601.42	19.711
601.76	20.086
602.09	20.052
602.42	20.148
602.76	19.734
603.09	20.023
603.42	19.890
603.76	19.776
604.09	19.182
604.42	20.226
604.76	20.229
605.09	20.857
605.42	20.601
605.75	20.292
606.09	19.778
606.42	20.594
606.75	20.599
607.09	19.818
607.42	20.731
607.75	20.183
608.08	20.024
608.42	20.889
608.75	20.240
609.08	20.678
609.41	21.409
609.75	21.108
610.08	20.638
610.41	20.993
610.74	20.390
611.07	20.828
611.41	21.084
611.74	20.841
612.07	21.195
612.40	21.979
612.73	21.717
613.07	21.541
613.40	20.852
613.73	20.769
614.06	20.800
614.39	21.465
614.72	21.296
615.06	20.722
615.39	21.188
615.72	20.862
616.05	21.497
616.38	20.649
616.71	21.324
617.05	21.691
617.38	21.180
617.71	21.485
618.04	21.761
618.37	21.012
618.70	21.247
619.03	21.856
619.36	22.927
619.69	22.098
620.03	22.831
620.36	22.993
620.69	23.308
621.02	24.049
621.35	22.350
621.68	22.861
622.01	23.247
622.34	22.505
622.67	23.034
623.00	23.145
623.33	23.347
623.66	22.355
623.99	22.945
624.32	23.306
624.65	22.646
624.99	23.124
625.32	22.512
625.65	22.138
625.98	22.664
626.31	23.516
626.64	22.703
626.97	23.336
627.30	23.913
627.63	23.862
627.96	24.335
628.29	23.927
628.62	24.209
628.95	24.911
629.28	25.855
629.61	23.111
629.94	24.287
630.26	23.484
630.59	25.177
630.92	24.753
631.25	24.660
631.58	25.265
631.91	25.404
632.24	24.198
632.57	23.477
632.90	25.880
633.23	25.603
633.56	25.817
633.89	26.259
634.22	27.126
634.55	24.946
634.88	27.163
635.20	28.363
635.53	25.784
635.86	26.510
636.19	24.691
636.52	25.838
636.85	25.674
637.18	25.785
637.51	26.480
637.83	25.515
638.16	26.143
638.49	26.946
638.82	25.117
639.15	26.087
639.48	25.829
639.81	27.839
640.13	28.221
640.46	27.434
640.79	27.048
641.12	25.722
641.45	27.426
641.77	25.892
642.10	27.845
642.43	29.587
642.76	27.131
643.09	25.360
643.41	28.050
643.74	27.482
644.07	27.581
644.40	26.923
644.73	30.330
645.05	28.826
645.38	27.259
645.71	28.680
646.04	29.924
646.36	29.108
646.69	30.080
647.02	29.760
647.35	27.874
647.67	28.201
648.00	26.710
648.33	28.722
648.66	26.970
648.98	26.812
649.31	26.991
649.64	26.971
649.96	26.885
650.29	25.143
650.62	27.835
650.94	29.819
651.27	30.463
651.60	28.013
651.92	29.186
652.25	27.559
652.58	27.943
652.90	28.892
653.23	28.213
653.56	27.745
653.88	28.781
654.21	28.152
654.54	25.769
654.86	28.466
655.19	27.441
655.52	23.083
655.84	17.073
656.17	19.528
656.49	28.123
656.82	32.428
657.15	26.682
657.47	19.969
657.80	14.768
658.13	11.689
658.45	15.684
658.78	19.477
659.10	19.648
659.43	20.164
659.75	21.823
660.08	22.619
660.41	24.682
660.73	27.478
661.06	28.529
661.38	29.642
661.71	29.317
662.03	30.989
662.36	30.095
662.68	28.119
663.01	30.631
663.33	30.189
663.66	30.769
663.98	32.143
664.31	30.970
664.63	30.843
664.96	34.146
665.28	29.379
665.61	28.679
665.93	30.189
666.26	30.467
666.58	31.927
666.91	28.378
667.23	29.920
667.56	31.622
667.88	32.573
668.21	29.918
668.53	31.250
668.86	30.060
669.18	29.735
669.50	29.959
669.83	29.363
670.15	31.601
670.48	28.906
670.80	31.873
671.13	30.080
671.45	30.661
671.77	30.798
672.10	30.162
672.42	26.809
672.75	28.006
673.07	28.299
673.39	28.115
673.72	29.239
674.04	28.136
674.37	30.490
674.69	29.368
675.01	30.784
675.34	27.326
675.66	31.836
675.98	28.205
676.31	29.400
676.63	29.225
676.95	30.357
677.28	29.006
677.60	28.370
677.92	29.762
678.25	27.907
678.57	29.981
678.89	30.561
679.22	31.250
679.54	28.470
679.86	29.843
680.18	28.471
680.51	28.358
680.83	28.041
681.15	30.329
681.48	27.083
681.80	28.897
682.12	28.028
682.44	27.027
682.77	30.961
683.09	29.515
683.41	29.388
683.73	30.709
684.06	26.587
684.38	30.426
684.70	30.755
685.02	26.910
685.34	27.817
685.67	28.135
685.99	27.750
686.31	26.040
686.63	28.780
686.96	28.268
687.28	27.013
687.60	28.498
687.92	27.471
688.24	26.897
688.56	28.648
688.89	29.254
689.21	27.938
689.53	28.854
689.85	28.455
690.17	31.262
690.49	28.831
690.82	28.782
691.14	31.919
691.46	33.265
691.78	26.901
692.10	30.153
692.42	26.316
692.74	29.457
693.06	30.814
693.39	27.273
693.71	28.684
694.03	31.164
694.35	31.325
694.67	30.550
694.99	27.938
695.31	32.432
695.63	29.638
695.95	28.959
696.27	32.522
696.59	31.981
696.91	30.380
697.23	32.805
697.56	28.216
697.88	25.150
698.20	26.981
698.52	27.237
698.84	28.953
699.16	30.490
699.48	27.966
699.80	29.630
700.12	31.640
700.44	33.178
700.76	31.026
701.08	33.681
701.40	31.429
701.72	37.701
702.04	35.230
702.36	35.753
702.68	32.979
703.00	28.822
703.32	31.266
703.64	35.516
703.96	33.073
704.28	31.746
704.60	34.930
704.91	33.613
705.23	32.670
705.55	33.234
705.87	33.016
706.19	36.991
706.51	36.677
706.83	32.153
707.15	30.214
707.47	30.266
707.79	30.345
708.11	26.984
708.43	26.742
708.74	30.090
709.06	30.233
709.38	31.762
709.70	31.335
710.02	31.522
710.34	33.425
710.66	31.111
710.98	35.246
711.29	33.705
711.61	32.033
711.93	31.307
712.25	31.627
712.57	34.727
712.89	34.242
713.20	37.061
713.52	33.022
713.84	29.607
714.16	28.696
714.48	29.683
714.80	31.707
715.11	28.989
715.43	30.447
715.75	32.958
716.07	32.370
716.39	33.429
716.70	32.087
717.02	39.057
717.34	38.489
717.66	34.028
717.97	39.394
718.29	35.915
718.61	32.095
718.93	34.256
719.24	32.215
719.56	34.828
719.88	31.847
720.20	36.774
720.51	33.987
720.83	32.776
721.15	37.075
721.46	35.959
721.78	32.056
722.10	37.153
722.42	36.789
722.73	34.657
723.05	31.930
723.37	39.929
723.68	36.328
724.00	35.606
724.32	34.981
724.63	37.308
724.95	34.902
725.27	35.688
725.58	33.088
725.90	35.915
726.22	33.904
726.53	33.110
726.85	37.459
727.16	35.906
727.48	38.870
727.80	35.971
728.11	37.500
728.43	34.058
728.74	33.916
729.06	31.900
729.38	37.895
729.69	36.667
730.01	40.132
730.32	35.570
730.64	38.538
730.96	37.538
731.27	27.829
731.59	30.172
731.90	27.855
732.22	31.429
732.53	28.490
732.85	31.871
733.16	31.024
733.48	31.034
733.80	31.014
734.11	34.049
734.43	31.579
734.74	28.954
735.06	33.069
735.37	29.124
735.69	29.565
736.00	33.945
736.32	29.697
736.63	30.915
736.95	32.919
737.26	32.622
737.58	31.902
737.89	30.723
738.21	34.768
738.52	32.441
738.83	35.897
739.15	37.979
739.46	33.103
739.78	35.374
740.09	32.362
740.41	30.982
740.72	36.825
741.04	30.420
741.35	36.328
741.66	33.202
741.98	37.339
742.29	43.981
742.61	36.726
742.92	29.661
743.23	37.600
743.55	36.981
743.86	36.078
744.18	34.746
744.49	36.364
744.80	40.553
745.12	36.607
745.43	40.187
745.74	38.222
746.06	34.211
746.37	35.814
746.68	40.708
747.00	33.184
747.31	35.714
747.62	31.557
747.94	33.906
748.25	35.798
748.56	38.983
748.88	37.054
749.19	40.465
749.50	33.790
749.82	36.214
750.13	35.968
750.44	30.333
750.75	36.577
751.07	31.579
751.38	31.353
751.69	34.680
752.01	35.664
752.32	34.884
752.63	31.879
752.94	33.217
753.26	34.766
753.57	38.521
753.88	33.708
754.19	35.740
754.51	30.897
754.82	32.215
755.13	33.446
755.44	33.333
755.75	34.021
756.07	35.616
756.38	28.105
756.69	30.313
757.00	34.125
757.31	33.239
757.63	28.926
757.94	27.394
758.25	27.295
758.56	29.519
758.87	30.827
759.18	32.849
759.50	31.611
759.81	29.970
760.12	28.090
760.43	28.852
760.74	28.608
761.05	29.973
761.36	25.000
761.67	32.615
761.99	32.676
762.30	32.154
762.61	28.819
762.92	33.333
763.23	34.340
763.54	40.769
763.85	32.685
764.16	32.986
764.47	34.459
764.78	31.596
765.10	30.183
765.41	28.409
765.72	26.796
766.03	29.305
766.34	32.404
766.65	36.122
766.96	37.247
767.27	40.187
767.58	40.099
767.89	41.989
768.20	44.512
768.51	39.286
768.82	35.965
769.13	34.510
769.44	31.579
769.75	32.210
770.06	36.555
770.37	30.702
770.68	38.222
770.99	37.288
771.30	36.820
771.61	33.846
771.92	33.588
772.23	31.048
772.54	40.000
772.85	41.089
773.16	36.413
773.47	39.444
773.78	39.109
774.09	41.477
774.39	39.394
774.70	38.235
775.01	38.816
775.32	42.857
775.63	44.521
775.94	46.296
776.25	51.034
776.56	48.855
776.87	53.435
777.18	45.455
777.48	55.118
777.79	50.000
778.10	54.545
778.41	50.746
778.72	41.353
779.03	41.667
779.34	48.649
779.65	42.236
779.95	45.342
780.26	37.500
780.57	48.980
780.88	43.972
781.19	46.667
781.50	43.787
781.80	44.262
782.11	39.153
782.42	40.805
782.73	44.633
783.04	41.935
783.34	41.860
783.65	44.898
783.96	42.581
784.27	39.735
784.57	37.500
784.88	47.826
785.19	41.667
785.50	54.310
785.81	55.814
786.11	52.593
786.42	47.244
786.73	50.450
787.04	50.943
787.34	41.463
787.65	45.455
787.96	46.212
788.26	54.331
788.57	45.255
788.88	44.366
789.19	45.802
789.49	58.108
789.80	57.031
790.11	47.107
790.41	50.000
790.72	50.000
791.03	56.731
791.33	48.485
791.64	61.053
791.95	65.263
792.25	56.250
792.56	46.000
792.87	63.415
793.17	60.227
793.48	65.882
793.79	63.218
794.09	62.500
794.40	67.241
794.70	53.175
795.01	41.538
795.32	47.328
795.62	45.299
795.93	51.261
796.23	47.154
796.54	63.265
796.85	71.591
797.15	57.143
797.46	67.073
797.76	65.000
798.07	84.000
798.37	76.250
798.68	77.500
798.99	64.634
799.29	69.333
799.60	63.953
799.90	63.158
800.21	68.182
800.51	67.606
800.82	81.034
801.12	75.385
801.43	76.000
801.73	65.517
802.04	68.831
802.34	79.452
802.65	103.922
802.95	76.087
803.26	93.548
803.56	85.000
803.87	97.015
804.17	76.190
804.48	90.566
804.78	70.833
805.09	87.879
805.39	66.667
805.70	80.702
806.00	51.429
806.30	67.188
806.61	65.882
806.91	63.333
807.22	50.000
807.52	64.474
807.83	69.737
808.13	71.014
808.43	85.484
808.74	69.863
809.04	94.643
809.35	67.647
809.65	87.879
809.95	94.118
810.26	103.704
810.56	92.188
810.86	69.388
811.17	94.737
811.47	97.826
811.77	81.034
812.08	91.379
812.38	92.857
812.69	92.857
812.99	86.667
813.29	111.429
813.59	125.806
813.90	67.241
814.20	96.721
814.50	76.000
814.81	73.684
815.11	92.593
815.41	71.429
815.72	87.500
816.02	104.000
816.32	97.561
816.62	94.828
816.93	127.273
817.23	85.366
817.53	94.643
817.84	106.667
818.14	83.333
818.44	91.667
818.74	86.792
819.04	82.051
819.35	106.061
819.65	111.538
819.95	107.407
820.25	108.511
820.56	132.432
820.86	100.000
821.16	55.319
821.46	102.632
821.76	98.182
822.07	90.476
822.37	92.105
822.67	120.930
822.97	105.263
823.27	123.913
823.57	125.000
823.88	115.385
824.18	118.182
824.48	139.130
824.78	105.556
825.08	160.870
825.38	127.586
825.69	120.588
825.99	87.234
826.29	108.333
826.59	108.571
826.89	140.000
827.19	108.571
827.49	138.710
827.79	150.000
828.09	100.000
828.39	75.000
828.70	97.297
829.00	139.286
829.30	225.000
829.60	150.000
829.90	93.548
830.20	93.939
830.50	127.027
830.80	191.667
831.10	169.231
831.40	161.905
831.70	170.833
832.00	123.333
832.30	152.174
832.60	191.667
832.90	145.455
833.20	175.000
833.50	134.211
833.80	108.824
834.10	115.789
834.40	210.526
834.70	126.667
835.00	168.000
835.30	102.703
835.60	171.875
835.90	129.730
836.20	142.308
836.50	145.455
836.80	85.366
837.10	139.130
837.40	307.692
837.70	89.474
838.00	116.667
838.30	195.833
838.60	184.000
838.90	320.000
839.19	250.000
839.49	140.000
839.79	124.138
840.09	153.846
840.39	213.333
840.69	242.105
840.99	157.143
841.29	143.478
841.59	245.000
841.88	180.000
842.18	455.556
842.48	167.857
842.78	174.074
843.08	284.615
843.38	172.727
843.68	278.571
843.97	514.286
844.27	182.609
844.57	1500.000
844.87	214.286
845.17	238.889
845.47	90.476
845.76	166.667
846.06	414.286
846.36	205.882
846.66	284.615
846.96	212.500
847.25	276.923
847.55	173.684
847.85	194.444
848.15	500.000
848.44	281.818
848.74	152.381
849.04	195.833
849.34	205.882
849.63	231.250
849.93	256.250
850.23	933.333
850.53	412.500
850.82	300.000
851.12	217.647
851.42	170.833
851.71	287.500
852.01	0.000
852.31	182.353
852.61	470.000
852.90	145.833
853.20	344.444
853.50	-2300.000
853.79	152.000
854.09	140.625
854.39	120.690
854.68	134.483
854.98	219.048
855.28	116.129
855.57	228.571
855.87	222.222
856.17	137.037
856.46	226.316
856.76	109.677
857.05	235.294
857.35	363.636
857.65	292.308
857.94	140.000
858.24	466.667
858.53	278.571
858.83	571.429
859.13	195.652
859.42	422.222
859.72	425.000
860.01	200.000
860.31	1025.000
860.60	410.000
860.90	450.000
861.20	215.385
861.49	414.286
861.79	-2800.000
862.08	557.143
862.38	355.556
862.67	228.571
862.97	370.000
863.26	146.667
863.56	850.000
863.85	346.154
864.15	217.647
864.44	216.667
864.74	366.667
865.03	281.818
865.33	512.500
865.62	273.333
865.92	483.333
866.21	725.000
866.51	620.000
866.80	211.111
867.10	866.667
867.39	3500.000
867.69	720.000
867.98	900.000
868.27	214.286
868.57	300.000
868.86	700.000
869.16	161.905
869.45	2900.000
869.75	-633.333
870.04	575.000
870.33	600.000
870.63	412.500
870.92	211.765
871.22	675.000
871.51	471.429
871.80	333.333
872.10	315.385
>>>>>End Processed Spectral Data<<<<<
