SpectraSuite Data File
++++++++++++++++++++++++++++++++++++
Date: Tue May 12 16:29:35 PDT 2015
User: schluterlab
Dark Spectrum Present: Yes
Reference Spectrum Present: Yes
Number of Sampled Component Spectra: 1
Spectrometers: USB2E3373
Integration Time (usec): 3000 (USB2E3373)
Spectra Averaged: 3 (USB2E3373)
Boxcar Smoothing: 0 (USB2E3373)
Correct for Electrical Dark: No (USB2E3373)
Strobe/Lamp Enabled: No (USB2E3373)
Correct for Detector Non-linearity: No (USB2E3373)
Correct for Stray Light: No (USB2E3373)
Number of Pixels in Processed Spectrum: 2048
>>>>>Begin Processed Spectral Data<<<<<
178.53	0.000
178.91	-200.000
179.29	-925.000
179.67	-3700.000
180.04	-120.000
180.42	625.000
180.80	1150.000
181.18	0.000
181.56	-387.500
181.94	0.000
182.31	1166.667
182.69	-2800.000
183.07	514.286
183.45	-3400.000
183.83	-1750.000
184.20	400.000
184.58	385.714
184.96	-215.385
185.34	-241.667
185.72	1950.000
186.09	-775.000
186.47	-3800.000
186.85	1166.667
187.23	660.000
187.61	1150.000
187.98	462.500
188.36	257.143
188.74	358.333
189.12	316.667
189.49	825.000
189.87	0.000
190.25	487.500
190.63	2600.000
191.00	-125.000
191.38	-2800.000
191.76	-575.000
192.14	525.000
192.51	-3200.000
192.89	1400.000
193.27	1166.667
193.65	-866.667
194.02	-740.000
194.40	514.286
194.78	-192.857
195.15	266.667
195.53	-3300.000
195.91	-560.000
196.29	3700.000
196.66	262.500
197.04	725.000
197.42	-1100.000
197.79	550.000
198.17	283.333
198.55	0.000
198.92	442.857
199.30	1066.667
199.68	1700.000
200.05	450.000
200.43	-483.333
200.81	266.667
201.18	3000.000
201.56	258.333
201.94	-525.000
202.31	-350.000
202.69	-600.000
203.07	3200.000
203.44	-350.000
203.82	375.000
204.19	720.000
204.57	-1050.000
204.95	-450.000
205.32	-600.000
205.70	516.667
206.08	950.000
206.45	-666.667
206.83	322.222
207.20	142.105
207.58	325.000
207.96	620.000
208.33	0.000
208.71	542.857
209.08	720.000
209.46	-2600.000
209.84	-575.000
210.21	880.000
210.59	-480.000
210.96	333.333
211.34	-825.000
211.71	445.455
212.09	900.000
212.46	1850.000
212.84	-433.333
213.22	355.556
213.59	-2600.000
213.97	380.000
214.34	700.000
214.72	1133.333
215.09	866.667
215.47	-3800.000
215.84	-320.000
216.22	-412.500
216.59	0.000
216.97	0.000
217.34	1400.000
217.72	-1550.000
218.09	1466.667
218.47	462.500
218.84	675.000
219.22	1266.667
219.59	1200.000
219.97	414.286
220.34	333.333
220.72	1400.000
221.09	3000.000
221.47	216.667
221.84	1066.667
222.22	430.000
222.59	283.333
222.97	171.429
223.34	200.000
223.72	-900.000
224.09	1433.333
224.46	253.846
224.84	-725.000
225.21	300.000
225.59	280.000
225.96	1366.667
226.34	-700.000
226.71	-650.000
227.08	-480.000
227.46	0.000
227.83	-366.667
228.21	-1800.000
228.58	333.333
228.95	900.000
229.33	388.889
229.70	1025.000
230.08	376.923
230.45	3500.000
230.82	-675.000
231.20	-466.667
231.57	-766.667
231.95	580.000
232.32	250.000
232.69	433.333
233.07	291.667
233.44	-1200.000
233.81	240.000
234.19	159.259
234.56	237.500
234.93	200.000
235.31	190.000
235.68	168.750
236.05	139.286
236.43	162.963
236.80	192.857
237.17	124.138
237.55	109.375
237.92	102.500
238.29	106.061
238.67	96.875
239.04	78.049
239.41	72.917
239.79	87.500
240.16	70.833
240.53	44.262
240.91	63.768
241.28	49.153
241.65	54.545
242.02	61.972
242.40	60.000
242.77	47.253
243.14	46.835
243.51	43.434
243.89	50.467
244.26	40.187
244.63	44.554
245.00	34.862
245.38	32.203
245.75	43.182
246.12	36.296
246.49	32.624
246.87	32.787
247.24	35.333
247.61	29.375
247.98	34.014
248.36	35.758
248.73	40.306
249.10	29.762
249.47	30.500
249.84	28.856
250.22	36.216
250.59	31.500
250.96	32.068
251.33	25.116
251.70	26.786
252.08	28.151
252.45	25.100
252.82	23.954
253.19	24.506
253.56	27.308
253.94	26.449
254.31	20.543
254.68	23.693
255.05	26.207
255.42	24.818
255.79	26.710
256.16	25.424
256.54	25.000
256.91	21.895
257.28	23.077
257.65	21.944
258.02	22.419
258.39	26.648
258.76	24.638
259.14	22.857
259.51	20.991
259.88	21.581
260.25	19.505
260.62	23.288
260.99	19.559
261.36	21.448
261.73	20.479
262.10	23.037
262.47	20.750
262.85	21.867
263.22	23.393
263.59	21.739
263.96	22.807
264.33	20.247
264.70	22.359
265.07	21.220
265.44	21.101
265.81	20.991
266.18	21.281
266.55	21.749
266.92	19.911
267.29	22.368
267.66	17.937
268.03	21.076
268.40	20.296
268.77	21.806
269.14	19.523
269.51	19.376
269.88	20.612
270.25	16.415
270.62	18.670
270.99	22.312
271.36	18.902
271.73	17.820
272.10	19.596
272.47	17.857
272.84	19.561
273.21	19.421
273.58	21.862
273.95	18.480
274.32	19.650
274.69	22.441
275.06	18.579
275.43	19.923
275.80	18.868
276.17	20.037
276.54	20.187
276.91	19.590
277.28	19.343
277.65	17.897
278.02	20.037
278.39	17.806
278.76	20.862
279.13	19.217
279.50	17.818
279.87	18.063
280.23	17.495
280.60	17.701
280.97	18.103
281.34	17.822
281.71	18.957
282.08	16.752
282.45	18.919
282.82	17.057
283.19	20.191
283.56	18.512
283.92	17.915
284.29	17.304
284.66	17.311
285.03	17.910
285.40	17.851
285.77	18.056
286.14	18.731
286.51	17.178
286.87	17.089
287.24	15.165
287.61	17.781
287.98	16.567
288.35	16.889
288.72	16.237
289.08	17.868
289.45	16.006
289.82	16.719
290.19	15.081
290.56	16.303
290.93	16.547
291.29	15.608
291.66	14.689
292.03	16.269
292.40	16.667
292.77	14.763
293.13	15.835
293.50	15.250
293.87	13.957
294.24	14.126
294.60	15.747
294.97	16.364
295.34	14.475
295.71	15.375
296.08	16.133
296.44	15.629
296.81	14.268
297.18	13.815
297.55	15.148
297.91	14.039
298.28	16.425
298.65	13.988
299.02	13.872
299.38	14.868
299.75	13.902
300.12	14.794
300.48	14.988
300.85	15.018
301.22	14.651
301.59	13.443
301.95	13.536
302.32	15.250
302.69	13.914
303.05	13.917
303.42	13.565
303.79	14.085
304.15	14.411
304.52	13.953
304.89	14.286
305.25	14.683
305.62	14.392
305.99	12.935
306.35	13.789
306.72	14.880
307.09	14.182
307.45	13.728
307.82	14.198
308.19	13.402
308.55	13.200
308.92	13.248
309.29	14.398
309.65	14.272
310.02	14.199
310.38	12.562
310.75	13.115
311.12	12.452
311.48	15.637
311.85	13.359
312.22	14.136
312.58	13.994
312.95	14.078
313.31	13.296
313.68	12.852
314.05	13.736
314.41	13.966
314.78	14.299
315.14	15.166
315.51	15.516
315.87	14.234
316.24	13.539
316.61	13.518
316.97	13.670
317.34	14.825
317.70	15.452
318.07	15.036
318.43	14.763
318.80	13.923
319.16	14.161
319.53	14.425
319.89	14.875
320.26	15.829
320.62	15.842
320.99	16.206
321.35	16.327
321.72	17.457
322.08	16.159
322.45	16.803
322.81	16.651
323.18	17.407
323.54	18.641
323.91	18.132
324.27	18.391
324.64	18.945
325.00	19.310
325.37	20.320
325.73	19.562
326.10	21.458
326.46	21.140
326.83	21.360
327.19	22.811
327.56	22.045
327.92	22.869
328.29	23.077
328.65	22.688
329.01	22.327
329.38	23.689
329.74	23.484
330.11	24.327
330.47	24.552
330.84	23.814
331.20	24.112
331.56	26.079
331.93	26.005
332.29	24.490
332.66	24.830
333.02	24.656
333.38	27.138
333.75	26.772
334.11	25.755
334.48	24.786
334.84	26.182
335.20	26.604
335.57	26.952
335.93	24.727
336.29	26.285
336.66	27.873
337.02	25.321
337.38	26.827
337.75	26.520
338.11	28.608
338.47	27.434
338.84	26.842
339.20	25.281
339.56	27.839
339.93	26.254
340.29	27.395
340.65	28.416
341.02	27.595
341.38	28.079
341.74	28.571
342.11	26.962
342.47	27.728
342.83	29.286
343.20	27.567
343.56	26.450
343.92	27.002
344.28	28.788
344.65	28.443
345.01	27.222
345.37	26.442
345.73	27.143
346.10	26.932
346.46	26.874
346.82	26.775
347.19	29.289
347.55	27.947
347.91	27.341
348.27	28.428
348.63	28.481
349.00	28.027
349.36	28.560
349.72	28.976
350.08	28.804
350.45	27.951
350.81	29.281
351.17	27.735
351.53	28.099
351.89	29.448
352.26	28.798
352.62	27.828
352.98	28.988
353.34	30.586
353.70	28.746
354.07	29.538
354.43	28.571
354.79	28.474
355.15	28.943
355.51	29.305
355.87	29.895
356.24	29.869
356.60	29.452
356.96	28.431
357.32	28.862
357.68	30.250
358.04	29.787
358.40	30.135
358.77	30.503
359.13	29.054
359.49	29.948
359.85	30.454
360.21	28.232
360.57	29.562
360.93	29.365
361.29	30.664
361.66	30.723
362.02	29.403
362.38	29.726
362.74	29.866
363.10	30.365
363.46	29.489
363.82	30.715
364.18	30.228
364.54	31.116
364.90	29.853
365.26	30.534
365.62	30.387
365.98	30.764
366.35	29.931
366.71	31.645
367.07	31.126
367.43	31.430
367.79	29.388
368.15	29.647
368.51	31.220
368.87	30.707
369.23	31.046
369.59	31.086
369.95	31.049
370.31	31.006
370.67	31.783
371.03	32.353
371.39	31.371
371.75	31.193
372.11	30.863
372.47	31.096
372.83	31.679
373.19	31.734
373.55	30.653
373.91	30.732
374.27	30.886
374.63	31.254
374.99	32.480
375.35	32.728
375.71	31.662
376.07	31.631
376.42	30.627
376.78	32.177
377.14	32.962
377.50	30.524
377.86	31.967
378.22	32.663
378.58	33.051
378.94	32.529
379.30	32.747
379.66	31.728
380.02	33.196
380.38	31.674
380.74	32.238
381.09	32.126
381.45	31.156
381.81	30.851
382.17	31.807
382.53	32.873
382.89	31.875
383.25	31.498
383.61	32.104
383.97	31.494
384.32	31.284
384.68	33.452
385.04	32.063
385.40	31.317
385.76	31.949
386.12	32.715
386.48	32.280
386.83	33.007
387.19	31.920
387.55	32.568
387.91	32.448
388.27	32.183
388.62	31.925
388.98	31.370
389.34	31.291
389.70	31.604
390.06	31.585
390.42	31.339
390.77	31.695
391.13	32.046
391.49	32.244
391.85	33.046
392.20	31.645
392.56	32.796
392.92	31.050
393.28	31.222
393.64	32.225
393.99	32.128
394.35	30.842
394.71	31.303
395.07	31.022
395.42	31.382
395.78	32.511
396.14	32.410
396.50	31.709
396.85	31.829
397.21	30.746
397.57	30.783
397.92	30.098
398.28	30.557
398.64	30.774
399.00	30.198
399.35	30.596
399.71	29.967
400.07	29.452
400.42	30.090
400.78	30.088
401.14	29.301
401.49	30.530
401.85	29.896
402.21	29.877
402.57	29.922
402.92	30.121
403.28	28.938
403.63	29.606
403.99	30.036
404.35	30.715
404.70	29.533
405.06	28.579
405.42	27.708
405.77	29.217
406.13	28.796
406.49	28.653
406.84	28.088
407.20	29.281
407.55	29.723
407.91	29.547
408.27	28.745
408.62	28.267
408.98	28.681
409.34	27.820
409.69	27.754
410.05	28.205
410.40	28.092
410.76	27.762
411.11	28.318
411.47	28.086
411.83	28.061
412.18	27.536
412.54	27.568
412.89	27.434
413.25	27.708
413.60	28.096
413.96	27.349
414.31	28.453
414.67	28.057
415.03	27.905
415.38	28.139
415.74	27.669
416.09	28.732
416.45	28.378
416.80	29.057
417.16	28.008
417.51	29.363
417.87	28.160
418.22	28.068
418.58	28.726
418.93	29.387
419.29	28.404
419.64	28.286
420.00	29.714
420.35	28.339
420.71	27.596
421.06	28.311
421.42	29.361
421.77	29.428
422.12	30.209
422.48	28.968
422.83	29.576
423.19	29.050
423.54	29.457
423.90	30.068
424.25	30.710
424.61	30.412
424.96	29.701
425.31	29.776
425.67	30.359
426.02	30.510
426.38	30.455
426.73	30.827
427.09	30.605
427.44	29.657
427.79	30.932
428.15	31.821
428.50	32.000
428.85	31.570
429.21	30.956
429.56	31.555
429.92	30.930
430.27	31.060
430.62	31.326
430.98	31.238
431.33	30.595
431.68	31.556
432.04	30.988
432.39	31.943
432.74	31.909
433.10	31.894
433.45	32.682
433.80	33.260
434.16	31.792
434.51	32.250
434.86	33.533
435.22	32.685
435.57	32.899
435.92	32.555
436.28	32.892
436.63	33.279
436.98	33.727
437.34	33.562
437.69	33.595
438.04	32.849
438.39	33.333
438.75	33.408
439.10	32.974
439.45	33.352
439.81	33.950
440.16	33.517
440.51	33.390
440.86	33.903
441.22	33.712
441.57	34.331
441.92	34.600
442.27	34.072
442.63	34.197
442.98	33.082
443.33	34.226
443.68	34.356
444.03	33.789
444.39	34.981
444.74	34.886
445.09	34.544
445.44	34.963
445.79	34.795
446.15	34.895
446.50	34.283
446.85	34.612
447.20	33.831
447.55	35.182
447.91	35.855
448.26	34.398
448.61	35.876
448.96	34.858
449.31	35.314
449.66	35.659
450.02	34.360
450.37	35.036
450.72	35.813
451.07	34.788
451.42	34.855
451.77	35.166
452.12	35.905
452.47	35.905
452.83	35.099
453.18	35.616
453.53	36.057
453.88	37.143
454.23	35.851
454.58	35.839
454.93	35.806
455.28	35.985
455.63	35.697
455.98	35.759
456.34	35.745
456.69	36.951
457.04	35.859
457.39	35.143
457.74	36.430
458.09	34.812
458.44	35.706
458.79	35.438
459.14	36.007
459.49	36.070
459.84	36.141
460.19	35.311
460.54	35.783
460.89	35.554
461.24	35.853
461.59	36.621
461.94	35.520
462.29	36.098
462.64	36.683
462.99	37.364
463.34	36.487
463.69	37.145
464.04	36.154
464.39	36.234
464.74	35.111
465.09	35.577
465.44	35.038
465.79	35.765
466.14	34.128
466.49	36.462
466.84	35.786
467.19	37.083
467.54	35.495
467.89	36.678
468.24	36.364
468.59	35.952
468.94	35.688
469.29	35.980
469.64	37.492
469.99	36.054
470.34	37.255
470.68	35.931
471.03	37.225
471.38	36.556
471.73	36.577
472.08	36.660
472.43	36.251
472.78	36.556
473.13	36.108
473.48	36.980
473.83	37.161
474.17	36.900
474.52	36.374
474.87	36.043
475.22	35.637
475.57	36.254
475.92	35.973
476.27	35.365
476.61	35.335
476.96	35.475
477.31	36.298
477.66	36.930
478.01	35.946
478.36	36.509
478.70	35.782
479.05	36.192
479.40	36.458
479.75	37.041
480.10	36.205
480.45	35.761
480.79	35.392
481.14	36.329
481.49	35.590
481.84	35.664
482.19	36.157
482.53	35.266
482.88	35.663
483.23	35.904
483.58	35.862
483.92	37.157
484.27	35.745
484.62	35.951
484.97	34.515
485.31	34.461
485.66	34.054
486.01	33.315
486.36	33.090
486.70	32.763
487.05	33.442
487.40	33.951
487.75	33.688
488.09	34.006
488.44	34.034
488.79	34.641
489.13	34.976
489.48	35.757
489.83	36.197
490.17	34.517
490.52	36.348
490.87	35.690
491.22	35.949
491.56	36.671
491.91	35.618
492.26	36.526
492.60	36.538
492.95	35.387
493.30	36.169
493.64	36.298
493.99	36.315
494.34	36.217
494.68	36.078
495.03	37.045
495.37	35.615
495.72	36.177
496.07	35.894
496.41	36.533
496.76	35.585
497.11	36.247
497.45	36.738
497.80	35.913
498.14	36.801
498.49	36.305
498.84	35.794
499.18	36.746
499.53	36.472
499.87	36.792
500.22	37.172
500.56	36.397
500.91	37.338
501.26	36.151
501.60	36.794
501.95	36.066
502.29	36.178
502.64	36.348
502.98	35.794
503.33	35.412
503.67	36.512
504.02	35.199
504.36	36.154
504.71	37.370
505.06	36.884
505.40	36.827
505.75	36.717
506.09	37.098
506.44	36.842
506.78	37.429
507.13	36.985
507.47	37.361
507.82	37.810
508.16	38.217
508.51	36.522
508.85	36.942
509.19	37.494
509.54	37.207
509.88	37.842
510.23	37.843
510.57	36.438
510.92	38.112
511.26	38.253
511.61	37.518
511.95	36.336
512.30	38.100
512.64	37.591
512.98	37.365
513.33	38.422
513.67	37.856
514.02	37.662
514.36	37.695
514.70	38.187
515.05	37.453
515.39	39.309
515.74	38.764
516.08	37.908
516.42	39.672
516.77	37.013
517.11	38.187
517.46	37.554
517.80	38.230
518.14	39.155
518.49	37.927
518.83	37.088
519.17	38.491
519.52	37.794
519.86	38.801
520.20	38.521
520.55	37.761
520.89	37.586
521.23	38.902
521.58	38.325
521.92	38.776
522.26	38.507
522.61	39.275
522.95	39.880
523.29	39.708
523.64	38.150
523.98	38.674
524.32	38.408
524.66	38.899
525.01	40.059
525.35	39.128
525.69	39.916
526.04	39.381
526.38	38.729
526.72	38.902
527.06	38.675
527.41	39.541
527.75	39.440
528.09	38.591
528.43	39.658
528.78	38.640
529.12	39.795
529.46	39.275
529.80	39.486
530.15	39.187
530.49	37.846
530.83	38.818
531.17	39.237
531.51	39.056
531.86	38.708
532.20	39.493
532.54	39.171
532.88	38.851
533.22	39.976
533.57	40.024
533.91	38.928
534.25	38.142
534.59	37.836
534.93	39.135
535.27	37.678
535.62	38.040
535.96	37.825
536.30	39.549
536.64	38.944
536.98	38.137
537.32	39.625
537.66	38.457
538.01	39.071
538.35	39.551
538.69	37.257
539.03	37.935
539.37	39.138
539.71	38.580
540.05	39.015
540.39	39.371
540.73	38.608
541.07	38.582
541.42	39.179
541.76	39.889
542.10	39.334
542.44	39.651
542.78	38.955
543.12	39.264
543.46	37.907
543.80	39.411
544.14	39.257
544.48	39.477
544.82	38.838
545.16	38.980
545.50	39.951
545.84	39.836
546.18	40.312
546.52	40.000
546.86	39.201
547.20	39.793
547.54	39.582
547.88	39.416
548.22	39.162
548.56	38.598
548.90	38.612
549.24	40.240
549.58	38.853
549.92	40.210
550.26	40.433
550.60	39.987
550.94	41.113
551.28	41.862
551.62	40.828
551.96	40.203
552.30	39.156
552.64	41.294
552.98	39.562
553.32	39.693
553.66	39.479
554.00	40.090
554.34	41.611
554.68	41.935
555.02	41.208
555.36	40.625
555.69	40.314
556.03	40.000
556.37	39.324
556.71	41.851
557.05	40.236
557.39	40.467
557.73	40.768
558.07	40.778
558.41	41.535
558.75	41.929
559.08	41.673
559.42	42.233
559.76	41.483
560.10	40.193
560.44	41.075
560.78	41.752
561.12	41.449
561.45	40.551
561.79	41.635
562.13	41.061
562.47	41.012
562.81	40.924
563.15	40.918
563.48	39.689
563.82	41.235
564.16	41.978
564.50	39.783
564.84	40.973
565.17	40.345
565.51	41.872
565.85	41.579
566.19	41.369
566.52	41.697
566.86	41.331
567.20	41.461
567.54	40.448
567.88	40.584
568.21	39.191
568.55	39.446
568.89	38.641
569.23	38.740
569.56	39.736
569.90	37.621
570.24	38.092
570.57	37.573
570.91	36.911
571.25	36.862
571.59	36.351
571.92	36.168
572.26	36.523
572.60	36.129
572.93	36.544
573.27	36.875
573.61	36.302
573.95	36.056
574.28	36.209
574.62	35.841
574.96	35.420
575.29	35.069
575.63	35.194
575.97	35.102
576.30	35.662
576.64	36.342
576.98	35.616
577.31	36.663
577.65	35.673
577.98	35.925
578.32	35.667
578.66	35.537
578.99	35.997
579.33	35.927
579.67	36.118
580.00	35.955
580.34	35.896
580.67	36.488
581.01	36.471
581.35	36.215
581.68	36.004
582.02	35.695
582.35	35.787
582.69	36.531
583.02	36.515
583.36	36.680
583.70	37.653
584.03	38.131
584.37	37.759
584.70	37.671
585.04	36.855
585.37	37.196
585.71	37.865
586.04	37.486
586.38	37.611
586.72	38.147
587.05	38.188
587.39	38.685
587.72	38.180
588.06	38.515
588.39	38.280
588.73	38.464
589.06	39.276
589.40	39.531
589.73	39.266
590.07	40.220
590.40	40.871
590.73	40.984
591.07	41.214
591.40	40.639
591.74	41.680
592.07	41.015
592.41	40.448
592.74	40.095
593.08	39.355
593.41	40.066
593.75	39.063
594.08	40.099
594.41	40.241
594.75	40.274
595.08	40.021
595.42	40.257
595.75	40.178
596.09	40.285
596.42	41.005
596.75	41.627
597.09	41.890
597.42	41.429
597.75	41.217
598.09	41.034
598.42	41.085
598.76	40.786
599.09	41.523
599.42	40.000
599.76	40.434
600.09	40.610
600.42	39.952
600.76	41.128
601.09	41.560
601.42	40.936
601.76	41.353
602.09	42.163
602.42	41.220
602.76	41.442
603.09	41.290
603.42	41.541
603.76	41.866
604.09	41.477
604.42	41.959
604.76	42.078
605.09	42.367
605.42	41.894
605.75	41.887
606.09	42.119
606.42	41.864
606.75	42.441
607.09	41.966
607.42	42.547
607.75	42.357
608.08	42.405
608.42	42.953
608.75	42.148
609.08	42.059
609.41	44.409
609.75	43.407
610.08	43.390
610.41	42.995
610.74	43.030
611.07	44.111
611.41	43.744
611.74	43.451
612.07	44.461
612.40	44.006
612.73	44.733
613.07	44.602
613.40	45.213
613.73	44.633
614.06	43.300
614.39	45.202
614.72	44.249
615.06	44.164
615.39	44.604
615.72	44.046
616.05	45.605
616.38	43.886
616.71	44.330
617.05	44.646
617.38	45.169
617.71	45.951
618.04	45.373
618.37	45.636
618.70	46.305
619.03	45.299
619.36	47.173
619.69	46.570
620.03	48.337
620.36	47.399
620.69	47.829
621.02	47.079
621.35	47.421
621.68	47.788
622.01	49.225
622.34	47.924
622.67	47.542
623.00	47.651
623.33	47.436
623.66	47.838
623.99	47.534
624.32	46.883
624.65	47.597
624.99	48.141
625.32	47.896
625.65	45.793
625.98	48.257
626.31	50.074
626.64	48.595
626.97	48.432
627.30	49.612
627.63	51.256
627.96	48.592
628.29	50.248
628.62	49.444
628.95	53.014
629.28	52.235
629.61	51.054
629.94	52.204
630.26	50.087
630.59	51.241
630.92	51.300
631.25	51.043
631.58	53.423
631.91	52.141
632.24	53.547
632.57	51.473
632.90	53.209
633.23	53.620
633.56	53.003
633.89	53.591
634.22	55.113
634.55	53.548
634.88	54.874
635.20	54.148
635.53	55.981
635.86	54.474
636.19	55.219
636.52	54.162
636.85	52.427
637.18	53.088
637.51	52.402
637.83	53.089
638.16	56.858
638.49	54.371
638.82	55.399
639.15	53.819
639.48	54.739
639.81	55.556
640.13	56.564
640.46	56.384
640.79	57.347
641.12	56.168
641.45	57.439
641.77	56.671
642.10	56.225
642.43	59.744
642.76	57.670
643.09	57.205
643.41	57.223
643.74	59.568
644.07	58.850
644.40	59.024
644.73	59.009
645.05	60.921
645.38	58.499
645.71	59.484
646.04	61.069
646.36	60.250
646.69	59.200
647.02	62.880
647.35	59.055
647.67	57.536
648.00	58.469
648.33	55.338
648.66	59.848
648.98	56.957
649.31	56.005
649.64	55.602
649.96	55.477
650.29	55.143
650.62	57.437
650.94	58.735
651.27	60.766
651.60	58.372
651.92	57.604
652.25	59.213
652.58	55.887
652.90	58.234
653.23	58.936
653.56	56.231
653.88	57.856
654.21	57.771
654.54	57.101
654.86	57.375
655.19	55.673
655.52	48.637
655.84	40.779
656.17	46.813
656.49	66.073
656.82	75.269
657.15	59.761
657.47	45.190
657.80	33.466
658.13	26.796
658.45	36.218
658.78	43.191
659.10	45.143
659.43	44.525
659.75	47.415
660.08	49.687
660.41	52.178
660.73	55.960
661.06	58.859
661.38	60.136
661.71	62.770
662.03	63.118
662.36	62.286
662.68	59.218
663.01	59.820
663.33	63.585
663.66	60.947
663.98	63.095
664.31	63.060
664.63	62.644
664.96	63.039
665.28	60.264
665.61	62.453
665.93	62.075
666.26	60.187
666.58	63.853
666.91	62.162
667.23	62.450
667.56	61.396
667.88	68.050
668.21	63.320
668.53	64.315
668.86	63.527
669.18	62.729
669.50	61.157
669.83	61.807
670.15	61.331
670.48	59.375
670.80	60.558
671.13	63.745
671.45	62.124
671.77	61.039
672.10	60.503
672.42	56.743
672.75	59.810
673.07	57.393
673.39	58.466
673.72	59.516
674.04	60.215
674.37	58.984
674.69	60.223
675.01	60.261
675.34	60.465
675.66	62.891
675.98	63.511
676.31	62.200
676.63	62.823
676.95	61.508
677.28	61.460
677.60	62.575
677.92	62.500
678.25	62.209
678.57	63.687
678.89	61.121
679.22	61.029
679.54	59.609
679.86	57.417
680.18	59.930
680.51	56.882
680.83	55.743
681.15	58.232
681.48	58.854
681.80	59.545
682.12	56.228
682.44	59.099
682.77	55.338
683.09	61.942
683.41	62.653
683.73	62.008
684.06	63.294
684.38	62.209
684.70	59.712
685.02	57.292
685.34	61.092
685.67	58.842
685.99	57.635
686.31	55.316
686.63	57.561
686.96	57.680
687.28	56.376
687.60	60.580
687.92	59.464
688.24	59.138
688.56	60.142
688.89	59.656
689.21	60.308
689.53	59.684
689.85	62.602
690.17	61.553
690.49	60.282
690.82	59.244
691.14	59.596
691.46	60.780
691.78	59.064
692.10	61.450
692.42	57.895
692.74	60.078
693.06	61.434
693.39	57.510
693.71	58.939
694.03	60.158
694.35	63.454
694.67	60.692
694.99	61.641
695.31	60.586
695.63	60.633
695.95	59.276
696.27	61.283
696.59	63.484
696.91	64.557
697.23	61.538
697.56	61.203
697.88	56.088
698.20	58.679
698.52	56.615
698.84	61.602
699.16	62.900
699.48	61.441
699.80	63.617
700.12	63.510
700.44	61.916
700.76	61.337
701.08	63.969
701.40	65.974
701.72	67.380
702.04	68.293
702.36	65.860
702.68	65.691
703.00	59.398
703.32	62.035
703.64	64.736
703.96	61.719
704.28	64.286
704.60	73.239
704.91	66.667
705.23	62.500
705.55	66.469
705.87	71.429
706.19	68.339
706.51	72.414
706.83	64.307
707.15	68.182
707.47	63.438
707.79	61.149
708.11	60.998
708.43	59.551
708.74	57.240
709.06	56.744
709.38	62.283
709.70	63.760
710.02	62.500
710.34	63.260
710.66	65.278
710.98	59.836
711.29	62.953
711.61	62.674
711.93	67.173
712.25	63.855
712.57	68.810
712.89	66.364
713.20	68.371
713.52	69.470
713.84	66.163
714.16	63.188
714.48	60.807
714.80	63.144
715.11	58.777
715.43	64.246
715.75	59.155
716.07	63.873
716.39	67.143
716.70	62.305
717.02	68.350
717.34	68.345
717.66	69.792
717.97	74.242
718.29	64.789
718.61	60.473
718.93	70.242
719.24	71.477
719.56	66.207
719.88	61.783
720.20	64.516
720.51	65.033
720.83	66.221
721.15	65.646
721.46	66.096
721.78	69.338
722.10	66.319
722.42	66.221
722.73	61.011
723.05	68.070
723.37	67.491
723.68	63.672
724.00	70.833
724.32	67.681
724.63	68.846
724.95	64.314
725.27	61.338
725.58	69.485
725.90	60.563
726.22	63.014
726.53	62.207
726.85	66.775
727.16	65.436
727.48	64.120
727.80	67.626
728.11	69.286
728.43	66.304
728.74	63.636
729.06	62.724
729.38	68.421
729.69	62.667
730.01	63.487
730.32	66.443
730.64	68.771
730.96	60.060
731.27	55.963
731.59	57.184
731.90	59.331
732.22	61.714
732.53	54.701
732.85	61.696
733.16	58.133
733.48	61.129
733.80	64.058
734.11	65.337
734.43	58.772
734.74	59.249
735.06	60.317
735.37	57.990
735.69	59.130
736.00	62.385
736.32	60.909
736.63	60.252
736.95	60.248
737.26	56.707
737.58	65.644
737.89	59.337
738.21	61.589
738.52	56.522
738.83	67.766
739.15	63.763
739.46	62.759
739.78	66.667
740.09	60.350
740.41	59.509
740.72	60.635
741.04	66.434
741.35	67.969
741.66	63.241
741.98	70.386
742.29	66.204
742.61	66.814
742.92	62.712
743.23	67.200
743.55	61.509
743.86	63.137
744.18	66.949
744.49	64.050
744.80	72.811
745.12	71.429
745.43	67.290
745.74	64.000
746.06	67.105
746.37	70.698
746.68	70.796
747.00	70.404
747.31	65.546
747.62	59.836
747.94	66.953
748.25	65.370
748.56	62.712
748.88	63.839
749.19	67.442
749.50	68.950
749.82	68.313
750.13	64.822
750.44	56.667
750.75	61.745
751.07	60.197
751.38	61.716
751.69	55.556
752.01	61.538
752.32	61.130
752.63	61.074
752.94	63.986
753.26	65.625
753.57	65.370
753.88	59.176
754.19	66.065
754.51	61.462
754.82	57.383
755.13	59.122
755.44	64.074
755.75	62.887
756.07	63.014
756.38	56.209
756.69	60.313
757.00	56.677
757.31	57.183
757.63	52.066
757.94	59.309
758.25	54.831
758.56	52.403
758.87	55.639
759.18	58.430
759.50	56.535
759.81	56.677
760.12	55.056
760.43	58.543
760.74	56.203
761.05	53.050
761.36	58.333
761.67	57.143
761.99	54.648
762.30	59.807
762.61	58.681
762.92	60.985
763.23	61.132
763.54	60.769
763.85	60.700
764.16	55.556
764.47	60.135
764.78	54.723
765.10	57.317
765.41	52.841
765.72	54.696
766.03	57.704
766.34	59.930
766.65	65.019
766.96	60.729
767.27	70.561
767.58	65.842
767.89	70.718
768.20	79.878
768.51	61.735
768.82	63.596
769.13	60.392
769.44	57.895
769.75	55.805
770.06	65.126
770.37	59.211
770.68	56.889
770.99	55.932
771.30	61.506
771.61	58.846
771.92	56.489
772.23	58.871
772.54	62.222
772.85	64.851
773.16	64.130
773.47	61.667
773.78	65.842
774.09	72.159
774.39	78.182
774.70	63.529
775.01	73.684
775.32	63.975
775.63	69.178
775.94	76.543
776.25	76.552
776.56	82.443
776.87	74.046
777.18	71.212
777.48	83.465
777.79	75.385
778.10	68.939
778.41	67.910
778.72	66.917
779.03	60.897
779.34	70.946
779.65	69.565
779.95	67.702
780.26	64.286
780.57	76.190
780.88	70.922
781.19	80.833
781.50	70.414
781.80	63.934
782.11	62.963
782.42	56.897
782.73	66.102
783.04	65.806
783.34	74.419
783.65	63.265
783.96	69.677
784.27	62.252
784.57	62.500
784.88	73.913
785.19	74.167
785.50	73.276
785.81	84.496
786.11	66.667
786.42	71.654
786.73	81.081
787.04	74.528
787.34	72.358
787.65	78.788
787.96	84.848
788.26	72.441
788.57	72.993
788.88	69.718
789.19	74.046
789.49	68.919
789.80	73.438
790.11	66.942
790.41	81.481
790.72	65.741
791.03	80.769
791.33	80.808
791.64	85.263
791.95	83.158
792.25	82.292
792.56	77.000
792.87	85.366
793.17	77.273
793.48	89.412
793.79	88.506
794.09	86.364
794.40	75.000
794.70	73.810
795.01	69.231
795.32	64.885
795.62	75.214
795.93	81.513
796.23	73.171
796.54	73.469
796.85	81.818
797.15	81.818
797.46	92.683
797.76	98.750
798.07	116.000
798.37	87.500
798.68	80.000
798.99	92.683
799.29	88.000
799.60	82.558
799.90	76.316
800.21	96.970
800.51	78.873
800.82	110.345
801.12	89.231
801.43	94.667
801.73	93.103
802.04	102.597
802.34	76.712
802.65	123.529
802.95	104.348
803.26	103.226
803.56	113.333
803.87	94.030
804.17	106.349
804.48	111.321
804.78	69.444
805.09	103.030
805.39	96.825
805.70	103.509
806.00	100.000
806.30	98.437
806.61	89.412
806.91	87.778
807.22	71.739
807.52	90.789
807.83	98.684
808.13	98.551
808.43	104.839
808.74	95.890
809.04	105.357
809.35	100.000
809.65	96.970
809.95	111.765
810.26	116.667
810.56	114.063
810.86	95.918
811.17	101.754
811.47	106.522
811.77	87.931
812.08	93.103
812.38	145.238
812.69	130.952
812.99	122.222
813.29	137.143
813.59	183.871
813.90	108.621
814.20	113.115
814.50	108.000
814.81	87.719
815.11	107.407
815.41	101.786
815.72	126.786
816.02	108.000
816.32	104.878
816.62	124.138
816.93	124.242
817.23	119.512
817.53	103.571
817.84	117.778
818.14	138.095
818.44	110.417
818.74	73.585
819.04	115.385
819.35	139.394
819.65	128.846
819.95	129.630
820.25	119.149
820.56	145.946
820.86	157.895
821.16	110.638
821.46	157.895
821.76	121.818
822.07	111.905
822.37	115.789
822.67	123.256
822.97	115.789
823.27	143.478
823.57	143.750
823.88	123.077
824.18	154.545
824.48	191.304
824.78	125.000
825.08	165.217
825.38	186.207
825.69	144.118
825.99	102.128
826.29	119.444
826.59	117.143
826.89	156.667
827.19	142.857
827.49	174.194
827.79	188.462
828.09	121.429
828.39	108.333
828.70	121.622
829.00	153.571
829.30	206.250
829.60	141.667
829.90	158.065
830.20	136.364
830.50	143.243
830.80	166.667
831.10	184.615
831.40	214.286
831.70	200.000
832.00	153.333
832.30	143.478
832.60	170.833
832.90	160.606
833.20	220.000
833.50	121.053
833.80	138.235
834.10	102.632
834.40	221.053
834.70	133.333
835.00	160.000
835.30	113.514
835.60	140.625
835.90	145.946
836.20	157.692
836.50	131.818
836.80	107.317
837.10	178.261
837.40	361.538
837.70	184.211
838.00	133.333
838.30	200.000
838.60	188.000
838.90	340.000
839.19	168.750
839.49	150.000
839.79	110.345
840.09	150.000
840.39	246.667
840.69	226.316
840.99	142.857
841.29	182.609
841.59	175.000
841.88	152.000
842.18	355.556
842.48	167.857
842.78	170.370
843.08	215.385
843.38	136.364
843.68	307.143
843.97	514.286
844.27	152.174
844.57	1750.000
844.87	307.143
845.17	233.333
845.47	138.095
845.76	195.833
846.06	485.714
846.36	188.235
846.66	246.154
846.96	200.000
847.25	184.615
847.55	221.053
847.85	227.778
848.15	480.000
848.44	381.818
848.74	204.762
849.04	166.667
849.34	170.588
849.63	275.000
849.93	287.500
850.23	966.667
850.53	462.500
850.82	245.455
851.12	194.118
851.42	175.000
851.71	275.000
852.01	0.000
852.31	200.000
852.61	470.000
852.90	154.167
853.20	355.556
853.50	-2600.000
853.79	176.000
854.09	137.500
854.39	120.690
854.68	193.103
854.98	219.048
855.28	187.097
855.57	242.857
855.87	205.556
856.17	166.667
856.46	189.474
856.76	148.387
857.05	211.765
857.35	327.273
857.65	269.231
857.94	190.000
858.24	466.667
858.53	314.286
858.83	585.714
859.13	160.870
859.42	355.556
859.72	375.000
860.01	250.000
860.31	1050.000
860.60	330.000
860.90	362.500
861.20	300.000
861.49	414.286
861.79	-4000.000
862.08	585.714
862.38	288.889
862.67	235.714
862.97	440.000
863.26	130.000
863.56	825.000
863.85	384.615
864.15	217.647
864.44	188.889
864.74	300.000
865.03	418.182
865.33	275.000
865.62	233.333
865.92	616.667
866.21	850.000
866.51	420.000
866.80	222.222
867.10	933.333
867.39	4500.000
867.69	840.000
867.98	700.000
868.27	185.714
868.57	260.000
868.86	600.000
869.16	214.286
869.45	4300.000
869.75	-383.333
870.04	375.000
870.33	640.000
870.63	450.000
870.92	264.706
871.22	825.000
871.51	528.571
871.80	316.667
872.10	284.615
>>>>>End Processed Spectral Data<<<<<
