SpectraSuite Data File
++++++++++++++++++++++++++++++++++++
Date: Tue May 12 15:34:44 PDT 2015
User: schluterlab
Dark Spectrum Present: Yes
Reference Spectrum Present: Yes
Number of Sampled Component Spectra: 1
Spectrometers: USB2E3373
Integration Time (usec): 3000 (USB2E3373)
Spectra Averaged: 3 (USB2E3373)
Boxcar Smoothing: 0 (USB2E3373)
Correct for Electrical Dark: No (USB2E3373)
Strobe/Lamp Enabled: No (USB2E3373)
Correct for Detector Non-linearity: No (USB2E3373)
Correct for Stray Light: No (USB2E3373)
Number of Pixels in Processed Spectrum: 2048
>>>>>Begin Processed Spectral Data<<<<<
178.53	0.000
178.91	-216.667
179.29	-725.000
179.67	-3800.000
180.04	-140.000
180.42	800.000
180.80	1650.000
181.18	0.000
181.56	-375.000
181.94	0.000
182.31	1133.333
182.69	-3700.000
183.07	585.714
183.45	-2800.000
183.83	-1500.000
184.20	320.000
184.58	514.286
184.96	-261.538
185.34	-166.667
185.72	2250.000
186.09	-800.000
186.47	-3500.000
186.85	866.667
187.23	560.000
187.61	1850.000
187.98	537.500
188.36	271.429
188.74	308.333
189.12	358.333
189.49	925.000
189.87	0.000
190.25	525.000
190.63	1900.000
191.00	-216.667
191.38	-3600.000
191.76	-675.000
192.14	575.000
192.51	-2600.000
192.89	1650.000
193.27	800.000
193.65	-933.333
194.02	-680.000
194.40	457.143
194.78	-171.429
195.15	273.333
195.53	-3600.000
195.91	-580.000
196.29	3800.000
196.66	243.750
197.04	900.000
197.42	-1750.000
197.79	850.000
198.17	341.667
198.55	0.000
198.92	585.714
199.30	1400.000
199.68	1850.000
200.05	650.000
200.43	-450.000
200.81	244.444
201.18	3100.000
201.56	341.667
201.94	-825.000
202.31	-387.500
202.69	-600.000
203.07	3200.000
203.44	-483.333
203.82	333.333
204.19	780.000
204.57	-1150.000
204.95	-750.000
205.32	-580.000
205.70	550.000
206.08	925.000
206.45	-733.333
206.83	444.444
207.20	189.474
207.58	316.667
207.96	720.000
208.33	0.000
208.71	528.571
209.08	700.000
209.46	-3000.000
209.84	-850.000
210.21	680.000
210.59	-500.000
210.96	258.333
211.34	-925.000
211.71	409.091
212.09	950.000
212.46	1750.000
212.84	-366.667
213.22	400.000
213.59	-2300.000
213.97	280.000
214.34	1000.000
214.72	1100.000
215.09	1233.333
215.47	-3400.000
215.84	-390.000
216.22	-300.000
216.59	0.000
216.97	0.000
217.34	1200.000
217.72	-1550.000
218.09	1166.667
218.47	550.000
218.84	850.000
219.22	1000.000
219.59	866.667
219.97	542.857
220.34	400.000
220.72	2050.000
221.09	3200.000
221.47	250.000
221.84	833.333
222.22	410.000
222.59	238.889
222.97	228.571
223.34	306.250
223.72	-1600.000
224.09	1266.667
224.46	238.462
224.84	-725.000
225.21	488.889
225.59	233.333
225.96	1300.000
226.34	-980.000
226.71	-700.000
227.08	-600.000
227.46	0.000
227.83	-533.333
228.21	-1700.000
228.58	375.000
228.95	775.000
229.33	411.111
229.70	875.000
230.08	284.615
230.45	4000.000
230.82	-925.000
231.20	-1000.000
231.57	-1000.000
231.95	440.000
232.32	241.667
232.69	550.000
233.07	266.667
233.44	-1900.000
233.81	260.000
234.19	170.370
234.56	187.500
234.93	170.588
235.31	210.000
235.68	275.000
236.05	160.714
236.43	162.963
236.80	250.000
237.17	168.966
237.55	131.250
237.92	122.500
238.29	118.182
238.67	112.500
239.04	114.634
239.41	79.167
239.79	77.500
240.16	81.250
240.53	72.131
240.91	72.464
241.28	69.492
241.65	72.727
242.02	74.648
242.40	65.714
242.77	48.352
243.14	55.696
243.51	59.596
243.89	45.794
244.26	58.879
244.63	45.545
245.00	51.376
245.38	29.661
245.75	46.212
246.12	43.704
246.49	38.298
246.87	31.967
247.24	41.333
247.61	41.250
247.98	40.136
248.36	30.303
248.73	41.837
249.10	29.762
249.47	36.500
249.84	35.323
250.22	35.135
250.59	36.000
250.96	33.333
251.33	28.372
251.70	26.786
252.08	30.252
252.45	33.466
252.82	24.335
253.19	26.482
253.56	24.231
253.94	30.435
254.31	28.682
254.68	25.436
255.05	28.276
255.42	27.007
255.79	28.339
256.16	30.169
256.54	25.649
256.91	28.758
257.28	27.759
257.65	23.197
258.02	23.599
258.39	25.788
258.76	26.377
259.14	26.571
259.51	26.822
259.88	25.228
260.25	22.527
260.62	24.658
260.99	23.967
261.36	22.841
261.73	24.202
262.10	26.963
262.47	24.500
262.85	21.600
263.22	24.936
263.59	26.343
263.96	24.311
264.33	21.481
264.70	25.307
265.07	22.927
265.44	22.018
265.81	23.349
266.18	22.426
266.55	21.986
266.92	22.148
267.29	21.272
267.66	23.991
268.03	21.749
268.40	21.987
268.77	24.670
269.14	21.909
269.51	22.494
269.88	23.878
270.25	20.734
270.62	22.103
270.99	22.515
271.36	22.561
271.73	20.755
272.10	21.818
272.47	21.429
272.84	18.762
273.21	18.595
273.58	20.850
273.95	21.355
274.32	21.790
274.69	21.850
275.06	23.315
275.43	20.307
275.80	22.075
276.17	21.324
276.54	22.243
276.91	24.254
277.28	21.168
277.65	21.587
278.02	18.566
278.39	20.144
278.76	20.690
279.13	19.217
279.50	18.727
279.87	20.298
280.23	19.705
280.60	21.533
280.97	20.172
281.34	19.637
281.71	21.043
282.08	20.684
282.45	19.088
282.82	20.569
283.19	21.304
283.56	20.992
283.92	20.358
284.29	20.466
284.66	18.655
285.03	18.574
285.40	18.182
285.77	17.901
286.14	19.969
286.51	18.712
286.87	16.772
287.24	16.366
287.61	18.541
287.98	17.463
288.35	19.111
288.72	17.906
289.08	19.520
289.45	16.463
289.82	17.500
290.19	17.130
290.56	18.341
290.93	18.993
291.29	17.265
291.66	18.785
292.03	17.111
292.40	16.125
292.77	16.992
293.13	16.405
293.50	16.599
293.87	15.041
294.24	16.643
294.60	16.285
294.97	17.063
295.34	16.866
295.71	15.769
296.08	16.400
296.44	15.629
296.81	15.012
297.18	14.702
297.55	15.394
297.91	14.901
298.28	15.338
298.65	15.583
299.02	15.440
299.38	14.988
299.75	14.146
300.12	15.138
300.48	15.691
300.85	15.733
301.22	15.465
301.59	14.033
301.95	14.936
302.32	14.785
302.69	14.593
303.05	15.039
303.42	14.462
303.79	13.868
304.15	14.191
304.52	13.742
304.89	14.925
305.25	14.349
305.62	14.072
305.99	13.587
306.35	14.526
306.72	13.215
307.09	13.665
307.45	13.094
307.82	13.477
308.19	13.918
308.55	13.400
308.92	14.426
309.29	15.779
309.65	12.785
310.02	15.010
310.38	13.260
310.75	12.729
311.12	13.410
311.48	15.058
311.85	14.695
312.22	14.231
312.58	11.856
312.95	13.495
313.31	13.951
313.68	13.790
314.05	13.919
314.41	13.128
314.78	13.447
315.14	13.270
315.51	14.002
315.87	12.500
316.24	13.259
316.61	13.697
316.97	12.752
317.34	13.297
317.70	12.818
318.07	13.256
318.43	14.060
318.80	13.748
319.16	14.336
319.53	12.743
319.89	13.530
320.26	15.084
320.62	13.095
320.99	14.395
321.35	13.173
321.72	14.231
322.08	14.497
322.45	13.079
322.81	12.168
323.18	12.966
323.54	14.373
323.91	14.234
324.27	14.943
324.64	13.322
325.00	13.793
325.37	13.069
325.73	14.250
326.10	15.244
326.46	13.212
326.83	13.280
327.19	14.056
327.56	12.460
327.92	14.180
328.29	13.830
328.65	14.640
329.01	14.371
329.38	14.213
329.74	14.176
330.11	13.814
330.47	13.981
330.84	12.252
331.20	12.860
331.56	15.630
331.93	13.687
332.29	13.180
332.66	13.861
333.02	13.746
333.38	13.438
333.75	15.430
334.11	13.339
334.48	14.444
334.84	13.007
335.20	14.542
335.57	13.938
335.93	13.204
336.29	13.101
336.66	13.551
337.02	12.575
337.38	13.414
337.75	12.247
338.11	13.924
338.47	13.548
338.84	13.124
339.20	11.948
339.56	13.120
339.93	13.629
340.29	12.521
340.65	12.741
341.02	13.998
341.38	12.479
341.74	12.458
342.11	12.104
342.47	11.895
342.83	13.700
343.20	13.581
343.56	11.994
343.92	12.304
344.28	13.078
344.65	13.284
345.01	12.381
345.37	12.580
345.73	13.413
346.10	11.952
346.46	13.716
346.82	12.114
347.19	14.529
347.55	12.100
347.91	12.236
348.27	11.077
348.63	11.867
349.00	13.252
349.36	12.529
349.72	13.073
350.08	12.112
350.45	13.024
350.81	12.997
351.17	11.325
351.53	11.701
351.89	12.277
352.26	12.850
352.62	12.293
352.98	12.577
353.34	13.251
353.70	11.391
354.07	12.077
354.43	12.903
354.79	11.390
355.15	11.715
355.51	12.009
355.87	12.726
356.24	12.625
356.60	11.948
356.96	11.751
357.32	12.434
357.68	12.408
358.04	12.234
358.40	12.219
358.77	12.697
359.13	12.538
359.49	11.119
359.85	12.658
360.21	11.218
360.57	12.263
360.93	12.266
361.29	12.554
361.66	12.155
362.02	11.009
362.38	11.400
362.74	12.385
363.10	11.641
363.46	11.948
363.82	12.412
364.18	12.945
364.54	11.946
364.90	13.119
365.26	12.700
365.62	12.086
365.98	12.044
366.35	10.138
366.71	12.283
367.07	12.491
367.43	12.424
367.79	11.769
368.15	11.398
368.51	11.992
368.87	12.092
369.23	11.019
369.59	12.205
369.95	12.098
370.31	11.431
370.67	12.491
371.03	12.745
371.39	11.219
371.75	12.491
372.11	12.373
372.47	12.329
372.83	11.965
373.19	12.474
373.55	11.890
373.91	10.843
374.27	12.500
374.63	12.136
374.99	12.129
375.35	11.492
375.71	12.599
376.07	12.069
376.42	10.870
376.78	12.267
377.14	11.992
377.50	12.422
377.86	11.851
378.22	11.578
378.58	12.772
378.94	12.010
379.30	11.340
379.66	12.222
380.02	12.551
380.38	11.066
380.74	12.572
381.09	12.091
381.45	11.329
381.81	11.643
382.17	11.050
382.53	11.698
382.89	11.827
383.25	12.078
383.61	12.161
383.97	11.638
384.32	11.392
384.68	12.953
385.04	12.075
385.40	11.566
385.76	11.527
386.12	12.369
386.48	12.462
386.83	12.225
387.19	11.661
387.55	12.603
387.91	12.471
388.27	12.255
388.62	12.265
388.98	11.778
389.34	11.779
389.70	11.675
390.06	12.195
390.42	12.153
390.77	12.285
391.13	12.251
391.49	12.462
391.85	12.615
392.20	12.217
392.56	12.246
392.92	11.454
393.28	12.220
393.64	11.812
393.99	11.381
394.35	11.772
394.71	12.244
395.07	11.496
395.42	11.417
395.78	12.523
396.14	13.313
396.50	11.913
396.85	11.890
397.21	11.733
397.57	11.835
397.92	11.381
398.28	11.748
398.64	12.565
399.00	11.652
399.35	11.057
399.71	11.479
400.07	12.043
400.42	11.522
400.78	11.613
401.14	12.507
401.49	11.866
401.85	12.399
402.21	11.658
402.57	11.730
402.92	11.273
403.28	11.337
403.63	12.125
403.99	12.002
404.35	12.603
404.70	12.522
405.06	11.286
405.42	12.089
405.77	12.404
406.13	11.876
406.49	11.654
406.84	11.788
407.20	11.758
407.55	12.185
407.91	12.189
408.27	12.614
408.62	11.768
408.98	11.709
409.34	11.280
409.69	11.699
410.05	11.091
410.40	11.896
410.76	11.048
411.11	11.078
411.47	11.914
411.83	11.072
412.18	11.775
412.54	12.252
412.89	11.209
413.25	12.429
413.60	11.449
413.96	11.490
414.31	11.629
414.67	12.353
415.03	10.792
415.38	11.924
415.74	11.560
416.09	12.617
416.45	12.411
416.80	11.802
417.16	11.203
417.51	11.847
417.87	11.076
418.22	11.665
418.58	12.038
418.93	11.541
419.29	10.906
419.64	11.932
420.00	12.291
420.35	11.266
420.71	12.019
421.06	11.477
421.42	11.399
421.77	11.383
422.12	11.521
422.48	11.299
422.83	11.942
423.19	11.447
423.54	11.739
423.90	11.608
424.25	11.833
424.61	11.956
424.96	10.672
425.31	11.275
425.67	10.887
426.02	11.834
426.38	11.027
426.73	11.510
427.09	11.210
427.44	11.649
427.79	10.692
428.15	11.903
428.50	12.114
428.85	10.700
429.21	11.615
429.56	10.668
429.92	11.636
430.27	10.547
430.62	11.062
430.98	10.978
431.33	10.635
431.68	10.667
432.04	11.330
432.39	11.361
432.74	11.593
433.10	10.576
433.45	11.775
433.80	11.418
434.16	11.035
434.51	11.042
434.86	11.595
435.22	10.859
435.57	11.381
435.92	11.838
436.28	11.924
436.63	11.291
436.98	11.374
437.34	11.644
437.69	11.086
438.04	11.075
438.39	11.734
438.75	11.414
439.10	11.279
439.45	11.588
439.81	11.452
440.16	11.943
440.51	11.824
440.86	12.137
441.22	11.418
441.57	11.706
441.92	11.106
442.27	10.928
442.63	11.535
442.98	10.991
443.33	11.784
443.68	11.821
444.03	10.980
444.39	11.488
444.74	11.232
445.09	10.479
445.44	11.583
445.79	11.160
446.15	11.316
446.50	11.023
446.85	11.504
447.20	10.945
447.55	10.658
447.91	11.987
448.26	11.555
448.61	11.664
448.96	11.438
449.31	12.046
449.66	11.185
450.02	11.237
450.37	11.049
450.72	11.956
451.07	11.751
451.42	11.855
451.77	11.798
452.12	11.798
452.47	12.333
452.83	11.549
453.18	12.492
453.53	11.664
453.88	12.171
454.23	11.621
454.58	12.179
454.93	11.159
455.28	12.546
455.63	12.293
455.98	11.788
456.34	13.313
456.69	11.585
457.04	12.053
457.39	11.600
457.74	12.331
458.09	11.791
458.44	12.103
458.79	11.512
459.14	11.238
459.49	12.514
459.84	11.250
460.19	11.751
460.54	12.080
460.89	11.834
461.24	12.257
461.59	12.188
461.94	11.939
462.29	12.757
462.64	12.688
462.99	12.860
463.34	12.249
463.69	13.249
464.04	11.572
464.39	12.250
464.74	10.492
465.09	12.478
465.44	11.970
465.79	11.541
466.14	11.341
466.49	11.069
466.84	11.037
467.19	12.127
467.54	12.132
467.89	12.207
468.24	11.986
468.59	10.952
468.94	12.017
469.29	12.523
469.64	11.961
469.99	12.404
470.34	11.891
470.68	12.414
471.03	12.742
471.38	12.185
471.73	12.345
472.08	12.720
472.43	12.539
472.78	12.804
473.13	12.203
473.48	12.164
473.83	12.839
474.17	12.401
474.52	12.559
474.87	11.995
475.22	12.279
475.57	11.700
475.92	12.264
476.27	11.262
476.61	11.260
476.96	12.539
477.31	12.185
477.66	12.024
478.01	12.378
478.36	11.946
478.70	11.414
479.05	12.238
479.40	12.004
479.75	12.512
480.10	12.149
480.45	11.765
480.79	11.935
481.14	10.937
481.49	11.619
481.84	11.873
482.19	12.489
482.53	11.506
482.88	11.290
483.23	11.367
483.58	11.670
483.92	12.294
484.27	11.515
484.62	12.054
484.97	11.297
485.31	10.603
485.66	10.807
486.01	10.305
486.36	9.632
486.70	9.535
487.05	10.071
487.40	10.043
487.75	10.451
488.09	11.193
488.44	11.058
488.79	11.732
489.13	11.012
489.48	11.466
489.83	11.593
490.17	11.189
490.52	12.102
490.87	11.767
491.22	12.012
491.56	12.253
491.91	12.410
492.26	11.893
492.60	11.982
492.95	11.509
493.30	12.102
493.64	12.668
493.99	12.388
494.34	11.475
494.68	11.819
495.03	12.124
495.37	12.067
495.72	12.914
496.07	11.680
496.41	11.859
496.76	12.199
497.11	12.425
497.45	12.582
497.80	11.956
498.14	12.020
498.49	12.953
498.84	12.336
499.18	11.700
499.53	12.035
499.87	11.995
500.22	12.114
500.56	12.210
500.91	12.523
501.26	12.219
501.60	12.477
501.95	11.828
502.29	12.533
502.64	11.866
502.98	11.961
503.33	12.428
503.67	13.333
504.02	12.360
504.36	11.719
504.71	12.441
505.06	12.670
505.40	11.839
505.75	12.208
506.09	12.552
506.44	12.547
506.78	12.665
507.13	12.118
507.47	12.712
507.82	12.749
508.16	12.886
508.51	12.802
508.85	12.773
509.19	12.628
509.54	13.623
509.88	13.277
510.23	12.990
510.57	12.017
510.92	12.887
511.26	13.504
511.61	12.949
511.95	13.141
512.30	13.350
512.64	12.721
512.98	12.814
513.33	13.064
513.67	13.206
514.02	12.883
514.36	12.150
514.70	13.600
515.05	12.733
515.39	13.158
515.74	12.739
516.08	12.582
516.42	13.661
516.77	13.653
517.11	13.227
517.46	13.793
517.80	12.561
518.14	13.690
518.49	12.789
518.83	12.637
519.17	13.699
519.52	13.162
519.86	13.733
520.20	14.630
520.55	13.171
520.89	13.161
521.23	13.259
521.58	13.138
521.92	13.819
522.26	12.915
522.61	13.488
522.95	13.934
523.29	13.626
523.64	13.642
523.98	14.202
524.32	13.841
524.66	13.797
525.01	13.491
525.35	13.789
525.69	13.365
526.04	14.456
526.38	13.596
526.72	13.902
527.06	13.838
527.41	14.450
527.75	14.242
528.09	13.606
528.43	14.216
528.78	13.894
529.12	14.148
529.46	13.442
529.80	13.668
530.15	13.612
530.49	12.936
530.83	13.102
531.17	13.715
531.51	14.040
531.86	13.889
532.20	13.473
532.54	13.308
532.88	13.179
533.22	14.199
533.57	13.423
533.91	12.704
534.25	13.041
534.59	13.450
534.93	13.652
535.27	12.920
535.62	13.594
535.96	13.121
536.30	14.442
536.64	13.727
536.98	13.719
537.32	14.500
537.66	13.457
538.01	14.118
538.35	14.410
538.69	12.803
539.03	13.495
539.37	13.835
539.71	12.778
540.05	12.800
540.39	13.522
540.73	13.544
541.07	13.237
541.42	13.619
541.76	14.427
542.10	13.933
542.44	13.716
542.78	13.593
543.12	12.945
543.46	12.719
543.80	14.098
544.14	12.879
544.48	13.443
544.82	13.150
545.16	13.358
545.50	13.153
545.84	14.015
546.18	14.694
546.52	14.951
546.86	14.571
547.20	13.760
547.54	14.060
547.88	13.869
548.22	13.175
548.56	13.789
548.90	13.464
549.24	13.329
549.58	13.724
549.92	14.342
550.26	13.590
550.60	13.839
550.94	14.518
551.28	14.276
551.62	14.207
551.96	13.446
552.30	12.722
552.64	14.369
552.98	12.822
553.32	13.252
553.66	13.876
554.00	14.286
554.34	14.514
554.68	14.382
555.02	13.442
555.36	14.162
555.69	14.332
556.03	13.885
556.37	14.022
556.71	14.993
557.05	13.630
557.39	13.667
557.73	14.151
558.07	14.353
558.41	14.256
558.75	14.364
559.08	14.653
559.42	14.030
559.76	14.683
560.10	13.145
560.44	12.674
560.78	13.747
561.12	13.605
561.45	13.079
561.79	12.921
562.13	13.076
562.47	13.043
562.81	13.923
563.15	13.769
563.48	12.981
563.82	14.286
564.16	14.241
564.50	13.382
564.84	13.617
565.17	13.607
565.51	13.732
565.85	13.510
566.19	13.571
566.52	13.418
566.86	13.368
567.20	12.978
567.54	12.828
567.88	13.302
568.21	12.332
568.55	12.403
568.89	12.682
569.23	12.166
569.56	11.661
569.90	11.319
570.24	11.312
570.57	11.162
570.91	11.326
571.25	11.121
571.59	10.462
571.92	11.033
572.26	10.243
572.60	10.414
572.93	11.242
573.27	10.339
573.61	10.666
573.95	10.732
574.28	10.397
574.62	10.550
574.96	10.285
575.29	10.165
575.63	10.224
575.97	10.127
576.30	9.972
576.64	10.606
576.98	10.425
577.31	10.638
577.65	10.329
577.98	10.140
578.32	9.855
578.66	9.759
578.99	9.922
579.33	10.397
579.67	10.108
580.00	10.250
580.34	10.058
580.67	10.000
581.01	10.643
581.35	10.197
581.68	9.638
582.02	9.570
582.35	9.620
582.69	9.855
583.02	9.983
583.36	10.399
583.70	10.791
584.03	10.490
584.37	10.449
584.70	10.575
585.04	10.064
585.37	9.941
585.71	10.562
586.04	10.287
586.38	9.959
586.72	10.193
587.05	10.834
587.39	10.190
587.72	10.393
588.06	10.156
588.39	10.415
588.73	10.488
589.06	10.622
589.40	10.861
589.73	10.947
590.07	10.913
590.40	11.463
590.73	11.091
591.07	11.499
591.40	11.537
591.74	11.364
592.07	10.732
592.41	11.751
592.74	10.875
593.08	10.449
593.41	10.383
593.75	10.161
594.08	10.471
594.41	11.046
594.75	10.753
595.08	10.631
595.42	10.764
595.75	10.990
596.09	11.053
596.42	11.180
596.75	10.978
597.09	11.886
597.42	11.306
597.75	11.034
598.09	10.997
598.42	11.628
598.76	11.527
599.09	11.217
599.42	10.104
599.76	10.787
600.09	10.847
600.42	10.601
600.76	10.367
601.09	10.942
601.42	10.700
601.76	10.992
602.09	10.706
602.42	10.573
602.76	11.082
603.09	11.275
603.42	11.413
603.76	10.774
604.09	10.785
604.42	10.923
604.76	11.379
605.09	10.776
605.42	11.296
605.75	11.212
606.09	11.285
606.42	11.199
606.75	11.310
607.09	10.778
607.42	11.290
607.75	11.146
608.08	11.210
608.42	11.451
608.75	11.211
609.08	11.087
609.41	11.955
609.75	11.722
610.08	11.691
610.41	11.375
610.74	11.299
611.07	11.232
611.41	11.770
611.74	11.472
612.07	11.272
612.40	11.452
612.73	11.982
613.07	12.063
613.40	11.629
613.73	12.781
614.06	11.850
614.39	12.071
614.72	11.552
615.06	11.968
615.39	11.881
615.72	11.520
616.05	12.205
616.38	11.872
616.71	12.371
617.05	12.081
617.38	11.798
617.71	12.205
618.04	11.890
618.37	11.729
618.70	12.298
619.03	11.905
619.36	12.249
619.69	12.599
620.03	12.785
620.36	12.139
620.69	13.282
621.02	12.228
621.35	12.106
621.68	13.717
622.01	13.358
622.34	12.309
622.67	13.904
623.00	13.479
623.33	12.955
623.66	13.240
623.99	12.671
624.32	12.940
624.65	13.232
624.99	12.914
625.32	13.627
625.65	12.483
625.98	13.319
626.31	13.131
626.64	12.756
626.97	12.854
627.30	12.966
627.63	13.736
627.96	13.537
628.29	13.201
628.62	13.516
628.95	14.539
629.28	15.513
629.61	13.796
629.94	14.693
630.26	13.518
630.59	15.160
630.92	14.529
631.25	16.228
631.58	13.983
631.91	15.033
632.24	13.022
632.57	13.458
632.90	16.046
633.23	15.215
633.56	15.068
633.89	15.648
634.22	15.178
634.55	15.484
634.88	16.758
635.20	15.919
635.53	15.912
635.86	16.779
636.19	15.600
636.52	14.054
636.85	15.965
637.18	17.010
637.51	14.860
637.83	15.217
638.16	16.999
638.49	16.886
638.82	15.962
639.15	16.451
639.48	15.640
639.81	15.995
640.13	16.442
640.46	17.573
640.79	16.125
641.12	14.698
641.45	16.041
641.77	17.041
642.10	15.797
642.43	18.208
642.76	16.903
643.09	18.156
643.41	16.410
643.74	16.259
644.07	17.699
644.40	16.124
644.73	18.318
645.05	17.831
645.38	18.377
645.71	18.361
646.04	19.084
646.36	17.371
646.69	17.760
647.02	17.920
647.35	18.268
647.67	16.532
648.00	18.078
648.33	18.496
648.66	18.788
648.98	18.116
649.31	16.059
649.64	15.906
649.96	15.932
650.29	17.143
650.62	19.882
650.94	18.223
651.27	16.906
651.60	17.058
651.92	19.201
652.25	18.268
652.58	16.879
652.90	16.168
653.23	16.839
653.56	15.579
653.88	15.859
654.21	16.716
654.54	16.984
654.86	17.109
655.19	16.755
655.52	13.458
655.84	8.458
656.17	9.488
656.49	13.315
656.82	15.081
657.15	11.691
657.47	8.873
657.80	6.756
658.13	5.581
658.45	7.688
658.78	9.105
659.10	9.787
659.43	9.593
659.75	10.517
660.08	11.779
660.41	13.067
660.73	16.311
661.06	16.817
661.38	16.525
661.71	17.806
662.03	18.821
662.36	19.238
662.68	20.484
663.01	19.459
663.33	18.491
663.66	20.907
663.98	18.452
664.31	20.149
664.63	18.582
664.96	20.263
665.28	18.456
665.61	18.868
665.93	19.057
666.26	17.944
666.58	22.385
666.91	18.147
667.23	18.876
667.56	19.507
667.88	21.369
668.21	21.107
668.53	20.968
668.86	20.040
669.18	19.959
669.50	17.769
669.83	19.097
670.15	18.087
670.48	19.922
670.80	19.721
671.13	18.924
671.45	21.042
671.77	21.336
672.10	17.235
672.42	15.789
672.75	19.146
673.07	18.124
673.39	16.134
673.72	16.782
674.04	16.846
674.37	18.330
674.69	19.703
675.01	17.910
675.34	18.798
675.66	19.531
675.98	18.540
676.31	18.000
676.63	17.893
676.95	18.056
677.28	17.039
677.60	18.511
677.92	18.254
678.25	16.667
678.57	18.250
678.89	20.253
679.22	19.669
679.54	20.285
679.86	17.801
680.18	16.520
680.51	17.247
680.83	14.020
681.15	16.984
681.48	18.750
681.80	16.988
682.12	19.204
682.44	17.117
682.77	18.149
683.09	20.583
683.41	17.755
683.73	18.701
684.06	16.667
684.38	19.574
684.70	16.007
685.02	14.931
685.34	17.782
685.67	17.524
685.99	17.077
686.31	16.025
686.63	16.585
686.96	17.484
687.28	15.604
687.60	16.894
687.92	16.750
688.24	19.138
688.56	18.149
688.89	18.356
689.21	20.809
689.53	18.972
689.85	18.293
690.17	19.417
690.49	18.750
690.82	17.437
691.14	20.202
691.46	18.070
691.78	18.519
692.10	18.893
692.42	19.601
692.74	17.636
693.06	16.667
693.39	17.787
693.71	18.271
694.03	18.738
694.35	19.880
694.67	18.330
694.99	22.395
695.31	21.847
695.63	19.683
695.95	18.778
696.27	22.345
696.59	18.138
696.91	20.759
697.23	18.100
697.56	16.183
697.88	15.569
698.20	16.792
698.52	17.121
698.84	17.659
699.16	17.697
699.48	19.280
699.80	21.786
700.12	18.245
700.44	19.393
700.76	22.912
701.08	19.582
701.40	19.481
701.72	21.925
702.04	21.951
702.36	21.505
702.68	21.543
703.00	19.048
703.32	20.347
703.64	20.403
703.96	19.531
704.28	23.016
704.60	20.282
704.91	22.129
705.23	18.182
705.55	23.145
705.87	18.413
706.19	26.332
706.51	22.884
706.83	21.534
707.15	22.995
707.47	19.855
707.79	21.609
708.11	20.408
708.43	19.101
708.74	16.516
709.06	19.302
709.38	21.092
709.70	19.074
710.02	21.196
710.34	22.099
710.66	22.222
710.98	22.951
711.29	22.563
711.61	23.677
711.93	22.796
712.25	20.783
712.57	20.257
712.89	26.970
713.20	22.045
713.52	23.988
713.84	25.680
714.16	19.420
714.48	14.409
714.80	22.764
715.11	18.883
715.43	19.832
715.75	19.155
716.07	20.520
716.39	23.143
716.70	21.184
717.02	22.222
717.34	25.899
717.66	26.389
717.97	27.273
718.29	25.352
718.61	21.622
718.93	24.567
719.24	25.503
719.56	21.379
719.88	18.471
720.20	23.226
720.51	23.856
720.83	23.411
721.15	22.789
721.46	25.342
721.78	21.603
722.10	24.306
722.42	22.408
722.73	20.217
723.05	24.912
723.37	26.855
723.68	24.219
724.00	25.758
724.32	25.475
724.63	24.231
724.95	26.667
725.27	26.022
725.58	23.162
725.90	23.239
726.22	18.493
726.53	21.739
726.85	20.195
727.16	23.826
727.48	21.927
727.80	29.496
728.11	23.214
728.43	21.739
728.74	23.776
729.06	19.355
729.38	25.614
729.69	26.333
730.01	25.987
730.32	22.819
730.64	26.910
730.96	24.024
731.27	15.902
731.59	18.966
731.90	16.992
732.22	19.143
732.53	17.094
732.85	24.561
733.16	18.976
733.48	22.257
733.80	21.159
734.11	20.245
734.43	20.468
734.74	18.231
735.06	20.899
735.37	18.299
735.69	19.420
736.00	20.183
736.32	17.879
736.63	15.457
736.95	16.770
737.26	20.122
737.58	19.325
737.89	23.795
738.21	20.199
738.52	24.080
738.83	30.037
739.15	26.132
739.46	24.138
739.78	21.429
740.09	22.741
740.41	22.699
740.72	23.492
741.04	25.524
741.35	25.000
741.66	24.111
741.98	24.464
742.29	27.315
742.61	23.451
742.92	24.153
743.23	19.200
743.55	28.302
743.86	23.922
744.18	29.237
744.49	24.380
744.80	27.189
745.12	25.000
745.43	28.972
745.74	24.000
746.06	22.807
746.37	26.977
746.68	31.858
747.00	26.906
747.31	23.529
747.62	24.180
747.94	24.034
748.25	24.125
748.56	25.000
748.88	26.786
749.19	25.116
749.50	25.571
749.82	23.457
750.13	25.692
750.44	21.333
750.75	18.456
751.07	21.382
751.38	19.802
751.69	21.886
752.01	21.329
752.32	25.581
752.63	26.174
752.94	22.378
753.26	22.656
753.57	26.459
753.88	19.850
754.19	20.578
754.51	21.595
754.82	21.141
755.13	19.932
755.44	21.111
755.75	19.931
756.07	26.712
756.38	19.281
756.69	20.625
757.00	22.255
757.31	20.282
757.63	20.386
757.94	15.957
758.25	17.633
758.56	17.620
758.87	17.794
759.18	20.930
759.50	23.404
759.81	19.585
760.12	20.506
760.43	17.367
760.74	20.253
761.05	17.772
761.36	16.406
761.67	19.677
761.99	19.155
762.30	19.293
762.61	21.528
762.92	21.212
763.23	21.509
763.54	22.308
763.85	17.899
764.16	26.042
764.47	21.284
764.78	20.847
765.10	18.598
765.41	17.898
765.72	15.470
766.03	14.199
766.34	18.467
766.65	22.433
766.96	25.911
767.27	23.832
767.58	27.228
767.89	29.282
768.20	32.927
768.51	21.939
768.82	22.807
769.13	24.314
769.44	22.180
769.75	21.348
770.06	22.689
770.37	17.982
770.68	22.222
770.99	24.576
771.30	24.686
771.61	23.462
771.92	23.282
772.23	22.177
772.54	28.000
772.85	32.178
773.16	28.261
773.47	26.111
773.78	30.693
774.09	31.818
774.39	27.879
774.70	26.471
775.01	25.000
775.32	27.950
775.63	34.932
775.94	37.037
776.25	41.379
776.56	39.695
776.87	41.985
777.18	37.121
777.48	45.669
777.79	39.231
778.10	37.879
778.41	40.299
778.72	41.353
779.03	27.564
779.34	30.405
779.65	32.298
779.95	31.056
780.26	28.571
780.57	36.054
780.88	34.043
781.19	45.833
781.50	33.728
781.80	33.880
782.11	26.455
782.42	30.460
782.73	28.249
783.04	36.774
783.34	33.333
783.65	29.252
783.96	26.452
784.27	29.139
784.57	29.605
784.88	34.783
785.19	37.500
785.50	37.931
785.81	52.713
786.11	34.815
786.42	40.945
786.73	30.631
787.04	38.679
787.34	34.146
787.65	37.121
787.96	42.424
788.26	37.008
788.57	37.226
788.88	41.549
789.19	25.191
789.49	34.459
789.80	35.156
790.11	37.190
790.41	45.370
790.72	35.185
791.03	43.269
791.33	48.485
791.64	46.316
791.95	48.421
792.25	48.958
792.56	40.000
792.87	47.561
793.17	44.318
793.48	49.412
793.79	42.529
794.09	45.455
794.40	47.414
794.70	41.270
795.01	41.538
795.32	33.588
795.62	33.333
795.93	33.613
796.23	36.585
796.54	38.776
796.85	51.136
797.15	54.545
797.46	67.073
797.76	40.000
798.07	57.333
798.37	51.250
798.68	52.500
798.99	63.415
799.29	62.667
799.60	47.674
799.90	42.105
800.21	51.515
800.51	69.014
800.82	89.655
801.12	55.385
801.43	76.000
801.73	56.897
802.04	66.234
802.34	57.534
802.65	78.431
802.95	73.913
803.26	69.355
803.56	81.667
803.87	68.657
804.17	65.079
804.48	47.170
804.78	56.944
805.09	62.121
805.39	60.317
805.70	75.439
806.00	48.571
806.30	75.000
806.61	54.118
806.91	60.000
807.22	52.174
807.52	50.000
807.83	65.789
808.13	62.319
808.43	61.290
808.74	63.014
809.04	57.143
809.35	51.471
809.65	66.667
809.95	78.431
810.26	88.889
810.56	78.125
810.86	79.592
811.17	80.702
811.47	76.087
811.77	79.310
812.08	50.000
812.38	59.524
812.69	83.333
812.99	97.778
813.29	88.571
813.59	100.000
813.90	48.276
814.20	80.328
814.50	64.000
814.81	61.404
815.11	85.185
815.41	62.500
815.72	82.143
816.02	88.000
816.32	78.049
816.62	84.483
816.93	100.000
817.23	109.756
817.53	82.143
817.84	91.111
818.14	100.000
818.44	89.583
818.74	79.245
819.04	76.923
819.35	109.091
819.65	82.692
819.95	112.963
820.25	114.894
820.56	129.730
820.86	84.211
821.16	78.723
821.46	115.789
821.76	85.455
822.07	59.524
822.37	73.684
822.67	104.651
822.97	65.789
823.27	106.522
823.57	118.750
823.88	117.949
824.18	106.061
824.48	143.478
824.78	102.778
825.08	139.130
825.38	137.931
825.69	108.824
825.99	100.000
826.29	102.778
826.59	82.857
826.89	130.000
827.19	97.143
827.49	112.903
827.79	119.231
828.09	80.952
828.39	88.889
828.70	89.189
829.00	117.857
829.30	150.000
829.60	127.778
829.90	83.871
830.20	100.000
830.50	129.730
830.80	158.333
831.10	138.462
831.40	142.857
831.70	179.167
832.00	106.667
832.30	160.870
832.60	187.500
832.90	103.030
833.20	210.000
833.50	115.789
833.80	108.824
834.10	115.789
834.40	142.105
834.70	126.667
835.00	156.000
835.30	78.378
835.60	128.125
835.90	124.324
836.20	138.462
836.50	122.727
836.80	95.122
837.10	117.391
837.40	276.923
837.70	168.421
838.00	116.667
838.30	166.667
838.60	176.000
838.90	340.000
839.19	175.000
839.49	143.333
839.79	117.241
840.09	153.846
840.39	186.667
840.69	168.421
840.99	133.333
841.29	200.000
841.59	210.000
841.88	184.000
842.18	366.667
842.48	157.143
842.78	155.556
843.08	138.462
843.38	172.727
843.68	264.286
843.97	457.143
844.27	165.217
844.57	1700.000
844.87	271.429
845.17	194.444
845.47	161.905
845.76	208.333
846.06	514.286
846.36	152.941
846.66	300.000
846.96	262.500
847.25	130.769
847.55	184.211
847.85	233.333
848.15	480.000
848.44	309.091
848.74	161.905
849.04	191.667
849.34	152.941
849.63	212.500
849.93	262.500
850.23	933.333
850.53	437.500
850.82	327.273
851.12	176.471
851.42	137.500
851.71	231.250
852.01	0.000
852.31	152.941
852.61	440.000
852.90	137.500
853.20	422.222
853.50	-1600.000
853.79	144.000
854.09	178.125
854.39	110.345
854.68	134.483
854.98	200.000
855.28	116.129
855.57	264.286
855.87	155.556
856.17	118.519
856.46	189.474
856.76	145.161
857.05	205.882
857.35	272.727
857.65	246.154
857.94	240.000
858.24	333.333
858.53	300.000
858.83	657.143
859.13	195.652
859.42	222.222
859.72	325.000
860.01	291.667
860.31	775.000
860.60	310.000
860.90	412.500
861.20	330.769
861.49	414.286
861.79	-2300.000
862.08	471.429
862.38	522.222
862.67	235.714
862.97	340.000
863.26	153.333
863.56	875.000
863.85	346.154
864.15	247.059
864.44	238.889
864.74	375.000
865.03	363.636
865.33	412.500
865.62	193.333
865.92	533.333
866.21	825.000
866.51	600.000
866.80	172.222
867.10	866.667
867.39	2700.000
867.69	720.000
867.98	1000.000
868.27	204.762
868.57	300.000
868.86	775.000
869.16	166.667
869.45	3100.000
869.75	-400.000
870.04	800.000
870.33	700.000
870.63	387.500
870.92	188.235
871.22	825.000
871.51	557.143
871.80	275.000
872.10	253.846
>>>>>End Processed Spectral Data<<<<<
