SpectraSuite Data File
++++++++++++++++++++++++++++++++++++
Date: Tue May 12 16:35:49 PDT 2015
User: schluterlab
Dark Spectrum Present: Yes
Reference Spectrum Present: Yes
Number of Sampled Component Spectra: 1
Spectrometers: USB2E3373
Integration Time (usec): 3000 (USB2E3373)
Spectra Averaged: 3 (USB2E3373)
Boxcar Smoothing: 0 (USB2E3373)
Correct for Electrical Dark: No (USB2E3373)
Strobe/Lamp Enabled: No (USB2E3373)
Correct for Detector Non-linearity: No (USB2E3373)
Correct for Stray Light: No (USB2E3373)
Number of Pixels in Processed Spectrum: 2048
>>>>>Begin Processed Spectral Data<<<<<
178.53	0.000
178.91	-233.333
179.29	-675.000
179.67	-4100.000
180.04	-113.333
180.42	725.000
180.80	1450.000
181.18	0.000
181.56	-412.500
181.94	0.000
182.31	1300.000
182.69	-3300.000
183.07	585.714
183.45	-4200.000
183.83	-1600.000
184.20	310.000
184.58	500.000
184.96	-238.462
185.34	-208.333
185.72	1550.000
186.09	-825.000
186.47	-3000.000
186.85	1033.333
187.23	480.000
187.61	1600.000
187.98	512.500
188.36	250.000
188.74	375.000
189.12	375.000
189.49	925.000
189.87	0.000
190.25	437.500
190.63	1900.000
191.00	-325.000
191.38	-3100.000
191.76	-750.000
192.14	600.000
192.51	-3400.000
192.89	1200.000
193.27	966.667
193.65	-1066.667
194.02	-760.000
194.40	500.000
194.78	-150.000
195.15	186.667
195.53	-2700.000
195.91	-500.000
196.29	4000.000
196.66	275.000
197.04	725.000
197.42	-1250.000
197.79	475.000
198.17	283.333
198.55	0.000
198.92	385.714
199.30	1266.667
199.68	2200.000
200.05	816.667
200.43	-433.333
200.81	138.889
201.18	3200.000
201.56	258.333
201.94	-925.000
202.31	-375.000
202.69	-520.000
203.07	3000.000
203.44	-366.667
203.82	266.667
204.19	660.000
204.57	-1250.000
204.95	-700.000
205.32	-660.000
205.70	583.333
206.08	875.000
206.45	-833.333
206.83	411.111
207.20	194.737
207.58	216.667
207.96	600.000
208.33	0.000
208.71	557.143
209.08	560.000
209.46	-2500.000
209.84	-800.000
210.21	780.000
210.59	-620.000
210.96	258.333
211.34	-975.000
211.71	345.455
212.09	700.000
212.46	1650.000
212.84	-516.667
213.22	400.000
213.59	-3400.000
213.97	350.000
214.34	750.000
214.72	1200.000
215.09	1033.333
215.47	-2800.000
215.84	-270.000
216.22	-387.500
216.59	0.000
216.97	0.000
217.34	1100.000
217.72	-1100.000
218.09	1133.333
218.47	437.500
218.84	850.000
219.22	900.000
219.59	1033.333
219.97	428.571
220.34	277.778
220.72	1350.000
221.09	2600.000
221.47	275.000
221.84	1066.667
222.22	430.000
222.59	272.222
222.97	214.286
223.34	275.000
223.72	-1800.000
224.09	1233.333
224.46	261.538
224.84	-775.000
225.21	444.444
225.59	260.000
225.96	1233.333
226.34	-740.000
226.71	-475.000
227.08	-320.000
227.46	0.000
227.83	-600.000
228.21	-1950.000
228.58	425.000
228.95	750.000
229.33	300.000
229.70	1075.000
230.08	353.846
230.45	2900.000
230.82	-975.000
231.20	-866.667
231.57	-1000.000
231.95	660.000
232.32	258.333
232.69	383.333
233.07	241.667
233.44	-1750.000
233.81	240.000
234.19	159.259
234.56	193.750
234.93	152.941
235.31	210.000
235.68	237.500
236.05	153.571
236.43	151.852
236.80	221.429
237.17	144.828
237.55	137.500
237.92	122.500
238.29	145.455
238.67	131.250
239.04	114.634
239.41	77.083
239.79	105.000
240.16	89.583
240.53	72.131
240.91	72.464
241.28	77.966
241.65	68.182
242.02	74.648
242.40	90.000
242.77	64.835
243.14	59.494
243.51	61.616
243.89	58.879
244.26	54.206
244.63	58.416
245.00	57.798
245.38	47.458
245.75	51.515
246.12	50.370
246.49	51.064
246.87	44.262
247.24	46.000
247.61	36.875
247.98	48.299
248.36	38.182
248.73	47.449
249.10	45.833
249.47	45.000
249.84	36.318
250.22	40.000
250.59	41.000
250.96	35.443
251.33	37.674
251.70	45.536
252.08	39.076
252.45	37.450
252.82	37.262
253.19	36.759
253.56	36.154
253.94	34.783
254.31	35.271
254.68	39.024
255.05	33.103
255.42	40.146
255.79	38.436
256.16	35.932
256.54	34.740
256.91	35.948
257.28	34.114
257.65	30.094
258.02	35.988
258.39	36.390
258.76	36.232
259.14	32.286
259.51	34.985
259.88	33.739
260.25	30.495
260.62	35.068
260.99	30.028
261.36	34.262
261.73	31.649
262.10	31.937
262.47	32.000
262.85	34.667
263.22	32.905
263.59	32.992
263.96	34.336
264.33	32.840
264.70	30.713
265.07	30.244
265.44	33.486
265.81	32.547
266.18	32.494
266.55	31.206
266.92	28.635
267.29	32.018
267.66	30.942
268.03	30.493
268.40	31.712
268.77	33.260
269.14	31.020
269.51	33.408
269.88	34.082
270.25	27.430
270.62	31.545
270.99	31.034
271.36	32.520
271.73	28.092
272.10	29.091
272.47	30.952
272.84	32.535
273.21	31.612
273.58	30.972
273.95	30.390
274.32	31.712
274.69	31.102
275.06	30.419
275.43	30.651
275.80	29.245
276.17	30.699
276.54	30.841
276.91	30.597
277.28	30.657
277.65	30.074
278.02	27.206
278.39	30.036
278.76	29.483
279.13	28.114
279.50	30.364
279.87	29.423
280.23	27.993
280.60	29.015
280.97	29.310
281.34	29.538
281.71	29.913
282.08	29.915
282.45	27.703
282.82	28.094
283.19	28.617
283.56	28.099
283.92	30.293
284.29	27.953
284.66	28.571
285.03	27.861
285.40	27.934
285.77	24.846
286.14	29.567
286.51	28.374
286.87	25.475
287.24	27.327
287.61	27.660
287.98	28.358
288.35	25.630
288.72	27.466
289.08	26.727
289.45	26.372
289.82	25.781
290.19	25.329
290.56	25.910
290.93	25.324
291.29	24.448
291.66	25.847
292.03	24.825
292.40	25.610
292.77	24.513
293.13	24.536
293.50	24.426
293.87	23.035
294.24	25.874
294.60	26.918
294.97	24.476
295.34	23.639
295.71	23.522
296.08	24.000
296.44	22.745
296.81	24.069
297.18	22.433
297.55	24.507
297.91	22.291
298.28	24.396
298.65	22.945
299.02	22.437
299.38	23.261
299.75	21.951
300.12	22.362
300.48	23.536
300.85	22.646
301.22	22.558
301.59	21.934
301.95	21.704
302.32	23.050
302.69	21.606
303.05	22.334
303.42	22.534
303.79	21.885
304.15	21.012
304.52	22.622
304.89	21.642
305.25	21.357
305.62	21.535
305.99	21.957
306.35	21.368
306.72	21.748
307.09	21.118
307.45	21.964
307.82	20.679
308.19	21.649
308.55	22.000
308.92	21.394
309.29	22.387
309.65	21.606
310.02	23.327
310.38	21.436
310.75	20.829
311.12	21.169
311.48	22.394
311.85	22.328
312.22	20.535
312.58	22.255
312.95	23.689
313.31	22.097
313.68	21.013
314.05	23.168
314.41	22.719
314.78	22.254
315.14	23.697
315.51	23.179
315.87	21.898
316.24	23.249
316.61	22.919
316.97	23.578
317.34	23.720
317.70	24.671
318.07	24.822
318.43	25.220
318.80	24.606
319.16	25.175
319.53	24.867
319.89	24.821
320.26	26.350
320.62	25.824
320.99	27.550
321.35	25.417
321.72	27.040
322.08	27.147
322.45	28.156
322.81	28.637
323.18	28.330
323.54	29.094
323.91	30.281
324.27	29.355
324.64	29.152
325.00	29.310
325.37	29.848
325.73	30.944
326.10	31.980
326.46	31.296
326.83	30.880
327.19	31.968
327.56	32.268
327.92	35.082
328.29	32.815
328.65	33.562
329.01	33.875
329.38	33.503
329.74	33.732
330.11	35.100
330.47	35.379
330.84	33.046
331.20	34.602
331.56	35.924
331.93	35.586
332.29	33.418
332.66	34.014
333.02	34.021
333.38	36.300
333.75	34.529
334.11	35.235
334.48	36.496
334.84	33.953
335.20	36.270
335.57	34.593
335.93	35.324
336.29	35.406
336.66	37.136
337.02	35.073
337.38	35.082
337.75	35.980
338.11	36.287
338.47	35.563
338.84	35.140
339.20	34.719
339.56	35.997
339.93	35.535
340.29	34.538
340.65	36.714
341.02	37.249
341.38	35.468
341.74	36.296
342.11	35.225
342.47	34.208
342.83	36.341
343.20	36.217
343.56	34.790
343.92	36.416
344.28	36.204
344.65	35.452
345.01	35.873
345.37	34.856
345.73	35.159
346.10	35.458
346.46	36.045
346.82	35.802
347.19	35.549
347.55	36.144
347.91	34.743
348.27	34.547
348.63	35.127
349.00	35.796
349.36	35.253
349.72	36.468
350.08	36.258
350.45	35.872
350.81	36.850
351.17	35.054
351.53	35.874
351.89	33.800
352.26	34.694
352.62	35.068
352.98	35.276
353.34	35.439
353.70	35.474
354.07	36.077
354.43	36.482
354.79	34.093
355.15	35.988
355.51	34.819
355.87	36.069
356.24	36.952
356.60	34.094
356.96	35.785
357.32	35.494
357.68	36.417
358.04	35.106
358.40	36.957
358.77	35.988
359.13	36.712
359.49	36.323
359.85	36.188
360.21	35.364
360.57	35.985
360.93	36.436
361.29	36.075
361.66	35.496
362.02	34.801
362.38	35.426
362.74	36.518
363.10	35.344
363.46	35.083
363.82	36.396
364.18	35.633
364.54	36.123
364.90	36.747
365.26	35.878
365.62	35.773
365.98	35.650
366.35	35.655
366.71	36.502
367.07	36.451
367.43	35.930
367.79	35.173
368.15	35.753
368.51	35.562
368.87	35.530
369.23	35.759
369.59	34.592
369.95	35.105
370.31	35.592
370.67	35.392
371.03	36.835
371.39	35.596
371.75	35.659
372.11	36.778
372.47	36.096
372.83	36.234
373.19	35.367
373.55	36.701
373.91	35.221
374.27	35.648
374.63	35.390
374.99	35.512
375.35	36.358
375.71	37.071
376.07	35.610
376.42	35.486
376.78	35.517
377.14	36.370
377.50	34.707
377.86	35.362
378.22	36.319
378.58	36.562
378.94	35.969
379.30	35.719
379.66	37.568
380.02	36.070
380.38	34.719
380.74	36.621
381.09	36.974
381.45	35.434
381.81	36.170
382.17	36.142
382.53	35.393
382.89	36.369
383.25	36.057
383.61	36.311
383.97	35.633
384.32	36.287
384.68	37.790
385.04	35.522
385.40	36.477
385.76	35.108
386.12	36.611
386.48	35.805
386.83	37.225
387.19	36.867
387.55	36.572
387.91	35.624
388.27	37.180
388.62	36.033
388.98	35.802
389.34	35.336
389.70	35.790
390.06	36.463
390.42	36.767
390.77	36.057
391.13	37.176
391.49	36.600
391.85	36.738
392.20	36.353
392.56	35.723
392.92	35.261
393.28	36.547
393.64	35.034
393.99	35.862
394.35	36.198
394.71	34.801
395.07	35.401
395.42	36.534
395.78	36.336
396.14	36.325
396.50	35.740
396.85	35.976
397.21	35.860
397.57	35.864
397.92	34.604
398.28	35.190
398.64	35.020
399.00	34.420
399.35	34.407
399.71	35.762
400.07	35.502
400.42	34.269
400.78	35.718
401.14	35.878
401.49	34.965
401.85	34.820
402.21	34.798
402.57	36.026
402.92	35.273
403.28	34.487
403.63	34.667
403.99	34.318
404.35	35.873
404.70	35.617
405.06	34.026
405.42	35.189
405.77	34.123
406.13	34.490
406.49	34.679
406.84	33.897
407.20	34.589
407.55	34.831
407.91	35.546
408.27	35.173
408.62	34.358
408.98	35.009
409.34	34.892
409.69	34.848
410.05	33.572
410.40	33.922
410.76	34.345
411.11	34.182
411.47	35.123
411.83	34.329
412.18	33.877
412.54	34.054
412.89	33.805
413.25	33.979
413.60	34.521
413.96	34.829
414.31	34.120
414.67	34.699
415.03	34.163
415.38	35.331
415.74	34.618
416.09	34.916
416.45	35.553
416.80	34.573
417.16	33.546
417.51	34.904
417.87	34.293
418.22	33.840
418.58	35.223
418.93	34.384
419.29	32.717
419.64	33.192
420.00	34.666
420.35	34.611
420.71	34.306
421.06	33.549
421.42	33.679
421.77	33.426
422.12	34.620
422.48	34.052
422.83	34.208
423.19	33.801
423.54	33.845
423.90	35.164
424.25	34.783
424.61	33.836
424.96	32.468
425.31	34.537
425.67	34.119
426.02	34.492
426.38	33.722
426.73	35.223
427.09	35.231
427.44	33.258
427.79	34.991
428.15	35.003
428.50	35.314
428.85	34.568
429.21	34.198
429.56	34.197
429.92	33.864
430.27	33.914
430.62	34.165
430.98	33.882
431.33	33.367
431.68	33.185
432.04	33.420
432.39	34.523
432.74	34.602
433.10	34.330
433.45	34.176
433.80	34.970
434.16	34.314
434.51	34.727
434.86	34.948
435.22	35.008
435.57	35.388
435.92	34.604
436.28	35.023
436.63	34.522
436.98	34.628
437.34	35.160
437.69	33.875
438.04	34.032
438.39	34.267
438.75	34.744
439.10	33.567
439.45	34.878
439.81	34.297
440.16	33.902
440.51	34.009
440.86	35.670
441.22	35.173
441.57	35.013
441.92	33.810
442.27	34.175
442.63	33.130
442.98	34.321
443.33	34.280
443.68	35.010
444.03	34.402
444.39	34.181
444.74	34.576
445.09	33.649
445.44	34.697
445.79	33.577
446.15	34.684
446.50	33.966
446.85	34.861
447.20	33.781
447.55	34.258
447.91	34.843
448.26	34.345
448.61	34.163
448.96	34.477
449.31	34.653
449.66	34.441
450.02	34.360
450.37	34.981
450.72	35.537
451.07	33.915
451.42	34.914
451.77	35.052
452.12	34.884
452.47	34.447
452.83	35.042
453.18	35.135
453.53	34.517
453.88	35.657
454.23	35.445
454.58	34.907
454.93	34.887
455.28	35.373
455.63	35.284
455.98	34.631
456.34	35.684
456.69	35.488
457.04	34.368
457.39	34.971
457.74	35.304
458.09	35.093
458.44	34.502
458.79	34.218
459.14	34.915
459.49	34.315
459.84	35.217
460.19	33.955
460.54	34.701
460.89	34.701
461.24	35.567
461.59	35.204
461.94	34.515
462.29	35.069
462.64	34.736
462.99	34.677
463.34	35.321
463.69	35.995
464.04	36.039
464.39	34.917
464.74	34.291
465.09	34.591
465.44	34.712
465.79	34.948
466.14	34.340
466.49	34.292
466.84	34.615
467.19	34.798
467.54	34.535
467.89	34.214
468.24	34.858
468.59	34.583
468.94	34.601
469.29	35.186
469.64	34.984
469.99	35.026
470.34	34.598
470.68	34.138
471.03	35.957
471.38	35.960
471.73	34.030
472.08	35.160
472.43	35.009
472.78	35.083
473.13	34.481
473.48	34.413
473.83	34.747
474.17	34.711
474.52	34.775
474.87	33.883
475.22	35.066
475.57	34.260
475.92	34.747
476.27	33.678
476.61	34.370
476.96	34.796
477.31	35.116
477.66	35.266
478.01	33.780
478.36	34.140
478.70	34.938
479.05	34.310
479.40	35.169
479.75	34.906
480.10	34.947
480.45	34.967
480.79	33.825
481.14	34.189
481.49	34.629
481.84	33.993
482.19	34.847
482.53	34.212
482.88	34.722
483.23	33.514
483.58	35.189
483.92	35.101
484.27	34.375
484.62	34.847
484.97	33.346
485.31	33.624
485.66	32.710
486.01	32.124
486.36	31.661
486.70	31.448
487.05	32.447
487.40	31.933
487.75	32.676
488.09	32.756
488.44	33.238
488.79	33.704
489.13	33.819
489.48	33.560
489.83	34.112
490.17	33.980
490.52	34.496
490.87	33.922
491.22	34.973
491.56	35.002
491.91	33.961
492.26	34.343
492.60	35.216
492.95	35.342
493.30	34.941
493.64	34.232
493.99	35.018
494.34	34.155
494.68	34.971
495.03	34.710
495.37	35.164
495.72	35.291
496.07	34.906
496.41	34.405
496.76	34.065
497.11	34.919
497.45	35.028
497.80	35.728
498.14	34.813
498.49	34.355
498.84	34.860
499.18	34.963
499.53	34.773
499.87	34.546
500.22	34.546
500.56	34.958
500.91	35.482
501.26	35.691
501.60	35.018
501.95	34.229
502.29	35.556
502.64	34.407
502.98	34.638
503.33	35.635
503.67	34.305
504.02	35.065
504.36	34.661
504.71	36.045
505.06	34.819
505.40	34.207
505.75	34.471
506.09	35.744
506.44	34.962
506.78	35.870
507.13	35.676
507.47	34.740
507.82	35.377
508.16	37.188
508.51	34.976
508.85	35.138
509.19	35.242
509.54	35.693
509.88	35.455
510.23	35.245
510.57	34.894
510.92	35.365
511.26	36.145
511.61	35.204
511.95	35.341
512.30	35.950
512.64	34.891
512.98	35.623
513.33	36.117
513.67	35.629
514.02	35.688
514.36	35.099
514.70	36.160
515.05	35.749
515.39	36.787
515.74	36.632
516.08	36.547
516.42	38.197
516.77	35.520
517.11	36.107
517.46	36.261
517.80	35.991
518.14	36.845
518.49	36.659
518.83	35.330
519.17	37.105
519.52	36.756
519.86	36.349
520.20	37.973
520.55	36.800
520.89	36.494
521.23	37.091
521.58	35.972
521.92	36.560
522.26	36.019
522.61	36.780
522.95	36.456
523.29	37.310
523.64	36.185
523.98	36.561
524.32	36.505
524.66	38.087
525.01	37.219
525.35	37.478
525.69	37.267
526.04	37.656
526.38	35.550
526.72	37.530
527.06	37.493
527.41	37.606
527.75	36.945
528.09	36.183
528.43	37.828
528.78	38.223
529.12	38.471
529.46	36.645
529.80	38.084
530.15	36.948
530.49	37.064
530.83	36.258
531.17	37.515
531.51	36.665
531.86	37.681
532.20	36.959
532.54	37.225
532.88	35.978
533.22	36.929
533.57	38.316
533.91	35.664
534.25	36.065
534.59	37.368
534.93	36.689
535.27	35.344
535.62	35.589
535.96	36.229
536.30	37.782
536.64	36.832
536.98	36.123
537.32	37.000
537.66	36.990
538.01	36.533
538.35	36.494
538.69	36.772
539.03	36.381
539.37	36.226
539.71	37.407
540.05	36.246
540.39	37.358
540.73	37.025
541.07	36.010
541.42	37.376
541.76	36.806
542.10	35.697
542.44	36.845
542.78	37.382
543.12	36.503
543.46	36.842
543.80	37.155
544.14	37.771
544.48	35.949
544.82	36.697
545.16	35.398
545.50	36.816
545.84	37.121
546.18	38.947
546.52	37.967
546.86	37.524
547.20	36.499
547.54	35.782
547.88	35.827
548.22	36.187
548.56	36.712
548.90	37.129
549.24	36.702
549.58	37.178
549.92	37.917
550.26	38.540
550.60	37.259
550.94	37.110
551.28	37.862
551.62	38.414
551.96	36.689
552.30	37.640
552.64	37.735
552.98	36.856
553.32	37.324
553.66	36.547
554.00	36.615
554.34	38.415
554.68	37.769
555.02	36.931
555.36	37.965
555.69	37.565
556.03	37.070
556.37	36.074
556.71	37.875
557.05	35.911
557.39	38.333
557.73	37.332
558.07	37.693
558.41	38.040
558.75	38.372
559.08	38.456
559.42	38.153
559.76	38.346
560.10	37.577
560.44	37.027
560.78	37.660
561.12	37.190
561.45	36.671
561.79	36.392
562.13	36.892
562.47	36.145
562.81	36.955
563.15	36.910
563.48	35.342
563.82	37.804
564.16	36.940
564.50	36.890
564.84	36.778
565.17	35.948
565.51	37.131
565.85	37.323
566.19	37.202
566.52	37.184
566.86	37.478
567.20	37.528
567.54	36.245
567.88	36.672
568.21	35.696
568.55	36.381
568.89	35.812
569.23	35.634
569.56	35.104
569.90	34.064
570.24	34.276
570.57	34.101
570.91	33.448
571.25	33.096
571.59	32.685
571.92	32.831
572.26	32.668
572.60	33.046
572.93	33.094
573.27	33.487
573.61	32.160
573.95	32.893
574.28	32.889
574.62	32.650
574.96	32.075
575.29	32.330
575.63	32.250
575.97	32.254
576.30	32.017
576.64	32.450
576.98	32.412
577.31	32.587
577.65	32.695
577.98	32.153
578.32	32.044
578.66	32.115
578.99	31.991
579.33	32.318
579.67	32.010
580.00	32.263
580.34	32.119
580.67	32.192
581.01	31.929
581.35	32.260
581.68	31.664
582.02	31.694
582.35	31.571
582.69	31.865
583.02	31.724
583.36	32.293
583.70	32.257
584.03	33.308
584.37	33.064
584.70	31.550
585.04	32.334
585.37	31.650
585.71	32.652
586.04	31.947
586.38	32.607
586.72	32.844
587.05	32.707
587.39	32.212
587.72	32.642
588.06	32.878
588.39	33.035
588.73	33.642
589.06	33.586
589.40	33.646
589.73	33.497
590.07	34.523
590.40	33.763
590.73	35.072
591.07	34.345
591.40	34.212
591.74	34.172
592.07	34.193
592.41	34.093
592.74	33.761
593.08	33.366
593.41	32.855
593.75	32.884
594.08	33.446
594.41	32.910
594.75	33.699
595.08	33.333
595.42	33.509
595.75	32.906
596.09	34.237
596.42	33.139
596.75	34.335
597.09	34.668
597.42	33.388
597.75	34.199
598.09	33.730
598.42	34.149
598.76	33.192
599.09	33.946
599.42	33.183
599.76	33.277
600.09	32.441
600.42	33.046
600.76	32.835
601.09	33.310
601.42	32.700
601.76	33.369
602.09	34.474
602.42	33.457
602.76	33.435
603.09	34.578
603.42	33.761
603.76	33.695
604.09	33.695
604.42	33.484
604.76	34.058
605.09	33.878
605.42	33.848
605.75	33.912
606.09	34.277
606.42	33.972
606.75	33.929
607.09	33.675
607.42	34.512
607.75	34.475
608.08	33.509
608.42	34.060
608.75	34.018
609.08	34.008
609.41	35.227
609.75	35.394
610.08	35.117
610.41	34.651
610.74	33.896
611.07	35.243
611.41	34.615
611.74	35.229
612.07	35.116
612.40	34.747
612.73	35.547
613.07	35.327
613.40	35.890
613.73	35.197
614.06	34.900
614.39	35.152
614.72	35.309
615.06	34.372
615.39	35.000
615.72	34.269
616.05	35.460
616.38	35.616
616.71	35.865
617.05	34.926
617.38	35.506
617.71	35.433
618.04	35.951
618.37	34.908
618.70	35.277
619.03	36.691
619.36	36.621
619.69	36.016
620.03	37.639
620.36	37.508
620.69	37.867
621.02	37.092
621.35	36.748
621.68	38.274
622.01	38.229
622.34	37.582
622.67	37.570
623.00	36.487
623.33	37.517
623.66	37.924
623.99	38.014
624.32	37.805
624.65	37.196
624.99	38.810
625.32	37.609
625.65	36.828
625.98	37.169
626.31	38.501
626.64	37.206
626.97	36.878
627.30	37.500
627.63	39.089
627.96	37.872
628.29	38.861
628.62	37.725
628.95	38.032
629.28	40.140
629.61	39.719
629.94	39.067
630.26	39.168
630.59	40.248
630.92	39.193
631.25	40.254
631.58	42.237
631.91	40.152
632.24	39.456
632.57	39.686
632.90	41.925
633.23	41.448
633.56	40.885
633.89	40.729
634.22	42.842
634.55	41.183
634.88	41.292
635.20	41.816
635.53	43.322
635.86	40.716
636.19	40.180
636.52	40.973
636.85	39.914
637.18	41.062
637.51	41.564
637.83	42.449
638.16	41.852
638.49	41.437
638.82	42.488
639.15	41.011
639.48	42.536
639.81	42.002
640.13	43.681
640.46	42.984
640.79	42.653
641.12	41.995
641.45	43.984
641.77	44.122
642.10	42.972
642.43	44.523
642.76	43.892
643.09	43.804
643.41	43.899
643.74	44.317
644.07	45.575
644.40	45.710
644.73	45.345
645.05	45.765
645.38	46.861
645.71	45.220
646.04	45.344
646.36	42.723
646.69	45.120
647.02	44.960
647.35	42.992
647.67	43.760
648.00	45.603
648.33	42.406
648.66	42.121
648.98	42.319
649.31	40.621
649.64	40.664
649.96	42.817
650.29	40.000
650.62	43.594
650.94	44.729
651.27	47.368
651.60	44.444
651.92	43.318
652.25	44.724
652.58	43.830
652.90	43.263
653.23	44.756
653.56	43.917
653.88	42.291
654.21	43.255
654.54	43.631
654.86	41.593
655.19	42.612
655.52	35.775
655.84	29.093
656.17	32.683
656.49	47.021
656.82	54.027
657.15	43.539
657.47	32.898
657.80	24.105
658.13	18.967
658.45	25.762
658.78	31.156
659.10	32.298
659.43	33.070
659.75	34.400
660.08	35.401
660.41	38.929
660.73	41.280
661.06	44.144
661.38	46.167
661.71	45.504
662.03	45.247
662.36	45.905
662.68	43.575
663.01	45.586
663.33	46.415
663.66	46.746
663.98	47.024
664.31	46.455
664.63	48.276
664.96	46.717
665.28	45.574
665.61	44.528
665.93	42.075
666.26	45.047
666.58	43.853
666.91	45.560
667.23	46.586
667.56	46.407
667.88	47.925
668.21	46.926
668.53	46.573
668.86	46.493
669.18	45.418
669.50	42.562
669.83	48.255
670.15	44.075
670.48	42.383
670.80	46.016
671.13	45.817
671.45	44.689
671.77	44.527
672.10	44.165
672.42	43.586
672.75	43.038
673.07	41.812
673.39	41.374
673.72	45.848
674.04	44.624
674.37	46.642
674.69	44.610
675.01	43.097
675.34	40.310
675.66	47.266
675.98	47.140
676.31	44.800
676.63	43.340
676.95	45.040
677.28	44.828
677.60	47.686
677.92	41.270
678.25	44.961
678.57	45.624
678.89	45.027
679.22	42.831
679.54	42.171
679.86	44.154
680.18	42.179
680.51	40.630
680.83	42.061
681.15	43.847
681.48	43.229
681.80	41.331
682.12	44.291
682.44	43.423
682.77	40.391
683.09	45.437
683.41	46.531
683.73	47.638
684.06	41.667
684.38	46.899
684.70	41.367
685.02	40.278
685.34	44.542
685.67	43.891
685.99	42.529
686.31	40.832
686.63	40.000
686.96	42.974
687.28	41.779
687.60	41.297
687.92	41.541
688.24	42.414
688.56	43.772
688.89	41.683
689.21	42.197
689.53	44.466
689.85	39.837
690.17	42.524
690.49	45.161
690.82	43.067
691.14	45.455
691.46	43.326
691.78	43.080
692.10	43.130
692.42	42.287
692.74	41.473
693.06	42.829
693.39	43.083
693.71	42.829
694.03	43.787
694.35	45.382
694.67	43.992
694.99	44.568
695.31	44.820
695.63	43.665
695.95	43.439
696.27	44.690
696.59	46.301
696.91	44.557
697.23	46.380
697.56	40.456
697.88	39.920
698.20	42.453
698.52	39.883
698.84	43.326
699.16	44.776
699.48	41.949
699.80	44.880
700.12	44.342
700.44	44.393
700.76	45.823
701.08	44.909
701.40	43.896
701.72	50.000
702.04	46.883
702.36	50.269
702.68	44.415
703.00	43.860
703.32	48.387
703.64	45.340
703.96	45.573
704.28	43.915
704.60	46.761
704.91	47.339
705.23	50.852
705.55	46.291
705.87	51.111
706.19	50.157
706.51	50.470
706.83	48.968
707.15	47.594
707.47	46.973
707.79	45.517
708.11	41.950
708.43	44.944
708.74	43.439
709.06	43.488
709.38	43.672
709.70	42.507
710.02	45.652
710.34	49.171
710.66	44.444
710.98	45.628
711.29	44.290
711.61	44.290
711.93	50.456
712.25	49.096
712.57	46.624
712.89	46.970
713.20	47.604
713.52	45.794
713.84	47.130
714.16	44.058
714.48	41.499
714.80	44.986
715.11	46.809
715.43	45.251
715.75	42.817
716.07	45.376
716.39	49.714
716.70	47.352
717.02	48.148
717.34	48.921
717.66	50.000
717.97	53.788
718.29	51.056
718.61	45.270
718.93	50.173
719.24	51.007
719.56	46.207
719.88	44.268
720.20	47.419
720.51	44.771
720.83	52.508
721.15	49.320
721.46	50.000
721.78	49.477
722.10	47.917
722.42	47.826
722.73	48.736
723.05	48.421
723.37	48.763
723.68	46.484
724.00	45.833
724.32	47.529
724.63	50.000
724.95	45.882
725.27	49.071
725.58	48.529
725.90	42.606
726.22	46.918
726.53	46.488
726.85	49.837
727.16	50.336
727.48	45.847
727.80	46.403
728.11	48.214
728.43	47.826
728.74	49.301
729.06	44.444
729.38	47.719
729.69	49.333
730.01	48.684
730.32	46.644
730.64	48.837
730.96	41.742
731.27	41.896
731.59	43.103
731.90	43.175
732.22	42.286
732.53	43.875
732.85	44.444
733.16	43.675
733.48	42.633
733.80	43.768
734.11	47.239
734.43	42.105
734.74	41.287
735.06	46.825
735.37	40.206
735.69	46.377
736.00	46.789
736.32	43.939
736.63	42.902
736.95	40.994
737.26	46.037
737.58	43.558
737.89	43.373
738.21	41.391
738.52	45.819
738.83	49.084
739.15	46.341
739.46	44.138
739.78	47.279
740.09	40.233
740.41	44.785
740.72	43.810
741.04	47.203
741.35	46.875
741.66	43.083
741.98	49.785
742.29	53.704
742.61	43.363
742.92	45.763
743.23	46.000
743.55	50.566
743.86	48.235
744.18	45.763
744.49	49.587
744.80	52.074
745.12	56.250
745.43	55.607
745.74	52.000
746.06	50.877
746.37	54.884
746.68	49.558
747.00	47.534
747.31	48.319
747.62	47.131
747.94	45.923
748.25	48.249
748.56	50.424
748.88	54.018
749.19	48.372
749.50	44.749
749.82	46.091
750.13	48.617
750.44	43.667
750.75	44.631
751.07	42.763
751.38	46.205
751.69	43.434
752.01	45.455
752.32	43.522
752.63	46.644
752.94	43.357
753.26	48.438
753.57	46.304
753.88	47.940
754.19	46.570
754.51	48.505
754.82	40.940
755.13	43.581
755.44	46.667
755.75	48.797
756.07	43.836
756.38	38.562
756.69	41.875
757.00	45.401
757.31	44.507
757.63	38.292
757.94	40.691
758.25	40.338
758.56	37.300
758.87	42.356
759.18	43.605
759.50	44.377
759.81	40.653
760.12	38.483
760.43	38.655
760.74	38.481
761.05	39.257
761.36	41.146
761.67	38.814
761.99	41.972
762.30	43.087
762.61	43.403
762.92	44.697
763.23	43.019
763.54	44.231
763.85	44.747
764.16	43.403
764.47	41.216
764.78	40.717
765.10	38.110
765.41	36.648
765.72	38.122
766.03	38.369
766.34	46.690
766.65	46.008
766.96	47.773
767.27	49.533
767.58	46.535
767.89	55.801
768.20	59.756
768.51	51.531
768.82	47.807
769.13	42.745
769.44	40.602
769.75	44.944
770.06	46.218
770.37	45.175
770.68	47.556
770.99	46.610
771.30	49.791
771.61	46.923
771.92	41.985
772.23	46.774
772.54	48.889
772.85	51.980
773.16	51.630
773.47	46.111
773.78	50.990
774.09	44.886
774.39	49.697
774.70	45.882
775.01	49.342
775.32	50.932
775.63	55.479
775.94	56.790
776.25	54.483
776.56	60.305
776.87	58.015
777.18	53.788
777.48	59.843
777.79	54.615
778.10	61.364
778.41	61.940
778.72	54.135
779.03	47.436
779.34	51.351
779.65	54.658
779.95	53.416
780.26	47.619
780.57	60.544
780.88	51.773
781.19	67.500
781.50	55.030
781.80	56.831
782.11	47.619
782.42	51.149
782.73	48.023
783.04	49.032
783.34	58.915
783.65	42.177
783.96	55.484
784.27	46.358
784.57	44.737
784.88	54.348
785.19	51.667
785.50	61.207
785.81	63.566
786.11	54.815
786.42	62.992
786.73	63.063
787.04	69.811
787.34	54.472
787.65	60.606
787.96	62.879
788.26	57.480
788.57	54.745
788.88	51.408
789.19	56.489
789.49	62.162
789.80	56.250
790.11	64.463
790.41	67.593
790.72	61.111
791.03	64.423
791.33	75.758
791.64	71.579
791.95	74.737
792.25	71.875
792.56	66.000
792.87	74.390
793.17	71.591
793.48	77.647
793.79	71.264
794.09	65.909
794.40	62.931
794.70	53.968
795.01	64.615
795.32	54.198
795.62	48.718
795.93	61.345
796.23	56.098
796.54	61.224
796.85	73.864
797.15	85.714
797.46	80.488
797.76	67.500
798.07	90.667
798.37	77.500
798.68	80.000
798.99	70.732
799.29	61.333
799.60	52.326
799.90	73.684
800.21	65.152
800.51	70.423
800.82	96.552
801.12	89.231
801.43	86.667
801.73	82.759
802.04	81.818
802.34	79.452
802.65	90.196
802.95	89.130
803.26	64.516
803.56	100.000
803.87	89.552
804.17	85.714
804.48	79.245
804.78	88.889
805.09	75.758
805.39	84.127
805.70	85.965
806.00	58.571
806.30	82.812
806.61	68.235
806.91	67.778
807.22	61.957
807.52	68.421
807.83	80.263
808.13	66.667
808.43	88.710
808.74	79.452
809.04	80.357
809.35	73.529
809.65	72.727
809.95	103.922
810.26	96.296
810.56	101.563
810.86	89.796
811.17	96.491
811.47	104.348
811.77	63.793
812.08	81.034
812.38	100.000
812.69	88.095
812.99	97.778
813.29	134.286
813.59	119.355
813.90	65.517
814.20	104.918
814.50	90.000
814.81	96.491
815.11	100.000
815.41	83.929
815.72	94.643
816.02	94.000
816.32	107.317
816.62	103.448
816.93	121.212
817.23	129.268
817.53	100.000
817.84	100.000
818.14	92.857
818.44	91.667
818.74	115.094
819.04	89.744
819.35	124.242
819.65	113.462
819.95	125.926
820.25	89.362
820.56	124.324
820.86	126.316
821.16	85.106
821.46	113.158
821.76	78.182
822.07	107.143
822.37	94.737
822.67	113.953
822.97	92.105
823.27	113.043
823.57	115.625
823.88	112.821
824.18	118.182
824.48	108.696
824.78	144.444
825.08	147.826
825.38	151.724
825.69	141.176
825.99	63.830
826.29	100.000
826.59	134.286
826.89	173.333
827.19	102.857
827.49	158.065
827.79	146.154
828.09	88.095
828.39	113.889
828.70	105.405
829.00	167.857
829.30	206.250
829.60	122.222
829.90	119.355
830.20	90.909
830.50	132.432
830.80	216.667
831.10	157.692
831.40	185.714
831.70	187.500
832.00	123.333
832.30	200.000
832.60	162.500
832.90	157.576
833.20	185.000
833.50	139.474
833.80	108.824
834.10	105.263
834.40	178.947
834.70	120.000
835.00	136.000
835.30	54.054
835.60	156.250
835.90	118.919
836.20	153.846
836.50	140.909
836.80	114.634
837.10	182.609
837.40	361.538
837.70	126.316
838.00	196.667
838.30	162.500
838.60	152.000
838.90	210.000
839.19	212.500
839.49	146.667
839.79	124.138
840.09	165.385
840.39	226.667
840.69	215.789
840.99	104.762
841.29	178.261
841.59	205.000
841.88	176.000
842.18	411.111
842.48	146.429
842.78	133.333
843.08	315.385
843.38	190.909
843.68	271.429
843.97	457.143
844.27	134.783
844.57	1750.000
844.87	278.571
845.17	205.556
845.47	128.571
845.76	183.333
846.06	385.714
846.36	200.000
846.66	284.615
846.96	237.500
847.25	276.923
847.55	189.474
847.85	261.111
848.15	660.000
848.44	281.818
848.74	180.952
849.04	191.667
849.34	194.118
849.63	250.000
849.93	231.250
850.23	1100.000
850.53	375.000
850.82	300.000
851.12	176.471
851.42	175.000
851.71	250.000
852.01	0.000
852.31	200.000
852.61	340.000
852.90	154.167
853.20	366.667
853.50	-1700.000
853.79	164.000
854.09	131.250
854.39	110.345
854.68	120.690
854.98	223.810
855.28	145.161
855.57	235.714
855.87	233.333
856.17	155.556
856.46	178.947
856.76	116.129
857.05	241.176
857.35	254.545
857.65	253.846
857.94	165.000
858.24	355.556
858.53	278.571
858.83	557.143
859.13	165.217
859.42	355.556
859.72	337.500
860.01	300.000
860.31	800.000
860.60	370.000
860.90	425.000
861.20	230.769
861.49	428.571
861.79	-3500.000
862.08	542.857
862.38	411.111
862.67	171.429
862.97	450.000
863.26	143.333
863.56	750.000
863.85	269.231
864.15	223.529
864.44	238.889
864.74	333.333
865.03	327.273
865.33	325.000
865.62	253.333
865.92	650.000
866.21	525.000
866.51	720.000
866.80	211.111
867.10	1166.667
867.39	3600.000
867.69	500.000
867.98	825.000
868.27	223.810
868.57	300.000
868.86	875.000
869.16	142.857
869.45	3000.000
869.75	-466.667
870.04	675.000
870.33	720.000
870.63	400.000
870.92	152.941
871.22	650.000
871.51	385.714
871.80	350.000
872.10	292.308
>>>>>End Processed Spectral Data<<<<<
