SpectraSuite Data File
++++++++++++++++++++++++++++++++++++
Date: Tue May 12 16:26:06 PDT 2015
User: schluterlab
Dark Spectrum Present: Yes
Reference Spectrum Present: Yes
Number of Sampled Component Spectra: 1
Spectrometers: USB2E3373
Integration Time (usec): 3000 (USB2E3373)
Spectra Averaged: 3 (USB2E3373)
Boxcar Smoothing: 0 (USB2E3373)
Correct for Electrical Dark: No (USB2E3373)
Strobe/Lamp Enabled: No (USB2E3373)
Correct for Detector Non-linearity: No (USB2E3373)
Correct for Stray Light: No (USB2E3373)
Number of Pixels in Processed Spectrum: 2048
>>>>>Begin Processed Spectral Data<<<<<
178.53	0.000
178.91	-208.333
179.29	-750.000
179.67	-3600.000
180.04	-113.333
180.42	675.000
180.80	1400.000
181.18	0.000
181.56	-275.000
181.94	0.000
182.31	1000.000
182.69	-2000.000
183.07	485.714
183.45	-4500.000
183.83	-1500.000
184.20	370.000
184.58	414.286
184.96	-276.923
185.34	-141.667
185.72	1800.000
186.09	-925.000
186.47	-3000.000
186.85	933.333
187.23	520.000
187.61	2300.000
187.98	512.500
188.36	300.000
188.74	325.000
189.12	375.000
189.49	1100.000
189.87	0.000
190.25	575.000
190.63	3400.000
191.00	-141.667
191.38	-4600.000
191.76	-750.000
192.14	487.500
192.51	-2300.000
192.89	1750.000
193.27	1200.000
193.65	-1000.000
194.02	-760.000
194.40	500.000
194.78	-207.143
195.15	226.667
195.53	-2900.000
195.91	-640.000
196.29	4300.000
196.66	268.750
197.04	825.000
197.42	-1350.000
197.79	775.000
198.17	366.667
198.55	0.000
198.92	557.143
199.30	1233.333
199.68	2050.000
200.05	600.000
200.43	-450.000
200.81	205.556
201.18	2600.000
201.56	333.333
201.94	-775.000
202.31	-400.000
202.69	-520.000
203.07	2600.000
203.44	-466.667
203.82	366.667
204.19	540.000
204.57	-1700.000
204.95	-800.000
205.32	-560.000
205.70	533.333
206.08	850.000
206.45	-700.000
206.83	377.778
207.20	205.263
207.58	283.333
207.96	720.000
208.33	0.000
208.71	500.000
209.08	580.000
209.46	-2900.000
209.84	-625.000
210.21	880.000
210.59	-640.000
210.96	316.667
211.34	-775.000
211.71	372.727
212.09	1025.000
212.46	1400.000
212.84	-500.000
213.22	488.889
213.59	-2400.000
213.97	330.000
214.34	1000.000
214.72	1100.000
215.09	933.333
215.47	-3100.000
215.84	-330.000
216.22	-312.500
216.59	0.000
216.97	0.000
217.34	1950.000
217.72	-1650.000
218.09	1333.333
218.47	487.500
218.84	1100.000
219.22	1333.333
219.59	933.333
219.97	485.714
220.34	388.889
220.72	1850.000
221.09	4000.000
221.47	200.000
221.84	1333.333
222.22	390.000
222.59	277.778
222.97	200.000
223.34	237.500
223.72	-1600.000
224.09	1466.667
224.46	246.154
224.84	-900.000
225.21	377.778
225.59	220.000
225.96	1166.667
226.34	-400.000
226.71	-475.000
227.08	-400.000
227.46	0.000
227.83	-566.667
228.21	-1700.000
228.58	391.667
228.95	900.000
229.33	300.000
229.70	850.000
230.08	315.385
230.45	2700.000
230.82	-725.000
231.20	-900.000
231.57	-966.667
231.95	440.000
232.32	291.667
232.69	566.667
233.07	241.667
233.44	-1450.000
233.81	300.000
234.19	188.889
234.56	200.000
234.93	223.529
235.31	165.000
235.68	206.250
236.05	146.429
236.43	148.148
236.80	200.000
237.17	168.966
237.55	171.875
237.92	125.000
238.29	133.333
238.67	125.000
239.04	119.512
239.41	87.500
239.79	97.500
240.16	89.583
240.53	77.049
240.91	68.116
241.28	79.661
241.65	77.273
242.02	85.915
242.40	68.571
242.77	58.242
243.14	56.962
243.51	76.768
243.89	57.009
244.26	64.486
244.63	60.396
245.00	56.881
245.38	50.847
245.75	46.970
246.12	49.630
246.49	47.518
246.87	50.000
247.24	47.333
247.61	51.875
247.98	42.857
248.36	43.030
248.73	48.980
249.10	42.857
249.47	43.000
249.84	40.299
250.22	41.622
250.59	45.000
250.96	38.397
251.33	40.465
251.70	41.518
252.08	40.336
252.45	36.255
252.82	38.023
253.19	43.083
253.56	36.154
253.94	37.319
254.31	34.496
254.68	38.676
255.05	39.310
255.42	38.686
255.79	37.459
256.16	33.220
256.54	38.961
256.91	34.314
257.28	34.114
257.65	31.975
258.02	35.398
258.39	37.536
258.76	33.623
259.14	31.143
259.51	33.528
259.88	36.474
260.25	33.516
260.62	35.068
260.99	29.752
261.36	34.262
261.73	32.979
262.10	32.461
262.47	35.000
262.85	30.933
263.22	36.504
263.59	33.760
263.96	34.336
264.33	31.605
264.70	34.889
265.07	34.146
265.44	34.404
265.81	33.491
266.18	32.265
266.55	32.861
266.92	32.215
267.29	31.798
267.66	32.511
268.03	32.960
268.40	33.404
268.77	33.921
269.14	31.453
269.51	30.512
269.88	33.265
270.25	29.590
270.62	33.262
270.99	31.237
271.36	31.707
271.73	29.560
272.10	30.909
272.47	29.762
272.84	28.343
273.21	28.926
273.58	32.389
273.95	32.033
274.32	28.794
274.69	30.906
275.06	30.055
275.43	30.268
275.80	31.509
276.17	32.169
276.54	30.654
276.91	32.276
277.28	31.204
277.65	30.996
278.02	28.676
278.39	30.036
278.76	28.793
279.13	30.249
279.50	29.455
279.87	28.678
280.23	29.282
280.60	30.657
280.97	29.655
281.34	29.538
281.71	29.913
282.08	30.427
282.45	27.703
282.82	29.264
283.19	29.571
283.56	28.760
283.92	29.479
284.29	27.953
284.66	28.235
285.03	28.524
285.40	27.934
285.77	25.154
286.14	28.483
286.51	27.301
286.87	25.633
287.24	26.126
287.61	26.596
287.98	27.463
288.35	28.444
288.72	27.162
289.08	28.228
289.45	26.829
289.82	28.281
290.19	26.354
290.56	27.365
290.93	26.475
291.29	26.105
291.66	26.271
292.03	26.087
292.40	25.339
292.77	24.652
293.13	25.107
293.50	23.752
293.87	24.661
294.24	25.315
294.60	27.591
294.97	27.133
295.34	25.896
295.71	26.807
296.08	26.267
296.44	24.905
296.81	23.945
297.18	23.954
297.55	27.217
297.91	25.616
298.28	26.449
298.65	25.644
299.02	25.090
299.38	26.379
299.75	24.390
300.12	25.459
300.48	26.815
300.85	26.698
301.22	24.535
301.59	24.175
301.95	25.788
302.32	26.193
302.69	26.697
303.05	28.058
303.42	25.561
303.79	27.194
304.15	26.733
304.52	26.638
304.89	27.932
305.25	28.810
305.62	27.719
305.99	27.391
306.35	26.842
306.72	27.680
307.09	28.261
307.45	29.039
307.82	28.498
308.19	28.969
308.55	28.600
308.92	29.735
309.29	30.572
309.65	28.147
310.02	30.122
310.38	29.910
310.75	30.183
311.12	29.885
311.48	32.336
311.85	30.725
312.22	32.378
312.58	30.904
312.95	32.330
313.31	33.052
313.68	33.677
314.05	34.890
314.41	32.682
314.78	34.659
315.14	34.502
315.51	36.329
315.87	35.128
316.24	35.574
316.61	36.616
316.97	36.697
317.34	38.095
317.70	38.894
318.07	40.036
318.43	38.664
318.80	39.229
319.16	39.773
319.53	39.381
319.89	40.143
320.26	44.134
320.62	41.484
320.99	42.707
321.35	42.115
321.72	44.782
322.08	45.429
322.45	45.686
322.81	45.746
323.18	46.892
323.54	46.864
323.91	49.411
324.27	49.425
324.64	48.875
325.00	50.431
325.37	51.602
325.73	53.035
326.10	52.693
326.46	53.344
326.83	53.520
327.19	54.217
327.56	54.872
327.92	57.213
328.29	55.565
328.65	56.849
329.01	56.544
329.38	56.853
329.74	56.618
330.11	58.645
330.47	57.886
330.84	57.118
331.20	58.037
331.56	59.240
331.93	60.393
332.29	58.673
332.66	61.565
333.02	59.364
333.38	62.042
333.75	59.216
334.11	60.990
334.48	61.709
334.84	59.882
335.20	60.565
335.57	59.782
335.93	59.546
336.29	57.048
336.66	61.750
337.02	58.768
337.38	60.103
337.75	61.824
338.11	60.928
338.47	60.034
338.84	59.865
339.20	60.260
339.56	60.976
339.93	59.699
340.29	59.328
340.65	61.861
341.02	58.568
341.38	60.099
341.74	60.299
342.11	60.434
342.47	60.459
342.83	59.885
343.20	58.610
343.56	58.221
343.92	59.950
344.28	59.569
344.65	59.821
345.01	58.889
345.37	58.734
345.73	60.556
346.10	59.681
346.46	61.404
346.82	58.951
347.19	59.815
347.55	59.875
347.91	59.139
348.27	58.249
348.63	59.494
349.00	58.568
349.36	60.311
349.72	60.550
350.08	60.093
350.45	59.558
350.81	62.003
351.17	59.553
351.53	60.508
351.89	59.130
352.26	58.806
352.62	60.256
352.98	60.660
353.34	61.402
353.70	60.168
354.07	61.077
354.43	60.292
354.79	59.529
355.15	60.184
355.51	60.952
355.87	59.413
356.24	60.508
356.60	58.980
356.96	59.136
357.32	59.457
357.68	60.132
358.04	60.638
358.40	59.895
358.77	61.458
359.13	59.159
359.49	59.822
359.85	62.100
360.21	59.510
360.57	60.657
360.93	60.895
361.29	60.029
361.66	60.925
362.02	59.162
362.38	60.390
362.74	59.519
363.10	60.238
363.46	60.083
363.82	60.168
364.18	61.238
364.54	61.946
364.90	60.040
365.26	60.791
365.62	60.152
365.98	60.840
366.35	60.828
366.71	61.346
367.07	60.000
367.43	60.175
367.79	59.574
368.15	59.701
368.51	59.890
368.87	60.190
369.23	61.123
369.59	59.474
369.95	61.678
370.31	59.685
370.67	60.444
371.03	60.084
371.39	60.734
371.75	61.061
372.11	60.911
372.47	60.890
372.83	61.591
373.19	59.836
373.55	61.581
373.91	60.428
374.27	60.979
374.63	60.475
374.99	60.849
375.35	62.231
375.71	61.873
376.07	61.207
376.42	60.806
376.78	61.785
377.14	61.927
377.50	59.738
377.86	60.922
378.22	60.999
378.58	61.562
378.94	62.221
379.30	60.764
379.66	60.807
380.02	61.935
380.38	61.066
380.74	61.246
381.09	60.981
381.45	60.809
381.81	61.348
382.17	61.966
382.53	61.788
382.89	61.266
383.25	62.522
383.61	60.634
383.97	61.668
384.32	60.398
384.68	62.270
385.04	61.665
385.40	61.566
385.76	60.971
386.12	62.523
386.48	61.884
386.83	62.164
387.19	61.837
387.55	61.779
387.91	61.894
388.27	61.511
388.62	60.153
388.98	59.534
389.34	60.738
389.70	61.262
390.06	62.378
390.42	61.937
390.77	61.057
391.13	61.798
391.49	61.283
391.85	61.354
392.20	60.846
392.56	60.394
392.92	60.079
393.28	60.706
393.64	60.034
393.99	60.522
394.35	59.800
394.71	60.072
395.07	59.976
395.42	61.007
395.78	60.703
396.14	61.145
396.50	60.830
396.85	60.915
397.21	60.890
397.57	60.132
397.92	59.792
398.28	60.452
398.64	61.082
399.00	58.846
399.35	59.045
399.71	59.879
400.07	58.847
400.42	60.060
400.78	59.707
401.14	60.188
401.49	60.253
401.85	60.950
402.21	59.988
402.57	60.563
402.92	60.727
403.28	59.427
403.63	59.211
403.99	60.615
404.35	60.023
404.70	61.193
405.06	59.686
405.42	60.203
405.77	59.757
406.13	59.111
406.49	59.579
406.84	58.940
407.20	60.788
407.55	59.877
407.91	60.434
408.27	61.189
408.62	60.260
408.98	60.260
409.34	58.445
409.69	60.548
410.05	58.736
410.40	59.541
410.76	59.416
411.11	60.130
411.47	59.753
411.83	58.875
412.18	60.386
412.54	59.459
412.89	59.292
413.25	58.894
413.60	59.112
413.96	59.725
414.31	59.917
414.67	60.708
415.03	59.962
415.38	59.621
415.74	59.255
416.09	60.400
416.45	60.763
416.80	61.642
417.16	59.325
417.51	60.446
417.87	60.513
418.22	60.571
418.58	61.019
418.93	59.964
419.29	60.136
419.64	60.024
420.00	61.337
420.35	60.627
420.71	61.202
421.06	61.154
421.42	61.313
421.77	61.355
422.12	60.805
422.48	59.373
422.83	60.714
423.19	59.989
423.54	60.285
423.90	61.325
424.25	62.356
424.61	61.521
424.96	62.225
425.31	60.208
425.67	62.738
426.02	61.526
426.38	61.669
426.73	62.464
427.09	62.989
427.44	62.465
427.79	62.379
428.15	63.406
428.50	63.429
428.85	63.374
429.21	63.371
429.56	61.017
429.92	62.456
430.27	61.925
430.62	60.255
430.98	61.078
431.33	60.232
431.68	61.877
432.04	62.856
432.39	63.172
432.74	63.934
433.10	64.507
433.45	65.422
433.80	64.424
434.16	63.216
434.51	64.809
434.86	65.269
435.22	64.506
435.57	63.960
435.92	65.111
436.28	64.977
436.63	63.803
436.98	64.977
437.34	64.954
437.69	65.174
438.04	64.892
438.39	65.382
438.75	65.980
439.10	65.353
439.45	64.726
439.81	66.917
440.16	66.208
440.51	65.541
440.86	66.382
441.22	65.476
441.57	65.512
441.92	65.153
442.27	65.979
442.63	65.091
442.98	64.170
443.33	66.042
443.68	65.392
444.03	65.269
444.39	66.055
444.74	65.787
445.09	67.299
445.44	65.356
445.79	66.667
446.15	66.263
446.50	67.458
446.85	67.082
447.20	66.716
447.55	67.809
447.91	68.354
448.26	67.732
448.61	67.717
448.96	67.865
449.31	68.647
449.66	67.996
450.02	66.991
450.37	68.129
450.72	69.256
451.07	67.714
451.42	68.998
451.77	68.786
452.12	68.009
452.47	68.591
452.83	69.746
453.18	70.150
453.53	68.384
453.88	68.629
454.23	69.843
454.58	68.298
454.93	69.834
455.28	69.890
455.63	68.499
455.98	68.472
456.34	69.970
456.69	69.817
457.04	69.391
457.39	69.543
457.74	69.932
458.09	68.557
458.44	69.058
458.79	68.966
459.14	68.358
459.49	69.706
459.84	70.761
460.19	70.565
460.54	69.972
460.89	68.230
461.24	69.702
461.59	71.259
461.94	69.681
462.29	69.908
462.64	71.608
462.99	71.721
463.34	71.355
463.69	72.353
464.04	71.387
464.39	70.177
464.74	70.106
465.09	70.284
465.44	71.382
465.79	70.005
466.14	69.210
466.49	71.026
466.84	69.900
467.19	72.056
467.54	69.970
467.89	72.066
468.24	71.917
468.59	71.071
468.94	71.558
469.29	71.717
469.64	72.862
469.99	72.558
470.34	71.727
470.68	73.241
471.03	72.448
471.38	73.775
471.73	73.024
472.08	73.973
472.43	74.426
472.78	73.496
473.13	71.214
473.48	72.066
473.83	72.674
474.17	73.799
474.52	72.571
474.87	72.371
475.22	72.987
475.57	71.721
475.92	72.100
476.27	72.416
476.61	72.547
476.96	71.996
477.31	73.573
477.66	74.342
478.01	73.698
478.36	74.305
478.70	72.308
479.05	74.791
479.40	74.157
479.75	74.131
480.10	73.717
480.45	72.736
480.79	73.180
481.14	73.276
481.49	73.468
481.84	73.263
482.19	73.668
482.53	72.903
482.88	73.297
483.23	73.297
483.58	73.923
483.92	74.543
484.27	72.389
484.62	73.048
484.97	72.030
485.31	71.503
485.66	70.664
486.01	67.467
486.36	66.848
486.70	66.530
487.05	67.777
487.40	68.946
487.75	69.658
488.09	70.057
488.44	71.606
488.79	71.711
489.13	73.311
489.48	74.271
489.83	73.853
490.17	73.369
490.52	75.926
490.87	75.216
491.22	75.266
491.56	75.845
491.91	74.866
492.26	75.857
492.60	77.312
492.95	75.759
493.30	75.933
493.64	74.933
493.99	75.716
494.34	75.168
494.68	76.405
495.03	76.246
495.37	76.452
495.72	75.618
496.07	74.843
496.41	74.935
496.76	75.390
497.11	75.793
497.45	75.362
497.80	76.784
498.14	76.283
498.49	75.441
498.84	77.196
499.18	75.366
499.53	76.252
499.87	75.202
500.22	76.647
500.56	77.577
500.91	76.902
501.26	76.849
501.60	77.231
501.95	76.299
502.29	77.911
502.64	75.915
502.98	75.145
503.33	76.169
503.67	75.717
504.02	74.877
504.36	76.878
504.71	76.963
505.06	77.710
505.40	76.837
505.75	76.801
506.09	77.088
506.44	77.491
506.78	77.741
507.13	78.090
507.47	77.584
507.82	77.664
508.16	77.756
508.51	77.536
508.85	78.205
509.19	78.316
509.54	77.637
509.88	79.115
510.23	77.745
510.57	75.965
510.92	78.621
511.26	79.719
511.61	78.188
511.95	77.949
512.30	77.150
512.64	77.674
512.98	79.293
513.33	78.330
513.67	78.250
514.02	78.701
514.36	79.387
514.70	78.880
515.05	78.956
515.39	81.524
515.74	81.465
516.08	80.501
516.42	80.929
516.77	79.520
517.11	80.747
517.46	80.065
517.80	80.066
518.14	81.239
518.49	80.209
518.83	79.725
519.17	79.867
519.52	80.721
519.86	80.763
520.20	80.329
520.55	81.402
520.89	81.839
521.23	83.470
521.58	80.952
521.92	81.458
522.26	81.813
522.61	82.709
522.95	82.402
523.29	80.994
523.64	79.884
523.98	82.101
524.32	79.239
524.66	81.507
525.01	82.308
525.35	80.790
525.69	81.758
526.04	82.094
526.38	82.401
526.72	81.504
527.06	80.662
527.41	81.923
527.75	81.680
528.09	80.554
528.43	81.879
528.78	81.515
529.12	82.962
529.46	81.005
529.80	80.432
530.15	79.670
530.49	82.010
530.83	80.987
531.17	81.857
531.51	81.852
531.86	79.287
532.20	80.284
532.54	82.423
532.88	82.573
533.22	80.987
533.57	80.781
533.91	79.604
534.25	78.938
534.59	80.175
534.93	77.816
535.27	77.632
535.62	78.238
535.96	79.610
536.30	81.779
536.64	80.311
536.98	79.799
537.32	81.000
537.66	80.357
538.01	79.814
538.35	80.474
538.69	79.005
539.03	77.799
539.37	80.218
539.71	78.889
540.05	79.508
540.39	80.252
540.73	80.380
541.07	79.862
541.42	79.851
541.76	80.025
542.10	77.312
542.44	80.424
542.78	78.603
543.12	78.834
543.46	78.509
543.80	80.639
544.14	79.319
544.48	78.893
544.82	78.471
545.16	77.838
545.50	78.611
545.84	79.356
546.18	81.404
546.52	79.344
546.86	79.046
547.20	78.165
547.54	78.087
547.88	77.737
548.22	78.142
548.56	75.545
548.90	75.386
549.24	79.280
549.58	78.737
549.92	79.699
550.26	79.446
550.60	80.439
550.94	79.986
551.28	79.862
551.62	80.897
551.96	79.595
552.30	80.092
552.64	79.288
552.98	78.222
553.32	78.553
553.66	79.349
554.00	77.606
554.34	79.827
554.68	79.973
555.02	80.041
555.36	79.189
555.69	78.992
556.03	77.261
556.37	78.840
556.71	79.400
557.05	76.737
557.39	77.867
557.73	79.717
558.07	78.471
558.41	80.260
558.75	79.070
559.08	81.916
559.42	80.172
559.76	81.183
560.10	78.734
560.44	77.770
560.78	77.621
561.12	79.275
561.45	76.783
561.79	78.152
562.13	78.016
562.47	77.547
562.81	78.920
563.15	77.182
563.48	74.348
563.82	77.979
564.16	77.612
564.50	74.563
564.84	76.960
565.17	74.926
565.51	77.032
565.85	78.038
566.19	76.607
566.52	77.256
566.86	76.182
567.20	75.506
567.54	74.345
567.88	73.813
568.21	71.992
568.55	72.422
568.89	71.168
569.23	70.104
569.56	69.768
569.90	67.194
570.24	68.109
570.57	67.197
570.91	67.083
571.25	65.332
571.59	64.185
571.92	63.482
572.26	63.693
572.60	63.954
572.93	65.785
573.27	64.848
573.61	63.590
573.95	63.596
574.28	63.645
574.62	62.180
574.96	62.048
575.29	61.558
575.63	61.484
575.97	61.295
576.30	61.934
576.64	62.613
576.98	61.528
577.31	62.665
577.65	61.287
577.98	60.631
578.32	59.809
578.66	60.848
578.99	60.877
579.33	61.592
579.67	61.135
580.00	61.591
580.34	60.662
580.67	60.470
581.01	61.137
581.35	60.246
581.68	59.494
582.02	58.903
582.35	59.578
582.69	59.603
583.02	60.011
583.36	60.662
583.70	61.264
584.03	62.540
584.37	62.039
584.70	61.359
585.04	60.338
585.37	60.618
585.71	60.854
586.04	60.570
586.38	60.929
586.72	62.059
587.05	61.271
587.39	60.607
587.72	61.381
588.06	60.790
588.39	61.157
588.73	61.618
589.06	61.920
589.40	64.131
589.73	62.766
590.07	64.379
590.40	64.251
590.73	65.443
591.07	65.617
591.40	64.471
591.74	64.732
592.07	64.642
592.41	64.508
592.74	63.200
593.08	62.500
593.41	60.981
593.75	60.293
594.08	61.749
594.41	62.496
594.75	62.637
595.08	62.757
595.42	62.377
595.75	61.994
596.09	63.052
596.42	62.345
596.75	64.543
597.09	64.631
597.42	64.122
597.75	62.921
598.09	63.028
598.42	63.729
598.76	61.604
599.09	62.928
599.42	61.038
599.76	61.398
600.09	60.271
600.42	61.602
600.76	60.673
601.09	61.029
601.42	61.211
601.76	62.048
602.09	60.927
602.42	61.257
602.76	61.176
603.09	61.765
603.42	61.872
603.76	60.882
604.09	61.021
604.42	61.469
604.76	61.399
605.09	61.551
605.42	61.073
605.75	61.311
606.09	61.591
606.42	61.105
606.75	61.057
607.09	60.995
607.42	61.470
607.75	60.430
608.08	61.332
608.42	61.787
608.75	61.960
609.08	62.429
609.41	61.955
609.75	63.736
610.08	62.770
610.41	62.363
610.74	61.515
611.07	61.983
611.41	63.392
611.74	62.859
612.07	63.439
612.40	63.207
612.73	64.304
613.07	63.406
613.40	63.308
613.73	63.455
614.06	63.100
614.39	63.434
614.72	62.431
615.06	61.029
615.39	61.683
615.72	61.568
616.05	62.632
616.38	62.557
616.71	63.592
617.05	63.152
617.38	64.494
617.71	64.229
618.04	63.881
618.37	63.758
618.70	63.568
619.03	63.614
619.36	66.018
619.69	65.633
620.03	67.058
620.36	66.153
620.69	65.645
621.02	66.508
621.35	66.619
621.68	68.510
622.01	68.118
622.34	66.861
622.67	66.503
623.00	64.534
623.33	63.900
623.66	65.935
623.99	66.575
624.32	65.583
624.65	64.384
624.99	65.450
625.32	65.999
625.65	64.966
625.98	65.411
626.31	69.881
626.64	67.426
626.97	66.565
627.30	69.255
627.63	70.565
627.96	67.997
628.29	69.389
628.62	69.033
628.95	72.074
629.28	72.042
629.61	70.562
629.94	71.824
630.26	69.237
630.59	71.454
630.92	70.762
631.25	69.719
631.58	72.517
631.91	72.312
632.24	72.012
632.57	72.102
632.90	74.431
633.23	74.292
633.56	74.078
633.89	75.134
634.22	74.812
634.55	73.871
634.88	74.808
635.20	75.224
635.53	74.332
635.86	73.602
636.19	73.288
636.52	69.838
636.85	71.090
637.18	72.264
637.51	73.408
637.83	72.654
638.16	73.974
638.49	74.611
638.82	74.648
639.15	72.385
639.48	74.882
639.81	74.725
640.13	73.252
640.46	75.980
640.79	76.463
641.12	77.034
641.45	75.550
641.77	73.448
642.10	75.368
642.43	77.667
642.76	75.142
643.09	79.251
643.41	75.596
643.74	78.273
644.07	78.614
644.40	78.698
644.73	79.279
645.05	78.009
645.38	78.714
645.71	78.452
646.04	79.542
646.36	80.282
646.69	78.880
647.02	77.120
647.35	77.323
647.67	78.282
648.00	78.013
648.33	74.436
648.66	77.273
648.98	75.652
649.31	72.200
649.64	72.614
649.96	73.400
650.29	71.286
650.62	75.552
650.94	73.042
651.27	80.383
651.60	75.117
651.92	74.501
652.25	78.268
652.58	70.638
652.90	72.904
653.23	73.708
653.56	73.294
653.88	71.072
654.21	70.821
654.54	72.035
654.86	71.239
655.19	69.921
655.52	57.325
655.84	42.428
656.17	47.959
656.49	67.719
656.82	76.636
657.15	61.245
657.47	46.335
657.80	35.223
658.13	27.975
658.45	38.776
658.78	46.160
659.10	47.321
659.43	48.817
659.75	52.191
660.08	55.388
660.41	60.436
660.73	67.503
661.06	72.222
661.38	74.276
661.71	76.079
662.03	76.806
662.36	78.857
662.68	76.164
663.01	73.153
663.33	75.660
663.66	78.895
663.98	77.976
664.31	77.425
664.63	76.437
664.96	78.236
665.28	74.953
665.61	74.340
665.93	76.226
666.26	73.271
666.58	72.844
666.91	78.764
667.23	77.108
667.56	78.029
667.88	79.461
668.21	75.820
668.53	76.815
668.86	73.146
669.18	78.411
669.50	76.653
669.83	75.770
670.15	78.378
670.48	70.312
670.80	74.701
671.13	74.502
671.45	75.150
671.77	71.243
672.10	71.634
672.42	68.421
672.75	67.089
673.07	66.932
673.39	66.294
673.72	70.415
674.04	72.043
674.37	70.599
674.69	70.074
675.01	67.351
675.34	70.543
675.66	68.750
675.98	73.373
676.31	72.200
676.63	71.769
676.95	72.619
677.28	71.400
677.60	73.038
677.92	70.635
678.25	70.543
678.57	70.764
678.89	68.716
679.22	71.140
679.54	65.658
679.86	68.063
680.18	69.244
680.51	64.345
680.83	62.838
681.15	67.418
681.48	67.014
681.80	64.448
682.12	65.744
682.44	66.847
682.77	66.370
683.09	73.398
683.41	68.367
683.73	69.094
684.06	68.056
684.38	69.574
684.70	66.007
685.02	64.757
685.34	67.606
685.67	62.219
685.99	63.054
686.31	61.941
686.63	61.789
686.96	64.216
687.28	60.738
687.60	63.823
687.92	62.647
688.24	64.138
688.56	63.345
688.89	65.583
689.21	64.547
689.53	65.810
689.85	62.195
690.17	67.573
690.49	66.532
690.82	67.857
691.14	67.879
691.46	69.405
691.78	67.641
692.10	65.840
692.42	60.980
692.74	64.535
693.06	63.953
693.39	64.229
693.71	65.226
694.03	67.258
694.35	68.273
694.67	67.413
694.99	69.623
695.31	67.117
695.63	67.873
695.95	69.005
696.27	69.027
696.59	68.974
696.91	68.101
697.23	65.837
697.56	61.618
697.88	60.878
698.20	60.943
698.52	59.339
698.84	62.218
699.16	65.245
699.48	65.678
699.80	68.192
700.12	65.820
700.44	69.860
700.76	67.064
701.08	71.540
701.40	69.351
701.72	72.727
702.04	73.171
702.36	71.505
702.68	65.957
703.00	64.160
703.32	68.734
703.64	68.010
703.96	66.667
704.28	67.725
704.60	70.141
704.91	69.188
705.23	67.045
705.55	72.404
705.87	70.159
706.19	71.787
706.51	71.473
706.83	70.501
707.15	73.529
707.47	65.617
707.79	65.747
708.11	60.317
708.43	60.225
708.74	61.765
709.06	58.140
709.38	64.268
709.70	65.940
710.02	62.228
710.34	63.812
710.66	63.611
710.98	65.574
711.29	65.181
711.61	68.524
711.93	68.085
712.25	64.759
712.57	66.881
712.89	69.394
713.20	70.927
713.52	66.355
713.84	63.142
714.16	59.130
714.48	65.994
714.80	64.499
715.11	62.234
715.43	63.408
715.75	60.845
716.07	60.694
716.39	63.714
716.70	66.978
717.02	72.727
717.34	72.302
717.66	71.181
717.97	78.030
718.29	68.310
718.61	61.149
718.93	68.858
719.24	68.456
719.56	65.862
719.88	63.376
720.20	66.452
720.51	62.092
720.83	63.211
721.15	69.048
721.46	70.205
721.78	64.808
722.10	66.319
722.42	65.886
722.73	64.621
723.05	69.123
723.37	69.965
723.68	64.063
724.00	70.076
724.32	67.681
724.63	66.923
724.95	72.549
725.27	64.684
725.58	63.971
725.90	64.789
726.22	64.726
726.53	63.880
726.85	61.564
727.16	66.779
727.48	66.777
727.80	68.345
728.11	66.071
728.43	64.855
728.74	63.636
729.06	59.140
729.38	67.018
729.69	63.667
730.01	65.461
730.32	61.745
730.64	63.123
730.96	58.559
731.27	55.046
731.59	51.724
731.90	54.318
732.22	57.143
732.53	51.282
732.85	57.310
733.16	55.120
733.48	59.248
733.80	56.522
734.11	57.055
734.43	55.263
734.74	52.279
735.06	54.762
735.37	50.773
735.69	52.754
736.00	62.080
736.32	54.848
736.63	53.943
736.95	56.211
737.26	58.841
737.58	55.215
737.89	57.831
738.21	58.278
738.52	57.860
738.83	68.498
739.15	62.021
739.46	57.586
739.78	59.184
740.09	54.519
740.41	54.294
740.72	54.286
741.04	63.636
741.35	61.719
741.66	60.079
741.98	63.948
742.29	73.148
742.61	62.389
742.92	60.593
743.23	56.800
743.55	56.981
743.86	59.608
744.18	61.864
744.49	64.463
744.80	68.203
745.12	69.196
745.43	71.495
745.74	69.778
746.06	65.789
746.37	69.302
746.68	70.796
747.00	66.816
747.31	61.765
747.62	60.246
747.94	66.524
748.25	59.144
748.56	66.949
748.88	67.411
749.19	67.442
749.50	63.927
749.82	61.728
750.13	59.289
750.44	54.667
750.75	59.732
751.07	54.934
751.38	57.096
751.69	54.545
752.01	61.189
752.32	54.817
752.63	58.389
752.94	59.091
753.26	63.672
753.57	59.533
753.88	56.180
754.19	56.318
754.51	54.153
754.82	54.027
755.13	55.068
755.44	59.630
755.75	59.794
756.07	58.904
756.38	52.288
756.69	49.063
757.00	52.226
757.31	49.296
757.63	48.209
757.94	51.330
758.25	44.444
758.56	47.826
758.87	48.622
759.18	50.581
759.50	53.799
759.81	51.039
760.12	50.843
760.43	47.619
760.74	46.835
761.05	49.867
761.36	45.833
761.67	49.326
761.99	52.958
762.30	53.055
762.61	54.167
762.92	51.894
763.23	55.094
763.54	55.000
763.85	54.475
764.16	53.125
764.47	50.338
764.78	53.094
765.10	50.000
765.41	48.295
765.72	47.790
766.03	47.734
766.34	52.962
766.65	56.654
766.96	53.846
767.27	65.888
767.58	59.901
767.89	69.613
768.20	66.463
768.51	67.857
768.82	57.895
769.13	56.863
769.44	52.256
769.75	52.060
770.06	52.101
770.37	50.877
770.68	58.222
770.99	60.593
771.30	53.975
771.61	55.769
771.92	53.817
772.23	51.210
772.54	60.444
772.85	62.871
773.16	64.130
773.47	66.667
773.78	61.386
774.09	66.477
774.39	64.242
774.70	65.294
775.01	63.158
775.32	58.385
775.63	70.548
775.94	75.926
776.25	66.207
776.56	77.863
776.87	71.756
777.18	68.939
777.48	72.441
777.79	82.308
778.10	75.000
778.41	68.657
778.72	70.677
779.03	60.897
779.34	63.514
779.65	65.217
779.95	63.354
780.26	57.143
780.57	71.429
780.88	60.993
781.19	68.333
781.50	59.763
781.80	59.016
782.11	56.614
782.42	58.621
782.73	48.023
783.04	60.645
783.34	68.217
783.65	64.626
783.96	63.226
784.27	55.629
784.57	56.579
784.88	57.971
785.19	64.167
785.50	64.655
785.81	72.093
786.11	66.667
786.42	61.417
786.73	72.072
787.04	70.755
787.34	65.041
787.65	68.939
787.96	68.939
788.26	78.740
788.57	65.693
788.88	61.268
789.19	60.305
789.49	66.892
789.80	74.219
790.11	66.116
790.41	72.222
790.72	60.185
791.03	73.077
791.33	81.818
791.64	90.526
791.95	69.474
792.25	75.000
792.56	74.000
792.87	86.585
793.17	64.773
793.48	80.000
793.79	81.609
794.09	80.682
794.40	69.828
794.70	69.841
795.01	66.923
795.32	66.412
795.62	60.684
795.93	72.269
796.23	69.106
796.54	76.531
796.85	75.000
797.15	90.909
797.46	86.585
797.76	72.500
798.07	90.667
798.37	97.500
798.68	86.250
798.99	81.707
799.29	101.333
799.60	63.953
799.90	85.526
800.21	84.848
800.51	76.056
800.82	79.310
801.12	98.462
801.43	86.667
801.73	108.621
802.04	71.429
802.34	89.041
802.65	121.569
802.95	89.130
803.26	111.290
803.56	103.333
803.87	88.060
804.17	88.889
804.48	120.755
804.78	88.889
805.09	92.424
805.39	111.111
805.70	92.982
806.00	87.143
806.30	93.750
806.61	67.059
806.91	85.556
807.22	63.043
807.52	76.316
807.83	93.421
808.13	91.304
808.43	90.323
808.74	83.562
809.04	103.571
809.35	86.765
809.65	107.576
809.95	131.373
810.26	120.370
810.56	107.813
810.86	95.918
811.17	110.526
811.47	104.348
811.77	112.069
812.08	87.931
812.38	104.762
812.69	107.143
812.99	95.556
813.29	134.286
813.59	193.548
813.90	106.897
814.20	101.639
814.50	98.000
814.81	98.246
815.11	96.296
815.41	100.000
815.72	110.714
816.02	116.000
816.32	124.390
816.62	96.552
816.93	133.333
817.23	134.146
817.53	116.071
817.84	104.444
818.14	111.905
818.44	72.917
818.74	111.321
819.04	110.256
819.35	130.303
819.65	121.154
819.95	120.370
820.25	106.383
820.56	148.649
820.86	155.263
821.16	85.106
821.46	131.579
821.76	96.364
822.07	114.286
822.37	139.474
822.67	137.209
822.97	123.684
823.27	102.174
823.57	115.625
823.88	110.256
824.18	118.182
824.48	191.304
824.78	116.667
825.08	191.304
825.38	158.621
825.69	123.529
825.99	85.106
826.29	100.000
826.59	160.000
826.89	186.667
827.19	128.571
827.49	161.290
827.79	157.692
828.09	104.762
828.39	119.444
828.70	127.027
829.00	196.429
829.30	250.000
829.60	127.778
829.90	132.258
830.20	145.455
830.50	135.135
830.80	191.667
831.10	188.462
831.40	228.571
831.70	204.167
832.00	160.000
832.30	147.826
832.60	166.667
832.90	172.727
833.20	220.000
833.50	128.947
833.80	114.706
834.10	134.211
834.40	200.000
834.70	120.000
835.00	160.000
835.30	118.919
835.60	150.000
835.90	118.919
836.20	180.769
836.50	140.909
836.80	136.585
837.10	147.826
837.40	330.769
837.70	173.684
838.00	173.333
838.30	170.833
838.60	172.000
838.90	340.000
839.19	268.750
839.49	163.333
839.79	148.276
840.09	126.923
840.39	200.000
840.69	189.474
840.99	161.905
841.29	195.652
841.59	300.000
841.88	212.000
842.18	288.889
842.48	132.143
842.78	155.556
843.08	269.231
843.38	172.727
843.68	307.143
843.97	342.857
844.27	156.522
844.57	1700.000
844.87	300.000
845.17	211.111
845.47	133.333
845.76	233.333
846.06	600.000
846.36	194.118
846.66	315.385
846.96	231.250
847.25	207.692
847.55	189.474
847.85	200.000
848.15	500.000
848.44	354.545
848.74	190.476
849.04	183.333
849.34	217.647
849.63	262.500
849.93	262.500
850.23	766.667
850.53	400.000
850.82	427.273
851.12	182.353
851.42	175.000
851.71	200.000
852.01	0.000
852.31	235.294
852.61	490.000
852.90	166.667
853.20	377.778
853.50	-2700.000
853.79	152.000
854.09	121.875
854.39	120.690
854.68	151.724
854.98	180.952
855.28	132.258
855.57	342.857
855.87	216.667
856.17	162.963
856.46	215.789
856.76	158.065
857.05	235.294
857.35	372.727
857.65	207.692
857.94	125.000
858.24	377.778
858.53	321.429
858.83	571.429
859.13	208.696
859.42	322.222
859.72	275.000
860.01	283.333
860.31	825.000
860.60	510.000
860.90	525.000
861.20	307.692
861.49	414.286
861.79	-3700.000
862.08	528.571
862.38	366.667
862.67	257.143
862.97	330.000
863.26	126.667
863.56	525.000
863.85	338.462
864.15	270.588
864.44	155.556
864.74	333.333
865.03	363.636
865.33	362.500
865.62	246.667
865.92	483.333
866.21	775.000
866.51	740.000
866.80	233.333
867.10	866.667
867.39	2800.000
867.69	560.000
867.98	975.000
868.27	204.762
868.57	220.000
868.86	1050.000
869.16	133.333
869.45	3500.000
869.75	-416.667
870.04	1000.000
870.33	760.000
870.63	425.000
870.92	229.412
871.22	700.000
871.51	600.000
871.80	316.667
872.10	315.385
>>>>>End Processed Spectral Data<<<<<
