SpectraSuite Data File
++++++++++++++++++++++++++++++++++++
Date: Tue May 12 15:11:03 PDT 2015
User: schluterlab
Dark Spectrum Present: Yes
Reference Spectrum Present: Yes
Number of Sampled Component Spectra: 1
Spectrometers: USB2E3373
Integration Time (usec): 3000 (USB2E3373)
Spectra Averaged: 3 (USB2E3373)
Boxcar Smoothing: 0 (USB2E3373)
Correct for Electrical Dark: No (USB2E3373)
Strobe/Lamp Enabled: No (USB2E3373)
Correct for Detector Non-linearity: No (USB2E3373)
Correct for Stray Light: No (USB2E3373)
Number of Pixels in Processed Spectrum: 2048
>>>>>Begin Processed Spectral Data<<<<<
178.53	0.000
178.91	-108.333
179.29	-575.000
179.67	-1500.000
180.04	-60.000
180.42	600.000
180.80	600.000
181.18	0.000
181.56	-175.000
181.94	0.000
182.31	366.667
182.69	-1300.000
183.07	385.714
183.45	-2300.000
183.83	-850.000
184.20	220.000
184.58	185.714
184.96	-123.077
185.34	-150.000
185.72	1400.000
186.09	-175.000
186.47	-500.000
186.85	433.333
187.23	360.000
187.61	1250.000
187.98	287.500
188.36	171.429
188.74	208.333
189.12	208.333
189.49	650.000
189.87	0.000
190.25	337.500
190.63	1000.000
191.00	-83.333
191.38	-1800.000
191.76	-375.000
192.14	375.000
192.51	-1300.000
192.89	1400.000
193.27	300.000
193.65	-466.667
194.02	-460.000
194.40	414.286
194.78	-107.143
195.15	120.000
195.53	-2500.000
195.91	-300.000
196.29	3400.000
196.66	162.500
197.04	550.000
197.42	-1250.000
197.79	500.000
198.17	191.667
198.55	0.000
198.92	400.000
199.30	500.000
199.68	1500.000
200.05	300.000
200.43	-316.667
200.81	155.556
201.18	2600.000
201.56	158.333
201.94	-475.000
202.31	-125.000
202.69	-280.000
203.07	2200.000
203.44	-250.000
203.82	225.000
204.19	480.000
204.57	-850.000
204.95	-375.000
205.32	-360.000
205.70	300.000
206.08	625.000
206.45	-566.667
206.83	288.889
207.20	142.105
207.58	141.667
207.96	480.000
208.33	0.000
208.71	342.857
209.08	400.000
209.46	-1700.000
209.84	-500.000
210.21	660.000
210.59	-320.000
210.96	216.667
211.34	-600.000
211.71	372.727
212.09	525.000
212.46	850.000
212.84	-200.000
213.22	222.222
213.59	-1800.000
213.97	170.000
214.34	450.000
214.72	800.000
215.09	733.333
215.47	-1100.000
215.84	-190.000
216.22	-312.500
216.59	0.000
216.97	0.000
217.34	650.000
217.72	-1000.000
218.09	733.333
218.47	337.500
218.84	450.000
219.22	866.667
219.59	233.333
219.97	371.429
220.34	355.556
220.72	1200.000
221.09	2000.000
221.47	241.667
221.84	533.333
222.22	180.000
222.59	172.222
222.97	178.571
223.34	206.250
223.72	-1050.000
224.09	600.000
224.46	207.692
224.84	-500.000
225.21	288.889
225.59	186.667
225.96	633.333
226.34	-380.000
226.71	-300.000
227.08	-460.000
227.46	0.000
227.83	-266.667
228.21	-950.000
228.58	291.667
228.95	400.000
229.33	277.778
229.70	750.000
230.08	169.231
230.45	1300.000
230.82	-450.000
231.20	-566.667
231.57	-566.667
231.95	320.000
232.32	191.667
232.69	250.000
233.07	158.333
233.44	-1200.000
233.81	166.667
234.19	107.407
234.56	143.750
234.93	58.824
235.31	70.000
235.68	162.500
236.05	89.286
236.43	92.593
236.80	100.000
237.17	100.000
237.55	46.875
237.92	60.000
238.29	78.788
238.67	75.000
239.04	51.220
239.41	10.417
239.79	47.500
240.16	43.750
240.53	16.393
240.91	24.638
241.28	44.068
241.65	40.909
242.02	45.070
242.40	32.857
242.77	21.978
243.14	15.190
243.51	22.222
243.89	22.430
244.26	26.168
244.63	20.792
245.00	25.688
245.38	16.102
245.75	19.697
246.12	25.185
246.49	17.730
246.87	14.754
247.24	16.000
247.61	12.500
247.98	13.605
248.36	4.848
248.73	15.816
249.10	4.167
249.47	12.000
249.84	14.925
250.22	9.189
250.59	2.000
250.96	10.970
251.33	9.302
251.70	11.161
252.08	10.084
252.45	7.171
252.82	7.985
253.19	6.324
253.56	3.077
253.94	4.348
254.31	5.039
254.68	6.969
255.05	6.207
255.42	9.489
255.79	8.143
256.16	9.831
256.54	8.442
256.91	6.863
257.28	5.686
257.65	1.567
258.02	4.720
258.39	9.169
258.76	8.116
259.14	6.286
259.51	5.539
259.88	6.687
260.25	6.319
260.62	6.027
260.99	1.377
261.36	6.407
261.73	4.521
262.10	4.974
262.47	5.000
262.85	5.600
263.22	5.398
263.59	2.813
263.96	8.020
264.33	4.691
264.70	6.143
265.07	4.390
265.44	4.128
265.81	5.896
266.18	6.178
266.55	3.783
266.92	2.013
267.29	4.386
267.66	5.605
268.03	4.036
268.40	5.708
268.77	3.744
269.14	1.952
269.51	3.118
269.88	5.918
270.25	3.456
270.62	4.292
270.99	5.071
271.36	6.301
271.73	1.887
272.10	4.646
272.47	3.770
272.84	4.192
273.21	4.752
273.58	5.668
273.95	3.696
274.32	5.253
274.69	6.890
275.06	6.011
275.43	4.215
275.80	3.396
276.17	4.228
276.54	4.860
276.91	5.970
277.28	5.109
277.65	3.506
278.02	3.125
278.39	3.957
278.76	3.966
279.13	4.626
279.50	4.000
279.87	2.980
280.23	4.052
280.60	4.197
280.97	2.759
281.34	4.125
281.71	4.348
282.08	4.103
282.45	3.378
282.82	4.682
283.19	3.975
283.56	4.628
283.92	4.560
284.29	0.998
284.66	3.193
285.03	4.478
285.40	3.140
285.77	2.932
286.14	4.644
286.51	4.448
286.87	1.741
287.24	2.703
287.61	3.495
287.98	4.179
288.35	3.407
288.72	4.097
289.08	4.955
289.45	4.573
289.82	3.281
290.19	4.100
290.56	3.493
290.93	3.165
291.29	3.729
291.66	3.814
292.03	3.506
292.40	4.607
292.77	3.064
293.13	5.136
293.50	2.969
293.87	3.388
294.24	3.357
294.60	4.307
294.97	4.755
295.34	4.515
295.71	5.125
296.08	4.000
296.44	4.956
296.81	3.350
297.18	3.422
297.55	4.433
297.91	2.463
298.28	3.623
298.65	2.822
299.02	2.895
299.38	3.957
299.75	2.439
300.12	4.014
300.48	4.333
300.85	4.529
301.22	3.372
301.59	3.066
301.95	3.617
302.32	3.842
302.69	5.543
303.05	5.387
303.42	3.363
303.79	4.334
304.15	3.960
304.52	3.911
304.89	4.051
305.25	4.116
305.62	6.077
305.99	4.022
306.35	3.579
306.72	4.162
307.09	3.934
307.45	4.118
307.82	3.807
308.19	4.021
308.55	3.300
308.92	4.318
309.29	6.016
309.65	5.253
310.02	5.172
310.38	4.287
310.75	5.786
311.12	5.556
311.48	6.371
311.85	5.439
312.22	6.017
312.58	5.539
312.95	5.243
313.31	5.243
313.68	6.379
314.05	7.509
314.41	6.052
314.78	6.723
315.14	6.635
315.51	7.096
315.87	8.212
316.24	7.470
316.61	6.714
316.97	7.431
317.34	7.547
317.70	7.989
318.07	8.808
318.43	9.315
318.80	9.282
319.16	9.266
319.53	10.000
319.89	8.513
320.26	10.335
320.62	11.081
320.99	10.105
321.35	9.926
321.72	12.049
322.08	11.080
322.45	11.626
322.81	10.156
323.18	11.190
323.54	13.240
323.91	13.599
324.27	12.644
324.64	12.284
325.00	13.190
325.37	14.418
325.73	14.755
326.10	14.499
326.46	15.277
326.83	14.880
327.19	14.859
327.56	14.617
327.92	16.885
328.29	17.267
328.65	16.096
329.01	16.766
329.38	17.428
329.74	16.823
330.11	17.897
330.47	17.136
330.84	17.256
331.20	18.020
331.56	19.344
331.93	18.050
332.29	16.752
332.66	18.793
333.02	17.612
333.38	17.627
333.75	19.433
334.11	18.037
334.48	18.632
334.84	18.581
335.20	17.536
335.57	19.060
335.93	19.765
336.29	17.745
336.66	19.811
337.02	17.879
337.38	18.745
337.75	20.355
338.11	19.578
338.47	19.475
338.84	19.052
339.20	17.662
339.56	18.923
339.93	19.816
340.29	18.571
340.65	20.034
341.02	21.561
341.38	18.637
341.74	19.352
342.11	18.948
342.47	18.868
342.83	19.852
343.20	21.180
343.56	18.189
343.92	19.983
344.28	19.617
344.65	20.049
345.01	19.524
345.37	19.151
345.73	20.714
346.10	18.884
346.46	19.537
346.82	19.136
347.19	20.170
347.55	19.360
347.91	19.335
348.27	18.590
348.63	19.778
349.00	19.802
349.36	20.467
349.72	19.725
350.08	19.565
350.45	20.259
350.81	20.260
351.17	19.337
351.53	18.630
351.89	20.901
352.26	19.426
352.62	19.155
352.98	20.092
353.34	20.570
353.70	18.731
354.07	19.385
354.43	19.739
354.79	19.210
355.15	19.908
355.51	19.184
355.87	20.783
356.24	19.938
356.60	19.482
356.96	19.484
357.32	20.045
357.68	21.072
358.04	19.149
358.40	19.790
358.77	21.112
359.13	18.694
359.49	20.534
359.85	19.583
360.21	19.688
360.57	18.686
360.93	19.841
361.29	19.986
361.66	21.327
362.02	19.460
362.38	19.841
362.74	19.887
363.10	20.056
363.46	18.508
363.82	19.705
364.18	20.626
364.54	19.027
364.90	19.746
365.26	19.639
365.62	19.820
365.98	19.752
366.35	18.828
366.71	19.570
367.07	19.795
367.43	19.543
367.79	19.149
368.15	19.607
368.51	19.366
368.87	19.293
369.23	19.404
369.59	18.341
369.95	18.881
370.31	18.754
370.67	19.639
371.03	19.958
371.39	19.044
371.75	18.842
372.11	19.579
372.47	21.027
372.83	19.714
373.19	20.082
373.55	18.076
373.91	18.785
374.27	19.643
374.63	18.373
374.99	19.272
375.35	20.161
375.71	18.997
376.07	19.562
376.42	18.670
376.78	19.204
377.14	19.397
377.50	19.538
377.86	19.026
378.22	19.013
378.58	19.492
378.94	19.191
379.30	19.163
379.66	18.844
380.02	19.296
380.38	18.267
380.74	19.896
381.09	18.808
381.45	18.324
381.81	18.085
382.17	18.803
382.53	18.596
382.89	18.391
383.25	18.709
383.61	18.444
383.97	18.416
384.32	18.324
384.68	19.311
385.04	18.699
385.40	19.098
385.76	18.724
386.12	18.800
386.48	17.386
386.83	18.337
387.19	19.081
387.55	18.551
387.91	18.476
388.27	18.501
388.62	18.310
388.98	17.551
389.34	17.549
389.70	18.396
390.06	18.171
390.42	17.952
390.77	18.612
391.13	18.346
391.49	17.786
391.85	17.723
392.20	18.296
392.56	16.786
392.92	17.687
393.28	17.545
393.64	17.431
393.99	17.368
394.35	16.951
394.71	16.888
395.07	16.849
395.42	17.799
395.78	17.643
396.14	17.590
396.50	16.606
396.85	16.707
397.21	16.606
397.57	16.497
397.92	16.176
398.28	16.382
398.64	17.917
399.00	16.569
399.35	16.855
399.71	16.998
400.07	16.039
400.42	16.776
400.78	15.894
401.14	16.383
401.49	16.532
401.85	16.744
402.21	15.700
402.57	15.859
402.92	16.606
403.28	15.692
403.63	16.068
403.99	15.621
404.35	16.999
404.70	16.952
405.06	15.553
405.42	15.679
405.77	15.877
406.13	14.696
406.49	15.350
406.84	14.946
407.20	15.868
407.55	15.569
407.91	15.699
408.27	15.039
408.62	14.902
408.98	14.902
409.34	15.079
409.69	14.686
410.05	15.146
410.40	14.605
410.76	14.024
411.11	14.633
411.47	14.198
411.83	14.704
412.18	14.915
412.54	14.835
412.89	14.100
413.25	15.222
413.60	14.778
413.96	14.363
414.31	14.581
414.67	14.587
415.03	14.304
415.38	14.890
415.74	14.024
416.09	14.553
416.45	14.415
416.80	14.753
417.16	14.004
417.51	14.459
417.87	14.643
418.22	14.095
418.58	13.949
418.93	14.396
419.29	12.939
419.64	14.839
420.00	15.036
420.35	13.995
420.71	13.652
421.06	14.479
421.42	13.702
421.77	14.381
422.12	13.837
422.48	13.713
422.83	14.286
423.19	13.715
423.54	13.330
423.90	15.006
424.25	13.154
424.61	13.523
424.96	13.269
425.31	13.903
425.67	13.187
426.02	12.787
426.38	13.302
426.73	14.112
427.09	13.642
427.44	12.662
427.79	12.922
428.15	13.259
428.50	14.114
428.85	14.521
429.21	13.290
429.56	13.310
429.92	13.277
430.27	13.449
430.62	12.922
430.98	13.323
431.33	12.601
431.68	12.444
432.04	12.778
432.39	13.392
432.74	13.876
433.10	12.680
433.45	12.981
433.80	13.569
434.16	13.768
434.51	12.693
434.86	13.500
435.22	12.642
435.57	12.863
435.92	13.261
436.28	12.788
436.63	12.966
436.98	13.570
437.34	13.527
437.69	11.702
438.04	13.333
438.39	12.843
438.75	13.641
439.10	12.412
439.45	13.171
439.81	13.823
440.16	13.594
440.51	12.613
440.86	13.105
441.22	13.149
441.57	13.123
441.92	13.277
442.27	13.196
442.63	12.602
442.98	11.907
443.33	12.801
443.68	12.978
444.03	11.970
444.39	13.230
444.74	12.629
445.09	13.428
445.44	12.965
445.79	12.476
446.15	12.579
446.50	13.238
446.85	12.600
447.20	12.040
447.55	12.452
447.91	13.106
448.26	13.419
448.61	13.378
448.96	12.364
449.31	12.376
449.66	14.120
450.02	12.966
450.37	12.493
450.72	13.058
451.07	13.147
451.42	12.330
451.77	12.658
452.12	12.819
452.47	12.637
452.83	13.070
453.18	12.853
453.53	13.203
453.88	13.200
454.23	13.132
454.58	13.112
454.93	12.692
455.28	13.647
455.63	12.530
455.98	13.536
456.34	13.678
456.69	12.683
457.04	13.305
457.39	12.057
457.74	12.950
458.09	12.577
458.44	13.308
458.79	12.732
459.14	12.220
459.49	13.250
459.84	12.772
460.19	12.655
460.54	13.789
460.89	12.527
461.24	11.798
461.59	13.039
461.94	13.180
462.29	13.158
462.64	13.128
462.99	12.732
463.34	12.897
463.69	13.249
464.04	13.529
464.39	12.250
464.74	12.016
465.09	13.059
465.44	12.350
465.79	12.793
466.14	12.401
466.49	12.371
466.84	12.821
467.19	13.005
467.54	12.252
467.89	12.852
468.24	11.986
468.59	12.083
468.94	12.862
469.29	12.951
469.64	12.476
469.99	12.018
470.34	11.512
470.68	12.069
471.03	13.075
471.38	12.318
471.73	12.737
472.08	13.177
472.43	12.601
472.78	12.100
473.13	10.763
473.48	12.714
473.83	11.543
474.17	11.854
474.52	12.441
474.87	11.029
475.22	11.593
475.57	11.647
475.92	11.191
476.27	11.045
476.61	11.475
476.96	11.651
477.31	12.134
477.66	11.541
478.01	11.398
478.36	11.998
478.70	11.315
479.05	12.134
479.40	11.458
479.75	12.016
480.10	11.665
480.45	11.391
480.79	11.567
481.14	10.794
481.49	11.253
481.84	11.697
482.19	11.266
482.53	11.199
482.88	11.783
483.23	10.871
483.58	11.490
483.92	12.112
484.27	11.644
484.62	11.121
484.97	11.258
485.31	11.161
485.66	11.281
486.01	10.584
486.36	10.533
486.70	10.340
487.05	10.538
487.40	10.684
487.75	10.944
488.09	10.795
488.44	11.663
488.79	10.725
489.13	11.497
489.48	11.266
489.83	10.759
490.17	11.396
490.52	11.154
490.87	11.379
491.22	11.303
491.56	10.804
491.91	10.484
492.26	10.824
492.60	10.934
492.95	11.056
493.30	10.965
493.64	10.782
493.99	9.973
494.34	10.444
494.68	11.111
495.03	11.405
495.37	11.526
495.72	11.422
496.07	10.916
496.41	11.077
496.76	10.131
497.11	11.140
497.45	10.916
497.80	10.843
498.14	10.911
498.49	11.235
498.84	11.075
499.18	10.512
499.53	11.070
499.87	10.198
500.22	10.594
500.56	9.749
500.91	11.688
501.26	10.841
501.60	10.838
501.95	10.081
502.29	10.667
502.64	10.763
502.98	10.449
503.33	10.824
503.67	10.552
504.02	10.210
504.36	10.769
504.71	10.691
505.06	10.418
505.40	10.529
505.75	10.056
506.09	11.293
506.44	11.043
506.78	10.775
507.13	10.373
507.47	10.141
507.82	10.706
508.16	11.024
508.51	10.676
508.85	10.446
509.19	9.838
509.54	10.449
509.88	10.741
510.23	10.098
510.57	10.811
510.92	9.990
511.26	10.843
511.61	10.389
511.95	10.005
512.30	10.600
512.64	10.125
512.98	9.995
513.33	10.400
513.67	10.720
514.02	10.286
514.36	10.280
514.70	10.880
515.05	9.643
515.39	10.417
515.74	10.662
516.08	10.076
516.42	10.328
516.77	9.653
517.11	10.027
517.46	10.237
517.80	10.268
518.14	10.197
518.49	9.978
518.83	9.066
519.17	10.261
519.52	10.322
519.86	10.409
520.20	10.466
520.55	9.553
520.89	9.713
521.23	9.988
521.58	9.581
521.92	9.679
522.26	9.360
522.61	10.636
522.95	9.429
523.29	9.766
523.64	9.422
523.98	10.094
524.32	9.689
524.66	10.203
525.01	8.876
525.35	10.371
525.69	10.536
526.04	10.946
526.38	9.241
526.72	9.785
527.06	9.462
527.41	10.097
527.75	10.043
528.09	9.934
528.43	9.579
528.78	9.481
529.12	10.476
529.46	9.643
529.80	9.579
530.15	10.018
530.49	9.507
530.83	9.750
531.17	9.410
531.51	9.810
531.86	9.481
532.20	9.642
532.54	9.416
532.88	10.056
533.22	10.055
533.57	9.701
533.91	9.324
534.25	9.752
534.59	9.357
534.93	9.215
535.27	9.334
535.62	9.568
535.96	9.102
536.30	10.299
536.64	9.006
536.98	9.062
537.32	10.063
537.66	8.992
538.01	10.217
538.35	9.233
538.69	9.648
539.03	9.080
539.37	8.738
539.71	9.815
540.05	9.415
540.39	9.560
540.73	8.861
541.07	8.971
541.42	10.137
541.76	9.309
542.10	9.433
542.44	10.100
542.78	8.433
543.12	9.877
543.46	8.584
543.80	9.211
544.14	8.916
544.48	8.942
544.82	9.419
545.16	8.804
545.50	9.957
545.84	10.290
546.18	10.273
546.52	10.164
546.86	10.509
547.20	8.979
547.54	10.133
547.88	8.759
548.22	9.168
548.56	9.487
548.90	9.490
549.24	9.602
549.58	9.278
549.92	9.889
550.26	9.398
550.60	9.049
550.94	9.159
551.28	10.345
551.62	8.828
551.96	9.189
552.30	9.295
552.64	9.256
552.98	8.634
553.32	9.219
553.66	9.121
554.00	9.524
554.34	9.920
554.68	8.669
555.02	9.097
555.36	8.910
555.69	10.733
556.03	9.299
556.37	10.006
556.71	10.235
557.05	8.519
557.39	8.933
557.73	9.299
558.07	9.859
558.41	9.321
558.75	9.508
559.08	10.079
559.42	8.375
559.76	8.838
560.10	8.121
560.44	8.958
560.78	9.335
561.12	9.472
561.45	8.448
561.79	8.365
562.13	8.023
562.47	7.917
562.81	9.174
563.15	8.274
563.48	8.323
563.82	9.233
564.16	9.639
564.50	8.620
564.84	8.267
565.17	8.853
565.51	9.421
565.85	8.575
566.19	8.690
566.52	7.280
566.86	8.990
567.20	8.652
567.54	8.788
567.88	8.503
568.21	8.937
568.55	8.366
568.89	8.349
569.23	7.981
569.56	8.466
569.90	8.660
570.24	8.416
570.57	8.339
570.91	7.925
571.25	8.274
571.59	7.727
571.92	7.966
572.26	7.925
572.60	7.776
572.93	8.166
573.27	7.869
573.61	8.148
573.95	7.570
574.28	8.047
574.62	7.406
574.96	7.595
575.29	7.992
575.63	7.633
575.97	7.595
576.30	7.770
576.64	7.735
576.98	7.453
577.31	7.996
577.65	7.768
577.98	7.447
578.32	7.659
578.66	7.679
578.99	7.992
579.33	7.984
579.67	7.501
580.00	7.682
580.34	7.756
580.67	7.785
581.01	8.492
581.35	8.070
581.68	7.468
582.02	7.736
582.35	7.462
582.69	7.592
583.02	7.826
583.36	7.825
583.70	8.070
584.03	8.103
584.37	7.976
584.70	7.838
585.04	7.733
585.37	7.597
585.71	7.978
586.04	7.800
586.38	8.283
586.72	8.185
587.05	8.260
587.39	7.813
587.72	8.026
588.06	8.095
588.39	7.958
588.73	7.736
589.06	7.674
589.40	8.013
589.73	7.735
590.07	8.099
590.40	8.641
590.73	8.483
591.07	8.425
591.40	8.383
591.74	8.076
592.07	8.569
592.41	8.313
592.74	7.763
593.08	7.617
593.41	7.899
593.75	7.672
594.08	8.038
594.41	7.983
594.75	8.219
595.08	8.471
595.42	8.295
595.75	8.128
596.09	8.273
596.42	7.830
596.75	8.774
597.09	8.584
597.42	8.122
597.75	7.870
598.09	8.289
598.42	8.038
598.76	8.057
599.09	8.753
599.42	8.339
599.76	8.548
600.09	8.271
600.42	8.633
600.76	7.886
601.09	8.353
601.42	8.413
601.76	7.948
602.09	8.572
602.42	8.318
602.76	8.121
603.09	7.541
603.42	8.110
603.76	8.062
604.09	7.528
604.42	7.834
604.76	8.060
605.09	8.245
605.42	8.574
605.75	8.370
606.09	8.225
606.42	8.268
606.75	8.822
607.09	8.093
607.42	8.477
607.75	8.320
608.08	8.123
608.42	8.473
608.75	7.745
609.08	8.051
609.41	8.182
609.75	8.929
610.08	8.363
610.41	8.344
610.74	8.442
611.07	8.231
611.41	8.202
611.74	7.600
612.07	7.996
612.40	8.138
612.73	8.887
613.07	8.211
613.40	8.471
613.73	8.487
614.06	7.650
614.39	8.434
614.72	8.287
615.06	7.369
615.39	9.257
615.72	8.616
616.05	8.739
616.38	7.915
616.71	8.356
617.05	8.127
617.38	8.146
617.71	9.224
618.04	9.198
618.37	8.616
618.70	7.852
619.03	7.753
619.36	8.982
619.69	8.047
620.03	9.589
620.36	7.707
620.69	9.132
621.02	8.764
621.35	8.739
621.68	9.071
622.01	9.151
622.34	8.084
622.67	9.480
623.00	8.713
623.33	8.839
623.66	8.051
623.99	8.288
624.32	9.350
624.65	8.032
624.99	8.384
625.32	8.550
625.65	7.517
625.98	8.298
626.31	8.309
626.64	7.593
626.97	7.728
627.30	8.773
627.63	8.791
627.96	8.216
628.29	8.251
628.62	8.298
628.95	9.486
629.28	9.553
629.61	8.612
629.94	8.124
630.26	8.319
630.59	9.486
630.92	9.417
631.25	9.248
631.58	9.450
631.91	7.707
632.24	8.358
632.57	7.760
632.90	9.006
633.23	9.969
633.56	8.851
633.89	8.574
634.22	8.827
634.55	8.817
634.88	8.105
635.20	9.417
635.53	8.595
635.86	10.403
636.19	8.979
636.52	8.324
636.85	8.306
637.18	9.101
637.51	9.162
637.83	7.666
638.16	9.613
638.49	9.102
638.82	9.390
639.15	7.873
639.48	9.005
639.81	8.791
640.13	9.448
640.46	9.608
640.79	9.363
641.12	8.793
641.45	9.961
641.77	10.040
642.10	9.237
642.43	9.531
642.76	8.239
643.09	9.798
643.41	9.677
643.74	11.223
644.07	7.965
644.40	7.249
644.73	9.159
645.05	9.955
645.38	10.720
645.71	9.256
646.04	9.771
646.36	9.077
646.69	8.640
647.02	9.920
647.35	8.346
647.67	9.400
648.00	10.098
648.33	10.376
648.66	8.636
648.98	8.696
649.31	10.796
649.64	6.777
649.96	9.104
650.29	8.571
650.62	10.898
650.94	10.994
651.27	10.845
651.60	10.485
651.92	10.599
652.25	8.819
652.58	9.929
652.90	9.880
653.23	10.192
653.56	9.644
653.88	9.545
654.21	11.290
654.54	8.638
654.86	9.882
655.19	10.950
655.52	8.518
655.84	6.668
656.17	7.723
656.49	10.981
656.82	12.756
657.15	9.977
657.47	7.635
657.80	5.542
658.13	4.547
658.45	6.053
658.78	7.284
659.10	7.340
659.43	7.763
659.75	8.151
660.08	8.584
660.41	8.076
660.73	10.414
661.06	10.961
661.38	9.710
661.71	10.072
662.03	7.034
662.36	11.048
662.68	9.683
663.01	11.171
663.33	10.377
663.66	10.256
663.98	10.516
664.31	12.500
664.63	10.345
664.96	11.820
665.28	8.286
665.61	10.189
665.93	9.434
666.26	10.280
666.58	11.743
666.91	9.459
667.23	8.835
667.56	11.294
667.88	11.826
668.21	9.016
668.53	10.282
668.86	13.026
669.18	11.813
669.50	9.917
669.83	12.320
670.15	9.979
670.48	9.180
670.80	9.562
671.13	11.554
671.45	10.822
671.77	10.204
672.10	9.695
672.42	9.211
672.75	9.494
673.07	10.175
673.39	9.425
673.72	10.381
674.04	11.290
674.37	9.619
674.69	8.550
675.01	10.634
675.34	9.496
675.66	9.961
675.98	12.032
676.31	11.000
676.63	8.151
676.95	11.111
677.28	11.968
677.60	12.274
677.92	8.532
678.25	10.078
678.57	11.546
678.89	12.477
679.22	10.478
679.54	11.032
679.86	11.169
680.18	10.721
680.51	8.458
680.83	8.784
681.15	11.092
681.48	9.375
681.80	11.033
682.12	9.862
682.44	8.649
682.77	10.498
683.09	10.485
683.41	9.592
683.73	9.843
684.06	9.524
684.38	11.434
684.70	12.230
685.02	11.632
685.34	11.796
685.67	9.807
685.99	10.509
686.31	10.324
686.63	7.317
686.96	9.804
687.28	8.557
687.60	8.703
687.92	11.055
688.24	11.207
688.56	11.210
688.89	9.178
689.21	11.368
689.53	10.474
689.85	8.943
690.17	10.291
690.49	11.694
690.82	9.244
691.14	12.929
691.46	10.472
691.78	10.331
692.10	8.969
692.42	11.434
692.74	11.047
693.06	9.109
693.39	9.486
693.71	8.841
694.03	9.270
694.35	13.052
694.67	10.183
694.99	10.421
695.31	10.360
695.63	10.181
695.95	8.371
696.27	11.726
696.59	11.933
696.91	9.114
697.23	11.765
697.56	8.714
697.88	6.986
698.20	11.509
698.52	7.977
698.84	11.910
699.16	11.727
699.48	11.864
699.80	13.072
700.12	12.471
700.44	12.850
700.76	10.501
701.08	9.399
701.40	11.688
701.72	11.765
702.04	14.363
702.36	12.903
702.68	10.904
703.00	9.273
703.32	12.159
703.64	12.091
703.96	11.198
704.28	9.524
704.60	10.141
704.91	12.885
705.23	13.920
705.55	14.540
705.87	9.206
706.19	13.793
706.51	15.361
706.83	12.094
707.15	12.567
707.47	10.896
707.79	10.575
708.11	9.524
708.43	8.764
708.74	10.181
709.06	10.930
709.38	12.407
709.70	8.992
710.02	9.511
710.34	9.669
710.66	14.444
710.98	11.475
711.29	8.357
711.61	13.649
711.93	10.942
712.25	11.747
712.57	11.254
712.89	14.242
713.20	11.502
713.52	15.265
713.84	14.804
714.16	10.145
714.48	7.493
714.80	10.840
715.11	11.170
715.43	10.056
715.75	10.141
716.07	13.584
716.39	12.286
716.70	10.903
717.02	11.785
717.34	15.827
717.66	16.667
717.97	15.530
718.29	14.085
718.61	10.811
718.93	12.111
719.24	12.752
719.56	11.379
719.88	12.420
720.20	14.194
720.51	11.438
720.83	13.378
721.15	16.327
721.46	13.356
721.78	8.711
722.10	14.931
722.42	17.057
722.73	9.025
723.05	16.842
723.37	16.608
723.68	12.109
724.00	14.015
724.32	14.068
724.63	11.538
724.95	14.510
725.27	11.152
725.58	11.029
725.90	9.859
726.22	13.356
726.53	12.040
726.85	12.378
727.16	15.436
727.48	11.296
727.80	16.187
728.11	12.143
728.43	11.232
728.74	12.238
729.06	10.394
729.38	14.035
729.69	14.000
730.01	15.132
730.32	13.087
730.64	15.282
730.96	14.414
731.27	7.034
731.59	11.782
731.90	11.699
732.22	12.286
732.53	11.111
732.85	14.035
733.16	7.831
733.48	13.480
733.80	12.464
734.11	16.871
734.43	8.772
734.74	13.673
735.06	15.873
735.37	10.309
735.69	9.565
736.00	14.373
736.32	9.091
736.63	7.571
736.95	10.559
737.26	15.549
737.58	12.883
737.89	12.952
738.21	8.609
738.52	13.712
738.83	13.553
739.15	11.847
739.46	12.069
739.78	12.245
740.09	12.828
740.41	11.963
740.72	15.556
741.04	10.839
741.35	12.109
741.66	13.043
741.98	17.167
742.29	12.963
742.61	13.717
742.92	12.712
743.23	12.000
743.55	12.830
743.86	7.451
744.18	12.288
744.49	12.810
744.80	14.286
745.12	17.411
745.43	15.888
745.74	12.444
746.06	15.789
746.37	11.163
746.68	15.929
747.00	12.108
747.31	8.403
747.62	13.115
747.94	11.159
748.25	12.840
748.56	19.915
748.88	16.071
749.19	18.140
749.50	7.763
749.82	12.346
750.13	17.391
750.44	13.667
750.75	13.087
751.07	14.145
751.38	10.891
751.69	11.785
752.01	8.392
752.32	11.960
752.63	15.436
752.94	11.888
753.26	12.109
753.57	12.451
753.88	14.981
754.19	14.440
754.51	13.953
754.82	12.416
755.13	12.838
755.44	10.741
755.75	14.433
756.07	16.096
756.38	15.033
756.69	12.500
757.00	13.947
757.31	12.958
757.63	11.570
757.94	10.638
758.25	11.836
758.56	11.670
758.87	12.531
759.18	13.081
759.50	11.246
759.81	11.869
760.12	13.764
760.43	9.524
760.74	14.177
761.05	10.875
761.36	10.156
761.67	13.208
761.99	14.085
762.30	10.932
762.61	11.458
762.92	11.364
763.23	12.830
763.54	13.077
763.85	14.008
764.16	15.625
764.47	14.527
764.78	13.029
765.10	12.195
765.41	10.795
765.72	11.326
766.03	9.063
766.34	9.756
766.65	12.928
766.96	15.385
767.27	19.159
767.58	18.317
767.89	18.785
768.20	20.732
768.51	17.857
768.82	15.351
769.13	14.902
769.44	11.654
769.75	12.734
770.06	13.866
770.37	8.772
770.68	12.000
770.99	12.288
771.30	14.644
771.61	16.154
771.92	19.466
772.23	16.532
772.54	17.333
772.85	22.277
773.16	17.935
773.47	17.222
773.78	17.822
774.09	21.591
774.39	27.273
774.70	14.118
775.01	16.447
775.32	16.149
775.63	15.753
775.94	26.543
776.25	19.310
776.56	16.031
776.87	24.427
777.18	17.424
777.48	25.197
777.79	26.154
778.10	21.212
778.41	26.119
778.72	29.323
779.03	15.385
779.34	15.541
779.65	18.634
779.95	14.286
780.26	18.452
780.57	25.170
780.88	23.404
781.19	16.667
781.50	21.893
781.80	21.311
782.11	15.873
782.42	16.667
782.73	18.644
783.04	16.774
783.34	10.853
783.65	14.286
783.96	25.806
784.27	21.854
784.57	8.553
784.88	15.942
785.19	20.000
785.50	32.759
785.81	25.581
786.11	16.296
786.42	18.110
786.73	33.333
787.04	22.642
787.34	14.634
787.65	23.485
787.96	24.242
788.26	17.323
788.57	26.277
788.88	21.831
789.19	16.031
789.49	29.054
789.80	17.969
790.11	20.661
790.41	26.852
790.72	30.556
791.03	25.962
791.33	29.293
791.64	25.263
791.95	15.789
792.25	26.042
792.56	24.000
792.87	14.634
793.17	25.000
793.48	32.941
793.79	33.333
794.09	38.636
794.40	31.034
794.70	18.254
795.01	24.615
795.32	21.374
795.62	15.385
795.93	19.328
796.23	22.764
796.54	25.510
796.85	29.545
797.15	36.364
797.46	39.024
797.76	31.250
798.07	40.000
798.37	42.500
798.68	37.500
798.99	41.463
799.29	21.333
799.60	12.791
799.90	31.579
800.21	31.818
800.51	39.437
800.82	31.034
801.12	36.923
801.43	44.000
801.73	34.483
802.04	32.468
802.34	26.027
802.65	33.333
802.95	43.478
803.26	61.290
803.56	51.667
803.87	34.328
804.17	49.206
804.48	15.094
804.78	43.056
805.09	34.848
805.39	33.333
805.70	31.579
806.00	21.429
806.30	50.000
806.61	42.353
806.91	40.000
807.22	31.522
807.52	26.316
807.83	43.421
808.13	34.783
808.43	43.548
808.74	38.356
809.04	32.143
809.35	38.235
809.65	45.455
809.95	45.098
810.26	75.926
810.56	54.688
810.86	38.776
811.17	36.842
811.47	41.304
811.77	43.103
812.08	31.034
812.38	50.000
812.69	50.000
812.99	44.444
813.29	42.857
813.59	83.871
813.90	36.207
814.20	52.459
814.50	28.000
814.81	42.105
815.11	68.519
815.41	55.357
815.72	60.714
816.02	56.000
816.32	58.537
816.62	70.690
816.93	54.545
817.23	68.293
817.53	28.571
817.84	37.778
818.14	57.143
818.44	37.500
818.74	39.623
819.04	46.154
819.35	42.424
819.65	63.462
819.95	62.963
820.25	80.851
820.56	59.459
820.86	57.895
821.16	31.915
821.46	52.632
821.76	54.545
822.07	30.952
822.37	73.684
822.67	65.116
822.97	44.737
823.27	69.565
823.57	81.250
823.88	76.923
824.18	54.545
824.48	69.565
824.78	52.778
825.08	82.609
825.38	100.000
825.69	76.471
825.99	46.809
826.29	33.333
826.59	54.286
826.89	60.000
827.19	54.286
827.49	80.645
827.79	57.692
828.09	35.714
828.39	50.000
828.70	67.568
829.00	100.000
829.30	62.500
829.60	52.778
829.90	80.645
830.20	33.333
830.50	83.784
830.80	79.167
831.10	61.538
831.40	100.000
831.70	120.833
832.00	53.333
832.30	91.304
832.60	108.333
832.90	103.030
833.20	90.000
833.50	81.579
833.80	38.235
834.10	60.526
834.40	73.684
834.70	56.667
835.00	72.000
835.30	72.973
835.60	65.625
835.90	75.676
836.20	96.154
836.50	45.455
836.80	102.439
837.10	95.652
837.40	176.923
837.70	63.158
838.00	83.333
838.30	108.333
838.60	152.000
838.90	140.000
839.19	56.250
839.49	80.000
839.79	58.621
840.09	73.077
840.39	126.667
840.69	105.263
840.99	38.095
841.29	104.348
841.59	105.000
841.88	84.000
842.18	111.111
842.48	71.429
842.78	77.778
843.08	84.615
843.38	100.000
843.68	192.857
843.97	228.571
844.27	73.913
844.57	950.000
844.87	214.286
845.17	127.778
845.47	61.905
845.76	108.333
846.06	314.286
846.36	129.412
846.66	130.769
846.96	137.500
847.25	130.769
847.55	136.842
847.85	88.889
848.15	340.000
848.44	181.818
848.74	100.000
849.04	95.833
849.34	152.941
849.63	93.750
849.93	181.250
850.23	200.000
850.53	175.000
850.82	200.000
851.12	94.118
851.42	104.167
851.71	143.750
852.01	0.000
852.31	176.471
852.61	310.000
852.90	108.333
853.20	166.667
853.50	-800.000
853.79	72.000
854.09	90.625
854.39	51.724
854.68	103.448
854.98	152.381
855.28	58.065
855.57	135.714
855.87	55.556
856.17	70.370
856.46	126.316
856.76	61.290
857.05	170.588
857.35	163.636
857.65	100.000
857.94	65.000
858.24	200.000
858.53	107.143
858.83	285.714
859.13	108.696
859.42	266.667
859.72	275.000
860.01	91.667
860.31	425.000
860.60	210.000
860.90	262.500
861.20	169.231
861.49	214.286
861.79	-800.000
862.08	200.000
862.38	244.444
862.67	157.143
862.97	280.000
863.26	103.333
863.56	425.000
863.85	100.000
864.15	152.941
864.44	94.444
864.74	191.667
865.03	190.909
865.33	200.000
865.62	146.667
865.92	400.000
866.21	325.000
866.51	340.000
866.80	161.111
867.10	533.333
867.39	2000.000
867.69	460.000
867.98	300.000
868.27	85.714
868.57	146.667
868.86	225.000
869.16	128.571
869.45	1500.000
869.75	-450.000
870.04	325.000
870.33	580.000
870.63	200.000
870.92	158.824
871.22	500.000
871.51	242.857
871.80	241.667
872.10	184.615
>>>>>End Processed Spectral Data<<<<<
