SpectraSuite Data File
++++++++++++++++++++++++++++++++++++
Date: Tue May 12 15:16:07 PDT 2015
User: schluterlab
Dark Spectrum Present: Yes
Reference Spectrum Present: Yes
Number of Sampled Component Spectra: 1
Spectrometers: USB2E3373
Integration Time (usec): 3000 (USB2E3373)
Spectra Averaged: 3 (USB2E3373)
Boxcar Smoothing: 0 (USB2E3373)
Correct for Electrical Dark: No (USB2E3373)
Strobe/Lamp Enabled: No (USB2E3373)
Correct for Detector Non-linearity: No (USB2E3373)
Correct for Stray Light: No (USB2E3373)
Number of Pixels in Processed Spectrum: 2048
>>>>>Begin Processed Spectral Data<<<<<
178.53	0.000
178.91	-208.333
179.29	-500.000
179.67	-2900.000
180.04	-106.667
180.42	425.000
180.80	900.000
181.18	0.000
181.56	-287.500
181.94	0.000
182.31	733.333
182.69	-2100.000
183.07	457.143
183.45	-2400.000
183.83	-1300.000
184.20	300.000
184.58	485.714
184.96	-230.769
185.34	-141.667
185.72	1250.000
186.09	-675.000
186.47	-2600.000
186.85	1300.000
187.23	640.000
187.61	1400.000
187.98	487.500
188.36	278.571
188.74	275.000
189.12	391.667
189.49	800.000
189.87	0.000
190.25	462.500
190.63	2300.000
191.00	-266.667
191.38	-2800.000
191.76	-700.000
192.14	537.500
192.51	-2400.000
192.89	1450.000
193.27	1066.667
193.65	-766.667
194.02	-680.000
194.40	442.857
194.78	-142.857
195.15	186.667
195.53	-2400.000
195.91	-360.000
196.29	3000.000
196.66	218.750
197.04	925.000
197.42	-1750.000
197.79	550.000
198.17	258.333
198.55	0.000
198.92	428.571
199.30	1500.000
199.68	1600.000
200.05	683.333
200.43	-300.000
200.81	177.778
201.18	3500.000
201.56	325.000
201.94	-725.000
202.31	-287.500
202.69	-400.000
203.07	2100.000
203.44	-300.000
203.82	308.333
204.19	600.000
204.57	-900.000
204.95	-825.000
205.32	-580.000
205.70	516.667
206.08	800.000
206.45	-633.333
206.83	322.222
207.20	178.947
207.58	216.667
207.96	700.000
208.33	0.000
208.71	571.429
209.08	380.000
209.46	-2300.000
209.84	-825.000
210.21	800.000
210.59	-320.000
210.96	208.333
211.34	-650.000
211.71	281.818
212.09	650.000
212.46	1200.000
212.84	-483.333
213.22	444.444
213.59	-2900.000
213.97	290.000
214.34	750.000
214.72	900.000
215.09	700.000
215.47	-2600.000
215.84	-360.000
216.22	-412.500
216.59	0.000
216.97	0.000
217.34	1650.000
217.72	-1000.000
218.09	1366.667
218.47	350.000
218.84	750.000
219.22	1200.000
219.59	833.333
219.97	457.143
220.34	333.333
220.72	1650.000
221.09	2900.000
221.47	233.333
221.84	633.333
222.22	280.000
222.59	233.333
222.97	200.000
223.34	250.000
223.72	-1300.000
224.09	1033.333
224.46	253.846
224.84	-775.000
225.21	422.222
225.59	300.000
225.96	1133.333
226.34	-520.000
226.71	-550.000
227.08	-420.000
227.46	0.000
227.83	-533.333
228.21	-1700.000
228.58	341.667
228.95	825.000
229.33	311.111
229.70	975.000
230.08	284.615
230.45	4000.000
230.82	-650.000
231.20	-333.333
231.57	-733.333
231.95	460.000
232.32	341.667
232.69	366.667
233.07	233.333
233.44	-1200.000
233.81	226.667
234.19	155.556
234.56	168.750
234.93	152.941
235.31	195.000
235.68	206.250
236.05	132.143
236.43	107.407
236.80	207.143
237.17	162.069
237.55	112.500
237.92	95.000
238.29	136.364
238.67	115.625
239.04	102.439
239.41	77.083
239.79	77.500
240.16	81.250
240.53	73.770
240.91	55.072
241.28	67.797
241.65	60.606
242.02	77.465
242.40	70.000
242.77	49.451
243.14	34.177
243.51	59.596
243.89	38.318
244.26	50.467
244.63	48.515
245.00	39.450
245.38	32.203
245.75	44.697
246.12	48.889
246.49	39.007
246.87	34.426
247.24	36.000
247.61	34.375
247.98	35.374
248.36	36.364
248.73	39.286
249.10	32.143
249.47	33.000
249.84	32.338
250.22	30.270
250.59	28.500
250.96	28.692
251.33	31.163
251.70	33.036
252.08	27.311
252.45	29.482
252.82	24.715
253.19	21.739
253.56	28.077
253.94	26.812
254.31	26.744
254.68	25.784
255.05	26.552
255.42	28.832
255.79	29.642
256.16	27.119
256.54	26.623
256.91	24.183
257.28	24.080
257.65	23.511
258.02	22.714
258.39	27.507
258.76	28.406
259.14	20.857
259.51	26.531
259.88	26.140
260.25	20.604
260.62	23.014
260.99	23.691
261.36	21.448
261.73	24.734
262.10	24.346
262.47	24.250
262.85	20.800
263.22	23.136
263.59	23.529
263.96	21.554
264.33	22.963
264.70	22.604
265.07	23.171
265.44	24.312
265.81	22.877
266.18	21.968
266.55	21.749
266.92	20.134
267.29	21.930
267.66	19.955
268.03	22.422
268.40	22.833
268.77	22.907
269.14	19.523
269.51	21.158
269.88	24.286
270.25	20.086
270.62	20.815
270.99	22.312
271.36	21.951
271.73	19.078
272.10	21.212
272.47	18.254
272.84	20.359
273.21	20.248
273.58	22.065
273.95	19.097
274.32	20.428
274.69	21.654
275.06	22.404
275.43	20.881
275.80	19.245
276.17	22.059
276.54	21.121
276.91	21.455
277.28	19.891
277.65	20.849
278.02	19.669
278.39	19.424
278.76	21.034
279.13	19.751
279.50	21.091
279.87	20.484
280.23	18.969
280.60	19.526
280.97	18.966
281.34	18.812
281.71	19.652
282.08	21.709
282.45	20.270
282.82	19.398
283.19	20.350
283.56	20.165
283.92	20.195
284.29	19.634
284.66	18.992
285.03	19.900
285.40	17.686
285.77	18.364
286.14	19.814
286.51	19.018
286.87	17.247
287.24	19.369
287.61	18.997
287.98	20.000
288.35	18.963
288.72	19.272
289.08	19.219
289.45	19.817
289.82	20.156
290.19	20.498
290.56	21.252
290.93	21.151
291.29	19.890
291.66	19.633
292.03	18.794
292.40	19.783
292.77	20.891
293.13	21.113
293.50	20.783
293.87	19.648
294.24	22.378
294.60	21.938
294.97	21.538
295.34	21.514
295.71	19.974
296.08	22.400
296.44	20.839
296.81	19.231
297.18	19.392
297.55	21.059
297.91	20.320
298.28	22.464
298.65	22.454
299.02	22.195
299.38	21.583
299.75	21.585
300.12	22.477
300.48	22.717
300.85	23.957
301.22	23.140
301.59	22.288
301.95	23.337
302.32	23.166
302.69	24.095
303.05	24.916
303.42	22.422
303.79	23.835
304.15	23.652
304.52	23.679
304.89	24.414
305.25	25.028
305.62	23.987
305.99	24.674
306.35	24.947
306.72	26.223
307.09	25.052
307.45	26.294
307.82	24.691
308.19	28.247
308.55	26.500
308.92	27.085
309.29	28.008
309.65	27.750
310.02	28.803
310.38	28.913
310.75	27.194
311.12	29.502
311.48	31.371
311.85	29.485
312.22	29.131
312.58	30.612
312.95	30.194
313.31	32.678
313.68	30.206
314.05	32.875
314.41	31.099
314.78	34.186
315.14	34.692
315.51	34.059
315.87	32.482
316.24	34.921
316.61	34.378
316.97	34.587
317.34	37.107
317.70	36.699
318.07	37.722
318.43	38.576
318.80	38.354
319.16	38.374
319.53	39.558
319.89	38.889
320.26	42.365
320.62	42.216
320.99	41.945
321.35	40.353
321.72	42.884
322.08	43.952
322.45	44.051
322.81	43.824
323.18	46.625
323.54	47.997
323.91	49.320
324.27	49.072
324.64	48.616
325.00	51.379
325.37	50.253
325.73	51.518
326.10	52.361
326.46	52.849
326.83	53.120
327.19	53.173
327.56	53.514
327.92	54.508
328.29	55.155
328.65	57.363
329.01	55.774
329.38	56.599
329.74	55.850
330.11	57.776
330.47	57.971
330.84	56.083
331.20	54.653
331.56	59.499
331.93	57.228
332.29	57.483
332.66	59.524
333.02	56.873
333.38	59.075
333.75	58.632
334.11	57.886
334.48	58.462
334.84	56.841
335.20	57.827
335.57	57.347
335.93	58.957
336.29	56.302
336.66	58.491
337.02	57.228
337.38	57.094
337.75	57.855
338.11	58.481
338.47	57.070
338.84	59.356
339.20	58.874
339.56	57.611
339.93	57.525
340.29	56.639
340.65	59.849
341.02	57.522
341.38	58.374
341.74	58.140
342.11	58.681
342.47	55.291
342.83	59.311
343.20	58.448
343.56	56.315
343.92	58.299
344.28	58.134
344.65	60.065
345.01	57.302
345.37	57.372
345.73	57.778
346.10	58.088
346.46	57.177
346.82	56.173
347.19	58.037
347.55	57.455
347.91	57.100
348.27	57.010
348.63	59.098
349.00	57.883
349.36	59.455
349.72	59.633
350.08	60.248
350.45	59.101
350.81	58.410
351.17	57.550
351.53	57.583
351.89	58.508
352.26	56.992
352.62	58.145
352.98	57.669
353.34	59.784
353.70	57.416
354.07	58.846
354.43	57.296
354.79	57.555
355.15	60.337
355.51	59.517
355.87	59.488
356.24	60.046
356.60	58.067
356.96	58.226
357.32	59.382
357.68	57.930
358.04	59.195
358.40	59.445
358.77	59.504
359.13	59.610
359.49	58.488
359.85	60.238
360.21	60.327
360.57	58.978
360.93	58.802
361.29	60.101
361.66	60.328
362.02	59.233
362.38	59.524
362.74	60.580
363.10	60.940
363.46	59.116
363.82	59.257
364.18	62.020
364.54	61.516
364.90	61.780
365.26	60.444
365.62	60.843
365.98	61.046
366.35	60.621
366.71	61.138
367.07	61.980
367.43	60.578
367.79	60.971
368.15	60.176
368.51	61.406
368.87	61.821
369.23	62.370
369.59	62.104
369.95	62.238
370.31	61.396
370.67	62.318
371.03	60.364
371.39	62.812
371.75	61.828
372.11	63.426
372.47	61.438
372.83	62.271
373.19	62.920
373.55	63.436
373.91	62.293
374.27	61.971
374.63	63.322
374.99	63.073
375.35	64.046
375.71	65.040
376.07	62.268
376.42	62.532
376.78	66.024
377.14	63.434
377.50	62.797
377.86	64.382
378.22	65.021
378.58	65.194
378.94	65.238
379.30	65.555
379.66	64.419
380.02	64.985
380.38	65.515
380.74	66.782
381.09	66.297
381.45	63.873
381.81	64.480
382.17	64.896
382.53	65.027
382.89	66.765
383.25	65.364
383.61	64.841
383.97	65.927
384.32	65.341
384.68	66.488
385.04	65.240
385.40	66.667
385.76	65.477
386.12	67.100
386.48	66.444
386.83	66.504
387.19	66.372
387.55	66.726
387.91	66.282
388.27	67.519
388.62	67.606
388.98	66.122
389.34	65.437
389.70	67.217
390.06	68.598
390.42	66.811
390.77	66.708
391.13	67.592
391.49	66.243
391.85	67.569
392.20	66.865
392.56	66.428
392.92	67.322
393.28	66.872
393.64	66.858
393.99	66.983
394.35	66.274
394.71	66.405
395.07	67.032
395.42	67.681
395.78	69.525
396.14	68.072
396.50	68.472
396.85	67.805
397.21	67.750
397.57	68.500
397.92	66.551
398.28	68.395
398.64	68.703
399.00	67.183
399.35	66.989
399.71	67.991
400.07	68.265
400.42	69.433
400.78	67.214
401.14	67.528
401.49	67.224
401.85	66.918
402.21	66.842
402.57	68.582
402.92	69.152
403.28	67.124
403.63	67.157
403.99	68.094
404.35	68.230
404.70	69.167
405.06	68.108
405.42	67.864
405.77	68.688
406.13	67.299
406.49	67.936
406.84	67.174
407.20	67.409
407.55	68.185
407.91	68.666
408.27	68.102
408.62	68.421
408.98	67.297
409.34	67.738
409.69	67.330
410.05	67.501
410.40	68.669
410.76	67.659
411.11	68.009
411.47	68.889
411.83	67.077
412.18	67.029
412.54	66.787
412.89	67.257
413.25	67.788
413.60	67.699
413.96	68.402
414.31	68.477
414.67	70.453
415.03	69.221
415.38	69.779
415.74	69.615
416.09	69.582
416.45	68.261
416.80	70.815
417.16	68.937
417.51	69.809
417.87	70.651
418.22	69.502
418.58	71.975
418.93	70.613
419.29	69.439
419.64	70.745
420.00	72.196
420.35	71.835
420.71	69.253
421.06	69.865
421.42	71.100
421.77	72.182
422.12	71.885
422.48	69.800
422.83	71.429
423.19	71.058
423.54	72.079
423.90	72.197
424.25	72.757
424.61	73.128
424.96	73.518
425.31	73.454
425.67	75.421
426.02	73.696
426.38	73.337
426.73	74.841
427.09	73.784
427.44	74.902
427.79	75.986
428.15	76.016
428.50	75.486
428.85	75.191
429.21	75.041
429.56	75.623
429.92	75.186
430.27	75.327
430.62	73.666
430.98	75.549
431.33	75.000
431.68	74.765
432.04	76.461
432.39	76.180
432.74	75.527
433.10	76.633
433.45	77.714
433.80	80.143
434.16	76.668
434.51	77.348
434.86	77.191
435.22	78.120
435.57	77.830
435.92	78.201
436.28	79.608
436.63	78.282
436.98	79.786
437.34	78.311
437.69	79.059
438.04	78.011
438.39	79.451
438.75	79.232
439.10	78.845
439.45	78.971
439.81	81.029
440.16	81.068
440.51	78.998
440.86	81.368
441.22	79.816
441.57	80.840
441.92	79.961
442.27	80.670
442.63	80.640
442.98	80.388
443.33	82.539
443.68	81.590
444.03	81.056
444.39	81.780
444.74	81.211
445.09	82.991
445.44	81.190
445.79	82.943
446.15	81.684
446.50	81.593
446.85	81.873
447.20	82.090
447.55	84.720
447.91	83.165
448.26	81.949
448.61	82.200
448.96	85.294
449.31	83.773
449.66	82.558
450.02	81.794
450.37	83.620
450.72	85.069
451.07	83.072
451.42	82.810
451.77	83.104
452.12	84.572
452.47	84.386
452.83	84.338
453.18	84.865
453.53	83.955
453.88	84.400
454.23	85.125
454.58	83.333
454.93	84.488
455.28	85.190
455.63	85.638
455.98	84.208
456.34	86.383
456.69	84.268
457.04	84.547
457.39	85.143
457.74	85.248
458.09	83.549
458.44	84.830
458.79	84.509
459.14	84.561
459.49	85.051
459.84	85.163
460.19	83.955
460.54	85.014
460.89	86.247
461.24	83.963
461.59	85.091
461.94	84.929
462.29	84.783
462.64	85.302
462.99	87.012
463.34	85.872
463.69	85.723
464.04	86.528
464.39	84.602
464.74	83.998
465.09	85.026
465.44	85.365
465.79	85.574
466.14	84.950
466.49	85.513
466.84	84.002
467.19	84.534
467.54	85.225
467.89	84.390
468.24	84.887
468.59	85.179
468.94	83.575
469.29	83.140
469.64	84.887
469.99	85.733
470.34	85.136
470.68	84.690
471.03	86.724
471.38	84.570
471.73	83.148
472.08	87.215
472.43	86.406
472.78	84.507
473.13	84.481
473.48	85.758
473.83	84.040
474.17	86.322
474.52	83.827
474.87	83.854
475.22	84.866
475.57	82.686
475.92	84.517
476.27	83.787
476.61	85.630
476.96	83.229
477.31	84.627
477.66	86.420
478.01	84.064
478.36	84.604
478.70	84.764
479.05	85.199
479.40	84.772
479.75	85.998
480.10	85.189
480.45	84.220
480.79	82.719
481.14	83.738
481.49	83.303
481.84	83.641
482.19	84.629
482.53	83.355
482.88	82.885
483.23	83.987
483.58	84.650
483.92	84.415
484.27	83.604
484.62	85.272
484.97	82.353
485.31	82.490
485.66	82.051
486.01	80.636
486.36	78.934
486.70	76.985
487.05	78.213
487.40	80.342
487.75	80.861
488.09	80.483
488.44	80.210
488.79	81.916
489.13	83.389
489.48	83.380
489.83	82.485
490.17	80.801
490.52	82.041
490.87	81.810
491.22	82.048
491.56	81.423
491.91	81.452
492.26	82.049
492.60	83.417
492.95	81.468
493.30	80.937
493.64	82.435
493.99	81.172
494.34	83.057
494.68	81.363
495.03	81.814
495.37	81.180
495.72	83.217
496.07	82.165
496.41	81.538
496.76	79.865
497.11	81.362
497.45	80.710
497.80	82.345
498.14	80.721
498.49	81.523
498.84	82.617
499.18	81.079
499.53	79.835
499.87	80.413
500.22	80.930
500.56	81.476
500.91	80.983
501.26	81.305
501.60	80.738
501.95	79.839
502.29	80.133
502.64	79.135
502.98	78.835
503.33	79.822
503.67	80.706
504.02	80.609
504.36	79.050
504.71	80.889
505.06	80.197
505.40	80.393
505.75	81.010
506.09	80.215
506.44	80.686
506.78	81.853
507.13	80.708
507.47	80.058
507.82	79.611
508.16	80.696
508.51	80.338
508.85	78.917
509.19	79.491
509.54	79.785
509.88	81.999
510.23	79.559
510.57	77.220
510.92	81.319
511.26	79.920
511.61	79.025
511.95	79.243
512.30	77.900
512.64	79.387
512.98	80.113
513.33	80.020
513.67	78.716
514.02	79.273
514.36	78.505
514.70	81.067
515.05	78.956
515.39	81.689
515.74	80.153
516.08	80.011
516.42	82.951
516.77	80.480
517.11	79.733
517.46	79.741
517.80	79.847
518.14	81.972
518.49	79.272
518.83	79.121
519.17	79.201
519.52	80.393
519.86	79.074
520.20	79.288
520.55	78.067
520.89	79.368
521.23	80.607
521.58	78.199
521.92	79.534
522.26	78.910
522.61	80.570
522.95	80.901
523.29	80.936
523.64	78.902
523.98	79.108
524.32	79.527
524.66	79.014
525.01	78.580
525.35	77.961
525.69	79.290
526.04	78.584
526.38	79.400
526.72	79.654
527.06	78.356
527.41	79.625
527.75	78.028
528.09	77.965
528.43	78.462
528.78	78.533
529.12	79.290
529.46	77.615
529.80	75.935
530.15	76.841
530.49	77.136
530.83	77.575
531.17	77.368
531.51	76.763
531.86	76.147
532.20	76.267
532.54	77.401
532.88	77.889
533.22	77.879
533.57	77.730
533.91	75.524
534.25	75.014
534.59	75.848
534.93	74.858
535.27	73.648
535.62	75.554
535.96	75.236
536.30	78.367
536.64	77.453
536.98	74.701
537.32	75.125
537.66	75.255
538.01	75.604
538.35	75.483
538.69	73.483
539.03	74.067
539.37	73.604
539.71	73.827
540.05	74.954
540.39	75.660
540.73	75.253
541.07	74.404
541.42	73.632
541.76	74.908
542.10	73.305
542.44	73.628
542.78	75.456
543.12	73.558
543.46	73.997
543.80	73.935
544.14	73.189
544.48	74.088
544.82	73.517
545.16	73.831
545.50	73.694
545.84	73.611
546.18	74.252
546.52	73.180
546.86	73.630
547.20	72.222
547.54	72.198
547.88	72.080
548.22	72.313
548.56	70.595
548.90	71.530
549.24	72.331
549.58	72.229
549.92	73.019
550.26	74.037
550.60	72.854
550.94	75.102
551.28	72.966
551.62	72.897
551.96	73.311
552.30	72.380
552.64	72.621
552.98	71.263
553.32	70.743
553.66	71.661
554.00	71.557
554.34	73.103
554.68	72.984
555.02	71.555
555.36	69.814
555.69	72.644
556.03	70.191
556.37	70.363
556.71	71.773
557.05	70.708
557.39	71.067
557.73	71.226
558.07	70.557
558.41	73.064
558.75	71.546
559.08	74.196
559.42	72.942
559.76	72.274
560.10	70.681
560.44	70.670
560.78	71.036
561.12	70.757
561.45	69.900
561.79	69.663
562.13	70.057
562.47	70.409
562.81	71.503
563.15	69.877
563.48	68.509
563.82	70.368
564.16	68.284
564.50	67.932
564.84	68.815
565.17	68.093
565.51	70.690
565.85	70.574
566.19	70.119
566.52	68.291
566.86	69.410
567.20	69.213
567.54	68.068
567.88	67.240
568.21	67.299
568.55	67.218
568.89	65.785
569.23	64.970
569.56	65.575
569.90	64.930
570.24	64.634
570.57	63.952
570.91	62.683
571.25	63.345
571.59	62.634
571.92	62.325
572.26	61.698
572.60	61.761
572.93	62.047
573.27	62.177
573.61	61.586
573.95	61.429
574.28	62.118
574.62	61.085
574.96	59.584
575.29	59.362
575.63	60.612
575.97	59.226
576.30	60.213
576.64	60.594
576.98	60.460
577.31	61.321
577.65	60.308
577.98	59.573
578.32	59.076
578.66	58.845
578.99	58.989
579.33	59.608
579.67	59.612
580.00	59.367
580.34	59.365
580.67	58.770
581.01	59.447
581.35	59.511
581.68	59.132
582.02	58.570
582.35	58.257
582.69	58.227
583.02	58.962
583.36	59.798
583.70	60.318
584.03	60.950
584.37	60.045
584.70	59.716
585.04	59.814
585.37	59.243
585.71	59.528
586.04	59.123
586.38	59.373
586.72	59.279
587.05	59.676
587.39	59.494
587.72	59.941
588.06	58.828
588.39	59.596
588.73	59.793
589.06	60.315
589.40	61.033
589.73	60.341
590.07	61.702
590.40	61.812
590.73	62.578
591.07	61.176
591.40	62.076
591.74	61.567
592.07	60.940
592.41	60.472
592.74	59.905
593.08	59.473
593.41	59.156
593.75	58.155
594.08	58.639
594.41	58.488
594.75	59.658
595.08	59.534
595.42	59.875
595.75	58.835
596.09	60.514
596.42	60.452
596.75	61.899
597.09	61.123
597.42	60.939
597.75	59.635
598.09	59.294
598.42	59.282
598.76	58.443
599.09	59.470
599.42	58.512
599.76	58.820
600.09	57.627
600.42	58.736
600.76	58.430
601.09	59.406
601.42	58.149
601.76	58.360
602.09	59.639
602.42	58.521
602.76	58.292
603.09	60.407
603.42	58.202
603.76	58.677
604.09	58.161
604.42	58.493
604.76	59.265
605.09	58.490
605.42	58.960
605.75	58.784
606.09	58.531
606.42	57.798
606.75	58.414
607.09	57.284
607.42	57.252
607.75	58.639
608.08	58.367
608.42	58.221
608.75	57.895
609.08	58.381
609.41	58.818
609.75	58.883
610.08	58.318
610.41	58.103
610.74	57.446
611.07	59.345
611.41	58.480
611.74	59.082
612.07	58.767
612.40	58.480
612.73	58.313
613.07	58.642
613.40	58.947
613.73	59.411
614.06	57.850
614.39	58.586
614.72	57.509
615.06	56.281
615.39	57.624
615.72	57.212
616.05	58.212
616.38	57.788
616.71	58.926
617.05	59.253
617.38	59.045
617.71	59.561
618.04	59.114
618.37	58.755
618.70	58.661
619.03	58.730
619.36	59.485
619.69	60.158
620.03	61.513
620.36	60.822
620.69	60.473
621.02	61.617
621.35	60.100
621.68	60.251
622.01	61.402
622.34	60.597
622.67	59.831
623.00	58.407
623.33	59.042
623.66	58.882
623.99	59.589
624.32	59.214
624.65	58.789
624.99	59.364
625.32	59.319
625.65	58.414
625.98	58.926
626.31	60.608
626.64	58.770
626.97	60.291
627.30	59.627
627.63	60.675
627.96	59.937
628.29	60.479
628.62	59.880
628.95	62.855
629.28	63.015
629.61	62.214
629.94	60.761
630.26	61.525
630.59	63.298
630.92	60.359
631.25	62.103
631.58	63.549
631.91	60.704
632.24	62.682
632.57	61.690
632.90	63.561
633.23	63.169
633.56	62.698
633.89	62.487
634.22	64.909
634.55	61.075
634.88	62.870
635.20	64.462
635.53	67.364
635.86	63.199
636.19	60.718
636.52	62.703
636.85	61.704
637.18	63.055
637.51	62.123
637.83	62.586
638.16	64.244
638.49	63.234
638.82	63.850
639.15	60.752
639.48	62.678
639.81	62.637
640.13	61.718
640.46	64.855
640.79	64.759
641.12	67.060
641.45	64.683
641.77	64.465
642.10	63.186
642.43	66.287
642.76	63.210
643.09	66.571
643.41	65.217
643.74	64.317
644.07	65.782
644.40	65.533
644.73	64.865
645.05	64.785
645.38	65.544
645.71	66.161
646.04	65.954
646.36	66.667
646.69	63.360
647.02	67.520
647.35	62.992
647.67	65.154
648.00	66.124
648.33	64.211
648.66	65.303
648.98	63.333
649.31	60.189
649.64	61.549
649.96	62.731
650.29	62.286
650.62	64.065
650.94	63.102
651.27	65.231
651.60	62.128
651.92	63.287
652.25	65.354
652.58	61.986
652.90	63.024
653.23	61.300
653.56	61.721
653.88	59.765
654.21	61.290
654.54	61.201
654.86	60.619
655.19	60.158
655.52	52.811
655.84	43.709
656.17	51.583
656.49	73.074
656.82	82.746
657.15	64.868
657.47	49.177
657.80	36.997
658.13	29.757
658.45	40.495
658.78	49.010
659.10	50.110
659.43	50.174
659.75	51.884
660.08	54.699
660.41	56.987
660.73	60.979
661.06	60.060
661.38	61.499
661.71	64.928
662.03	64.259
662.36	65.333
662.68	63.128
663.01	60.901
663.33	65.094
663.66	64.892
663.98	65.873
664.31	62.873
664.63	63.985
664.96	63.790
665.28	64.972
665.61	63.208
665.93	63.208
666.26	60.748
666.58	62.202
666.91	63.320
667.23	64.458
667.56	64.682
667.88	67.220
668.21	63.525
668.53	64.919
668.86	63.928
669.18	66.599
669.50	60.950
669.83	67.146
670.15	64.449
670.48	58.984
670.80	64.940
671.13	60.359
671.45	63.126
671.77	60.668
672.10	61.221
672.42	58.388
672.75	59.652
673.07	59.618
673.39	58.786
673.72	58.997
674.04	58.244
674.37	60.799
674.69	61.152
675.01	60.261
675.34	60.271
675.66	63.477
675.98	62.919
676.31	61.200
676.63	61.431
676.95	61.905
677.28	61.460
677.60	61.368
677.92	58.929
678.25	60.271
678.57	60.894
678.89	59.494
679.22	60.294
679.54	56.940
679.86	56.195
680.18	59.227
680.51	56.219
680.83	57.095
681.15	56.672
681.48	57.292
681.80	56.918
682.12	60.208
682.44	59.459
682.77	53.737
683.09	60.000
683.41	61.837
683.73	56.693
684.06	61.508
684.38	61.822
684.70	58.633
685.02	55.208
685.34	58.803
685.67	56.270
685.99	57.471
686.31	54.083
686.63	53.659
686.96	57.026
687.28	55.034
687.60	56.314
687.92	53.266
688.24	58.793
688.56	55.516
688.89	55.449
689.21	54.335
689.53	57.312
689.85	57.724
690.17	55.922
690.49	56.653
690.82	58.193
691.14	57.980
691.46	58.727
691.78	57.115
692.10	58.779
692.42	54.446
692.74	55.620
693.06	54.845
693.39	58.498
693.71	56.385
694.03	57.199
694.35	60.241
694.67	56.823
694.99	57.206
695.31	59.009
695.63	57.014
695.95	56.109
696.27	59.292
696.59	61.814
696.91	56.456
697.23	58.145
697.56	55.394
697.88	53.493
698.20	55.472
698.52	51.167
698.84	53.799
699.16	56.290
699.48	56.144
699.80	57.081
700.12	60.970
700.44	56.776
700.76	56.563
701.08	59.269
701.40	60.519
701.72	64.439
702.04	57.182
702.36	58.333
702.68	61.170
703.00	53.885
703.32	57.568
703.64	57.683
703.96	58.854
704.28	60.317
704.60	63.099
704.91	57.983
705.23	60.511
705.55	59.941
705.87	61.270
706.19	62.382
706.51	67.712
706.83	61.357
707.15	60.160
707.47	59.564
707.79	54.023
708.11	53.741
708.43	53.034
708.74	54.299
709.06	51.860
709.38	55.831
709.70	52.589
710.02	51.902
710.34	57.182
710.66	55.833
710.98	58.743
711.29	58.217
711.61	57.939
711.93	58.967
712.25	58.735
712.57	60.772
712.89	59.394
713.20	61.981
713.52	57.944
713.84	61.329
714.16	53.623
714.48	53.602
714.80	55.556
715.11	53.989
715.43	56.704
715.75	57.465
716.07	56.358
716.39	55.143
716.70	56.698
717.02	62.626
717.34	62.950
717.66	59.028
717.97	67.803
718.29	54.225
718.61	48.986
718.93	58.478
719.24	54.362
719.56	56.207
719.88	51.274
720.20	59.677
720.51	54.248
720.83	57.191
721.15	57.143
721.46	60.959
721.78	56.794
722.10	58.333
722.42	57.191
722.73	57.762
723.05	56.842
723.37	57.951
723.68	55.469
724.00	58.333
724.32	61.217
724.63	58.462
724.95	62.745
725.27	57.993
725.58	58.088
725.90	57.042
726.22	56.164
726.53	59.197
726.85	58.632
727.16	56.711
727.48	55.814
727.80	60.072
728.11	60.714
728.43	55.797
728.74	56.643
729.06	53.047
729.38	56.842
729.69	58.667
730.01	54.276
730.32	57.047
730.64	55.150
730.96	53.754
731.27	52.294
731.59	51.724
731.90	48.468
732.22	55.143
732.53	50.997
732.85	56.433
733.16	49.699
733.48	55.799
733.80	52.174
734.11	53.988
734.43	48.246
734.74	51.475
735.06	51.058
735.37	50.773
735.69	51.594
736.00	53.211
736.32	45.152
736.63	47.319
736.95	51.863
737.26	50.915
737.58	54.294
737.89	48.795
738.21	49.669
738.52	51.839
738.83	58.608
739.15	55.052
739.46	49.655
739.78	55.442
740.09	49.271
740.41	46.012
740.72	52.698
741.04	56.294
741.35	55.859
741.66	57.708
741.98	58.798
742.29	56.481
742.61	53.982
742.92	57.627
743.23	56.800
743.55	48.302
743.86	53.725
744.18	61.864
744.49	53.719
744.80	56.682
745.12	56.696
745.43	66.355
745.74	60.444
746.06	53.947
746.37	62.326
746.68	61.504
747.00	57.848
747.31	54.202
747.62	55.738
747.94	57.511
748.25	54.086
748.56	56.356
748.88	59.375
749.19	58.605
749.50	55.251
749.82	55.556
750.13	52.569
750.44	51.333
750.75	52.349
751.07	51.645
751.38	51.485
751.69	53.199
752.01	51.748
752.32	50.831
752.63	50.671
752.94	52.448
753.26	57.031
753.57	54.475
753.88	49.438
754.19	54.874
754.51	50.831
754.82	47.987
755.13	48.311
755.44	54.074
755.75	54.983
756.07	51.027
756.38	50.654
756.69	50.938
757.00	48.071
757.31	46.197
757.63	44.353
757.94	48.138
758.25	47.101
758.56	39.588
758.87	49.624
759.18	48.256
759.50	51.976
759.81	49.555
760.12	49.157
760.43	47.899
760.74	43.797
761.05	46.154
761.36	44.010
761.67	45.822
761.99	48.169
762.30	49.196
762.61	46.528
762.92	46.591
763.23	49.811
763.54	50.000
763.85	49.416
764.16	49.653
764.47	49.324
764.78	46.906
765.10	44.207
765.41	43.750
765.72	44.199
766.03	46.224
766.34	49.826
766.65	47.148
766.96	57.085
767.27	61.682
767.58	58.416
767.89	62.431
768.20	66.463
768.51	51.020
768.82	58.333
769.13	51.765
769.44	48.496
769.75	46.067
770.06	55.042
770.37	46.930
770.68	47.111
770.99	52.966
771.30	52.301
771.61	51.154
771.92	48.855
772.23	50.403
772.54	50.667
772.85	59.901
773.16	50.000
773.47	61.111
773.78	53.960
774.09	59.091
774.39	63.030
774.70	52.941
775.01	55.263
775.32	54.037
775.63	67.808
775.94	59.877
776.25	60.690
776.56	67.939
776.87	61.069
777.18	52.273
777.48	81.102
777.79	62.308
778.10	64.394
778.41	68.657
778.72	54.135
779.03	57.692
779.34	53.378
779.65	54.037
779.95	57.764
780.26	58.929
780.57	63.265
780.88	58.865
781.19	69.167
781.50	51.479
781.80	49.180
782.11	56.614
782.42	51.149
782.73	55.367
783.04	65.161
783.34	56.589
783.65	59.184
783.96	55.484
784.27	57.616
784.57	48.684
784.88	55.072
785.19	60.000
785.50	68.966
785.81	62.791
786.11	62.222
786.42	51.969
786.73	61.261
787.04	64.151
787.34	56.098
787.65	62.879
787.96	61.364
788.26	62.205
788.57	59.854
788.88	66.197
789.19	54.198
789.49	56.757
789.80	58.594
790.11	61.157
790.41	64.815
790.72	57.407
791.03	61.538
791.33	71.717
791.64	78.947
791.95	69.474
792.25	63.542
792.56	66.000
792.87	69.512
793.17	72.727
793.48	74.118
793.79	66.667
794.09	57.955
794.40	68.103
794.70	61.111
795.01	46.154
795.32	55.725
795.62	50.427
795.93	68.067
796.23	60.163
796.54	75.510
796.85	73.864
797.15	81.818
797.46	67.073
797.76	68.750
798.07	80.000
798.37	78.750
798.68	80.000
798.99	79.268
799.29	58.667
799.60	58.140
799.90	72.368
800.21	83.333
800.51	66.197
800.82	86.207
801.12	90.769
801.43	94.667
801.73	93.103
802.04	68.831
802.34	61.644
802.65	98.039
802.95	84.783
803.26	98.387
803.56	98.333
803.87	88.060
804.17	98.413
804.48	88.679
804.78	73.611
805.09	87.879
805.39	79.365
805.70	94.737
806.00	67.143
806.30	73.437
806.61	78.824
806.91	66.667
807.22	65.217
807.52	78.947
807.83	75.000
808.13	79.710
808.43	98.387
808.74	82.192
809.04	96.429
809.35	79.412
809.65	78.788
809.95	74.510
810.26	111.111
810.56	92.188
810.86	93.878
811.17	92.982
811.47	91.304
811.77	68.966
812.08	62.069
812.38	83.333
812.69	128.571
812.99	104.444
813.29	108.571
813.59	125.806
813.90	84.483
814.20	104.918
814.50	102.000
814.81	85.965
815.11	74.074
815.41	94.643
815.72	91.071
816.02	96.000
816.32	124.390
816.62	106.897
816.93	136.364
817.23	102.439
817.53	80.357
817.84	80.000
818.14	80.952
818.44	93.750
818.74	94.340
819.04	84.615
819.35	118.182
819.65	94.231
819.95	103.704
820.25	108.511
820.56	127.027
820.86	118.421
821.16	68.085
821.46	102.632
821.76	101.818
822.07	95.238
822.37	92.105
822.67	116.279
822.97	65.789
823.27	121.739
823.57	131.250
823.88	105.128
824.18	84.848
824.48	191.304
824.78	127.778
825.08	178.261
825.38	162.069
825.69	132.353
825.99	82.979
826.29	94.444
826.59	114.286
826.89	153.333
827.19	117.143
827.49	129.032
827.79	130.769
828.09	90.476
828.39	97.222
828.70	100.000
829.00	171.429
829.30	193.750
829.60	105.556
829.90	116.129
830.20	127.273
830.50	140.541
830.80	154.167
831.10	150.000
831.40	147.619
831.70	220.833
832.00	106.667
832.30	169.565
832.60	204.167
832.90	136.364
833.20	215.000
833.50	128.947
833.80	102.941
834.10	97.368
834.40	147.368
834.70	103.333
835.00	112.000
835.30	108.108
835.60	115.625
835.90	102.703
836.20	146.154
836.50	145.455
836.80	102.439
837.10	117.391
837.40	338.462
837.70	184.211
838.00	143.333
838.30	162.500
838.60	128.000
838.90	210.000
839.19	200.000
839.49	133.333
839.79	113.793
840.09	134.615
840.39	186.667
840.69	247.368
840.99	142.857
841.29	195.652
841.59	215.000
841.88	140.000
842.18	266.667
842.48	135.714
842.78	159.259
843.08	238.462
843.38	131.818
843.68	250.000
843.97	471.429
844.27	152.174
844.57	1500.000
844.87	285.714
845.17	183.333
845.47	142.857
845.76	133.333
846.06	542.857
846.36	188.235
846.66	253.846
846.96	150.000
847.25	230.769
847.55	173.684
847.85	194.444
848.15	420.000
848.44	318.182
848.74	147.619
849.04	162.500
849.34	194.118
849.63	256.250
849.93	212.500
850.23	866.667
850.53	400.000
850.82	245.455
851.12	164.706
851.42	179.167
851.71	218.750
852.01	0.000
852.31	211.765
852.61	350.000
852.90	108.333
853.20	311.111
853.50	-1900.000
853.79	120.000
854.09	121.875
854.39	106.897
854.68	165.517
854.98	166.667
855.28	119.355
855.57	185.714
855.87	150.000
856.17	118.519
856.46	178.947
856.76	129.032
857.05	235.294
857.35	200.000
857.65	192.308
857.94	175.000
858.24	366.667
858.53	235.714
858.83	600.000
859.13	117.391
859.42	288.889
859.72	412.500
860.01	250.000
860.31	575.000
860.60	340.000
860.90	262.500
861.20	261.538
861.49	257.143
861.79	-2800.000
862.08	428.571
862.38	400.000
862.67	221.429
862.97	320.000
863.26	116.667
863.56	1000.000
863.85	284.615
864.15	170.588
864.44	161.111
864.74	308.333
865.03	309.091
865.33	212.500
865.62	213.333
865.92	516.667
866.21	625.000
866.51	460.000
866.80	172.222
867.10	766.667
867.39	3300.000
867.69	500.000
867.98	700.000
868.27	214.286
868.57	200.000
868.86	650.000
869.16	109.524
869.45	3200.000
869.75	-383.333
870.04	375.000
870.33	520.000
870.63	287.500
870.92	170.588
871.22	625.000
871.51	471.429
871.80	275.000
872.10	246.154
>>>>>End Processed Spectral Data<<<<<
