SpectraSuite Data File
++++++++++++++++++++++++++++++++++++
Date: Tue May 12 16:29:22 PDT 2015
User: schluterlab
Dark Spectrum Present: Yes
Reference Spectrum Present: Yes
Number of Sampled Component Spectra: 1
Spectrometers: USB2E3373
Integration Time (usec): 3000 (USB2E3373)
Spectra Averaged: 3 (USB2E3373)
Boxcar Smoothing: 0 (USB2E3373)
Correct for Electrical Dark: No (USB2E3373)
Strobe/Lamp Enabled: No (USB2E3373)
Correct for Detector Non-linearity: No (USB2E3373)
Correct for Stray Light: No (USB2E3373)
Number of Pixels in Processed Spectrum: 2048
>>>>>Begin Processed Spectral Data<<<<<
178.53	0.000
178.91	-208.333
179.29	-675.000
179.67	-2800.000
180.04	-80.000
180.42	550.000
180.80	1500.000
181.18	0.000
181.56	-287.500
181.94	0.000
182.31	1133.333
182.69	-2800.000
183.07	514.286
183.45	-2300.000
183.83	-1650.000
184.20	410.000
184.58	357.143
184.96	-207.692
185.34	-250.000
185.72	1600.000
186.09	-775.000
186.47	-3700.000
186.85	1133.333
187.23	860.000
187.61	2050.000
187.98	350.000
188.36	250.000
188.74	350.000
189.12	308.333
189.49	1025.000
189.87	0.000
190.25	500.000
190.63	2600.000
191.00	-175.000
191.38	-3500.000
191.76	-675.000
192.14	525.000
192.51	-2300.000
192.89	1950.000
193.27	1166.667
193.65	-1000.000
194.02	-660.000
194.40	442.857
194.78	-128.571
195.15	306.667
195.53	-2100.000
195.91	-640.000
196.29	3300.000
196.66	256.250
197.04	950.000
197.42	-1350.000
197.79	650.000
198.17	241.667
198.55	0.000
198.92	600.000
199.30	1233.333
199.68	2350.000
200.05	616.667
200.43	-350.000
200.81	161.111
201.18	3000.000
201.56	366.667
201.94	-775.000
202.31	-337.500
202.69	-580.000
203.07	3300.000
203.44	-533.333
203.82	350.000
204.19	580.000
204.57	-1250.000
204.95	-750.000
205.32	-720.000
205.70	666.667
206.08	875.000
206.45	-1233.333
206.83	311.111
207.20	173.684
207.58	275.000
207.96	600.000
208.33	0.000
208.71	571.429
209.08	600.000
209.46	-2900.000
209.84	-675.000
210.21	1040.000
210.59	-320.000
210.96	266.667
211.34	-725.000
211.71	354.545
212.09	1075.000
212.46	1950.000
212.84	-333.333
213.22	422.222
213.59	-2900.000
213.97	260.000
214.34	775.000
214.72	1133.333
215.09	1000.000
215.47	-2900.000
215.84	-340.000
216.22	-450.000
216.59	0.000
216.97	0.000
217.34	1400.000
217.72	-1600.000
218.09	900.000
218.47	387.500
218.84	750.000
219.22	800.000
219.59	1033.333
219.97	528.571
220.34	366.667
220.72	1900.000
221.09	2500.000
221.47	308.333
221.84	966.667
222.22	290.000
222.59	261.111
222.97	257.143
223.34	293.750
223.72	-1850.000
224.09	1166.667
224.46	223.077
224.84	-725.000
225.21	311.111
225.59	273.333
225.96	1166.667
226.34	-640.000
226.71	-775.000
227.08	-480.000
227.46	0.000
227.83	-533.333
228.21	-1350.000
228.58	408.333
228.95	700.000
229.33	488.889
229.70	1100.000
230.08	369.231
230.45	3200.000
230.82	-950.000
231.20	-866.667
231.57	-966.667
231.95	600.000
232.32	283.333
232.69	666.667
233.07	241.667
233.44	-1250.000
233.81	333.333
234.19	188.889
234.56	287.500
234.93	229.412
235.31	245.000
235.68	281.250
236.05	189.286
236.43	192.593
236.80	371.429
237.17	213.793
237.55	168.750
237.92	157.500
238.29	187.879
238.67	175.000
239.04	156.098
239.41	131.250
239.79	162.500
240.16	150.000
240.53	136.066
240.91	115.942
241.28	142.373
241.65	130.303
242.02	133.803
242.40	151.429
242.77	117.582
243.14	116.456
243.51	128.283
243.89	100.000
244.26	104.673
244.63	113.861
245.00	108.257
245.38	111.017
245.75	101.515
246.12	102.963
246.49	102.837
246.87	108.197
247.24	101.333
247.61	97.500
247.98	108.163
248.36	103.636
248.73	91.837
249.10	106.548
249.47	95.500
249.84	93.532
250.22	106.486
250.59	92.500
250.96	91.561
251.33	96.744
251.70	100.446
252.08	99.160
252.45	89.641
252.82	87.072
253.19	92.885
253.56	91.538
253.94	87.681
254.31	96.124
254.68	94.077
255.05	90.345
255.42	95.620
255.79	89.577
256.16	96.610
256.54	96.429
256.91	92.157
257.28	96.990
257.65	87.461
258.02	89.381
258.39	86.246
258.76	83.768
259.14	89.429
259.51	91.254
259.88	92.705
260.25	87.088
260.62	88.219
260.99	89.532
261.36	88.579
261.73	90.160
262.10	92.932
262.47	85.000
262.85	89.067
263.22	87.661
263.59	88.235
263.96	84.712
264.33	86.420
264.70	92.629
265.07	89.024
265.44	89.679
265.81	87.736
266.18	86.270
266.55	88.889
266.92	87.919
267.29	87.281
267.66	87.668
268.03	87.444
268.40	83.298
268.77	86.564
269.14	85.900
269.51	84.633
269.88	86.327
270.25	81.210
270.62	84.120
270.99	83.773
271.36	84.553
271.73	87.212
272.10	85.455
272.47	82.341
272.84	80.040
273.21	83.884
273.58	84.211
273.95	86.858
274.32	82.490
274.69	86.024
275.06	80.328
275.43	80.843
275.80	85.094
276.17	79.596
276.54	77.196
276.91	82.836
277.28	80.839
277.65	82.657
278.02	79.228
278.39	82.194
278.76	76.897
279.13	77.402
279.50	81.091
279.87	79.516
280.23	83.241
280.60	86.314
280.97	83.793
281.34	79.208
281.71	80.522
282.08	80.000
282.45	79.392
282.82	82.441
283.19	75.835
283.56	75.702
283.92	80.619
284.29	78.536
284.66	77.983
285.03	79.436
285.40	76.198
285.77	75.463
286.14	73.839
286.51	76.534
286.87	77.532
287.24	72.673
287.61	74.164
287.98	71.791
288.35	72.889
288.72	72.534
289.08	74.024
289.45	71.799
289.82	72.344
290.19	68.960
290.56	72.489
290.93	69.640
291.29	68.508
291.66	66.949
292.03	68.443
292.40	68.157
292.77	68.384
293.13	68.331
293.50	65.452
293.87	65.447
294.24	65.175
294.60	67.295
294.97	65.594
295.34	63.347
295.71	63.206
296.08	64.400
296.44	63.659
296.81	61.290
297.18	59.442
297.55	62.192
297.91	58.867
298.28	59.903
298.65	60.491
299.02	59.349
299.38	59.832
299.75	58.415
300.12	58.830
300.48	60.422
300.85	57.926
301.22	57.326
301.59	57.665
301.95	58.110
302.32	57.974
302.69	56.335
303.05	58.361
303.42	54.821
303.79	55.688
304.15	55.556
304.52	54.228
304.89	55.117
305.25	55.840
305.62	54.371
305.99	54.130
306.35	53.158
306.72	54.422
307.09	53.623
307.45	53.115
307.82	52.984
308.19	53.608
308.55	52.200
308.92	52.502
309.29	52.959
309.65	53.023
310.02	54.158
310.38	51.944
310.75	51.591
311.12	52.203
311.48	53.958
311.85	51.336
312.22	52.722
312.58	51.603
312.95	51.553
313.31	53.184
313.68	50.469
314.05	51.832
314.41	49.814
314.78	53.504
315.14	53.649
315.51	52.886
315.87	49.909
316.24	49.860
316.61	51.119
316.97	50.642
317.34	52.291
317.70	50.834
318.07	51.957
318.43	49.824
318.80	50.525
319.16	49.650
319.53	50.442
319.89	50.358
320.26	50.931
320.62	51.832
320.99	51.287
321.35	50.649
321.72	51.044
322.08	50.877
322.45	49.773
322.81	50.686
323.18	51.510
323.54	50.871
323.91	50.680
324.27	50.928
324.64	48.962
325.00	51.983
325.37	51.265
325.73	51.433
326.10	51.698
326.46	50.784
326.83	51.680
327.19	50.522
327.56	50.958
327.92	51.066
328.29	51.964
328.65	51.370
329.01	49.358
329.38	49.408
329.74	49.360
330.11	50.304
330.47	50.384
330.84	48.490
331.20	48.562
331.56	50.777
331.93	50.214
332.29	47.874
332.66	50.595
333.02	47.852
333.38	49.913
333.75	47.540
334.11	48.993
334.48	49.060
334.84	48.311
335.20	49.102
335.57	47.691
335.93	48.360
336.29	47.098
336.66	49.743
337.02	48.075
337.38	48.237
337.75	49.071
338.11	48.017
338.47	46.909
338.84	47.925
339.20	47.100
339.56	48.360
339.93	46.656
340.29	45.546
340.65	46.773
341.02	47.627
341.38	45.813
341.74	48.422
342.11	45.576
342.47	46.021
342.83	47.744
343.20	46.968
343.56	45.512
343.92	47.481
344.28	46.172
344.65	47.922
345.01	45.714
345.37	45.833
345.73	45.794
346.10	45.817
346.46	47.847
346.82	43.596
347.19	45.286
347.55	44.887
347.91	45.015
348.27	43.610
348.63	44.858
349.00	44.707
349.36	44.280
349.72	44.190
350.08	45.264
350.45	44.250
350.81	45.795
351.17	43.914
351.53	45.727
351.89	44.444
352.26	44.671
352.62	43.439
352.98	44.402
353.34	44.915
353.70	43.807
354.07	44.615
354.43	43.856
354.79	42.749
355.15	43.951
355.51	42.825
355.87	43.449
356.24	43.418
356.60	43.151
356.96	43.594
357.32	42.954
357.68	43.539
358.04	44.377
358.40	43.178
358.77	44.102
359.13	43.393
359.49	43.662
359.85	43.187
360.21	42.199
360.57	42.044
360.93	41.558
361.29	42.641
361.66	44.072
362.02	41.122
362.38	43.146
362.74	43.029
363.10	42.076
363.46	40.953
363.82	42.356
364.18	42.745
364.54	42.847
364.90	42.637
365.26	42.124
365.62	42.196
365.98	41.569
366.35	40.828
366.71	42.332
367.07	42.526
367.43	40.766
367.79	41.024
368.15	41.452
368.51	41.902
368.87	41.848
369.23	40.818
369.59	42.347
369.95	43.147
370.31	40.110
370.67	42.054
371.03	41.036
371.39	41.967
371.75	40.056
372.11	41.400
372.47	41.370
372.83	41.536
373.19	41.741
373.55	41.443
373.91	39.848
374.27	40.542
374.63	40.136
374.99	40.027
375.35	41.868
375.71	40.699
376.07	41.313
376.42	40.409
376.78	41.169
377.14	40.039
377.50	39.888
377.86	40.807
378.22	40.341
378.58	41.707
378.94	40.736
379.30	40.327
379.66	41.120
380.02	40.352
380.38	39.871
380.74	41.176
381.09	40.479
381.45	39.769
381.81	39.894
382.17	39.744
382.53	39.112
382.89	40.627
383.25	39.964
383.61	40.058
383.97	38.872
384.32	40.747
384.68	40.523
385.04	40.328
385.40	40.807
385.76	38.561
386.12	40.198
386.48	39.210
386.83	40.526
387.19	40.459
387.55	39.223
387.91	40.127
388.27	39.203
388.62	39.495
388.98	39.184
389.34	38.073
389.70	39.917
390.06	40.732
390.42	39.173
390.77	39.988
391.13	39.469
391.49	39.685
391.85	39.938
392.20	39.333
392.56	39.307
392.92	39.641
393.28	38.509
393.64	38.876
393.99	38.826
394.35	39.376
394.71	39.144
395.07	38.808
395.42	38.583
395.78	38.865
396.14	40.181
396.50	38.267
396.85	37.622
397.21	38.568
397.57	39.091
397.92	37.088
398.28	38.445
398.64	39.151
399.00	38.642
399.35	37.789
399.71	37.914
400.07	38.242
400.42	39.881
400.78	38.416
401.14	37.581
401.49	37.961
401.85	39.571
402.21	37.961
402.57	39.258
402.92	38.485
403.28	37.351
403.63	37.081
403.99	38.601
404.35	38.921
404.70	37.803
405.06	38.237
405.42	37.582
405.77	38.093
406.13	38.232
406.49	37.408
406.84	37.507
407.20	38.699
407.55	38.523
407.91	38.928
408.27	38.448
408.62	37.966
408.98	38.380
409.34	36.937
409.69	38.083
410.05	37.090
410.40	37.927
410.76	37.607
411.11	38.152
411.47	37.099
411.83	37.083
412.18	37.017
412.54	37.538
412.89	37.581
413.25	37.286
413.60	37.091
413.96	37.822
414.31	36.541
414.67	37.741
415.03	37.739
415.38	37.855
415.74	37.461
416.09	37.664
416.45	38.914
416.80	38.679
417.16	36.983
417.51	37.516
417.87	37.735
418.22	36.756
418.58	37.070
418.93	37.061
419.29	36.969
419.64	36.887
420.00	38.067
420.35	37.398
420.71	35.881
421.06	37.081
421.42	38.112
421.77	37.979
422.12	36.163
422.48	36.261
422.83	37.667
423.19	36.933
423.54	36.478
423.90	37.089
424.25	37.094
424.61	38.305
424.96	36.759
425.31	37.329
425.67	37.542
426.02	38.194
426.38	37.806
426.73	37.652
427.09	37.189
427.44	36.747
427.79	37.679
428.15	37.360
428.50	37.257
428.85	36.978
429.21	36.845
429.56	36.241
429.92	37.046
430.27	36.575
430.62	35.683
430.98	36.826
431.33	35.938
431.68	35.901
432.04	36.782
432.39	36.718
432.74	36.768
433.10	36.268
433.45	37.277
433.80	37.507
434.16	36.311
434.51	37.255
434.86	36.473
435.22	36.683
435.57	37.167
435.92	37.792
436.28	37.615
436.63	36.035
436.98	37.782
437.34	36.929
437.69	35.722
438.04	37.097
438.39	36.252
438.75	37.528
439.10	35.888
439.45	35.218
439.81	37.189
440.16	37.149
440.51	36.374
440.86	36.980
441.22	37.662
441.57	36.745
441.92	36.575
442.27	35.876
442.63	36.331
442.98	36.099
443.33	35.886
443.68	36.771
444.03	35.627
444.39	35.970
444.74	36.905
445.09	37.072
445.44	36.610
445.79	35.867
446.15	36.895
446.50	36.709
446.85	36.006
447.20	35.771
447.55	36.542
447.91	36.175
448.26	36.635
448.61	37.258
448.96	35.948
449.31	37.184
449.66	37.652
450.02	36.899
450.37	35.536
450.72	37.851
451.07	36.707
451.42	36.515
451.77	36.082
452.12	36.642
452.47	37.789
452.83	36.507
453.18	36.517
453.53	37.359
453.88	36.629
454.23	36.723
454.58	35.548
454.93	36.419
455.28	37.209
455.63	37.766
455.98	36.435
456.34	36.960
456.69	36.707
457.04	36.038
457.39	35.200
457.74	37.556
458.09	36.272
458.44	36.254
458.79	36.233
459.14	35.734
459.49	37.599
459.84	36.902
460.19	36.554
460.54	37.094
460.89	36.567
461.24	36.140
461.59	36.054
461.94	35.402
462.29	36.728
462.64	37.688
462.99	36.980
463.34	37.848
463.69	37.145
464.04	36.615
464.39	36.291
464.74	36.049
465.09	35.519
465.44	36.670
465.79	35.874
466.14	34.764
466.49	35.377
466.84	36.065
467.19	35.501
467.54	36.697
467.89	35.857
468.24	35.785
468.59	35.893
468.94	36.353
469.29	36.530
469.64	36.141
469.99	37.532
470.34	36.433
470.68	35.862
471.03	36.358
471.38	36.887
471.73	36.055
472.08	37.900
472.43	36.251
472.78	36.748
473.13	35.294
473.48	36.430
473.83	36.219
474.17	36.231
474.52	36.256
474.87	36.043
475.22	35.066
475.57	35.362
475.92	35.105
476.27	34.766
476.61	35.818
476.96	36.468
477.31	36.555
477.66	35.963
478.01	35.792
478.36	35.324
478.70	35.434
479.05	35.669
479.40	35.218
479.75	37.239
480.10	36.399
480.45	35.061
480.79	35.622
481.14	35.901
481.49	35.819
481.84	35.268
482.19	36.157
482.53	35.441
482.88	34.991
483.23	35.724
483.58	36.266
483.92	36.289
484.27	35.445
484.62	36.248
484.97	34.242
485.31	34.461
485.66	34.555
486.01	34.096
486.36	34.395
486.70	33.585
487.05	34.234
487.40	33.856
487.75	34.258
488.09	34.318
488.44	34.799
488.79	34.988
489.13	34.752
489.48	34.838
489.83	35.613
490.17	35.095
490.52	34.755
490.87	35.560
491.22	35.284
491.56	35.749
491.91	34.050
492.26	35.278
492.60	35.399
492.95	34.798
493.30	34.941
493.64	34.996
493.99	35.420
494.34	35.589
494.68	34.750
495.03	35.608
495.37	35.164
495.72	35.804
496.07	35.535
496.41	35.838
496.76	34.656
497.11	35.733
497.45	34.722
497.80	35.125
498.14	35.044
498.49	35.562
498.84	35.981
499.18	33.775
499.53	35.278
499.87	34.501
500.22	35.053
500.56	34.726
500.91	35.993
501.26	35.554
501.60	35.246
501.95	34.812
502.29	35.200
502.64	34.583
502.98	34.415
503.33	35.724
503.67	34.923
504.02	34.124
504.36	34.887
504.71	35.099
505.06	35.476
505.40	34.066
505.75	34.284
506.09	34.718
506.44	35.338
506.78	35.113
507.13	34.949
507.47	34.401
507.82	35.328
508.16	35.669
508.51	35.024
508.85	34.948
509.19	35.242
509.54	34.961
509.88	35.306
510.23	35.294
510.57	33.446
510.92	34.665
511.26	34.990
511.61	35.106
511.95	34.594
512.30	34.350
512.64	35.254
512.98	34.495
513.33	34.836
513.67	34.231
514.02	33.922
514.36	33.956
514.70	35.520
515.05	34.257
515.39	35.691
515.74	35.703
516.08	34.858
516.42	36.175
516.77	34.987
517.11	34.080
517.46	35.129
517.80	34.681
518.14	35.662
518.49	35.391
518.83	34.231
519.17	35.607
519.52	34.735
519.86	34.823
520.20	35.452
520.55	35.896
520.89	34.540
521.23	35.631
521.58	34.251
521.92	34.927
522.26	35.012
522.61	36.601
522.95	35.796
523.29	36.316
523.64	34.277
523.98	35.270
524.32	35.006
524.66	35.478
525.01	35.089
525.35	34.532
525.69	35.461
526.04	34.979
526.38	35.433
526.72	35.263
527.06	35.305
527.41	36.094
527.75	34.693
528.09	34.317
528.43	34.899
528.78	35.361
529.12	35.581
529.46	34.600
529.80	34.871
530.15	34.473
530.49	33.333
530.83	35.771
531.17	35.424
531.51	35.193
531.86	34.662
532.20	35.043
532.54	34.903
532.88	34.853
533.22	35.893
533.57	35.021
533.91	34.557
534.25	33.814
534.59	35.731
534.93	34.983
535.27	33.011
535.62	34.131
535.96	35.165
536.30	35.222
536.64	34.037
536.98	34.047
537.32	34.750
537.66	34.630
538.01	35.170
538.35	34.498
538.69	34.345
539.03	34.204
539.37	34.951
539.71	35.432
540.05	34.646
540.39	35.031
540.73	35.000
541.07	34.003
541.42	33.831
541.76	34.402
542.10	34.525
542.44	35.536
542.78	34.802
543.12	35.092
543.46	35.150
543.80	34.273
544.14	33.870
544.48	34.732
544.82	34.801
545.16	34.608
545.50	34.665
545.84	34.659
546.18	35.696
546.52	35.344
546.86	34.300
547.20	34.690
547.54	33.186
547.88	35.219
548.22	33.819
548.56	33.648
548.90	34.282
549.24	35.186
549.58	33.505
549.92	35.363
550.26	34.145
550.60	35.396
550.94	34.600
551.28	35.172
551.62	35.172
551.96	34.459
552.30	33.553
552.64	35.405
552.98	34.085
553.32	33.803
553.66	33.941
554.00	33.784
554.34	35.153
554.68	34.140
555.02	35.845
555.36	34.508
555.69	33.442
556.03	34.395
556.37	33.971
556.71	34.420
557.05	33.683
557.39	33.333
557.73	33.895
558.07	35.010
558.41	34.407
558.75	33.789
559.08	34.525
559.42	35.004
559.76	34.783
560.10	34.962
560.44	33.709
560.78	34.527
561.12	35.855
561.45	33.855
561.79	33.958
562.13	33.354
562.47	34.328
562.81	34.157
563.15	33.937
563.48	32.733
563.82	34.623
564.16	35.012
564.50	33.032
564.84	33.739
565.17	33.749
565.51	34.914
565.85	33.930
566.19	34.048
566.52	33.273
566.86	35.026
567.20	34.551
567.54	33.188
567.88	34.064
568.21	33.350
568.55	34.193
568.89	32.892
569.23	33.736
569.56	33.666
569.90	33.094
570.24	33.560
570.57	33.485
570.91	32.324
571.25	32.147
571.59	32.036
571.92	32.051
572.26	32.075
572.60	32.324
572.93	32.432
573.27	32.596
573.61	32.187
573.95	32.495
574.28	31.992
574.62	32.045
574.96	31.759
575.29	31.718
575.63	31.519
575.97	31.743
576.30	31.536
576.64	31.379
576.98	32.087
577.31	32.296
577.65	32.112
577.98	32.057
578.32	31.669
578.66	32.135
578.99	32.683
579.33	31.822
579.67	31.687
580.00	32.011
580.34	31.828
580.67	31.253
581.01	32.807
581.35	31.823
581.68	31.266
582.02	32.244
582.35	31.671
582.69	32.056
583.02	31.876
583.36	31.913
583.70	31.335
584.03	32.264
584.37	31.878
584.70	32.023
585.04	31.811
585.37	31.515
585.71	32.292
586.04	31.653
586.38	31.817
586.72	32.149
587.05	31.884
587.39	31.960
587.72	31.471
588.06	32.456
588.39	31.755
588.73	31.899
589.06	32.156
589.40	32.895
589.73	32.317
590.07	33.493
590.40	32.509
590.73	33.162
591.07	33.169
591.40	31.577
591.74	32.792
592.07	32.030
592.41	32.774
592.74	32.332
593.08	31.771
593.41	32.286
593.75	32.357
594.08	32.060
594.41	32.063
594.75	32.192
595.08	32.339
595.42	32.192
595.75	31.951
596.09	32.499
596.42	32.156
596.75	32.412
597.09	32.274
597.42	31.796
597.75	32.495
598.09	31.801
598.42	31.579
598.76	32.228
599.09	32.328
599.42	31.384
599.76	32.225
600.09	32.407
600.42	32.528
600.76	31.849
601.09	32.171
601.42	31.749
601.76	32.044
602.09	32.340
602.42	31.312
602.76	32.334
603.09	31.787
603.42	31.817
603.76	31.562
604.09	31.596
604.42	32.354
604.76	32.043
605.09	32.408
605.42	32.548
605.75	32.294
606.09	32.594
606.42	32.168
606.75	32.103
607.09	31.149
607.42	32.824
607.75	31.807
608.08	32.088
608.42	32.047
608.75	31.921
609.08	32.160
609.41	32.727
609.75	32.097
610.08	32.194
610.41	32.718
610.74	32.035
611.07	32.651
611.41	32.808
611.74	32.409
612.07	32.225
612.40	32.212
612.73	33.250
613.07	33.147
613.40	32.180
613.73	31.852
614.06	31.750
614.39	32.071
614.72	31.944
615.06	31.998
615.39	31.931
615.72	32.043
616.05	31.642
616.38	32.522
616.71	31.308
617.05	31.851
617.38	32.697
617.71	32.227
618.04	33.034
618.37	32.518
618.70	32.506
619.03	32.845
619.36	32.663
619.69	32.652
620.03	33.203
620.36	33.012
620.69	34.036
621.02	32.745
621.35	32.235
621.68	31.932
622.01	32.694
622.34	32.702
622.67	32.022
623.00	32.335
623.33	32.119
623.66	32.868
623.99	33.767
624.32	32.724
624.65	32.324
624.99	32.657
625.32	32.866
625.65	32.897
625.98	31.799
626.31	32.493
626.64	32.726
626.97	32.364
627.30	33.463
627.63	33.203
627.96	31.768
628.29	32.508
628.62	31.565
628.95	34.131
629.28	33.392
629.61	33.656
629.94	32.844
630.26	33.362
630.59	35.195
630.92	34.081
631.25	33.545
631.58	34.523
631.91	33.682
632.24	32.556
632.57	32.908
632.90	33.540
633.23	35.887
633.56	34.773
633.89	33.869
634.22	34.230
634.55	33.118
634.88	34.721
635.20	34.641
635.53	33.449
635.86	34.116
636.19	34.119
636.52	32.649
636.85	33.010
637.18	34.345
637.51	33.184
637.83	33.066
638.16	35.522
638.49	33.054
638.82	36.268
639.15	33.490
639.48	34.479
639.81	34.066
640.13	34.601
640.46	34.513
640.79	35.111
641.12	34.646
641.45	34.541
641.77	37.120
642.10	32.932
642.43	35.704
642.76	33.239
643.09	34.294
643.41	34.502
643.74	36.115
644.07	35.546
644.40	35.355
644.73	37.087
645.05	35.364
645.38	35.375
645.71	34.750
646.04	36.031
646.36	35.211
646.69	36.480
647.02	36.320
647.35	35.906
647.67	36.467
648.00	35.342
648.33	33.383
648.66	35.000
648.98	35.072
649.31	34.143
649.64	32.642
649.96	33.713
650.29	33.571
650.62	34.904
650.94	35.843
651.27	36.364
651.60	34.116
651.92	36.406
652.25	35.118
652.58	34.326
652.90	33.683
653.23	33.383
653.56	33.383
653.88	33.627
654.21	35.484
654.54	32.211
654.86	34.956
655.19	34.169
655.52	30.920
655.84	28.602
656.17	34.058
656.49	48.464
656.82	54.893
657.15	43.412
657.47	32.313
657.80	23.969
658.13	18.857
658.45	25.482
658.78	31.492
659.10	31.221
659.43	32.187
659.75	32.778
660.08	33.271
660.41	34.211
660.73	36.010
661.06	34.535
661.38	37.649
661.71	35.971
662.03	34.030
662.36	34.667
662.68	35.568
663.01	37.658
663.33	34.340
663.66	36.095
663.98	36.111
664.31	35.634
664.63	36.973
664.96	35.084
665.28	34.463
665.61	32.453
665.93	35.094
666.26	34.019
666.58	38.532
666.91	35.328
667.23	33.534
667.56	36.756
667.88	37.759
668.21	37.295
668.53	36.290
668.86	38.076
669.18	35.845
669.50	36.777
669.83	36.756
670.15	36.383
670.48	34.375
670.80	36.056
671.13	34.263
671.45	37.876
671.77	37.291
672.10	32.855
672.42	32.730
672.75	33.228
673.07	35.612
673.39	34.824
673.72	33.737
674.04	35.842
674.37	35.753
674.69	34.944
675.01	35.448
675.34	33.140
675.66	34.570
675.98	36.884
676.31	36.200
676.63	32.207
676.95	34.127
677.28	34.888
677.60	33.602
677.92	35.913
678.25	34.496
678.57	35.009
678.89	35.986
679.22	32.353
679.54	34.875
679.86	35.428
680.18	33.919
680.51	33.665
680.83	33.277
681.15	35.529
681.48	37.500
681.80	34.326
682.12	36.159
682.44	33.153
682.77	35.409
683.09	33.981
683.41	36.531
683.73	34.252
684.06	36.706
684.38	38.178
684.70	33.094
685.02	34.549
685.34	35.915
685.67	34.887
685.99	37.274
686.31	33.744
686.63	33.008
686.96	35.948
687.28	34.228
687.60	34.300
687.92	34.171
688.24	36.034
688.56	33.808
688.89	31.166
689.21	33.333
689.53	35.375
689.85	33.130
690.17	33.786
690.49	34.677
690.82	37.605
691.14	35.152
691.46	36.345
691.78	37.427
692.10	33.206
692.42	34.483
692.74	35.659
693.06	33.721
693.39	32.806
693.71	36.739
694.03	34.122
694.35	35.944
694.67	34.623
694.99	35.698
695.31	34.459
695.63	36.199
695.95	36.652
696.27	40.044
696.59	34.129
696.91	35.949
697.23	35.294
697.56	35.062
697.88	35.130
698.20	34.340
698.52	32.879
698.84	33.470
699.16	37.527
699.48	33.475
699.80	39.434
700.12	35.797
700.44	35.047
700.76	35.322
701.08	34.987
701.40	34.805
701.72	41.444
702.04	37.127
702.36	36.022
702.68	38.298
703.00	37.093
703.32	36.725
703.64	37.531
703.96	36.458
704.28	35.979
704.60	39.155
704.91	38.375
705.23	38.920
705.55	38.576
705.87	38.095
706.19	38.871
706.51	39.812
706.83	42.773
707.15	37.166
707.47	35.835
707.79	37.701
708.11	36.281
708.43	37.303
708.74	36.425
709.06	35.581
709.38	37.717
709.70	35.967
710.02	35.598
710.34	37.845
710.66	36.389
710.98	34.699
711.29	38.162
711.61	38.162
711.93	39.210
712.25	39.458
712.57	38.907
712.89	37.879
713.20	37.380
713.52	36.449
713.84	38.369
714.16	33.333
714.48	36.311
714.80	36.314
715.11	36.968
715.43	36.313
715.75	36.620
716.07	36.416
716.39	36.286
716.70	36.760
717.02	40.404
717.34	38.849
717.66	40.278
717.97	48.485
718.29	39.437
718.61	37.162
718.93	40.138
719.24	38.255
719.56	35.517
719.88	40.446
720.20	40.000
720.51	38.889
720.83	37.124
721.15	38.435
721.46	38.699
721.78	40.767
722.10	41.667
722.42	45.485
722.73	40.794
723.05	40.000
723.37	42.049
723.68	39.844
724.00	42.045
724.32	44.106
724.63	41.538
724.95	44.314
725.27	36.059
725.58	38.971
725.90	38.380
726.22	36.644
726.53	39.799
726.85	41.368
727.16	42.617
727.48	38.206
727.80	40.647
728.11	43.214
728.43	40.580
728.74	39.860
729.06	36.918
729.38	41.053
729.69	40.000
730.01	40.461
730.32	39.262
730.64	39.867
730.96	38.739
731.27	35.780
731.59	33.333
731.90	38.440
732.22	36.286
732.53	35.897
732.85	40.643
733.16	38.554
733.48	41.066
733.80	34.493
734.11	39.571
734.43	37.427
734.74	36.729
735.06	39.418
735.37	32.216
735.69	40.000
736.00	41.284
736.32	36.364
736.63	36.278
736.95	35.404
737.26	35.671
737.58	37.117
737.89	35.843
738.21	37.748
738.52	40.803
738.83	43.590
739.15	38.676
739.46	38.276
739.78	40.476
740.09	37.609
740.41	38.650
740.72	37.460
741.04	41.958
741.35	39.844
741.66	44.269
741.98	42.060
742.29	44.907
742.61	42.920
742.92	39.407
743.23	42.800
743.55	40.377
743.86	38.824
744.18	41.102
744.49	42.149
744.80	36.406
745.12	43.750
745.43	48.131
745.74	44.444
746.06	41.228
746.37	41.860
746.68	45.575
747.00	40.807
747.31	39.496
747.62	37.295
747.94	40.773
748.25	38.132
748.56	40.254
748.88	41.071
749.19	38.140
749.50	40.183
749.82	40.741
750.13	42.688
750.44	39.333
750.75	42.282
751.07	40.461
751.38	41.254
751.69	41.077
752.01	39.161
752.32	38.206
752.63	40.940
752.94	40.909
753.26	42.578
753.57	42.802
753.88	38.202
754.19	44.043
754.51	43.189
754.82	37.248
755.13	35.811
755.44	40.000
755.75	42.268
756.07	38.356
756.38	37.908
756.69	35.625
757.00	37.685
757.31	40.282
757.63	37.741
757.94	36.968
758.25	36.232
758.56	35.469
758.87	38.346
759.18	36.919
759.50	37.082
759.81	37.685
760.12	34.831
760.43	35.854
760.74	37.975
761.05	36.074
761.36	36.979
761.67	39.353
761.99	39.718
762.30	38.264
762.61	36.806
762.92	40.152
763.23	40.377
763.54	38.846
763.85	40.078
764.16	38.194
764.47	38.851
764.78	41.042
765.10	37.805
765.41	37.216
765.72	37.845
766.03	35.650
766.34	39.721
766.65	39.544
766.96	38.866
767.27	44.393
767.58	40.099
767.89	50.276
768.20	51.220
768.51	44.388
768.82	44.737
769.13	40.000
769.44	40.977
769.75	38.202
770.06	44.538
770.37	41.228
770.68	36.889
770.99	45.339
771.30	39.749
771.61	39.615
771.92	40.076
772.23	42.339
772.54	44.889
772.85	47.525
773.16	45.109
773.47	47.778
773.78	47.030
774.09	48.295
774.39	50.909
774.70	45.882
775.01	40.132
775.32	44.720
775.63	49.315
775.94	48.765
776.25	46.897
776.56	49.618
776.87	52.672
777.18	41.667
777.48	57.480
777.79	47.692
778.10	54.545
778.41	51.493
778.72	42.857
779.03	46.154
779.34	47.973
779.65	50.932
779.95	46.584
780.26	47.619
780.57	61.905
780.88	55.319
781.19	52.500
781.50	47.929
781.80	44.262
782.11	41.270
782.42	46.552
782.73	46.893
783.04	44.516
783.34	51.163
783.65	40.816
783.96	49.032
784.27	44.371
784.57	44.737
784.88	50.725
785.19	52.500
785.50	54.310
785.81	57.364
786.11	48.148
786.42	46.457
786.73	66.667
787.04	59.434
787.34	38.211
787.65	51.515
787.96	52.273
788.26	59.055
788.57	55.474
788.88	50.000
789.19	51.908
789.49	50.676
789.80	50.000
790.11	57.025
790.41	58.333
790.72	59.259
791.03	52.885
791.33	47.475
791.64	60.000
791.95	65.263
792.25	50.000
792.56	60.000
792.87	64.634
793.17	57.955
793.48	65.882
793.79	60.920
794.09	68.182
794.40	62.931
794.70	53.175
795.01	50.000
795.32	52.672
795.62	60.684
795.93	60.504
796.23	52.033
796.54	57.143
796.85	62.500
797.15	74.026
797.46	75.610
797.76	67.500
798.07	84.000
798.37	70.000
798.68	73.750
798.99	73.171
799.29	70.667
799.60	44.186
799.90	57.895
800.21	68.182
800.51	66.197
800.82	84.483
801.12	76.923
801.43	86.667
801.73	70.690
802.04	66.234
802.34	57.534
802.65	82.353
802.95	78.261
803.26	83.871
803.56	95.000
803.87	89.552
804.17	82.540
804.48	90.566
804.78	80.556
805.09	75.758
805.39	90.476
805.70	87.719
806.00	67.143
806.30	81.250
806.61	62.353
806.91	72.222
807.22	50.000
807.52	64.474
807.83	76.316
808.13	68.116
808.43	90.323
808.74	67.123
809.04	57.143
809.35	80.882
809.65	66.667
809.95	86.275
810.26	111.111
810.56	78.125
810.86	93.878
811.17	105.263
811.47	104.348
811.77	93.103
812.08	70.690
812.38	85.714
812.69	100.000
812.99	80.000
813.29	117.143
813.59	141.935
813.90	68.966
814.20	95.082
814.50	96.000
814.81	73.684
815.11	100.000
815.41	75.000
815.72	94.643
816.02	90.000
816.32	102.439
816.62	79.310
816.93	145.455
817.23	97.561
817.53	75.000
817.84	82.222
818.14	88.095
818.44	91.667
818.74	98.113
819.04	92.308
819.35	118.182
819.65	115.385
819.95	114.815
820.25	112.766
820.56	129.730
820.86	115.789
821.16	70.213
821.46	123.684
821.76	100.000
822.07	83.333
822.37	115.789
822.67	109.302
822.97	86.842
823.27	104.348
823.57	128.125
823.88	130.769
824.18	121.212
824.48	147.826
824.78	102.778
825.08	156.522
825.38	127.586
825.69	138.235
825.99	106.383
826.29	77.778
826.59	102.857
826.89	136.667
827.19	105.714
827.49	138.710
827.79	184.615
828.09	102.381
828.39	119.444
828.70	72.973
829.00	146.429
829.30	218.750
829.60	138.889
829.90	138.710
830.20	112.121
830.50	100.000
830.80	154.167
831.10	207.692
831.40	152.381
831.70	154.167
832.00	143.333
832.30	195.652
832.60	166.667
832.90	130.303
833.20	165.000
833.50	110.526
833.80	132.353
834.10	107.895
834.40	163.158
834.70	113.333
835.00	168.000
835.30	102.703
835.60	131.250
835.90	102.703
836.20	119.231
836.50	136.364
836.80	131.707
837.10	200.000
837.40	330.769
837.70	168.421
838.00	160.000
838.30	212.500
838.60	156.000
838.90	270.000
839.19	225.000
839.49	116.667
839.79	148.276
840.09	138.462
840.39	200.000
840.69	200.000
840.99	152.381
841.29	147.826
841.59	195.000
841.88	136.000
842.18	311.111
842.48	160.714
842.78	133.333
843.08	230.769
843.38	204.545
843.68	285.714
843.97	385.714
844.27	169.565
844.57	1450.000
844.87	271.429
845.17	216.667
845.47	66.667
845.76	183.333
846.06	428.571
846.36	241.176
846.66	261.538
846.96	212.500
847.25	253.846
847.55	189.474
847.85	205.556
848.15	620.000
848.44	300.000
848.74	166.667
849.04	170.833
849.34	152.941
849.63	212.500
849.93	231.250
850.23	800.000
850.53	375.000
850.82	318.182
851.12	205.882
851.42	216.667
851.71	206.250
852.01	0.000
852.31	229.412
852.61	460.000
852.90	162.500
853.20	322.222
853.50	-1600.000
853.79	156.000
854.09	121.875
854.39	134.483
854.68	155.172
854.98	228.571
855.28	151.613
855.57	321.429
855.87	161.111
856.17	114.815
856.46	152.632
856.76	119.355
857.05	211.765
857.35	281.818
857.65	261.538
857.94	155.000
858.24	388.889
858.53	285.714
858.83	600.000
859.13	186.957
859.42	244.444
859.72	362.500
860.01	200.000
860.31	900.000
860.60	330.000
860.90	362.500
861.20	161.538
861.49	385.714
861.79	-3000.000
862.08	428.571
862.38	322.222
862.67	271.429
862.97	380.000
863.26	133.333
863.56	750.000
863.85	300.000
864.15	247.059
864.44	205.556
864.74	291.667
865.03	272.727
865.33	450.000
865.62	226.667
865.92	666.667
866.21	800.000
866.51	740.000
866.80	200.000
867.10	900.000
867.39	3200.000
867.69	580.000
867.98	950.000
868.27	228.571
868.57	240.000
868.86	900.000
869.16	157.143
869.45	2500.000
869.75	-550.000
870.04	900.000
870.33	640.000
870.63	350.000
870.92	211.765
871.22	775.000
871.51	442.857
871.80	350.000
872.10	284.615
>>>>>End Processed Spectral Data<<<<<
