SpectraSuite Data File
++++++++++++++++++++++++++++++++++++
Date: Tue May 12 16:40:21 PDT 2015
User: schluterlab
Dark Spectrum Present: Yes
Reference Spectrum Present: Yes
Number of Sampled Component Spectra: 1
Spectrometers: USB2E3373
Integration Time (usec): 3000 (USB2E3373)
Spectra Averaged: 3 (USB2E3373)
Boxcar Smoothing: 0 (USB2E3373)
Correct for Electrical Dark: No (USB2E3373)
Strobe/Lamp Enabled: No (USB2E3373)
Correct for Detector Non-linearity: No (USB2E3373)
Correct for Stray Light: No (USB2E3373)
Number of Pixels in Processed Spectrum: 2048
>>>>>Begin Processed Spectral Data<<<<<
178.53	0.000
178.91	-208.333
179.29	-800.000
179.67	-3100.000
180.04	-120.000
180.42	750.000
180.80	1450.000
181.18	0.000
181.56	-250.000
181.94	0.000
182.31	966.667
182.69	-2600.000
183.07	514.286
183.45	-3600.000
183.83	-1400.000
184.20	310.000
184.58	414.286
184.96	-276.923
185.34	-225.000
185.72	1900.000
186.09	-700.000
186.47	-2600.000
186.85	1033.333
187.23	440.000
187.61	1600.000
187.98	512.500
188.36	242.857
188.74	283.333
189.12	341.667
189.49	825.000
189.87	0.000
190.25	512.500
190.63	2600.000
191.00	-200.000
191.38	-2900.000
191.76	-500.000
192.14	425.000
192.51	-2600.000
192.89	1250.000
193.27	933.333
193.65	-1033.333
194.02	-660.000
194.40	528.571
194.78	-242.857
195.15	153.333
195.53	-2600.000
195.91	-480.000
196.29	3400.000
196.66	218.750
197.04	825.000
197.42	-1300.000
197.79	650.000
198.17	350.000
198.55	0.000
198.92	442.857
199.30	1200.000
199.68	2050.000
200.05	633.333
200.43	-400.000
200.81	200.000
201.18	3100.000
201.56	241.667
201.94	-475.000
202.31	-287.500
202.69	-440.000
203.07	3200.000
203.44	-566.667
203.82	283.333
204.19	560.000
204.57	-1250.000
204.95	-975.000
205.32	-640.000
205.70	450.000
206.08	725.000
206.45	-833.333
206.83	366.667
207.20	194.737
207.58	233.333
207.96	500.000
208.33	0.000
208.71	514.286
209.08	800.000
209.46	-2800.000
209.84	-725.000
210.21	680.000
210.59	-460.000
210.96	250.000
211.34	-850.000
211.71	318.182
212.09	750.000
212.46	1450.000
212.84	-583.333
213.22	344.444
213.59	-2300.000
213.97	340.000
214.34	1025.000
214.72	1233.333
215.09	1000.000
215.47	-3800.000
215.84	-430.000
216.22	-512.500
216.59	0.000
216.97	0.000
217.34	1500.000
217.72	-1050.000
218.09	1333.333
218.47	437.500
218.84	750.000
219.22	933.333
219.59	700.000
219.97	542.857
220.34	422.222
220.72	1500.000
221.09	2800.000
221.47	183.333
221.84	966.667
222.22	350.000
222.59	188.889
222.97	264.286
223.34	243.750
223.72	-1550.000
224.09	900.000
224.46	353.846
224.84	-650.000
225.21	355.556
225.59	253.333
225.96	933.333
226.34	-720.000
226.71	-550.000
227.08	-680.000
227.46	0.000
227.83	-533.333
228.21	-1500.000
228.58	308.333
228.95	925.000
229.33	355.556
229.70	775.000
230.08	292.308
230.45	2300.000
230.82	-525.000
231.20	-800.000
231.57	-1133.333
231.95	420.000
232.32	241.667
232.69	516.667
233.07	233.333
233.44	-1150.000
233.81	186.667
234.19	133.333
234.56	175.000
234.93	152.941
235.31	155.000
235.68	281.250
236.05	110.714
236.43	92.593
236.80	214.286
237.17	103.448
237.55	115.625
237.92	115.000
238.29	106.061
238.67	115.625
239.04	87.805
239.41	56.250
239.79	57.500
240.16	72.917
240.53	49.180
240.91	62.319
241.28	62.712
241.65	45.455
242.02	52.113
242.40	58.571
242.77	49.451
243.14	37.975
243.51	49.495
243.89	48.598
244.26	43.925
244.63	28.713
245.00	28.440
245.38	31.356
245.75	34.091
246.12	40.000
246.49	24.113
246.87	22.131
247.24	26.000
247.61	34.375
247.98	34.014
248.36	30.909
248.73	23.469
249.10	16.071
249.47	25.000
249.84	25.373
250.22	27.568
250.59	24.000
250.96	19.409
251.33	20.930
251.70	26.786
252.08	22.269
252.45	20.717
252.82	20.913
253.19	18.972
253.56	19.615
253.94	20.652
254.31	18.605
254.68	22.648
255.05	22.069
255.42	19.343
255.79	21.824
256.16	19.661
256.54	23.052
256.91	22.549
257.28	20.736
257.65	14.420
258.02	19.764
258.39	20.917
258.76	19.420
259.14	16.571
259.51	21.574
259.88	19.757
260.25	15.110
260.62	16.712
260.99	17.631
261.36	19.777
261.73	18.085
262.10	16.230
262.47	16.500
262.85	17.600
263.22	17.995
263.59	17.647
263.96	18.797
264.33	15.802
264.70	16.708
265.07	16.341
265.44	14.679
265.81	14.387
266.18	14.645
266.55	14.421
266.92	15.436
267.29	17.544
267.66	17.937
268.03	15.471
268.40	15.856
268.77	15.639
269.14	14.751
269.51	14.254
269.88	16.735
270.25	11.663
270.62	15.665
270.99	18.256
271.36	17.683
271.73	14.256
272.10	14.545
272.47	14.484
272.84	14.770
273.21	14.256
273.58	15.992
273.95	14.990
274.32	14.397
274.69	16.535
275.06	16.029
275.43	15.326
275.80	13.396
276.17	14.706
276.54	16.449
276.91	14.366
277.28	14.781
277.65	15.129
278.02	15.441
278.39	14.029
278.76	14.483
279.13	14.235
279.50	14.545
279.87	13.966
280.23	12.707
280.60	15.328
280.97	13.966
281.34	14.521
281.71	15.652
282.08	14.872
282.45	13.345
282.82	12.876
283.19	15.103
283.56	13.719
283.92	14.332
284.29	12.479
284.66	13.109
285.03	14.428
285.40	12.066
285.77	14.043
286.14	15.944
286.51	12.883
286.87	13.608
287.24	10.961
287.61	12.006
287.98	12.985
288.35	14.667
288.72	13.505
289.08	13.363
289.45	12.805
289.82	13.594
290.19	13.177
290.56	13.828
290.93	13.525
291.29	13.260
291.66	12.712
292.03	12.342
292.40	13.957
292.77	11.560
293.13	13.409
293.50	13.090
293.87	11.382
294.24	13.147
294.60	12.786
294.97	12.587
295.34	12.882
295.71	13.272
296.08	13.333
296.44	12.579
296.81	12.035
297.18	11.787
297.55	13.054
297.91	9.729
298.28	11.836
298.65	10.307
299.02	12.304
299.38	12.110
299.75	11.098
300.12	12.385
300.48	11.944
300.85	11.561
301.22	13.372
301.59	11.203
301.95	11.202
302.32	13.504
302.69	11.991
303.05	13.580
303.42	11.996
303.79	12.893
304.15	11.111
304.52	11.734
304.89	11.940
305.25	15.017
305.62	13.220
305.99	11.848
306.35	12.526
306.72	13.007
307.09	12.629
307.45	13.622
307.82	14.609
308.19	13.814
308.55	13.700
308.92	14.328
309.29	15.385
309.65	13.875
310.02	13.895
310.38	14.158
310.75	14.658
311.12	14.943
311.48	16.602
311.85	14.408
312.22	15.186
312.58	16.521
312.95	15.146
313.31	15.824
313.68	16.135
314.05	16.575
314.41	16.667
314.78	17.140
315.14	17.915
315.51	18.070
315.87	16.880
316.24	19.514
316.61	17.637
316.97	17.156
317.34	19.227
317.70	19.052
318.07	20.374
318.43	19.947
318.80	19.790
319.16	20.455
319.53	20.885
319.89	19.444
320.26	21.881
320.62	20.879
320.99	20.114
321.35	21.243
321.72	22.296
322.08	22.530
322.45	24.069
322.81	22.873
323.18	24.156
323.54	25.087
323.91	25.839
324.27	25.287
324.64	24.913
325.00	25.259
325.37	25.717
325.73	25.211
326.10	26.346
326.46	26.094
326.83	25.840
327.19	28.273
327.56	26.518
327.92	28.033
328.29	27.496
328.65	29.110
329.01	29.256
329.38	27.919
329.74	28.266
330.11	28.758
330.47	29.668
330.84	29.767
331.20	27.919
331.56	30.570
331.93	31.309
332.29	29.422
332.66	31.378
333.02	29.725
333.38	30.279
333.75	30.275
334.11	30.621
334.48	30.171
334.84	29.139
335.20	30.282
335.57	29.723
335.93	29.521
336.29	31.012
336.66	31.132
337.02	30.453
337.38	29.493
337.75	30.068
338.11	30.802
338.47	31.160
338.84	30.398
339.20	30.043
339.56	29.521
339.93	29.013
340.29	30.084
340.65	29.841
341.02	29.123
341.38	30.049
341.74	29.734
342.11	29.215
342.47	29.204
342.83	29.696
343.20	29.264
343.56	29.150
343.92	29.397
344.28	29.266
344.65	30.318
345.01	28.810
345.37	28.686
345.73	28.810
346.10	29.163
346.46	30.542
346.82	28.318
347.19	29.675
347.55	28.806
347.91	29.305
348.27	28.195
348.63	29.984
349.00	29.170
349.36	28.872
349.72	29.740
350.08	30.047
350.45	29.779
350.81	29.969
351.17	28.659
351.53	28.253
351.89	29.915
352.26	29.403
352.62	29.035
352.98	28.451
353.34	29.430
353.70	27.294
354.07	29.692
354.43	29.416
354.79	28.170
355.15	28.943
355.51	29.532
355.87	29.443
356.24	29.253
356.60	30.441
356.96	29.265
357.32	28.862
357.68	29.222
358.04	29.939
358.40	29.835
358.77	28.174
359.13	28.754
359.49	28.540
359.85	28.816
360.21	28.752
360.57	29.343
360.93	29.582
361.29	29.221
361.66	30.127
362.02	27.841
362.38	30.952
362.74	28.875
363.10	29.032
363.46	28.453
363.82	29.313
364.18	29.445
364.54	30.258
364.90	29.050
365.26	30.673
365.62	29.834
365.98	29.525
366.35	28.552
366.71	30.187
367.07	29.420
367.43	29.483
367.79	28.657
368.15	28.358
368.51	29.221
368.87	28.601
369.23	30.423
369.59	28.860
369.95	30.210
370.31	28.542
370.67	28.591
371.03	30.252
371.39	28.740
371.75	28.472
372.11	29.436
372.47	30.342
372.83	28.552
373.19	29.061
373.55	29.691
373.91	29.282
374.27	29.497
374.63	29.831
374.99	29.515
375.35	30.175
375.71	29.881
376.07	28.515
376.42	29.156
376.78	30.058
377.14	29.882
377.50	29.588
377.86	28.507
378.22	30.043
378.58	30.751
378.94	30.235
379.30	29.836
379.66	29.862
380.02	29.150
380.38	28.337
380.74	30.507
381.09	29.673
381.45	29.017
381.81	29.374
382.17	29.548
382.53	28.974
382.89	29.154
383.25	29.544
383.61	28.761
383.97	29.214
384.32	29.415
384.68	29.709
385.04	29.308
385.40	29.834
385.76	29.901
386.12	29.994
386.48	29.909
386.83	29.218
387.19	29.505
387.55	29.270
387.91	29.273
388.27	29.566
388.62	29.343
388.98	28.980
389.34	28.554
389.70	28.774
390.06	29.390
390.42	28.933
390.77	29.545
391.13	29.994
391.49	29.401
391.85	30.092
392.20	29.023
392.56	29.211
392.92	28.636
393.28	28.812
393.64	28.899
393.99	29.105
394.35	28.782
394.71	28.709
395.07	29.927
395.42	28.806
395.78	28.933
396.14	29.699
396.50	29.061
396.85	28.902
397.21	29.422
397.57	28.930
397.92	28.018
398.28	28.516
398.64	28.389
399.00	28.381
399.35	28.288
399.71	28.642
400.07	28.881
400.42	28.239
400.78	29.091
401.14	27.892
401.49	27.995
401.85	28.216
402.21	28.412
402.57	28.606
402.92	28.121
403.28	27.148
403.63	27.840
403.99	28.589
404.35	29.015
404.70	28.943
405.06	28.636
405.42	28.725
405.77	27.839
406.13	27.983
406.49	27.914
406.84	28.539
407.20	28.368
407.55	28.615
407.91	28.143
408.27	28.684
408.62	29.036
408.98	28.267
409.34	27.469
409.69	27.878
410.05	27.847
410.40	27.680
410.76	26.961
411.11	27.133
411.47	28.395
411.83	27.241
412.18	28.623
412.54	27.988
412.89	26.962
413.25	28.449
413.60	28.271
413.96	28.127
414.31	28.512
414.67	28.988
415.03	28.416
415.38	28.202
415.74	28.111
416.09	27.608
416.45	28.313
416.80	28.480
417.16	28.071
417.51	28.217
417.87	28.223
418.22	28.736
418.58	29.108
418.93	28.376
419.29	27.418
419.64	27.680
420.00	28.998
420.35	27.468
420.71	28.588
421.06	28.487
421.42	28.037
421.77	27.873
422.12	28.556
422.48	27.889
422.83	29.241
423.19	28.024
423.54	28.305
423.90	28.313
424.25	29.334
424.61	28.729
424.96	28.515
425.31	29.009
425.67	29.237
426.02	27.594
426.38	29.055
426.73	29.555
427.09	29.181
427.44	28.813
427.79	29.445
428.15	30.230
428.50	29.714
428.85	29.747
429.21	29.930
429.56	29.462
429.92	29.140
430.27	29.173
430.62	28.194
430.98	29.142
431.33	29.234
431.68	28.691
432.04	30.057
432.39	30.790
432.74	31.674
433.10	29.900
433.45	30.385
433.80	31.164
434.16	29.480
434.51	30.237
434.86	31.954
435.22	31.010
435.57	30.409
435.92	31.019
436.28	31.509
436.63	30.632
436.98	31.419
437.34	30.308
437.69	30.739
438.04	30.161
438.39	31.349
438.75	31.682
439.10	30.815
439.45	31.543
439.81	31.984
440.16	31.040
440.51	31.363
440.86	31.624
441.22	31.223
441.57	31.024
441.92	31.491
442.27	30.825
442.63	31.047
442.98	31.088
443.33	32.084
443.68	30.835
444.03	31.291
444.39	31.685
444.74	31.625
445.09	32.543
445.44	31.828
445.79	31.725
446.15	31.053
446.50	32.173
446.85	32.470
447.20	31.144
447.55	32.191
447.91	33.245
448.26	32.268
448.61	32.559
448.96	32.516
449.31	31.683
449.66	33.056
450.02	31.605
450.37	32.704
450.72	32.507
451.07	32.286
451.42	33.195
451.77	32.646
452.12	32.275
452.47	32.685
452.83	33.183
453.18	33.393
453.53	33.511
453.88	33.714
454.23	33.585
454.58	33.800
454.93	34.028
455.28	33.231
455.63	32.092
455.98	32.939
456.34	33.617
456.69	33.476
457.04	33.115
457.39	33.086
457.74	33.108
458.09	31.724
458.44	33.242
458.79	33.422
459.14	33.061
459.49	33.409
459.84	33.859
460.19	32.486
460.54	32.707
460.89	32.409
461.24	32.188
461.59	33.447
461.94	32.624
462.29	33.352
462.64	34.422
462.99	32.630
463.34	34.154
463.69	33.696
464.04	33.967
464.39	33.314
464.74	32.767
465.09	33.024
465.44	33.188
465.79	32.390
466.14	32.538
466.49	32.827
466.84	32.887
467.19	33.626
467.54	32.913
467.89	34.038
468.24	32.542
468.59	33.155
468.94	33.937
469.29	34.698
469.64	34.277
469.99	33.548
470.34	34.915
470.68	33.310
471.03	34.223
471.38	33.974
471.73	33.769
472.08	35.095
472.43	34.202
472.78	34.187
473.13	32.791
473.48	33.313
473.83	34.040
474.17	34.590
474.52	33.886
474.87	32.405
475.22	32.610
475.57	32.896
475.92	33.214
476.27	32.155
476.61	32.225
476.96	32.654
477.31	33.676
477.66	33.709
478.01	33.007
478.36	33.419
478.70	33.052
479.05	32.584
479.40	32.589
479.75	33.118
480.10	33.640
480.45	32.633
480.79	32.949
481.14	32.620
481.49	31.930
481.84	32.498
482.19	32.489
482.53	32.191
482.88	33.647
483.23	32.025
483.58	32.855
483.92	33.318
484.27	32.363
484.62	32.852
484.97	31.710
485.31	30.903
485.66	29.547
486.01	29.018
486.36	29.253
486.70	28.900
487.05	29.503
487.40	29.938
487.75	30.135
488.09	30.824
488.44	30.975
488.79	31.656
489.13	31.616
489.48	32.361
489.83	32.027
490.17	31.833
490.52	32.472
490.87	31.724
491.22	32.890
491.56	32.411
491.91	32.124
492.26	32.517
492.60	32.711
492.95	32.080
493.30	32.166
493.64	32.794
493.99	33.005
494.34	32.541
494.68	32.714
495.03	32.824
495.37	32.283
495.72	32.494
496.07	32.210
496.41	32.493
496.76	31.321
497.11	31.620
497.45	31.784
497.80	32.206
498.14	32.085
498.49	32.173
498.84	32.523
499.18	31.353
499.53	32.660
499.87	31.491
500.22	32.105
500.56	32.033
500.91	33.117
501.26	32.017
501.60	31.375
501.95	31.317
502.29	32.578
502.64	31.539
502.98	31.792
503.33	32.071
503.67	31.082
504.02	30.228
504.36	32.036
504.71	32.498
505.06	31.863
505.40	31.914
505.75	31.712
506.09	31.405
506.44	31.626
506.78	32.042
507.13	31.944
507.47	31.150
507.82	32.555
508.16	32.239
508.51	31.836
508.85	32.146
509.19	31.963
509.54	31.787
509.88	31.427
510.23	32.108
510.57	31.902
510.92	32.168
511.26	32.580
511.61	31.659
511.95	30.911
512.30	32.050
512.64	31.776
512.98	32.086
513.33	32.428
513.67	32.211
514.02	31.740
514.36	31.256
514.70	31.467
515.05	31.540
515.39	32.511
515.74	33.133
516.08	32.081
516.42	32.732
516.77	31.627
517.11	32.427
517.46	32.112
517.80	31.567
518.14	32.676
518.49	32.139
518.83	31.154
519.17	32.668
519.52	32.987
519.86	32.098
520.20	32.274
520.55	32.052
520.89	31.552
521.23	32.418
521.58	31.555
521.92	32.128
522.26	31.220
522.61	32.323
522.95	32.913
523.29	31.462
523.64	31.329
523.98	33.216
524.32	32.411
524.66	31.478
525.01	32.012
525.35	31.762
525.69	32.511
526.04	32.838
526.38	31.901
526.72	31.325
527.06	31.520
527.41	31.620
527.75	31.954
528.09	32.149
528.43	32.215
528.78	31.604
529.12	32.149
529.46	32.262
529.80	31.250
530.15	30.996
530.49	31.227
530.83	31.322
531.17	30.566
531.51	30.656
531.86	31.099
532.20	30.470
532.54	31.701
532.88	30.856
533.22	31.993
533.57	30.750
533.91	29.953
534.25	29.313
534.59	30.409
534.93	30.546
535.27	29.482
535.62	29.755
535.96	29.669
536.30	30.347
536.64	30.000
536.98	30.900
537.32	30.812
537.66	30.038
538.01	30.836
538.35	30.006
538.69	29.490
539.03	29.913
539.37	29.187
539.71	30.494
540.05	29.600
540.39	30.252
540.73	30.696
541.07	29.674
541.42	28.918
541.76	29.408
542.10	29.038
542.44	29.489
542.78	29.515
543.12	29.141
543.46	29.511
543.80	29.825
544.14	29.226
544.48	28.467
544.82	28.991
545.16	28.172
545.50	29.748
545.84	29.672
546.18	30.234
546.52	30.164
546.86	30.174
547.20	30.168
547.54	28.626
547.88	29.319
548.22	28.476
548.56	28.226
548.90	28.588
549.24	29.501
549.58	28.222
549.92	28.815
550.26	29.682
550.60	30.140
550.94	29.986
551.28	29.655
551.62	30.069
551.96	29.662
552.30	28.214
552.64	29.256
552.98	28.544
553.32	27.913
553.66	28.534
554.00	28.700
554.34	29.161
554.68	28.629
555.02	29.328
555.36	28.457
555.69	29.058
556.03	27.771
556.37	28.681
556.71	29.074
557.05	28.309
557.39	28.800
557.73	29.245
558.07	28.907
558.41	28.170
558.75	29.343
559.08	30.307
559.42	28.991
559.76	30.007
560.10	28.699
560.44	28.467
560.78	28.645
561.12	27.209
561.45	27.034
561.79	28.027
562.13	27.858
562.47	27.515
562.81	27.977
563.15	27.796
563.48	27.702
563.82	28.821
564.16	27.985
564.50	27.125
564.84	28.207
565.17	26.976
565.51	28.202
565.85	28.439
566.19	27.143
566.52	27.497
566.86	26.912
567.20	26.798
567.54	26.255
567.88	27.126
568.21	25.162
568.55	25.292
568.89	25.365
569.23	24.202
569.56	24.321
569.90	23.644
570.24	23.884
570.57	23.361
570.91	23.682
571.25	22.746
571.59	22.673
571.92	22.390
572.26	22.049
572.60	22.466
572.93	23.088
573.27	23.320
573.61	21.873
573.95	22.659
574.28	22.055
574.62	21.332
574.96	21.338
575.29	21.530
575.63	21.484
575.97	21.397
576.30	21.817
576.64	21.795
576.98	21.105
577.31	21.277
577.65	21.075
577.98	20.493
578.32	20.443
578.66	20.956
578.99	21.040
579.33	21.425
579.67	21.071
580.00	21.211
580.34	21.122
580.67	20.828
581.01	21.176
581.35	20.692
581.68	20.289
582.02	20.307
582.35	20.244
582.69	20.355
583.02	20.691
583.36	20.882
583.70	21.351
584.03	21.526
584.37	21.807
584.70	20.950
585.04	20.771
585.37	20.649
585.71	21.169
586.04	20.619
586.38	20.972
586.72	21.236
587.05	21.307
587.39	21.163
587.72	21.420
588.06	21.058
588.39	21.520
588.73	21.411
589.06	21.010
589.40	22.191
589.73	21.993
590.07	22.855
590.40	22.753
590.73	23.026
591.07	22.770
591.40	22.675
591.74	22.646
592.07	22.255
592.41	23.102
592.74	21.824
593.08	21.354
593.41	21.335
593.75	20.878
594.08	21.774
594.41	21.473
594.75	21.781
595.08	21.639
595.42	21.791
595.75	21.685
596.09	22.037
596.42	21.340
596.75	22.476
597.09	22.988
597.42	22.163
597.75	21.785
598.09	20.927
598.42	21.216
598.76	21.550
599.09	22.067
599.42	20.969
599.76	21.235
600.09	21.458
600.42	21.581
600.76	21.040
601.09	21.401
601.42	20.908
601.76	21.124
602.09	21.670
602.42	21.811
602.76	21.708
603.09	21.418
603.42	21.431
603.76	21.150
604.09	21.064
604.42	21.507
604.76	22.323
605.09	21.918
605.42	21.942
605.75	21.082
606.09	21.538
606.42	21.721
606.75	21.531
607.09	20.608
607.42	20.972
607.75	21.139
608.08	21.771
608.42	21.938
608.75	21.566
609.08	21.205
609.41	22.182
609.75	22.161
610.08	21.358
610.41	21.827
610.74	21.602
611.07	21.783
611.41	22.104
611.74	22.228
612.07	22.977
612.40	21.930
612.73	22.666
613.07	22.250
613.40	22.055
613.73	21.917
614.06	22.150
614.39	21.919
614.72	22.602
615.06	22.057
615.39	21.584
615.72	21.442
616.05	21.848
616.38	21.106
616.71	22.029
617.05	22.076
617.38	21.517
617.71	22.891
618.04	22.602
618.37	22.957
618.70	22.979
619.03	23.321
619.36	24.372
619.69	23.219
620.03	24.462
620.36	22.993
620.69	23.627
621.02	23.981
621.35	23.066
621.68	24.705
622.01	24.502
622.34	24.108
622.67	24.157
623.00	23.622
623.33	23.819
623.66	23.353
623.99	23.562
624.32	23.577
624.65	23.700
624.99	23.800
625.32	22.979
625.65	22.828
625.98	23.222
626.31	23.739
626.64	23.614
626.97	23.795
627.30	23.913
627.63	24.097
627.96	24.257
628.29	25.083
628.62	24.722
628.95	26.064
629.28	26.205
629.61	25.483
629.94	24.978
630.26	24.523
630.59	26.862
630.92	25.471
631.25	26.836
631.58	27.194
631.91	25.785
632.24	25.267
632.57	25.737
632.90	26.812
633.23	27.177
633.56	26.554
633.89	26.795
634.22	27.664
634.55	26.129
634.88	26.944
635.20	27.578
635.53	27.178
635.86	27.964
636.19	27.273
636.52	26.486
636.85	25.998
637.18	28.494
637.51	25.363
637.83	24.714
638.16	28.722
638.49	27.186
638.82	28.521
639.15	26.910
639.48	27.133
639.81	28.449
640.13	29.202
640.46	27.686
640.79	27.048
641.12	27.297
641.45	29.495
641.77	29.458
642.10	27.711
642.43	27.454
642.76	28.409
643.09	29.395
643.41	28.752
643.74	28.633
644.07	29.499
644.40	28.107
644.73	28.979
645.05	29.123
645.38	30.015
645.71	28.225
646.04	29.008
646.36	30.047
646.69	30.080
647.02	28.800
647.35	29.291
647.67	30.794
648.00	29.642
648.33	29.774
648.66	29.242
648.98	26.522
649.31	25.506
649.64	24.896
649.96	27.738
650.29	26.571
650.62	28.277
650.94	29.217
651.27	31.898
651.60	30.673
651.92	28.879
652.25	30.236
652.58	28.227
652.90	29.042
653.23	28.804
653.56	29.377
653.88	28.341
654.21	26.979
654.54	24.451
654.86	27.139
655.19	26.121
655.52	22.913
655.84	15.125
656.17	16.880
656.49	23.956
656.82	27.336
657.15	21.668
657.47	16.407
657.80	12.400
658.13	10.052
658.45	13.727
658.78	16.686
659.10	17.421
659.43	17.955
659.75	19.544
660.08	20.489
660.41	21.960
660.73	27.102
661.06	27.928
661.38	29.813
661.71	27.518
662.03	29.468
662.36	32.000
662.68	27.374
663.01	30.270
663.33	28.679
663.66	30.572
663.98	30.357
664.31	31.530
664.63	32.759
664.96	30.582
665.28	30.885
665.61	30.377
665.93	31.698
666.26	29.720
666.58	31.560
666.91	31.467
667.23	29.719
667.56	32.238
667.88	33.195
668.21	32.992
668.53	30.242
668.86	32.866
669.18	31.976
669.50	28.099
669.83	30.390
670.15	32.225
670.48	29.102
670.80	30.279
671.13	30.677
671.45	31.263
671.77	29.870
672.10	29.623
672.42	27.138
672.75	28.323
673.07	27.186
673.39	26.837
673.72	27.336
674.04	29.211
674.37	29.220
674.69	29.368
675.01	27.985
675.34	27.519
675.66	29.297
675.98	30.572
676.31	28.600
676.63	30.020
676.95	28.968
677.28	30.832
677.60	30.382
677.92	28.175
678.25	29.457
678.57	27.374
678.89	29.837
679.22	29.412
679.54	26.868
679.86	26.876
680.18	27.417
680.51	25.871
680.83	27.027
681.15	27.210
681.48	26.910
681.80	25.744
682.12	29.066
682.44	27.748
682.77	27.402
683.09	26.990
683.41	29.184
683.73	28.937
684.06	26.587
684.38	31.008
684.70	27.158
685.02	26.042
685.34	27.113
685.67	26.045
685.99	24.959
686.31	26.194
686.63	25.528
686.96	25.654
687.28	27.685
687.60	24.915
687.92	25.628
688.24	27.759
688.56	27.758
688.89	26.769
689.21	28.324
689.53	29.249
689.85	28.252
690.17	28.350
690.49	29.234
690.82	27.521
691.14	28.283
691.46	31.006
691.78	27.290
692.10	26.908
692.42	27.042
692.74	29.845
693.06	30.039
693.39	28.261
693.71	27.701
694.03	28.402
694.35	29.920
694.67	27.902
694.99	28.603
695.31	31.532
695.63	27.376
695.95	28.507
696.27	32.522
696.59	29.117
696.91	28.608
697.23	28.959
697.56	25.104
697.88	26.347
698.20	27.358
698.52	24.903
698.84	25.667
699.16	28.998
699.48	29.873
699.80	32.244
700.12	33.718
700.44	28.972
700.76	30.549
701.08	30.287
701.40	29.870
701.72	33.690
702.04	31.165
702.36	27.151
702.68	34.574
703.00	28.571
703.32	31.762
703.64	29.975
703.96	30.990
704.28	31.746
704.60	31.831
704.91	31.092
705.23	30.398
705.55	33.531
705.87	30.159
706.19	33.229
706.51	35.737
706.83	35.398
707.15	30.749
707.47	26.634
707.79	27.356
708.11	29.705
708.43	26.517
708.74	27.602
709.06	27.442
709.38	30.025
709.70	29.700
710.02	29.891
710.34	29.558
710.66	30.000
710.98	31.421
711.29	30.362
711.61	34.819
711.93	29.483
712.25	30.120
712.57	31.833
712.89	36.667
713.20	35.783
713.52	31.153
713.84	32.326
714.16	28.986
714.48	23.343
714.80	27.642
715.11	26.330
715.43	29.330
715.75	28.451
716.07	31.214
716.39	29.429
716.70	28.972
717.02	33.670
717.34	33.094
717.66	38.542
717.97	35.985
718.29	29.930
718.61	31.419
718.93	30.796
719.24	33.893
719.56	30.690
719.88	28.344
720.20	33.548
720.51	30.719
720.83	33.110
721.15	29.932
721.46	33.904
721.78	33.798
722.10	35.069
722.42	33.110
722.73	31.408
723.05	34.386
723.37	34.629
723.68	33.203
724.00	34.848
724.32	36.122
724.63	35.385
724.95	33.333
725.27	33.086
725.58	32.353
725.90	32.746
726.22	32.877
726.53	28.763
726.85	33.876
727.16	31.544
727.48	32.558
727.80	33.813
728.11	30.357
728.43	32.246
728.74	32.168
729.06	29.032
729.38	30.877
729.69	33.333
730.01	34.539
730.32	27.181
730.64	30.233
730.96	26.727
731.27	26.911
731.59	27.874
731.90	29.526
732.22	27.714
732.53	27.350
732.85	26.608
733.16	27.410
733.48	29.154
733.80	27.536
734.11	33.129
734.43	26.901
734.74	26.273
735.06	26.720
735.37	27.320
735.69	25.797
736.00	28.440
736.32	28.485
736.63	27.129
736.95	29.193
737.26	28.963
737.58	29.448
737.89	30.120
738.21	27.815
738.52	31.104
738.83	33.700
739.15	32.056
739.46	30.345
739.78	28.571
740.09	30.612
740.41	30.368
740.72	30.794
741.04	30.769
741.35	32.031
741.66	34.387
741.98	30.043
742.29	31.944
742.61	28.761
742.92	33.051
743.23	32.800
743.55	28.679
743.86	36.078
744.18	34.746
744.49	37.603
744.80	33.641
745.12	34.375
745.43	40.187
745.74	33.778
746.06	28.509
746.37	33.953
746.68	39.381
747.00	34.529
747.31	29.832
747.62	31.148
747.94	29.614
748.25	32.296
748.56	38.136
748.88	35.714
749.19	35.349
749.50	32.420
749.82	33.745
750.13	36.364
750.44	29.000
750.75	27.852
751.07	29.934
751.38	28.053
751.69	28.620
752.01	27.273
752.32	30.233
752.63	29.866
752.94	30.420
753.26	28.516
753.57	28.405
753.88	30.337
754.19	29.603
754.51	30.897
754.82	30.872
755.13	28.378
755.44	32.593
755.75	31.615
756.07	30.137
756.38	27.124
756.69	29.375
757.00	28.783
757.31	28.169
757.63	26.446
757.94	25.532
758.25	26.570
758.56	23.112
758.87	27.318
759.18	27.326
759.50	27.356
759.81	28.487
760.12	29.213
760.43	28.291
760.74	27.089
761.05	23.077
761.36	22.135
761.67	23.720
761.99	24.789
762.30	26.367
762.61	26.389
762.92	29.545
763.23	31.321
763.54	28.846
763.85	33.074
764.16	35.417
764.47	28.378
764.78	28.664
765.10	25.915
765.41	25.284
765.72	23.481
766.03	22.961
766.34	27.526
766.65	31.179
766.96	33.603
767.27	37.850
767.58	36.139
767.89	38.674
768.20	42.683
768.51	34.694
768.82	35.526
769.13	28.627
769.44	30.451
769.75	26.592
770.06	31.513
770.37	27.632
770.68	29.778
770.99	35.169
771.30	29.707
771.61	28.846
771.92	30.153
772.23	29.435
772.54	35.111
772.85	38.119
773.16	33.152
773.47	36.111
773.78	34.653
774.09	39.205
774.39	37.576
774.70	28.824
775.01	34.868
775.32	35.404
775.63	47.260
775.94	39.506
776.25	41.379
776.56	35.878
776.87	52.672
777.18	42.424
777.48	44.882
777.79	53.846
778.10	45.455
778.41	52.239
778.72	42.857
779.03	32.051
779.34	30.405
779.65	38.509
779.95	35.404
780.26	37.500
780.57	40.816
780.88	43.972
781.19	51.667
781.50	40.828
781.80	37.705
782.11	36.508
782.42	35.632
782.73	33.898
783.04	37.419
783.34	29.457
783.65	33.333
783.96	39.355
784.27	33.775
784.57	34.868
784.88	38.406
785.19	40.833
785.50	48.276
785.81	51.163
786.11	34.815
786.42	37.795
786.73	53.153
787.04	49.057
787.34	36.585
787.65	47.727
787.96	45.455
788.26	50.394
788.57	43.796
788.88	38.732
789.19	35.878
789.49	41.892
789.80	44.531
790.11	38.843
790.41	44.444
790.72	45.370
791.03	49.038
791.33	43.434
791.64	56.842
791.95	50.526
792.25	44.792
792.56	54.000
792.87	40.244
793.17	51.136
793.48	61.176
793.79	65.517
794.09	42.045
794.40	57.759
794.70	46.032
795.01	43.846
795.32	32.061
795.62	41.026
795.93	49.580
796.23	45.528
796.54	57.143
796.85	55.682
797.15	67.532
797.46	65.854
797.76	43.750
798.07	56.000
798.37	60.000
798.68	60.000
798.99	62.195
799.29	49.333
799.60	48.837
799.90	60.526
800.21	63.636
800.51	61.972
800.82	60.345
801.12	69.231
801.43	78.667
801.73	72.414
802.04	55.844
802.34	56.164
802.65	88.235
802.95	84.783
803.26	82.258
803.56	86.667
803.87	61.194
804.17	77.778
804.48	66.038
804.78	61.111
805.09	72.727
805.39	82.540
805.70	61.404
806.00	58.571
806.30	59.375
806.61	63.529
806.91	57.778
807.22	45.652
807.52	69.737
807.83	72.368
808.13	63.768
808.43	66.129
808.74	43.836
809.04	67.857
809.35	67.647
809.65	77.273
809.95	64.706
810.26	107.407
810.56	70.313
810.86	71.429
811.17	77.193
811.47	91.304
811.77	75.862
812.08	50.000
812.38	90.476
812.69	88.095
812.99	84.444
813.29	74.286
813.59	100.000
813.90	67.241
814.20	86.885
814.50	72.000
814.81	84.211
815.11	64.815
815.41	105.357
815.72	96.429
816.02	82.000
816.32	97.561
816.62	81.034
816.93	103.030
817.23	90.244
817.53	94.643
817.84	86.667
818.14	73.810
818.44	83.333
818.74	96.226
819.04	84.615
819.35	121.212
819.65	107.692
819.95	92.593
820.25	93.617
820.56	94.595
820.86	118.421
821.16	53.191
821.46	113.158
821.76	92.727
822.07	76.190
822.37	107.895
822.67	109.302
822.97	68.421
823.27	91.304
823.57	125.000
823.88	76.923
824.18	96.970
824.48	130.435
824.78	125.000
825.08	104.348
825.38	131.034
825.69	100.000
825.99	102.128
826.29	113.889
826.59	91.429
826.89	113.333
827.19	97.143
827.49	158.065
827.79	138.462
828.09	66.667
828.39	94.444
828.70	94.595
829.00	153.571
829.30	200.000
829.60	97.222
829.90	132.258
830.20	84.848
830.50	154.054
830.80	125.000
831.10	153.846
831.40	147.619
831.70	183.333
832.00	163.333
832.30	134.783
832.60	204.167
832.90	112.121
833.20	210.000
833.50	115.789
833.80	114.706
834.10	102.632
834.40	184.211
834.70	106.667
835.00	148.000
835.30	86.486
835.60	118.750
835.90	127.027
836.20	134.615
836.50	100.000
836.80	112.195
837.10	143.478
837.40	269.231
837.70	121.053
838.00	156.667
838.30	183.333
838.60	148.000
838.90	280.000
839.19	200.000
839.49	143.333
839.79	158.621
840.09	138.462
840.39	193.333
840.69	147.368
840.99	157.143
841.29	195.652
841.59	195.000
841.88	164.000
842.18	355.556
842.48	146.429
842.78	133.333
843.08	169.231
843.38	163.636
843.68	250.000
843.97	371.429
844.27	126.087
844.57	1300.000
844.87	300.000
845.17	244.444
845.47	128.571
845.76	154.167
846.06	371.429
846.36	194.118
846.66	246.154
846.96	243.750
847.25	246.154
847.55	189.474
847.85	155.556
848.15	460.000
848.44	227.273
848.74	166.667
849.04	166.667
849.34	164.706
849.63	175.000
849.93	187.500
850.23	1000.000
850.53	500.000
850.82	236.364
851.12	252.941
851.42	179.167
851.71	262.500
852.01	0.000
852.31	158.824
852.61	410.000
852.90	158.333
853.20	344.444
853.50	-2000.000
853.79	124.000
854.09	150.000
854.39	134.483
854.68	137.931
854.98	195.238
855.28	116.129
855.57	221.429
855.87	161.111
856.17	122.222
856.46	189.474
856.76	119.355
857.05	217.647
857.35	290.909
857.65	238.462
857.94	175.000
858.24	455.556
858.53	271.429
858.83	642.857
859.13	169.565
859.42	300.000
859.72	412.500
860.01	266.667
860.31	825.000
860.60	380.000
860.90	287.500
861.20	284.615
861.49	357.143
861.79	-3200.000
862.08	514.286
862.38	388.889
862.67	257.143
862.97	340.000
863.26	153.333
863.56	925.000
863.85	300.000
864.15	252.941
864.44	138.889
864.74	250.000
865.03	300.000
865.33	450.000
865.62	213.333
865.92	600.000
866.21	800.000
866.51	680.000
866.80	233.333
867.10	866.667
867.39	3500.000
867.69	620.000
867.98	750.000
868.27	180.952
868.57	186.667
868.86	1075.000
869.16	128.571
869.45	3600.000
869.75	-433.333
870.04	650.000
870.33	640.000
870.63	337.500
870.92	170.588
871.22	800.000
871.51	542.857
871.80	275.000
872.10	284.615
>>>>>End Processed Spectral Data<<<<<
