SpectraSuite Data File
++++++++++++++++++++++++++++++++++++
Date: Tue May 12 16:42:33 PDT 2015
User: schluterlab
Dark Spectrum Present: Yes
Reference Spectrum Present: Yes
Number of Sampled Component Spectra: 1
Spectrometers: USB2E3373
Integration Time (usec): 3000 (USB2E3373)
Spectra Averaged: 3 (USB2E3373)
Boxcar Smoothing: 0 (USB2E3373)
Correct for Electrical Dark: No (USB2E3373)
Strobe/Lamp Enabled: No (USB2E3373)
Correct for Detector Non-linearity: No (USB2E3373)
Correct for Stray Light: No (USB2E3373)
Number of Pixels in Processed Spectrum: 2048
>>>>>Begin Processed Spectral Data<<<<<
178.53	0.000
178.91	-166.667
179.29	-475.000
179.67	-3600.000
180.04	-120.000
180.42	425.000
180.80	1450.000
181.18	0.000
181.56	-237.500
181.94	0.000
182.31	1100.000
182.69	-2200.000
183.07	542.857
183.45	-3400.000
183.83	-1450.000
184.20	330.000
184.58	371.429
184.96	-207.692
185.34	-266.667
185.72	1700.000
186.09	-675.000
186.47	-2500.000
186.85	1033.333
187.23	500.000
187.61	1550.000
187.98	437.500
188.36	242.857
188.74	233.333
189.12	275.000
189.49	1025.000
189.87	0.000
190.25	412.500
190.63	2800.000
191.00	-125.000
191.38	-2500.000
191.76	-775.000
192.14	387.500
192.51	-3100.000
192.89	1100.000
193.27	1233.333
193.65	-1233.333
194.02	-680.000
194.40	471.429
194.78	-221.429
195.15	200.000
195.53	-2300.000
195.91	-480.000
196.29	3800.000
196.66	231.250
197.04	625.000
197.42	-1100.000
197.79	725.000
198.17	358.333
198.55	0.000
198.92	400.000
199.30	1400.000
199.68	1800.000
200.05	583.333
200.43	-400.000
200.81	205.556
201.18	3100.000
201.56	250.000
201.94	-575.000
202.31	-325.000
202.69	-540.000
203.07	2400.000
203.44	-350.000
203.82	341.667
204.19	780.000
204.57	-1000.000
204.95	-625.000
205.32	-420.000
205.70	350.000
206.08	625.000
206.45	-833.333
206.83	333.333
207.20	126.316
207.58	250.000
207.96	640.000
208.33	0.000
208.71	457.143
209.08	480.000
209.46	-3000.000
209.84	-800.000
210.21	760.000
210.59	-440.000
210.96	258.333
211.34	-625.000
211.71	345.455
212.09	750.000
212.46	1750.000
212.84	-366.667
213.22	377.778
213.59	-2000.000
213.97	270.000
214.34	1000.000
214.72	1200.000
215.09	1233.333
215.47	-2100.000
215.84	-290.000
216.22	-337.500
216.59	0.000
216.97	0.000
217.34	1650.000
217.72	-1050.000
218.09	1100.000
218.47	512.500
218.84	775.000
219.22	1000.000
219.59	966.667
219.97	557.143
220.34	344.444
220.72	1300.000
221.09	3400.000
221.47	166.667
221.84	1133.333
222.22	190.000
222.59	222.222
222.97	178.571
223.34	187.500
223.72	-1200.000
224.09	1066.667
224.46	269.231
224.84	-725.000
225.21	400.000
225.59	226.667
225.96	1466.667
226.34	-500.000
226.71	-825.000
227.08	-580.000
227.46	0.000
227.83	-383.333
228.21	-1200.000
228.58	308.333
228.95	750.000
229.33	400.000
229.70	1075.000
230.08	276.923
230.45	3000.000
230.82	-600.000
231.20	-666.667
231.57	-666.667
231.95	600.000
232.32	266.667
232.69	550.000
233.07	266.667
233.44	-1050.000
233.81	180.000
234.19	159.259
234.56	150.000
234.93	164.706
235.31	190.000
235.68	218.750
236.05	150.000
236.43	162.963
236.80	192.857
237.17	137.931
237.55	90.625
237.92	125.000
238.29	115.152
238.67	146.875
239.04	85.366
239.41	77.083
239.79	92.500
240.16	64.583
240.53	60.656
240.91	52.174
241.28	71.186
241.65	42.424
242.02	70.423
242.40	54.286
242.77	48.352
243.14	55.696
243.51	53.535
243.89	46.729
244.26	45.794
244.63	43.564
245.00	46.789
245.38	33.898
245.75	40.152
246.12	39.259
246.49	35.461
246.87	28.689
247.24	40.000
247.61	36.875
247.98	28.571
248.36	30.909
248.73	38.776
249.10	32.738
249.47	30.500
249.84	30.846
250.22	32.973
250.59	32.000
250.96	26.582
251.33	23.721
251.70	30.357
252.08	26.050
252.45	24.701
252.82	27.376
253.19	23.715
253.56	24.615
253.94	24.638
254.31	22.868
254.68	20.557
255.05	28.621
255.42	27.007
255.79	25.407
256.16	25.763
256.54	25.325
256.91	24.510
257.28	22.074
257.65	20.690
258.02	20.944
258.39	21.203
258.76	22.899
259.14	20.000
259.51	22.157
259.88	20.365
260.25	21.154
260.62	18.356
260.99	18.457
261.36	20.613
261.73	20.213
262.10	24.869
262.47	19.500
262.85	21.600
263.22	22.879
263.59	20.460
263.96	22.807
264.33	20.000
264.70	21.376
265.07	22.683
265.44	23.624
265.81	19.575
266.18	23.799
266.55	17.258
266.92	19.016
267.29	21.053
267.66	18.161
268.03	22.646
268.40	20.507
268.77	21.366
269.14	20.390
269.51	22.049
269.88	20.816
270.25	18.143
270.62	21.245
270.99	20.284
271.36	20.732
271.73	18.029
272.10	20.000
272.47	19.444
272.84	17.365
273.21	19.835
273.58	19.433
273.95	17.454
274.32	18.677
274.69	20.866
275.06	21.494
275.43	20.881
275.80	20.000
276.17	19.669
276.54	20.000
276.91	19.963
277.28	18.978
277.65	17.897
278.02	19.669
278.39	18.885
278.76	19.138
279.13	18.149
279.50	17.273
279.87	17.877
280.23	17.311
280.60	16.971
280.97	19.483
281.34	18.152
281.71	17.739
282.08	20.684
282.45	19.426
282.82	17.057
283.19	20.032
283.56	15.702
283.92	19.870
284.29	17.804
284.66	17.143
285.03	19.900
285.40	17.521
285.77	17.593
286.14	18.266
286.51	17.331
286.87	15.823
287.24	15.766
287.61	17.477
287.98	14.627
288.35	16.148
288.72	15.933
289.08	16.066
289.45	15.549
289.82	17.812
290.19	16.398
290.56	17.613
290.93	16.403
291.29	15.193
291.66	14.548
292.03	15.147
292.40	15.583
292.77	15.181
293.13	16.405
293.50	15.250
293.87	14.905
294.24	15.944
294.60	15.882
294.97	16.084
295.34	15.936
295.71	16.163
296.08	13.200
296.44	14.740
296.81	13.151
297.18	13.054
297.55	15.394
297.91	12.931
298.28	15.700
298.65	13.988
299.02	15.078
299.38	14.269
299.75	13.537
300.12	14.106
300.48	15.222
300.85	14.184
301.22	13.605
301.59	13.325
301.95	13.069
302.32	15.134
302.69	13.235
303.05	14.478
303.42	14.013
303.79	14.193
304.15	12.871
304.52	13.108
304.89	13.753
305.25	12.236
305.62	13.966
305.99	11.522
306.35	12.526
306.72	12.279
307.09	13.354
307.45	11.827
307.82	12.860
308.19	12.887
308.55	12.100
308.92	13.150
309.29	14.694
309.65	12.488
310.02	12.779
310.38	12.164
310.75	12.343
311.12	11.494
311.48	13.127
311.85	14.122
312.22	12.321
312.58	11.759
312.95	11.068
313.31	13.015
313.68	12.852
314.05	12.912
314.41	11.359
314.78	12.121
315.14	12.796
315.51	12.583
315.87	11.953
316.24	11.578
316.61	13.160
316.97	11.284
317.34	11.411
317.70	12.730
318.07	12.811
318.43	13.005
318.80	12.785
319.16	12.675
319.53	12.212
319.89	11.470
320.26	13.501
320.62	13.278
320.99	12.774
321.35	12.801
321.72	12.239
322.08	13.296
322.45	12.807
322.81	12.443
323.18	11.723
323.54	12.631
323.91	13.237
324.27	12.025
324.64	11.246
325.00	13.190
325.37	12.648
325.73	11.551
326.10	13.670
326.46	11.726
326.83	12.000
327.19	12.610
327.56	11.821
327.92	12.705
328.29	14.239
328.65	13.527
329.01	13.003
329.38	13.198
329.74	12.724
330.11	12.772
330.47	12.361
330.84	11.734
331.20	13.790
331.56	13.212
331.93	12.575
332.29	11.480
332.66	12.245
333.02	12.887
333.38	11.169
333.75	12.260
334.11	13.087
334.48	13.077
334.84	12.416
335.20	12.831
335.57	12.259
335.93	12.784
336.29	11.443
336.66	12.950
337.02	11.805
337.38	12.038
337.75	13.345
338.11	12.574
338.47	12.955
338.84	12.616
339.20	12.208
339.56	12.616
339.93	12.625
340.29	12.101
340.65	12.490
341.02	13.355
341.38	12.972
341.74	12.542
342.11	10.601
342.47	12.715
342.83	12.879
343.20	11.964
343.56	11.835
343.92	12.139
344.28	12.041
344.65	11.654
345.01	11.111
345.37	11.298
345.73	11.825
346.10	11.873
346.46	12.121
346.82	11.574
347.19	12.597
347.55	11.319
347.91	11.480
348.27	11.541
348.63	12.263
349.00	12.186
349.36	12.218
349.72	12.003
350.08	11.879
350.45	11.729
350.81	11.774
351.17	10.709
351.53	11.008
351.89	11.810
352.26	10.506
352.62	12.293
352.98	11.273
353.34	12.173
353.70	11.850
354.07	12.077
354.43	11.674
354.79	11.541
355.15	11.103
355.51	10.952
355.87	11.596
356.24	11.624
356.60	11.339
356.96	11.372
357.32	12.359
357.68	12.702
358.04	11.626
358.40	12.294
358.77	11.570
359.13	12.162
359.49	10.230
359.85	11.020
360.21	11.441
360.57	11.898
360.93	9.957
361.29	11.039
361.66	11.931
362.02	10.227
362.38	10.967
362.74	11.111
363.10	11.501
363.46	10.981
363.82	12.132
364.18	10.811
364.54	11.588
364.90	12.048
365.26	12.006
365.62	11.257
365.98	11.356
366.35	10.621
366.71	11.520
367.07	10.580
367.43	10.880
367.79	11.370
368.15	10.516
368.51	11.165
368.87	10.258
369.23	10.949
369.59	11.059
369.95	11.329
370.31	10.404
370.67	11.312
371.03	11.064
371.39	11.842
371.75	10.607
372.11	11.489
372.47	11.918
372.83	11.353
373.19	11.241
373.55	11.271
373.91	10.843
374.27	10.714
374.63	11.051
374.99	10.849
375.35	11.223
375.71	10.290
376.07	11.074
376.42	10.614
376.78	10.469
377.14	10.944
377.50	11.174
377.86	10.506
378.22	10.664
378.58	11.138
378.94	10.742
379.30	10.976
379.66	10.596
380.02	11.378
380.38	10.012
380.74	11.995
381.09	10.981
381.45	10.405
381.81	10.697
382.17	10.806
382.53	11.278
382.89	11.118
383.25	10.716
383.61	10.951
383.97	9.658
384.32	10.549
384.68	12.299
385.04	11.254
385.40	10.854
385.76	10.825
386.12	10.823
386.48	10.334
386.83	11.064
387.19	11.072
387.55	11.602
387.91	11.143
388.27	10.827
388.62	10.798
388.98	10.496
389.34	10.708
389.70	10.613
390.06	10.854
390.42	11.474
390.77	11.302
391.13	12.070
391.49	10.768
391.85	11.015
392.20	11.204
392.56	11.350
392.92	10.893
393.28	10.818
393.64	10.780
393.99	10.018
394.35	11.418
394.71	10.615
395.07	11.071
395.42	10.948
395.78	11.783
396.14	12.169
396.50	10.710
396.85	10.549
397.21	10.229
397.57	11.357
397.92	9.821
398.28	10.480
398.64	11.460
399.00	11.064
399.35	10.252
399.71	11.424
400.07	10.559
400.42	10.925
400.78	11.144
401.14	10.335
401.49	10.657
401.85	11.240
402.21	10.310
402.57	10.174
402.92	11.212
403.28	10.024
403.63	10.653
403.99	11.037
404.35	10.961
404.70	11.400
405.06	10.556
405.42	10.952
405.77	10.915
406.13	10.358
406.49	11.086
406.84	11.168
407.20	10.388
407.55	10.831
407.91	11.551
408.27	11.522
408.62	11.827
408.98	9.876
409.34	9.468
409.69	11.886
410.05	10.733
410.40	10.365
410.76	10.418
411.11	10.130
411.47	10.617
411.83	10.545
412.18	11.051
412.54	10.871
412.89	10.678
413.25	11.231
413.60	11.682
413.96	9.994
414.31	10.331
414.67	10.925
415.03	10.920
415.38	10.915
415.74	10.613
416.09	10.806
416.45	12.023
416.80	11.289
417.16	11.394
417.51	11.720
417.87	11.139
418.22	11.118
418.58	11.592
418.93	10.767
419.29	10.043
419.64	10.842
420.00	12.112
420.35	10.569
420.71	10.910
421.06	10.182
421.42	10.363
421.77	10.105
422.12	10.088
422.48	10.889
422.83	10.491
423.19	10.205
423.54	10.587
423.90	10.815
424.25	9.961
424.61	11.027
424.96	10.390
425.31	10.564
425.67	10.999
426.02	10.320
426.38	10.677
426.73	10.931
427.09	11.625
427.44	10.073
427.79	10.463
428.15	11.255
428.50	10.686
428.85	10.994
429.21	10.643
429.56	11.216
429.92	10.094
430.27	11.030
430.62	10.083
430.98	10.529
431.33	9.577
431.68	10.272
432.04	10.916
432.39	11.142
432.74	10.831
433.10	11.240
433.45	11.430
433.80	11.197
434.16	10.300
434.51	10.939
434.86	11.105
435.22	10.427
435.57	10.966
435.92	11.440
436.28	11.866
436.63	11.129
436.98	11.824
437.34	11.587
437.69	10.190
438.04	10.753
438.39	10.975
438.75	10.635
439.10	10.416
439.45	10.854
439.81	11.799
440.16	10.567
440.51	10.586
440.86	11.510
441.22	11.472
441.57	10.814
441.92	10.809
442.27	10.515
442.63	10.772
442.98	10.722
443.33	11.302
443.68	11.469
444.03	10.792
444.39	11.111
444.74	10.973
445.09	10.637
445.44	11.105
445.79	11.209
446.15	10.789
446.50	10.759
446.85	11.106
447.20	9.900
447.55	10.440
447.91	11.614
448.26	11.235
448.61	11.166
448.96	11.166
449.31	9.956
449.66	11.185
450.02	11.507
450.37	10.827
450.72	10.854
451.07	11.693
451.42	11.500
451.77	11.569
452.12	11.117
452.47	11.725
452.83	11.831
453.18	11.532
453.53	11.604
453.88	11.771
454.23	12.202
454.58	12.179
454.93	10.791
455.28	11.873
455.63	10.934
455.98	12.070
456.34	11.672
456.69	11.829
457.04	11.456
457.39	11.314
457.74	12.106
458.09	11.286
458.44	12.048
458.79	11.459
459.14	11.184
459.49	11.778
459.84	11.141
460.19	11.017
460.54	12.137
460.89	10.874
461.24	11.397
461.59	11.791
461.94	11.407
462.29	12.471
462.64	12.186
462.99	11.964
463.34	12.378
463.69	12.583
464.04	11.917
464.39	11.620
464.74	11.196
465.09	11.492
465.44	11.317
465.79	11.486
466.14	11.076
466.49	11.829
466.84	11.315
467.19	11.951
467.54	11.592
467.89	12.089
468.24	11.523
468.59	12.202
468.94	11.836
469.29	11.790
469.64	12.090
469.99	12.918
470.34	11.259
470.68	12.414
471.03	11.674
471.38	11.325
471.73	12.149
472.08	12.981
472.43	12.291
472.78	12.548
473.13	11.827
473.48	12.103
473.83	12.250
474.17	12.219
474.52	12.204
474.87	12.109
475.22	11.479
475.57	12.067
475.92	10.986
476.27	11.099
476.61	11.528
476.96	12.226
477.31	11.568
477.66	11.809
478.01	12.274
478.36	11.998
478.70	11.911
479.05	11.402
479.40	11.657
479.75	11.966
480.10	12.197
480.45	11.578
480.79	11.705
481.14	11.602
481.49	11.253
481.84	11.609
482.19	12.009
482.53	11.067
482.88	11.335
483.23	10.916
483.58	11.759
483.92	11.426
484.27	11.515
484.62	11.545
484.97	11.258
485.31	11.127
485.66	10.279
486.01	9.840
486.36	9.585
486.70	9.699
487.05	10.173
487.40	10.470
487.75	10.788
488.09	11.222
488.44	10.835
488.79	11.003
489.13	11.646
489.48	11.666
489.83	11.134
490.17	11.396
490.52	11.972
490.87	12.284
491.22	12.012
491.56	12.297
491.91	11.783
492.26	11.670
492.60	11.845
492.95	11.282
493.30	11.829
493.64	11.635
493.99	11.986
494.34	11.519
494.68	11.908
495.03	11.765
495.37	12.157
495.72	11.981
496.07	11.590
496.41	11.816
496.76	12.073
497.11	12.639
497.45	12.012
497.80	11.724
498.14	11.882
498.49	12.535
498.84	12.664
499.18	11.426
499.53	12.862
499.87	12.084
500.22	11.423
500.56	11.792
500.91	12.662
501.26	13.000
501.60	11.885
501.95	11.470
502.29	12.044
502.64	11.954
502.98	11.827
503.33	11.938
503.67	12.053
504.02	11.644
504.36	13.167
504.71	12.204
505.06	12.154
505.40	11.652
505.75	11.740
506.09	12.552
506.44	12.171
506.78	12.949
507.13	12.167
507.47	11.984
507.82	12.847
508.16	13.229
508.51	11.787
508.85	12.631
509.19	12.139
509.54	12.793
509.88	13.078
510.23	12.647
510.57	12.210
510.92	13.037
511.26	13.203
511.61	12.851
511.95	12.892
512.30	13.000
512.64	12.513
512.98	13.275
513.33	12.961
513.67	12.895
514.02	13.766
514.36	12.721
514.70	12.533
515.05	12.307
515.39	13.487
515.74	13.778
516.08	12.473
516.42	13.224
516.77	13.920
517.11	13.013
517.46	13.416
517.80	13.271
518.14	13.634
518.49	13.065
518.83	12.967
519.17	13.533
519.52	13.381
519.86	14.114
520.20	14.630
520.55	13.510
520.89	13.218
521.23	13.902
521.58	13.310
521.92	13.236
522.26	13.152
522.61	13.844
522.95	13.393
523.29	13.801
523.64	13.121
523.98	13.967
524.32	13.783
524.66	13.159
525.01	13.195
525.35	13.730
525.69	14.570
526.04	14.396
526.38	14.008
526.72	13.723
527.06	13.247
527.41	14.208
527.75	14.242
528.09	13.727
528.43	14.033
528.78	12.761
529.12	14.028
529.46	13.910
529.80	13.318
530.15	13.494
530.49	12.996
530.83	13.528
531.17	13.653
531.51	14.654
531.86	13.406
532.20	13.288
532.54	13.120
532.88	13.804
533.22	13.894
533.57	13.850
533.91	12.821
534.25	13.618
534.59	13.509
534.93	13.367
535.27	12.863
535.62	13.477
535.96	12.530
536.30	14.077
536.64	13.168
536.98	13.845
537.32	14.438
537.66	13.010
538.01	14.551
538.35	13.288
538.69	13.592
539.03	13.184
539.37	13.350
539.71	13.642
540.05	13.108
540.39	14.088
540.73	13.924
541.07	13.363
541.42	13.806
541.76	14.057
542.10	13.933
542.44	14.027
542.78	13.531
543.12	12.699
543.46	13.283
543.80	13.409
544.14	13.622
544.48	13.139
544.82	13.639
545.16	13.115
545.50	13.215
545.84	14.457
546.18	13.589
546.52	13.574
546.86	13.217
547.20	13.501
547.54	13.680
547.88	13.686
548.22	12.933
548.56	13.377
548.90	13.405
549.24	13.771
549.58	13.660
549.92	13.621
550.26	13.387
550.60	13.373
550.94	13.976
551.28	14.759
551.62	14.345
551.96	14.122
552.30	12.722
552.64	13.786
552.98	14.175
553.32	13.764
553.66	13.290
554.00	13.514
554.34	15.180
554.68	13.978
555.02	14.325
555.36	13.098
555.69	14.005
556.03	13.822
556.37	13.321
556.71	14.407
557.05	13.893
557.39	13.933
557.73	13.814
558.07	14.085
558.41	13.502
558.75	15.185
559.08	14.653
559.42	14.245
559.76	13.899
560.10	13.008
560.44	14.466
560.78	14.322
561.12	13.986
561.45	12.703
561.79	12.921
562.13	12.824
562.47	13.757
562.81	13.988
563.15	12.993
563.48	13.043
563.82	14.223
564.16	14.055
564.50	13.321
564.84	13.556
565.17	13.131
565.51	13.855
565.85	13.325
566.19	13.214
566.52	12.876
566.86	13.602
567.20	13.427
567.54	13.046
567.88	13.093
568.21	11.882
568.55	12.403
568.89	12.409
569.23	11.734
569.56	11.422
569.90	11.247
570.24	11.584
570.57	11.129
570.91	10.983
571.25	10.765
571.59	10.180
571.92	10.630
572.26	10.431
572.60	10.525
572.93	11.156
573.27	10.597
573.61	10.287
573.95	10.359
574.28	10.567
574.62	10.084
574.96	9.833
575.29	10.324
575.63	10.200
575.97	10.102
576.30	9.997
576.64	10.508
576.98	9.984
577.31	9.966
577.65	10.246
577.98	9.640
578.32	9.593
578.66	10.051
578.99	10.174
579.33	10.329
579.67	10.385
580.00	9.975
580.34	10.036
580.67	9.888
581.01	10.182
581.35	9.938
581.68	9.439
582.02	9.837
582.35	9.587
582.69	10.030
583.02	10.116
583.36	10.061
583.70	10.537
584.03	10.689
584.37	10.525
584.70	10.376
585.04	10.278
585.37	9.896
585.71	10.157
586.04	10.265
586.38	10.127
586.72	10.656
587.05	10.293
587.39	10.114
587.72	10.051
588.06	10.181
588.39	10.568
588.73	10.406
589.06	10.534
589.40	10.798
589.73	10.390
590.07	11.325
590.40	11.150
590.73	12.046
591.07	11.803
591.40	11.417
591.74	11.120
592.07	11.106
592.41	11.631
592.74	11.351
593.08	10.547
593.41	10.503
593.75	10.425
594.08	11.149
594.41	10.916
594.75	11.199
595.08	10.288
595.42	11.060
595.75	10.990
596.09	10.879
596.42	10.889
596.75	11.538
597.09	11.556
597.42	10.776
597.75	11.075
598.09	11.079
598.42	11.832
598.76	11.218
599.09	11.364
599.42	10.554
599.76	11.364
600.09	10.746
600.42	10.877
600.76	10.537
601.09	11.115
601.42	10.876
601.76	11.278
602.09	11.663
602.42	11.165
602.76	11.233
603.09	11.199
603.42	11.083
603.76	10.665
604.09	11.003
604.42	10.960
604.76	11.260
605.09	11.347
605.42	11.581
605.75	11.607
606.09	11.438
606.42	11.462
606.75	11.310
607.09	11.251
607.42	11.169
607.75	11.027
608.08	10.723
608.42	11.913
608.75	10.911
609.08	10.955
609.41	11.955
609.75	11.951
610.08	11.376
610.41	11.594
610.74	11.861
611.07	12.187
611.41	12.141
611.74	12.046
612.07	11.657
612.40	11.793
612.73	12.132
613.07	12.063
613.40	12.331
613.73	12.232
614.06	11.250
614.39	12.121
614.72	11.803
615.06	11.424
615.39	11.832
615.72	11.665
616.05	12.004
616.38	11.974
616.71	12.100
617.05	12.081
617.38	12.528
617.71	12.261
618.04	13.068
618.37	12.563
618.70	12.240
619.03	13.126
619.36	14.008
619.69	12.731
620.03	14.220
620.36	12.974
620.69	13.155
621.02	13.315
621.35	13.539
621.68	14.086
622.01	13.506
622.34	12.600
622.67	13.834
623.00	13.819
623.33	13.563
623.66	13.107
623.99	12.877
624.32	13.211
624.65	12.969
624.99	13.928
625.32	14.095
625.65	13.034
625.98	13.250
626.31	12.760
626.64	14.275
626.97	14.308
627.30	14.286
627.63	13.030
627.96	14.006
628.29	14.274
628.62	13.601
628.95	14.628
629.28	15.951
629.61	14.499
629.94	14.261
630.26	14.385
630.59	15.780
630.92	14.170
631.25	14.959
631.58	15.429
631.91	15.414
632.24	15.452
632.57	13.458
632.90	16.356
633.23	17.314
633.56	16.017
633.89	16.292
634.22	17.438
634.55	14.301
634.88	16.429
635.20	16.480
635.53	15.796
635.86	18.568
636.19	14.815
636.52	15.243
636.85	15.750
637.18	16.251
637.51	15.307
637.83	14.989
638.16	17.937
638.49	17.126
638.82	18.427
639.15	15.159
639.48	16.943
639.81	17.094
640.13	17.178
640.46	16.308
640.79	15.215
641.12	17.323
641.45	17.206
641.77	17.569
642.10	17.938
642.43	17.639
642.76	16.761
643.09	17.435
643.41	17.391
643.74	17.842
644.07	17.257
644.40	17.308
644.73	20.420
645.05	18.871
645.38	17.458
645.71	17.602
646.04	18.626
646.36	17.840
646.69	16.800
647.02	20.160
647.35	17.638
647.67	19.125
648.00	17.752
648.33	18.647
648.66	17.273
648.98	17.536
649.31	17.409
649.64	16.183
649.96	16.074
650.29	17.429
650.62	17.820
650.94	18.976
651.27	19.617
651.60	16.745
651.92	18.587
652.25	20.315
652.58	15.461
652.90	16.617
653.23	16.691
653.56	15.727
653.88	16.593
654.21	16.862
654.54	17.130
654.86	18.437
655.19	16.623
655.52	13.032
655.84	8.194
656.17	8.801
656.49	12.746
656.82	14.733
657.15	11.844
657.47	9.102
657.80	6.807
658.13	5.480
658.45	7.604
658.78	9.343
659.10	9.273
659.43	9.688
659.75	10.473
660.08	11.529
660.41	12.523
660.73	16.562
661.06	17.417
661.38	18.399
661.71	18.165
662.03	18.251
662.36	21.333
662.68	20.484
663.01	19.459
663.33	18.868
663.66	21.105
663.98	20.238
664.31	21.269
664.63	19.540
664.96	23.827
665.28	19.397
665.61	19.057
665.93	19.057
666.26	20.374
666.58	20.734
666.91	18.726
667.23	19.478
667.56	21.150
667.88	20.954
668.21	18.648
668.53	19.153
668.86	20.240
669.18	20.367
669.50	18.182
669.83	19.507
670.15	18.087
670.48	18.555
670.80	19.124
671.13	17.928
671.45	22.645
671.77	20.408
672.10	19.390
672.42	18.092
672.75	16.772
673.07	18.442
673.39	18.530
673.72	17.820
674.04	18.996
674.37	19.782
674.69	19.703
675.01	16.791
675.34	19.767
675.66	20.508
675.98	18.343
676.31	20.400
676.63	18.091
676.95	20.635
677.28	19.270
677.60	19.718
677.92	16.667
678.25	19.380
678.57	20.112
678.89	17.360
679.22	19.118
679.54	18.327
679.86	18.848
680.18	15.993
680.51	16.915
680.83	15.372
681.15	15.771
681.48	17.535
681.80	16.813
682.12	18.685
682.44	15.676
682.77	19.039
683.09	18.641
683.41	18.571
683.73	21.063
684.06	17.659
684.38	16.860
684.70	18.345
685.02	15.451
685.34	15.669
685.67	18.489
685.99	18.555
686.31	17.720
686.63	16.098
686.96	19.281
687.28	16.443
687.60	17.406
687.92	16.583
688.24	18.793
688.56	17.082
688.89	17.208
689.21	18.497
689.53	19.368
689.85	16.057
690.17	18.447
690.49	20.565
690.82	17.017
691.14	21.010
691.46	17.864
691.78	21.832
692.10	15.840
692.42	16.515
692.74	18.217
693.06	18.992
693.39	16.996
693.71	17.485
694.03	20.316
694.35	20.482
694.67	18.330
694.99	20.177
695.31	20.045
695.63	18.778
695.95	20.362
696.27	24.115
696.59	17.422
696.91	20.000
697.23	18.552
697.56	16.598
697.88	14.571
698.20	17.547
698.52	16.926
698.84	17.659
699.16	22.814
699.48	18.644
699.80	22.658
700.12	22.864
700.44	21.729
700.76	18.854
701.08	20.627
701.40	19.481
701.72	25.668
702.04	21.680
702.36	20.968
702.68	22.872
703.00	17.293
703.32	23.325
703.64	19.647
703.96	21.354
704.28	19.312
704.60	21.690
704.91	20.168
705.23	22.727
705.55	21.662
705.87	19.048
706.19	26.332
706.51	27.900
706.83	20.649
707.15	24.332
707.47	18.644
707.79	18.161
708.11	17.234
708.43	19.101
708.74	17.421
709.06	21.628
709.38	18.362
709.70	17.984
710.02	18.478
710.34	22.652
710.66	25.278
710.98	19.399
711.29	18.384
711.61	22.563
711.93	19.757
712.25	21.687
712.57	22.186
712.89	25.455
713.20	21.086
713.52	21.184
713.84	24.471
714.16	19.420
714.48	17.291
714.80	19.241
715.11	18.617
715.43	18.436
715.75	18.310
716.07	22.543
716.39	21.429
716.70	21.495
717.02	23.569
717.34	24.820
717.66	26.389
717.97	29.545
718.29	25.000
718.61	21.284
718.93	24.567
719.24	24.161
719.56	19.310
719.88	19.108
720.20	24.839
720.51	23.203
720.83	22.742
721.15	25.170
721.46	21.575
721.78	21.254
722.10	24.306
722.42	24.415
722.73	19.856
723.05	25.263
723.37	26.502
723.68	23.828
724.00	25.758
724.32	27.757
724.63	27.308
724.95	25.098
725.27	20.818
725.58	23.162
725.90	20.070
726.22	19.863
726.53	22.742
726.85	22.150
727.16	23.490
727.48	20.930
727.80	25.899
728.11	21.071
728.43	24.638
728.74	24.126
729.06	20.072
729.38	27.018
729.69	27.667
730.01	21.711
730.32	22.148
730.64	25.914
730.96	21.922
731.27	17.737
731.59	18.966
731.90	19.220
732.22	21.714
732.53	18.803
732.85	23.392
733.16	19.880
733.48	19.122
733.80	23.188
734.11	19.325
734.43	20.175
734.74	18.499
735.06	21.429
735.37	19.845
735.69	18.551
736.00	19.878
736.32	17.879
736.63	17.035
736.95	17.391
737.26	21.037
737.58	21.472
737.89	20.482
738.21	16.225
738.52	20.736
738.83	26.007
739.15	24.042
739.46	21.724
739.78	21.769
740.09	20.700
740.41	17.178
740.72	26.667
741.04	23.776
741.35	24.609
741.66	23.320
741.98	22.747
742.29	23.148
742.61	23.009
742.92	23.305
743.23	20.800
743.55	18.868
743.86	24.706
744.18	23.305
744.49	25.620
744.80	24.885
745.12	32.589
745.43	27.103
745.74	23.111
746.06	23.684
746.37	24.651
746.68	26.991
747.00	25.112
747.31	23.950
747.62	22.131
747.94	22.318
748.25	20.623
748.56	25.847
748.88	26.786
749.19	24.186
749.50	22.374
749.82	26.337
750.13	22.134
750.44	18.333
750.75	21.812
751.07	22.039
751.38	22.442
751.69	20.875
752.01	20.629
752.32	20.930
752.63	22.483
752.94	23.427
753.26	26.953
753.57	25.681
753.88	25.843
754.19	24.188
754.51	24.252
754.82	20.470
755.13	21.622
755.44	25.185
755.75	27.148
756.07	23.973
756.38	21.569
756.69	20.625
757.00	24.036
757.31	19.155
757.63	20.110
757.94	18.351
758.25	16.184
758.56	18.307
758.87	16.792
759.18	17.733
759.50	21.277
759.81	20.178
760.12	19.663
760.43	16.527
760.74	18.987
761.05	17.772
761.36	18.490
761.67	16.712
761.99	18.310
762.30	18.650
762.61	19.097
762.92	24.242
763.23	23.774
763.54	23.462
763.85	22.957
764.16	25.347
764.47	22.297
764.78	19.218
765.10	16.159
765.41	18.466
765.72	19.061
766.03	17.221
766.34	22.997
766.65	21.673
766.96	26.316
767.27	23.832
767.58	29.703
767.89	27.072
768.20	32.927
768.51	26.020
768.82	25.877
769.13	21.961
769.44	22.932
769.75	21.723
770.06	23.950
770.37	20.175
770.68	21.333
770.99	30.508
771.30	20.084
771.61	23.077
771.92	24.427
772.23	21.774
772.54	30.222
772.85	32.673
773.16	32.065
773.47	25.000
773.78	31.683
774.09	22.727
774.39	27.273
774.70	22.353
775.01	26.316
775.32	32.919
775.63	30.137
775.94	37.037
776.25	33.793
776.56	23.664
776.87	36.641
777.18	29.545
777.48	44.094
777.79	35.385
778.10	31.818
778.41	37.313
778.72	35.338
779.03	25.641
779.34	27.703
779.65	31.056
779.95	37.888
780.26	24.405
780.57	33.333
780.88	29.078
781.19	38.333
781.50	33.728
781.80	30.055
782.11	31.217
782.42	27.011
782.73	33.898
783.04	30.968
783.34	24.031
783.65	27.891
783.96	35.484
784.27	31.788
784.57	22.368
784.88	32.609
785.19	32.500
785.50	39.655
785.81	35.659
786.11	35.556
786.42	36.220
786.73	30.631
787.04	30.189
787.34	27.642
787.65	40.152
787.96	37.879
788.26	40.157
788.57	31.387
788.88	34.507
789.19	25.954
789.49	35.811
789.80	35.156
790.11	34.711
790.41	51.852
790.72	36.111
791.03	38.462
791.33	38.384
791.64	42.105
791.95	37.895
792.25	40.625
792.56	38.000
792.87	41.463
793.17	40.909
793.48	51.765
793.79	47.126
794.09	53.409
794.40	53.448
794.70	39.683
795.01	26.154
795.32	26.718
795.62	28.205
795.93	41.176
796.23	36.585
796.54	45.918
796.85	54.545
797.15	58.442
797.46	60.976
797.76	41.250
798.07	52.000
798.37	60.000
798.68	48.750
798.99	59.756
799.29	38.667
799.60	31.395
799.90	46.053
800.21	56.061
800.51	59.155
800.82	55.172
801.12	67.692
801.43	53.333
801.73	43.103
802.04	46.753
802.34	53.425
802.65	56.863
802.95	67.391
803.26	62.903
803.56	88.333
803.87	70.149
804.17	68.254
804.48	56.604
804.78	50.000
805.09	60.606
805.39	53.968
805.70	64.912
806.00	52.857
806.30	60.937
806.61	47.059
806.91	50.000
807.22	54.348
807.52	55.263
807.83	51.316
808.13	60.870
808.43	54.839
808.74	57.534
809.04	69.643
809.35	63.235
809.65	50.000
809.95	64.706
810.26	101.852
810.56	76.562
810.86	69.388
811.17	75.439
811.47	56.522
811.77	68.966
812.08	51.724
812.38	78.571
812.69	111.905
812.99	82.222
813.29	97.143
813.59	93.548
813.90	62.069
814.20	67.213
814.50	52.000
814.81	54.386
815.11	85.185
815.41	69.643
815.72	78.571
816.02	94.000
816.32	95.122
816.62	74.138
816.93	90.909
817.23	92.683
817.53	91.071
817.84	91.111
818.14	88.095
818.44	62.500
818.74	86.792
819.04	76.923
819.35	60.606
819.65	94.231
819.95	87.037
820.25	89.362
820.56	83.784
820.86	68.421
821.16	70.213
821.46	92.105
821.76	89.091
822.07	57.143
822.37	92.105
822.67	109.302
822.97	52.632
823.27	76.087
823.57	109.375
823.88	76.923
824.18	112.121
824.48	130.435
824.78	108.333
825.08	108.696
825.38	79.310
825.69	79.412
825.99	57.447
826.29	91.667
826.59	100.000
826.89	86.667
827.19	94.286
827.49	109.677
827.79	150.000
828.09	83.333
828.39	77.778
828.70	70.270
829.00	107.143
829.30	118.750
829.60	105.556
829.90	103.226
830.20	84.848
830.50	108.108
830.80	141.667
831.10	142.308
831.40	142.857
831.70	162.500
832.00	120.000
832.30	113.043
832.60	141.667
832.90	148.485
833.20	195.000
833.50	97.368
833.80	126.471
834.10	107.895
834.40	115.789
834.70	120.000
835.00	128.000
835.30	97.297
835.60	128.125
835.90	89.189
836.20	126.923
836.50	104.545
836.80	97.561
837.10	143.478
837.40	230.769
837.70	142.105
838.00	126.667
838.30	175.000
838.60	140.000
838.90	200.000
839.19	168.750
839.49	103.333
839.79	103.448
840.09	115.385
840.39	200.000
840.69	173.684
840.99	109.524
841.29	134.783
841.59	165.000
841.88	216.000
842.18	288.889
842.48	125.000
842.78	114.815
843.08	169.231
843.38	163.636
843.68	157.143
843.97	314.286
844.27	160.870
844.57	1500.000
844.87	250.000
845.17	177.778
845.47	95.238
845.76	179.167
846.06	442.857
846.36	100.000
846.66	207.692
846.96	268.750
847.25	261.538
847.55	157.895
847.85	172.222
848.15	400.000
848.44	281.818
848.74	85.714
849.04	175.000
849.34	135.294
849.63	206.250
849.93	262.500
850.23	1000.000
850.53	287.500
850.82	181.818
851.12	135.294
851.42	170.833
851.71	162.500
852.01	0.000
852.31	188.235
852.61	470.000
852.90	133.333
853.20	233.333
853.50	-1600.000
853.79	140.000
854.09	131.250
854.39	117.241
854.68	131.034
854.98	214.286
855.28	112.903
855.57	171.429
855.87	111.111
856.17	144.444
856.46	210.526
856.76	96.774
857.05	200.000
857.35	218.182
857.65	176.923
857.94	165.000
858.24	355.556
858.53	214.286
858.83	585.714
859.13	173.913
859.42	355.556
859.72	350.000
860.01	233.333
860.31	500.000
860.60	290.000
860.90	300.000
861.20	253.846
861.49	328.571
861.79	-3000.000
862.08	557.143
862.38	400.000
862.67	228.571
862.97	240.000
863.26	146.667
863.56	650.000
863.85	284.615
864.15	235.294
864.44	172.222
864.74	350.000
865.03	272.727
865.33	212.500
865.62	146.667
865.92	566.667
866.21	725.000
866.51	500.000
866.80	238.889
867.10	566.667
867.39	4800.000
867.69	520.000
867.98	725.000
868.27	138.095
868.57	253.333
868.86	700.000
869.16	133.333
869.45	2800.000
869.75	-316.667
870.04	725.000
870.33	660.000
870.63	387.500
870.92	152.941
871.22	575.000
871.51	500.000
871.80	375.000
872.10	284.615
>>>>>End Processed Spectral Data<<<<<
