SpectraSuite Data File
++++++++++++++++++++++++++++++++++++
Date: Tue May 12 16:38:04 PDT 2015
User: schluterlab
Dark Spectrum Present: Yes
Reference Spectrum Present: Yes
Number of Sampled Component Spectra: 1
Spectrometers: USB2E3373
Integration Time (usec): 3000 (USB2E3373)
Spectra Averaged: 3 (USB2E3373)
Boxcar Smoothing: 0 (USB2E3373)
Correct for Electrical Dark: No (USB2E3373)
Strobe/Lamp Enabled: No (USB2E3373)
Correct for Detector Non-linearity: No (USB2E3373)
Correct for Stray Light: No (USB2E3373)
Number of Pixels in Processed Spectrum: 2048
>>>>>Begin Processed Spectral Data<<<<<
178.53	0.000
178.91	-250.000
179.29	-750.000
179.67	-2900.000
180.04	-113.333
180.42	525.000
180.80	1650.000
181.18	0.000
181.56	-237.500
181.94	0.000
182.31	1133.333
182.69	-2700.000
183.07	600.000
183.45	-2700.000
183.83	-1550.000
184.20	450.000
184.58	414.286
184.96	-253.846
185.34	-258.333
185.72	1750.000
186.09	-625.000
186.47	-2200.000
186.85	1366.667
187.23	760.000
187.61	1550.000
187.98	325.000
188.36	285.714
188.74	350.000
189.12	358.333
189.49	925.000
189.87	0.000
190.25	437.500
190.63	2800.000
191.00	-150.000
191.38	-2700.000
191.76	-525.000
192.14	612.500
192.51	-3300.000
192.89	1200.000
193.27	900.000
193.65	-833.333
194.02	-740.000
194.40	514.286
194.78	-185.714
195.15	246.667
195.53	-3000.000
195.91	-640.000
196.29	4300.000
196.66	212.500
197.04	1050.000
197.42	-1200.000
197.79	675.000
198.17	308.333
198.55	0.000
198.92	414.286
199.30	1033.333
199.68	1500.000
200.05	600.000
200.43	-450.000
200.81	216.667
201.18	3500.000
201.56	300.000
201.94	-800.000
202.31	-362.500
202.69	-680.000
203.07	3000.000
203.44	-416.667
203.82	350.000
204.19	540.000
204.57	-1400.000
204.95	-650.000
205.32	-840.000
205.70	533.333
206.08	700.000
206.45	-766.667
206.83	411.111
207.20	184.211
207.58	191.667
207.96	520.000
208.33	0.000
208.71	485.714
209.08	660.000
209.46	-3300.000
209.84	-650.000
210.21	940.000
210.59	-700.000
210.96	308.333
211.34	-950.000
211.71	336.364
212.09	775.000
212.46	1800.000
212.84	-450.000
213.22	422.222
213.59	-2100.000
213.97	400.000
214.34	1175.000
214.72	833.333
215.09	733.333
215.47	-3300.000
215.84	-310.000
216.22	-337.500
216.59	0.000
216.97	0.000
217.34	1500.000
217.72	-1700.000
218.09	1400.000
218.47	425.000
218.84	950.000
219.22	1266.667
219.59	533.333
219.97	428.571
220.34	388.889
220.72	1400.000
221.09	4000.000
221.47	191.667
221.84	733.333
222.22	320.000
222.59	222.222
222.97	285.714
223.34	275.000
223.72	-1650.000
224.09	933.333
224.46	284.615
224.84	-825.000
225.21	322.222
225.59	186.667
225.96	1066.667
226.34	-940.000
226.71	-675.000
227.08	-460.000
227.46	0.000
227.83	-300.000
228.21	-1650.000
228.58	350.000
228.95	1100.000
229.33	311.111
229.70	950.000
230.08	307.692
230.45	4000.000
230.82	-750.000
231.20	-966.667
231.57	-1066.667
231.95	320.000
232.32	275.000
232.69	466.667
233.07	208.333
233.44	-1350.000
233.81	186.667
234.19	166.667
234.56	193.750
234.93	211.765
235.31	175.000
235.68	293.750
236.05	142.857
236.43	166.667
236.80	242.857
237.17	162.069
237.55	100.000
237.92	105.000
238.29	112.121
238.67	103.125
239.04	109.756
239.41	56.250
239.79	62.500
240.16	60.417
240.53	44.262
240.91	44.928
241.28	62.712
241.65	45.455
242.02	67.606
242.40	71.429
242.77	41.758
243.14	34.177
243.51	46.465
243.89	44.860
244.26	39.252
244.63	30.693
245.00	35.780
245.38	25.424
245.75	31.818
246.12	37.778
246.49	33.333
246.87	20.492
247.24	30.667
247.61	21.875
247.98	36.735
248.36	24.242
248.73	33.163
249.10	20.833
249.47	27.500
249.84	23.383
250.22	27.027
250.59	24.500
250.96	24.051
251.33	20.930
251.70	27.232
252.08	19.748
252.45	22.311
252.82	17.490
253.19	18.182
253.56	19.231
253.94	20.290
254.31	17.442
254.68	19.512
255.05	19.310
255.42	17.518
255.79	19.870
256.16	18.305
256.54	19.156
256.91	17.647
257.28	17.057
257.65	14.420
258.02	18.879
258.39	19.771
258.76	20.000
259.14	16.571
259.51	18.367
259.88	18.541
260.25	16.209
260.62	17.534
260.99	14.325
261.36	16.713
261.73	19.149
262.10	17.016
262.47	16.750
262.85	15.733
263.22	15.938
263.59	15.601
263.96	15.789
264.33	13.086
264.70	14.496
265.07	15.610
265.44	14.450
265.81	16.274
266.18	15.789
266.55	17.494
266.92	15.660
267.29	17.763
267.66	15.695
268.03	11.435
268.40	16.490
268.77	14.537
269.14	11.280
269.51	15.590
269.88	16.531
270.25	12.743
270.62	15.880
270.99	17.444
271.36	15.650
271.73	13.417
272.10	13.737
272.47	13.492
272.84	14.371
273.21	12.397
273.58	16.802
273.95	12.115
274.32	16.342
274.69	15.157
275.06	16.029
275.43	14.751
275.80	13.019
276.17	13.419
276.54	14.206
276.91	16.045
277.28	13.869
277.65	13.653
278.02	14.154
278.39	12.950
278.76	13.621
279.13	12.811
279.50	14.000
279.87	13.408
280.23	11.971
280.60	12.044
280.97	12.931
281.34	14.356
281.71	14.783
282.08	12.650
282.45	13.345
282.82	14.716
283.19	12.401
283.56	13.223
283.92	13.844
284.29	12.812
284.66	11.597
285.03	13.765
285.40	13.223
285.77	12.346
286.14	13.777
286.51	11.963
286.87	10.443
287.24	11.862
287.61	13.374
287.98	12.090
288.35	12.889
288.72	12.291
289.08	12.312
289.45	12.652
289.82	13.906
290.19	12.445
290.56	13.974
290.93	12.662
291.29	12.293
291.66	11.158
292.03	11.641
292.40	12.873
292.77	11.003
293.13	11.698
293.50	11.876
293.87	10.976
294.24	11.888
294.60	11.306
294.97	12.308
295.34	12.749
295.71	12.878
296.08	10.933
296.44	12.452
296.81	11.787
297.18	11.153
297.55	10.961
297.91	9.113
298.28	12.681
298.65	10.798
299.02	11.821
299.38	11.751
299.75	10.732
300.12	11.927
300.48	12.178
300.85	11.800
301.22	11.163
301.59	9.552
301.95	10.035
302.32	10.827
302.69	10.407
303.05	12.233
303.42	10.202
303.79	10.509
304.15	10.671
304.52	10.888
304.89	11.407
305.25	11.680
305.62	12.260
305.99	10.000
306.35	11.684
306.72	10.094
307.09	9.834
307.45	11.404
307.82	11.214
308.19	10.206
308.55	11.000
308.92	11.776
309.29	12.426
309.65	11.001
310.02	10.649
310.38	10.967
310.75	10.511
311.12	10.441
311.48	11.293
311.85	11.450
312.22	11.270
312.58	9.524
312.95	12.136
313.31	11.610
313.68	11.820
314.05	11.630
314.41	13.128
314.78	12.121
315.14	12.133
315.51	12.488
315.87	12.318
316.24	12.979
316.61	13.697
316.97	12.018
317.34	13.567
317.70	13.696
318.07	14.057
318.43	12.830
318.80	13.485
319.16	13.724
319.53	13.805
319.89	13.172
320.26	16.294
320.62	14.927
320.99	15.157
321.35	15.306
321.72	16.603
322.08	15.789
322.45	15.895
322.81	15.737
323.18	16.696
323.54	16.725
323.91	17.316
324.27	17.772
324.64	16.263
325.00	17.069
325.37	17.791
325.73	17.454
326.10	19.470
326.46	18.580
326.83	17.840
327.19	17.912
327.56	18.450
327.92	20.000
328.29	20.949
328.65	20.976
329.01	20.359
329.38	20.135
329.74	19.898
330.11	20.330
330.47	20.290
330.84	20.449
331.20	20.728
331.56	21.848
331.93	21.985
332.29	20.493
332.66	21.684
333.02	20.962
333.38	21.117
333.75	22.269
334.11	21.393
334.48	21.880
334.84	22.551
335.20	21.814
335.57	21.746
335.93	21.110
336.29	22.720
336.66	22.213
337.02	21.044
337.38	22.012
337.75	22.635
338.11	22.025
338.47	22.862
338.84	21.931
339.20	20.606
339.56	21.447
339.93	23.077
340.29	21.008
340.65	22.883
341.02	24.055
341.38	22.989
341.74	22.259
342.11	22.788
342.47	21.083
342.83	22.559
343.20	22.150
343.56	21.446
343.92	22.048
344.28	22.727
344.65	22.820
345.01	21.746
345.37	22.276
345.73	22.222
346.10	21.514
346.46	22.249
346.82	21.682
347.19	22.334
347.55	20.999
347.91	21.903
348.27	21.069
348.63	22.864
349.00	23.229
349.36	21.556
349.72	22.859
350.08	22.748
350.45	22.087
350.81	23.700
351.17	21.880
351.53	21.940
351.89	22.844
352.26	22.222
352.62	22.700
352.98	22.469
353.34	22.111
353.70	21.713
354.07	23.462
354.43	22.120
354.79	22.931
355.15	23.047
355.51	22.205
355.87	23.268
356.24	22.710
356.60	23.212
356.96	22.820
357.32	22.080
357.68	23.715
358.04	23.708
358.40	22.564
358.77	22.014
359.13	22.898
359.49	23.277
359.85	22.859
360.21	21.991
360.57	23.577
360.93	22.511
361.29	22.367
361.66	23.714
362.02	22.230
362.38	23.304
362.74	22.930
363.10	23.913
363.46	22.030
363.82	22.931
364.18	23.257
364.54	23.247
364.90	24.364
365.26	24.150
365.62	23.412
365.98	23.469
366.35	22.621
366.71	22.901
367.07	22.048
367.43	23.842
367.79	23.271
368.15	22.795
368.51	24.121
368.87	22.894
369.23	23.008
369.59	22.724
369.95	23.846
370.31	22.382
370.67	23.248
371.03	24.440
371.39	23.199
371.75	23.657
372.11	23.657
372.47	24.589
372.83	23.317
373.19	24.195
373.55	24.055
373.91	23.481
374.27	23.347
374.63	24.203
374.99	23.922
375.35	23.858
375.71	23.219
376.07	23.939
376.42	22.187
376.78	23.635
377.14	23.591
377.50	23.908
377.86	23.190
378.22	23.583
378.58	24.637
378.94	24.321
379.30	23.651
379.66	23.901
380.02	24.399
380.38	22.834
380.74	23.933
381.09	24.299
381.45	23.873
381.81	23.463
382.17	23.748
382.53	22.735
382.89	24.246
383.25	23.387
383.61	23.516
383.97	24.235
384.32	23.810
384.68	25.193
385.04	23.681
385.40	23.903
385.76	23.698
386.12	24.119
386.48	23.769
386.83	23.961
387.19	23.852
387.55	24.087
387.91	23.672
388.27	24.866
388.62	24.531
388.98	23.440
389.34	23.498
389.70	23.880
390.06	24.085
390.42	24.121
390.77	22.666
391.13	24.623
391.49	23.956
391.85	23.815
392.20	24.374
392.56	24.373
392.92	23.470
393.28	23.430
393.64	22.878
393.99	23.533
394.35	23.720
394.71	24.065
395.07	23.783
395.42	24.122
395.78	23.874
396.14	23.855
396.50	24.067
396.85	23.293
397.21	22.924
397.57	24.626
397.92	23.224
398.28	22.008
398.64	24.142
399.00	23.410
399.35	24.155
399.71	23.455
400.07	23.573
400.42	23.701
400.78	24.340
401.14	24.427
401.49	23.733
401.85	23.523
402.21	23.374
402.57	23.698
402.92	23.576
403.28	22.673
403.63	23.072
403.99	23.462
404.35	23.212
404.70	23.745
405.06	22.852
405.42	24.117
405.77	23.815
406.13	23.210
406.49	23.309
406.84	23.350
407.20	23.002
407.55	23.015
407.91	23.995
408.27	23.166
408.62	23.122
408.98	22.413
409.34	22.911
409.69	22.589
410.05	22.838
410.40	22.850
410.76	22.954
411.11	23.874
411.47	21.975
411.83	22.027
412.18	22.585
412.54	23.123
412.89	22.714
413.25	23.945
413.60	23.598
413.96	22.442
414.31	22.668
414.67	23.526
415.03	22.478
415.38	23.975
415.74	23.752
416.09	23.735
416.45	23.594
416.80	23.220
417.16	23.043
417.51	24.268
417.87	23.655
418.22	23.147
418.58	23.503
418.93	24.033
419.29	22.489
419.64	24.107
420.00	24.344
420.35	23.461
420.71	23.629
421.06	23.720
421.42	23.834
421.77	24.098
422.12	23.153
422.48	22.753
422.83	24.554
423.19	24.028
423.54	23.862
423.90	24.519
424.25	24.491
424.61	23.796
424.96	23.885
425.31	23.536
425.67	24.804
426.02	24.678
426.38	24.737
426.73	24.754
427.09	24.377
427.44	25.098
427.79	24.643
428.15	26.164
428.50	24.629
428.85	25.162
429.21	25.014
429.56	24.626
429.92	24.664
430.27	25.012
430.62	24.719
430.98	25.599
431.33	24.849
431.68	24.444
432.04	26.073
432.39	25.521
432.74	25.644
433.10	25.138
433.45	26.307
433.80	26.145
434.16	26.274
434.51	27.038
434.86	26.402
435.22	26.094
435.57	26.675
435.92	27.205
436.28	27.535
436.63	26.580
436.98	26.914
437.34	26.313
437.69	26.316
438.04	26.022
438.39	27.963
438.75	27.784
439.10	26.929
439.45	26.908
439.81	27.820
440.16	26.307
440.51	26.802
440.86	28.376
441.22	27.110
441.57	27.297
441.92	27.048
442.27	27.835
442.63	26.778
442.98	27.532
443.33	27.263
443.68	27.515
444.03	26.956
444.39	27.778
444.74	28.106
445.09	27.435
445.44	26.621
445.79	27.924
446.15	27.526
446.50	28.006
446.85	27.540
447.20	26.965
447.55	27.896
447.91	28.023
448.26	28.222
448.61	28.192
448.96	28.758
449.31	27.558
449.66	27.796
450.02	27.823
450.37	28.540
450.72	28.926
451.07	27.516
451.42	28.571
451.77	28.981
452.12	28.588
452.47	28.372
452.83	28.338
453.18	28.348
453.53	28.774
453.88	30.400
454.23	29.634
454.58	28.846
454.93	28.755
455.28	29.192
455.63	29.551
455.98	29.047
456.34	30.578
456.69	29.878
457.04	28.401
457.39	28.571
457.74	29.505
458.09	28.636
458.44	28.970
458.79	28.912
459.14	28.696
459.49	29.785
459.84	29.130
460.19	29.379
460.54	28.661
460.89	29.104
461.24	28.923
461.59	29.422
461.94	29.433
462.29	28.375
462.64	29.962
462.99	29.047
463.34	29.488
463.69	29.946
464.04	29.879
464.39	29.307
464.74	29.250
465.09	29.483
465.44	29.869
465.79	29.396
466.14	29.147
466.49	29.192
466.84	29.153
467.19	29.291
467.54	29.670
467.89	29.519
468.24	29.299
468.59	29.881
468.94	30.254
469.29	30.055
469.64	29.904
469.99	30.591
470.34	29.981
470.68	29.448
471.03	29.820
471.38	30.530
471.73	30.111
472.08	29.941
472.43	30.664
472.78	30.922
473.13	29.099
473.48	30.196
473.83	30.448
474.17	31.550
474.52	30.332
474.87	30.131
475.22	29.355
475.57	30.168
475.92	29.586
476.27	29.108
476.61	30.402
476.96	29.310
477.31	30.231
477.66	30.488
478.01	30.170
478.36	30.072
478.70	29.181
479.05	29.550
479.40	30.060
479.75	30.437
480.10	29.671
480.45	29.412
480.79	29.585
481.14	28.864
481.49	28.637
481.84	29.595
482.19	29.563
482.53	30.215
482.88	29.122
483.23	30.176
483.58	29.533
483.92	30.667
484.27	29.623
484.62	30.433
484.97	30.035
485.31	28.532
485.66	28.598
486.01	28.664
486.36	28.025
486.70	27.897
487.05	28.081
487.40	28.585
487.75	28.397
488.09	28.807
488.44	28.904
488.79	29.434
489.13	29.862
489.48	29.445
489.83	28.732
490.17	29.108
490.52	29.888
490.87	29.310
491.22	29.211
491.56	30.083
491.91	29.391
492.26	29.176
492.60	30.205
492.95	29.905
493.30	29.982
493.64	29.605
493.99	29.472
494.34	29.673
494.68	29.659
495.03	29.681
495.37	30.527
495.72	30.163
496.07	29.695
496.41	29.235
496.76	29.126
497.11	30.291
497.45	29.811
497.80	30.584
498.14	29.635
498.49	29.759
498.84	29.860
499.18	29.525
499.53	30.225
499.87	30.548
500.22	30.493
500.56	30.409
500.91	30.798
501.26	30.363
501.60	30.191
501.95	29.570
502.29	29.956
502.64	29.819
502.98	29.835
503.33	30.111
503.67	30.419
504.02	29.646
504.36	30.181
504.71	30.842
505.06	29.986
505.40	30.463
505.75	30.402
506.09	30.285
506.44	31.203
506.78	30.388
507.13	29.956
507.47	30.180
507.82	30.608
508.16	30.769
508.51	30.531
508.85	30.342
509.19	30.543
509.54	30.225
509.88	30.830
510.23	30.833
510.57	29.826
510.92	31.169
511.26	30.622
511.61	29.591
511.95	30.562
512.30	30.850
512.64	30.062
512.98	30.651
513.33	30.686
513.67	30.451
514.02	30.182
514.36	30.062
514.70	30.987
515.05	30.527
515.39	31.414
515.74	32.149
516.08	31.264
516.42	31.749
516.77	30.987
517.11	31.413
517.46	31.034
517.80	30.639
518.14	31.549
518.49	30.044
518.83	30.495
519.17	31.115
519.52	31.240
519.86	31.444
520.20	30.904
520.55	30.808
520.89	31.207
521.23	32.535
521.58	30.924
521.92	30.729
522.26	31.398
522.61	31.610
522.95	31.592
523.29	31.345
523.64	31.272
523.98	31.690
524.32	31.200
524.66	30.957
525.01	31.420
525.35	30.996
525.69	31.547
526.04	30.874
526.38	30.430
526.72	31.802
527.06	29.568
527.41	31.802
527.75	30.980
528.09	30.885
528.43	30.628
528.78	30.769
529.12	32.210
529.46	30.508
529.80	30.666
530.15	31.349
530.49	30.084
530.83	31.079
531.17	30.873
531.51	32.005
531.86	30.435
532.20	29.975
532.54	30.697
532.88	31.605
533.22	31.261
533.57	30.933
533.91	31.002
534.25	30.121
534.59	32.105
534.93	30.830
535.27	30.108
535.62	31.447
535.96	30.615
536.30	31.688
536.64	30.745
536.98	30.774
537.32	30.812
537.66	30.867
538.01	31.331
538.35	30.505
538.69	31.250
539.03	31.281
539.37	30.886
539.71	30.926
540.05	30.585
540.39	31.509
540.73	30.949
541.07	30.740
541.42	30.659
541.76	30.826
542.10	30.580
542.44	31.110
542.78	30.648
543.12	30.000
543.46	30.764
543.80	30.952
544.14	31.146
544.48	31.144
544.82	30.398
545.16	29.690
545.50	31.039
545.84	31.313
546.18	31.534
546.52	31.869
546.86	30.819
547.20	30.556
547.54	30.209
547.88	30.474
548.22	31.815
548.56	31.349
548.90	30.249
549.24	31.017
549.58	30.799
549.92	30.845
550.26	31.643
550.60	30.938
550.94	32.157
551.28	32.552
551.62	31.931
551.96	31.554
552.30	30.719
552.64	31.456
552.98	31.508
553.32	30.794
553.66	30.554
554.00	30.695
554.34	32.623
554.68	31.720
555.02	32.383
555.36	30.918
555.69	31.806
556.03	30.318
556.37	30.784
556.71	31.682
557.05	30.865
557.39	31.467
557.73	31.267
558.07	31.321
558.41	31.803
558.75	33.584
559.08	31.665
559.42	31.281
559.76	32.573
560.10	32.140
560.44	31.719
560.78	31.522
561.12	31.596
561.45	30.350
561.79	30.899
562.13	30.764
562.47	30.500
562.81	30.904
563.15	31.351
563.48	29.752
563.82	31.566
564.16	32.090
564.50	30.621
564.84	30.152
565.17	31.194
565.51	31.281
565.85	31.400
566.19	30.536
566.52	31.468
566.86	31.173
567.20	31.180
567.54	31.004
567.88	31.299
568.21	30.155
568.55	30.593
568.89	29.836
569.23	29.940
569.56	30.591
569.90	29.716
570.24	29.847
570.57	28.845
570.91	29.548
571.25	29.093
571.59	28.511
571.92	28.041
572.26	28.410
572.60	28.353
572.93	29.270
573.27	28.260
573.61	28.966
573.95	28.536
574.28	28.454
574.62	27.899
574.96	27.170
575.29	27.688
575.63	28.151
575.97	27.726
576.30	27.765
576.64	28.387
576.98	28.071
577.31	28.645
577.65	27.926
577.98	28.170
578.32	27.877
578.66	28.188
578.99	28.026
579.33	28.259
579.67	28.156
580.00	27.998
580.34	28.364
580.67	28.076
581.01	28.769
581.35	28.444
581.68	28.174
582.02	28.143
582.35	27.890
582.69	28.678
583.02	27.982
583.36	28.623
583.70	28.983
584.03	29.679
584.37	29.076
584.70	28.539
585.04	28.694
585.37	28.133
585.71	29.618
586.04	28.013
586.38	28.489
586.72	28.417
587.05	28.796
587.39	29.001
587.72	29.373
588.06	29.153
588.39	29.632
588.73	28.902
589.06	29.851
589.40	29.640
589.73	29.007
590.07	29.959
590.40	30.418
590.73	30.812
591.07	30.816
591.40	30.379
591.74	30.114
592.07	30.699
592.41	29.936
592.74	29.513
593.08	29.590
593.41	29.533
593.75	28.785
594.08	29.689
594.41	29.619
594.75	29.829
595.08	29.252
595.42	30.250
595.75	29.812
596.09	30.031
596.42	29.934
596.75	30.689
597.09	31.077
597.42	30.204
597.75	29.696
598.09	29.832
598.42	30.477
598.76	29.722
599.09	30.747
599.42	29.412
599.76	29.172
600.09	29.729
600.42	29.247
600.76	29.640
601.09	29.651
601.42	29.743
601.76	31.078
602.09	29.875
602.42	29.538
602.76	29.981
603.09	30.882
603.42	30.899
603.76	29.826
604.09	30.040
604.42	30.207
604.76	30.146
605.09	30.204
605.42	30.272
605.75	30.122
606.09	30.145
606.42	30.214
606.75	30.587
607.09	29.293
607.42	29.851
607.75	30.533
608.08	29.610
608.42	30.411
608.75	30.766
609.08	30.928
609.41	30.909
609.75	30.907
610.08	30.800
610.41	29.864
610.74	29.870
611.07	30.468
611.41	30.167
611.74	30.019
612.07	30.347
612.40	31.140
612.73	31.203
613.07	31.221
613.40	31.128
613.73	31.253
614.06	30.350
614.39	30.859
614.72	30.537
615.06	30.267
615.39	30.396
615.72	30.348
616.05	31.843
616.38	30.847
616.71	31.416
617.05	30.752
617.38	30.674
617.71	31.609
618.04	30.454
618.37	31.518
618.70	31.524
619.03	31.441
619.36	31.156
619.69	30.805
620.03	32.224
620.36	31.407
620.69	32.695
621.02	32.609
621.35	31.375
621.68	31.858
622.01	32.546
622.34	32.192
622.67	32.374
623.00	31.926
623.33	32.591
623.66	31.404
623.99	32.192
624.32	31.843
624.65	32.061
624.99	31.778
625.32	32.465
625.65	30.897
625.98	31.381
626.31	33.309
626.64	32.346
626.97	31.217
627.30	31.599
627.63	33.438
627.96	31.925
628.29	33.333
628.62	32.421
628.95	32.270
629.28	33.216
629.61	32.425
629.94	32.671
630.26	33.189
630.59	33.777
630.92	32.018
631.25	33.182
631.58	33.944
631.91	33.873
632.24	32.945
632.57	32.024
632.90	33.333
633.23	34.837
633.56	34.668
633.89	34.727
634.22	35.307
634.55	33.763
634.88	34.830
635.20	34.417
635.53	34.843
635.86	35.347
636.19	35.241
636.52	32.757
636.85	33.225
637.18	33.803
637.51	32.067
637.83	32.952
638.16	35.991
638.49	32.814
638.82	34.038
639.15	34.078
639.48	35.545
639.81	36.386
640.13	35.337
640.46	34.766
640.79	35.241
641.12	35.696
641.45	36.611
641.77	36.196
642.10	34.806
642.43	34.566
642.76	34.659
643.09	35.303
643.41	34.222
643.74	36.259
644.07	37.906
644.40	35.651
644.73	35.435
645.05	38.336
645.38	37.213
645.71	35.357
646.04	35.573
646.36	34.585
646.69	35.200
647.02	37.120
647.35	35.748
647.67	35.818
648.00	37.785
648.33	34.586
648.66	36.212
648.98	35.507
649.31	34.683
649.64	33.333
649.96	34.139
650.29	34.286
650.62	35.346
650.94	36.446
651.27	36.842
651.60	35.055
651.92	36.252
652.25	36.063
652.58	35.319
652.90	35.479
653.23	35.598
653.56	35.608
653.88	34.655
654.21	33.578
654.54	32.650
654.86	35.841
655.19	33.641
655.52	31.346
655.84	26.408
656.17	31.087
656.49	44.594
656.82	50.140
657.15	39.467
657.47	29.674
657.80	22.034
658.13	17.779
658.45	24.001
658.78	28.880
659.10	29.117
659.43	29.631
659.75	29.974
660.08	30.952
660.41	33.212
660.73	34.253
661.06	34.835
661.38	37.138
661.71	34.892
662.03	35.741
662.36	36.952
662.68	34.078
663.01	37.117
663.33	37.547
663.66	38.264
663.98	36.706
664.31	37.500
664.63	37.931
664.96	38.462
665.28	34.840
665.61	36.226
665.93	36.981
666.26	36.075
666.58	38.716
666.91	38.996
667.23	38.956
667.56	38.193
667.88	40.249
668.21	37.705
668.53	36.492
668.86	36.874
669.18	37.475
669.50	34.298
669.83	38.604
670.15	38.462
670.48	35.156
670.80	36.255
671.13	37.849
671.45	37.475
671.77	37.291
672.10	35.727
672.42	34.704
672.75	34.652
673.07	34.340
673.39	34.345
673.72	34.083
674.04	35.663
674.37	34.301
674.69	37.546
675.01	34.515
675.34	33.140
675.66	34.570
675.98	36.489
676.31	37.600
676.63	35.586
676.95	36.706
677.28	36.917
677.60	37.626
677.92	34.524
678.25	35.271
678.57	38.734
678.89	36.347
679.22	35.662
679.54	35.943
679.86	34.380
680.18	33.040
680.51	34.494
680.83	34.291
681.15	35.355
681.48	35.764
681.80	33.625
682.12	35.813
682.44	36.757
682.77	34.520
683.09	37.282
683.41	37.551
683.73	35.236
684.06	34.722
684.38	35.853
684.70	34.892
685.02	32.465
685.34	36.620
685.67	35.209
685.99	34.483
686.31	34.977
686.63	33.333
686.96	34.150
687.28	34.564
687.60	33.276
687.92	35.008
688.24	36.034
688.56	34.520
688.89	32.887
689.21	34.104
689.53	36.759
689.85	34.146
690.17	35.146
690.49	34.879
690.82	37.395
691.14	36.768
691.46	36.345
691.78	34.503
692.10	33.969
692.42	33.212
692.74	37.016
693.06	35.271
693.39	37.154
693.71	34.971
694.03	36.884
694.35	35.341
694.67	36.456
694.99	37.029
695.31	37.162
695.63	37.330
695.95	35.520
696.27	37.389
696.59	37.947
696.91	37.468
697.23	38.009
697.56	34.440
697.88	34.930
698.20	35.283
698.52	32.101
698.84	34.908
699.16	37.313
699.48	36.653
699.80	36.166
700.12	38.568
700.44	35.047
700.76	36.993
701.08	37.598
701.40	40.519
701.72	38.503
702.04	39.295
702.36	39.785
702.68	38.564
703.00	39.348
703.32	37.717
703.64	37.531
703.96	39.062
704.28	37.831
704.60	37.465
704.91	40.616
705.23	38.636
705.55	41.543
705.87	40.317
706.19	38.558
706.51	44.828
706.83	39.233
707.15	38.770
707.47	38.015
707.79	37.931
708.11	34.467
708.43	36.404
708.74	36.199
709.06	36.279
709.38	38.462
709.70	35.695
710.02	37.500
710.34	37.017
710.66	38.611
710.98	37.705
711.29	37.326
711.61	39.833
711.93	38.298
712.25	37.349
712.57	38.585
712.89	39.091
713.20	38.019
713.52	37.695
713.84	39.275
714.16	36.812
714.48	33.718
714.80	34.688
715.11	35.372
715.43	34.358
715.75	37.183
716.07	36.705
716.39	36.571
716.70	37.695
717.02	40.741
717.34	41.727
717.66	44.792
717.97	48.864
718.29	39.789
718.61	37.838
718.93	37.370
719.24	36.577
719.56	37.241
719.88	36.943
720.20	38.710
720.51	38.562
720.83	38.796
721.15	38.095
721.46	36.986
721.78	42.160
722.10	42.361
722.42	41.806
722.73	38.989
723.05	38.947
723.37	41.343
723.68	41.016
724.00	40.152
724.32	42.586
724.63	41.154
724.95	41.569
725.27	41.636
725.58	36.029
725.90	39.085
726.22	37.671
726.53	38.127
726.85	37.134
727.16	42.953
727.48	35.216
727.80	38.849
728.11	38.571
728.43	39.493
728.74	41.259
729.06	37.634
729.38	36.491
729.69	44.000
730.01	38.816
730.32	39.597
730.64	39.535
730.96	36.036
731.27	35.168
731.59	32.759
731.90	35.655
732.22	38.286
732.53	35.613
732.85	39.181
733.16	38.253
733.48	36.364
733.80	39.130
734.11	39.571
734.43	32.749
734.74	34.316
735.06	39.947
735.37	35.052
735.69	32.174
736.00	37.615
736.32	31.515
736.63	35.331
736.95	37.578
737.26	35.061
737.58	34.969
737.89	37.048
738.21	38.079
738.52	39.799
738.83	41.026
739.15	37.282
739.46	32.759
739.78	40.136
740.09	39.650
740.41	34.969
740.72	39.683
741.04	42.308
741.35	39.453
741.66	39.526
741.98	45.064
742.29	37.500
742.61	39.823
742.92	40.678
743.23	38.400
743.55	34.717
743.86	39.608
744.18	40.678
744.49	40.909
744.80	42.857
745.12	41.518
745.43	41.589
745.74	48.444
746.06	38.596
746.37	45.581
746.68	46.460
747.00	43.498
747.31	40.756
747.62	40.984
747.94	44.206
748.25	37.743
748.56	45.339
748.88	34.821
749.19	38.605
749.50	38.356
749.82	46.914
750.13	41.107
750.44	37.667
750.75	38.255
751.07	39.803
751.38	34.653
751.69	36.700
752.01	38.462
752.32	37.874
752.63	37.248
752.94	39.510
753.26	41.406
753.57	42.023
753.88	40.824
754.19	40.433
754.51	40.864
754.82	35.570
755.13	37.500
755.44	38.889
755.75	40.206
756.07	36.986
756.38	38.562
756.69	33.438
757.00	36.499
757.31	38.592
757.63	35.813
757.94	35.904
758.25	34.300
758.56	33.867
758.87	35.338
759.18	37.209
759.50	36.170
759.81	37.389
760.12	38.764
760.43	33.894
760.74	31.899
761.05	35.013
761.36	32.031
761.67	36.119
761.99	37.746
762.30	35.691
762.61	36.806
762.92	36.364
763.23	39.623
763.54	37.692
763.85	38.521
764.16	39.583
764.47	37.838
764.78	37.134
765.10	33.232
765.41	34.943
765.72	36.188
766.03	33.837
766.34	35.889
766.65	34.601
766.96	38.057
767.27	40.654
767.58	41.584
767.89	49.724
768.20	54.878
768.51	43.878
768.82	39.474
769.13	38.431
769.44	41.353
769.75	33.708
770.06	38.655
770.37	39.474
770.68	42.222
770.99	41.949
771.30	43.096
771.61	35.385
771.92	40.458
772.23	35.887
772.54	43.111
772.85	44.059
773.16	43.478
773.47	39.444
773.78	41.584
774.09	41.477
774.39	47.273
774.70	45.294
775.01	40.132
775.32	47.205
775.63	50.000
775.94	55.556
776.25	46.207
776.56	54.198
776.87	54.198
777.18	40.909
777.48	58.268
777.79	50.769
778.10	56.818
778.41	52.985
778.72	47.368
779.03	42.308
779.34	42.568
779.65	51.553
779.95	43.478
780.26	47.619
780.57	48.299
780.88	48.936
781.19	45.833
781.50	44.970
781.80	43.716
782.11	49.735
782.42	40.230
782.73	40.678
783.04	48.387
783.34	51.938
783.65	46.259
783.96	50.968
784.27	50.993
784.57	42.763
784.88	56.522
785.19	50.000
785.50	54.310
785.81	62.016
786.11	41.481
786.42	51.969
786.73	47.748
787.04	55.660
787.34	44.715
787.65	53.788
787.96	47.727
788.26	53.543
788.57	51.095
788.88	47.887
789.19	38.168
789.49	52.703
789.80	50.781
790.11	50.413
790.41	60.185
790.72	49.074
791.03	52.885
791.33	69.697
791.64	55.789
791.95	61.053
792.25	62.500
792.56	66.000
792.87	64.634
793.17	69.318
793.48	62.353
793.79	60.920
794.09	55.682
794.40	55.172
794.70	44.444
795.01	56.154
795.32	47.328
795.62	45.299
795.93	54.622
796.23	53.659
796.54	60.204
796.85	61.364
797.15	61.039
797.46	78.049
797.76	58.750
798.07	65.333
798.37	63.750
798.68	76.250
798.99	67.073
799.29	48.000
799.60	65.116
799.90	67.105
800.21	65.152
800.51	73.239
800.82	103.448
801.12	73.846
801.43	74.667
801.73	62.069
802.04	61.039
802.34	68.493
802.65	115.686
802.95	93.478
803.26	91.935
803.56	95.000
803.87	80.597
804.17	65.079
804.48	100.000
804.78	69.444
805.09	106.061
805.39	82.540
805.70	68.421
806.00	72.857
806.30	71.875
806.61	57.647
806.91	62.222
807.22	54.348
807.52	63.158
807.83	73.684
808.13	71.014
808.43	91.935
808.74	73.973
809.04	80.357
809.35	83.824
809.65	65.152
809.95	94.118
810.26	109.259
810.56	84.375
810.86	87.755
811.17	78.947
811.47	102.174
811.77	72.414
812.08	70.690
812.38	104.762
812.69	102.381
812.99	77.778
813.29	102.857
813.59	132.258
813.90	86.207
814.20	88.525
814.50	80.000
814.81	68.421
815.11	107.407
815.41	92.857
815.72	107.143
816.02	90.000
816.32	78.049
816.62	100.000
816.93	130.303
817.23	121.951
817.53	101.786
817.84	71.111
818.14	80.952
818.44	93.750
818.74	107.547
819.04	79.487
819.35	100.000
819.65	113.462
819.95	105.556
820.25	100.000
820.56	121.622
820.86	86.842
821.16	63.830
821.46	115.789
821.76	89.091
822.07	78.571
822.37	76.316
822.67	113.953
822.97	76.316
823.27	95.652
823.57	75.000
823.88	120.513
824.18	84.848
824.48	165.217
824.78	122.222
825.08	130.435
825.38	158.621
825.69	114.706
825.99	89.362
826.29	94.444
826.59	125.714
826.89	116.667
827.19	88.571
827.49	158.065
827.79	126.923
828.09	85.714
828.39	100.000
828.70	116.216
829.00	146.429
829.30	193.750
829.60	155.556
829.90	100.000
830.20	90.909
830.50	116.216
830.80	183.333
831.10	157.692
831.40	128.571
831.70	166.667
832.00	113.333
832.30	173.913
832.60	162.500
832.90	145.455
833.20	150.000
833.50	126.316
833.80	85.294
834.10	94.737
834.40	136.842
834.70	116.667
835.00	160.000
835.30	81.081
835.60	134.375
835.90	110.811
836.20	165.385
836.50	195.455
836.80	109.756
837.10	139.130
837.40	369.231
837.70	136.842
838.00	143.333
838.30	175.000
838.60	120.000
838.90	370.000
839.19	200.000
839.49	153.333
839.79	117.241
840.09	153.846
840.39	180.000
840.69	221.053
840.99	166.667
841.29	178.261
841.59	250.000
841.88	196.000
842.18	244.444
842.48	157.143
842.78	159.259
843.08	238.462
843.38	195.455
843.68	178.571
843.97	442.857
844.27	182.609
844.57	1450.000
844.87	278.571
845.17	211.111
845.47	104.762
845.76	133.333
846.06	514.286
846.36	176.471
846.66	284.615
846.96	243.750
847.25	284.615
847.55	178.947
847.85	200.000
848.15	560.000
848.44	290.909
848.74	171.429
849.04	145.833
849.34	164.706
849.63	218.750
849.93	262.500
850.23	933.333
850.53	462.500
850.82	281.818
851.12	188.235
851.42	183.333
851.71	256.250
852.01	0.000
852.31	194.118
852.61	340.000
852.90	175.000
853.20	311.111
853.50	-1100.000
853.79	156.000
854.09	162.500
854.39	151.724
854.68	137.931
854.98	166.667
855.28	116.129
855.57	235.714
855.87	205.556
856.17	159.259
856.46	236.842
856.76	151.613
857.05	247.059
857.35	200.000
857.65	215.385
857.94	195.000
858.24	444.444
858.53	314.286
858.83	457.143
859.13	169.565
859.42	344.444
859.72	325.000
860.01	250.000
860.31	900.000
860.60	350.000
860.90	400.000
861.20	261.538
861.49	414.286
861.79	-3100.000
862.08	471.429
862.38	277.778
862.67	221.429
862.97	330.000
863.26	136.667
863.56	750.000
863.85	323.077
864.15	241.176
864.44	222.222
864.74	275.000
865.03	318.182
865.33	325.000
865.62	253.333
865.92	583.333
866.21	825.000
866.51	640.000
866.80	205.556
867.10	1066.667
867.39	3500.000
867.69	820.000
867.98	850.000
868.27	190.476
868.57	226.667
868.86	875.000
869.16	185.714
869.45	2300.000
869.75	-583.333
870.04	575.000
870.33	660.000
870.63	512.500
870.92	182.353
871.22	775.000
871.51	357.143
871.80	300.000
872.10	284.615
>>>>>End Processed Spectral Data<<<<<
