SpectraSuite Data File
++++++++++++++++++++++++++++++++++++
Date: Tue May 12 16:38:09 PDT 2015
User: schluterlab
Dark Spectrum Present: Yes
Reference Spectrum Present: Yes
Number of Sampled Component Spectra: 1
Spectrometers: USB2E3373
Integration Time (usec): 3000 (USB2E3373)
Spectra Averaged: 3 (USB2E3373)
Boxcar Smoothing: 0 (USB2E3373)
Correct for Electrical Dark: No (USB2E3373)
Strobe/Lamp Enabled: No (USB2E3373)
Correct for Detector Non-linearity: No (USB2E3373)
Correct for Stray Light: No (USB2E3373)
Number of Pixels in Processed Spectrum: 2048
>>>>>Begin Processed Spectral Data<<<<<
178.53	0.000
178.91	-175.000
179.29	-550.000
179.67	-3100.000
180.04	-166.667
180.42	425.000
180.80	1650.000
181.18	0.000
181.56	-225.000
181.94	0.000
182.31	933.333
182.69	-2700.000
183.07	628.571
183.45	-3600.000
183.83	-1150.000
184.20	340.000
184.58	514.286
184.96	-223.077
185.34	-100.000
185.72	1500.000
186.09	-625.000
186.47	-3800.000
186.85	900.000
187.23	700.000
187.61	1750.000
187.98	550.000
188.36	292.857
188.74	266.667
189.12	308.333
189.49	925.000
189.87	0.000
190.25	462.500
190.63	2300.000
191.00	-200.000
191.38	-3500.000
191.76	-825.000
192.14	450.000
192.51	-2300.000
192.89	1700.000
193.27	1233.333
193.65	-1066.667
194.02	-760.000
194.40	528.571
194.78	-164.286
195.15	240.000
195.53	-3100.000
195.91	-600.000
196.29	3400.000
196.66	225.000
197.04	650.000
197.42	-1550.000
197.79	375.000
198.17	325.000
198.55	0.000
198.92	571.429
199.30	1500.000
199.68	1850.000
200.05	583.333
200.43	-483.333
200.81	183.333
201.18	3100.000
201.56	250.000
201.94	-650.000
202.31	-400.000
202.69	-460.000
203.07	2100.000
203.44	-350.000
203.82	341.667
204.19	600.000
204.57	-1400.000
204.95	-775.000
205.32	-560.000
205.70	600.000
206.08	800.000
206.45	-700.000
206.83	300.000
207.20	168.421
207.58	266.667
207.96	620.000
208.33	0.000
208.71	500.000
209.08	480.000
209.46	-2900.000
209.84	-600.000
210.21	940.000
210.59	-420.000
210.96	266.667
211.34	-900.000
211.71	381.818
212.09	650.000
212.46	1450.000
212.84	-350.000
213.22	366.667
213.59	-3000.000
213.97	340.000
214.34	800.000
214.72	1066.667
215.09	1100.000
215.47	-2800.000
215.84	-260.000
216.22	-337.500
216.59	0.000
216.97	0.000
217.34	1450.000
217.72	-1150.000
218.09	1000.000
218.47	400.000
218.84	875.000
219.22	1100.000
219.59	966.667
219.97	485.714
220.34	311.111
220.72	1800.000
221.09	2700.000
221.47	325.000
221.84	1000.000
222.22	240.000
222.59	233.333
222.97	171.429
223.34	250.000
223.72	-1450.000
224.09	1033.333
224.46	161.538
224.84	-1000.000
225.21	288.889
225.59	273.333
225.96	1233.333
226.34	-460.000
226.71	-800.000
227.08	-540.000
227.46	0.000
227.83	-633.333
228.21	-1650.000
228.58	333.333
228.95	975.000
229.33	455.556
229.70	750.000
230.08	346.154
230.45	4100.000
230.82	-550.000
231.20	-833.333
231.57	-1033.333
231.95	620.000
232.32	200.000
232.69	466.667
233.07	258.333
233.44	-1350.000
233.81	273.333
234.19	140.741
234.56	156.250
234.93	211.765
235.31	215.000
235.68	231.250
236.05	160.714
236.43	133.333
236.80	221.429
237.17	110.345
237.55	106.250
237.92	107.500
238.29	96.970
238.67	118.750
239.04	82.927
239.41	70.833
239.79	100.000
240.16	87.500
240.53	54.098
240.91	60.870
241.28	67.797
241.65	63.636
242.02	76.056
242.40	62.857
242.77	52.747
243.14	35.443
243.51	55.556
243.89	45.794
244.26	47.664
244.63	45.545
245.00	40.367
245.38	45.763
245.75	40.152
246.12	48.148
246.49	33.333
246.87	31.967
247.24	39.333
247.61	42.500
247.98	40.816
248.36	36.364
248.73	41.837
249.10	32.738
249.47	35.000
249.84	40.796
250.22	35.135
250.59	35.500
250.96	29.536
251.33	33.488
251.70	33.482
252.08	35.714
252.45	30.279
252.82	27.757
253.19	32.411
253.56	30.000
253.94	27.536
254.31	29.070
254.68	30.314
255.05	32.069
255.42	28.467
255.79	29.316
256.16	28.136
256.54	33.117
256.91	25.163
257.28	25.753
257.65	26.332
258.02	26.844
258.39	32.378
258.76	31.594
259.14	27.429
259.51	28.863
259.88	33.131
260.25	27.747
260.62	26.575
260.99	24.793
261.36	27.019
261.73	25.532
262.10	29.843
262.47	27.250
262.85	25.333
263.22	27.249
263.59	26.854
263.96	26.566
264.33	26.914
264.70	29.484
265.07	25.854
265.44	27.523
265.81	28.066
266.18	27.231
266.55	25.532
266.92	26.846
267.29	26.316
267.66	24.439
268.03	24.888
268.40	26.216
268.77	25.771
269.14	24.729
269.51	23.831
269.88	28.367
270.25	21.382
270.62	24.893
270.99	24.341
271.36	26.829
271.73	24.738
272.10	23.434
272.47	24.802
272.84	23.353
273.21	25.207
273.58	26.113
273.95	25.051
274.32	24.514
274.69	25.787
275.06	24.044
275.43	23.755
275.80	24.151
276.17	24.081
276.54	26.542
276.91	26.679
277.28	22.993
277.65	23.616
278.02	23.529
278.39	23.201
278.76	25.345
279.13	22.598
279.50	24.000
279.87	24.395
280.23	23.204
280.60	23.905
280.97	23.621
281.34	21.617
281.71	25.565
282.08	24.786
282.45	22.128
282.82	23.746
283.19	23.052
283.56	22.810
283.92	22.150
284.29	23.960
284.66	22.185
285.03	23.549
285.40	21.818
285.77	22.994
286.14	24.923
286.51	22.853
286.87	19.937
287.24	21.021
287.61	22.340
287.98	23.134
288.35	21.630
288.72	20.789
289.08	21.171
289.45	23.171
289.82	24.375
290.19	22.255
290.56	22.271
290.93	21.871
291.29	21.409
291.66	20.056
292.03	20.617
292.40	20.867
292.77	20.474
293.13	20.685
293.50	20.783
293.87	17.751
294.24	21.678
294.60	19.381
294.97	21.538
295.34	20.053
295.71	21.288
296.08	21.467
296.44	21.601
296.81	18.859
297.18	20.152
297.55	19.828
297.91	18.596
298.28	19.807
298.65	19.141
299.02	19.903
299.38	18.465
299.75	19.512
300.12	19.037
300.48	19.906
300.85	19.547
301.22	19.419
301.59	18.514
301.95	18.086
302.32	20.722
302.69	21.380
303.05	20.651
303.42	19.731
303.79	20.910
304.15	21.452
304.52	20.190
304.89	20.043
305.25	20.022
305.62	19.829
305.99	20.435
306.35	19.789
306.72	19.667
307.09	21.532
307.45	19.852
307.82	20.679
308.19	21.134
308.55	19.800
308.92	22.473
309.29	22.091
309.65	21.011
310.02	21.907
310.38	21.236
310.75	20.058
311.12	20.977
311.48	22.780
311.85	21.660
312.22	21.777
312.58	22.546
312.95	21.650
313.31	23.970
313.68	22.795
314.05	23.993
314.41	23.184
314.78	25.000
315.14	24.455
315.51	25.733
315.87	25.456
316.24	24.743
316.61	23.724
316.97	25.046
317.34	24.888
317.70	26.866
318.07	27.224
318.43	27.680
318.80	26.970
319.16	27.360
319.53	26.814
319.89	26.703
320.26	28.212
320.62	27.381
320.99	27.931
321.35	29.221
321.72	29.791
322.08	28.994
322.45	29.337
322.81	29.552
323.18	29.663
323.54	30.052
323.91	31.097
324.27	32.095
324.64	31.661
325.00	32.759
325.37	31.450
325.73	30.860
326.10	32.809
326.46	31.874
326.83	31.600
327.19	32.209
327.56	32.827
327.92	33.607
328.29	33.470
328.65	33.733
329.01	34.645
329.38	33.418
329.74	33.390
330.11	35.274
330.47	33.589
330.84	34.254
331.20	32.910
331.56	34.629
331.93	34.987
332.29	33.588
332.66	34.524
333.02	34.794
333.38	34.031
333.75	35.613
334.11	34.899
334.48	35.470
334.84	33.615
335.20	34.046
335.57	34.929
335.93	34.483
336.29	33.831
336.66	35.077
337.02	34.559
337.38	35.082
337.75	34.713
338.11	34.684
338.47	35.140
338.84	33.954
339.20	33.247
339.56	34.315
339.93	34.365
340.29	33.697
340.65	34.786
341.02	33.548
341.38	33.990
341.74	33.555
342.11	33.890
342.47	33.716
342.83	35.193
343.20	33.872
343.56	31.930
343.92	34.352
344.28	33.254
344.65	33.904
345.01	32.222
345.37	32.452
345.73	32.381
346.10	32.430
346.46	33.732
346.82	32.253
347.19	33.539
347.55	32.319
347.91	31.571
348.27	30.519
348.63	32.911
349.00	32.521
349.36	32.140
349.72	32.798
350.08	33.463
350.45	32.749
350.81	32.110
351.17	31.972
351.53	32.410
351.89	32.401
352.26	32.426
352.62	33.183
352.98	31.595
353.34	32.435
353.70	31.728
354.07	32.000
354.43	31.951
354.79	31.739
355.15	31.547
355.51	31.647
355.87	31.777
356.24	31.332
356.60	31.050
356.96	30.781
357.32	31.801
357.68	31.131
358.04	31.003
358.40	31.259
358.77	31.705
359.13	31.306
359.49	31.505
359.85	31.571
360.21	30.461
360.57	32.044
360.93	30.736
361.29	31.313
361.66	32.215
362.02	29.403
362.38	30.592
362.74	30.856
363.10	32.188
363.46	31.215
363.82	31.276
364.18	30.370
364.54	31.688
364.90	30.790
365.26	31.922
365.62	31.423
365.98	30.351
366.35	30.207
366.71	32.269
367.07	31.809
367.43	30.893
367.79	30.519
368.15	30.936
368.51	31.427
368.87	30.910
369.23	30.631
369.59	30.614
369.95	31.259
370.31	31.075
370.67	30.534
371.03	30.742
371.39	31.440
371.75	30.356
372.11	30.727
372.47	31.507
372.83	29.980
373.19	30.637
373.55	30.378
373.91	29.627
374.27	29.762
374.63	30.441
374.99	31.199
375.35	29.704
375.71	30.079
376.07	30.836
376.42	30.115
376.78	30.507
377.14	30.603
377.50	30.899
377.86	30.493
378.22	30.165
378.58	30.266
378.94	30.115
379.30	29.472
379.66	29.320
380.02	30.381
380.38	28.981
380.74	29.988
381.09	29.264
381.45	28.555
381.81	29.078
382.17	29.243
382.53	28.914
382.89	30.219
383.25	29.899
383.61	28.876
383.97	29.214
384.32	30.319
384.68	30.184
385.04	29.426
385.40	29.359
385.76	29.432
386.12	30.118
386.48	29.726
386.83	29.768
387.19	29.093
387.55	29.329
387.91	29.157
388.27	29.625
388.62	29.167
388.98	29.679
389.34	29.268
389.70	28.538
390.06	29.085
390.42	28.686
390.77	28.993
391.13	28.908
391.49	28.191
391.85	29.908
392.20	29.797
392.56	29.092
392.92	28.186
393.28	28.587
393.64	28.555
393.99	28.809
394.35	29.076
394.71	28.468
395.07	29.440
395.42	28.396
395.78	28.994
396.14	28.735
396.50	28.460
396.85	28.232
397.21	29.122
397.57	28.691
397.92	28.365
398.28	28.296
398.64	28.912
399.00	27.365
399.35	28.073
399.71	28.422
400.07	27.968
400.42	28.418
400.78	28.798
401.14	28.773
401.49	27.535
401.85	28.679
402.21	27.651
402.57	28.366
402.92	28.545
403.28	27.864
403.63	28.487
403.99	28.709
404.35	29.132
404.70	28.647
405.06	27.400
405.42	28.127
405.77	27.563
406.13	28.254
406.49	27.345
406.84	28.765
407.20	28.253
407.55	29.046
407.91	28.398
408.27	28.805
408.62	27.794
408.98	27.794
409.34	27.937
409.69	27.069
410.05	27.370
410.40	27.915
410.76	27.476
411.11	27.251
411.47	27.037
411.83	27.358
412.18	27.295
412.54	28.048
412.89	26.903
413.25	28.050
413.60	28.446
413.96	28.845
414.31	27.627
414.67	27.374
415.03	27.842
415.38	28.391
415.74	27.985
416.09	27.608
416.45	28.507
416.80	28.352
417.16	27.689
417.51	28.089
417.87	28.348
418.22	29.040
418.58	27.771
418.93	27.424
419.29	27.850
419.64	27.922
420.00	27.924
420.35	27.003
420.71	27.830
421.06	27.663
421.42	27.231
421.77	27.485
422.12	27.343
422.48	27.324
422.83	27.511
423.19	27.160
423.54	27.592
423.90	27.973
424.25	27.683
424.61	28.555
424.96	26.595
425.31	26.929
425.67	26.712
426.02	27.426
426.38	26.488
426.73	27.010
427.09	27.402
427.44	27.068
427.79	27.787
428.15	27.991
428.50	27.771
428.85	27.690
429.21	27.715
429.56	27.119
429.92	27.698
430.27	27.092
430.62	26.383
430.98	26.198
431.33	27.167
431.68	26.272
432.04	27.005
432.39	27.497
432.74	28.220
433.10	27.907
433.45	27.570
433.80	28.075
434.16	26.905
434.51	27.451
434.86	27.872
435.22	26.364
435.57	26.734
435.92	27.433
436.28	28.399
436.63	27.661
436.98	27.252
437.34	27.397
437.69	27.660
438.04	26.935
438.39	28.897
438.75	27.951
439.10	26.444
439.45	26.343
439.81	27.357
440.16	28.178
440.51	26.914
440.86	28.604
441.22	27.273
441.57	27.717
441.92	27.591
442.27	27.216
442.63	27.388
442.98	26.724
443.33	27.745
443.68	27.012
444.03	26.673
444.39	26.977
444.74	27.277
445.09	26.856
445.44	27.365
445.79	27.437
446.15	27.105
446.50	26.793
446.85	27.590
447.20	27.015
447.55	26.971
447.91	27.384
448.26	27.902
448.61	27.805
448.96	26.688
449.31	27.173
449.66	27.741
450.02	26.634
450.37	27.984
450.72	27.824
451.07	28.040
451.42	27.030
451.77	27.663
452.12	27.623
452.47	27.521
452.83	27.380
453.18	27.508
453.53	26.998
453.88	27.829
454.23	28.414
454.58	27.389
454.93	27.223
455.28	27.417
455.63	28.132
455.98	26.791
456.34	28.450
456.69	27.744
457.04	26.850
457.39	26.514
457.74	28.153
458.09	26.390
458.44	27.547
458.79	26.897
459.14	26.296
459.49	27.293
459.84	27.283
460.19	27.062
460.54	27.179
460.89	28.198
461.24	26.861
461.59	27.268
461.94	28.132
462.29	27.574
462.64	27.324
462.99	28.535
463.34	28.321
463.69	28.615
464.04	27.634
464.39	26.617
464.74	26.964
465.09	27.278
465.44	26.442
465.79	26.456
466.14	26.497
466.49	26.858
466.84	26.589
467.19	27.709
467.54	26.907
467.89	27.582
468.24	27.389
468.59	26.667
468.94	26.208
469.29	28.711
469.64	27.138
469.99	27.378
470.34	26.565
470.68	27.655
471.03	27.352
471.38	27.616
471.73	27.106
472.08	27.658
472.43	27.126
472.78	27.977
473.13	26.596
473.48	26.284
473.83	27.267
474.17	27.720
474.52	26.836
474.87	26.322
475.22	27.527
475.57	26.653
475.92	26.571
476.27	25.952
476.61	26.488
476.96	26.750
477.31	26.324
477.66	27.751
478.01	26.354
478.36	26.365
478.70	26.203
479.05	26.255
479.40	26.190
479.75	26.812
480.10	26.283
480.45	26.097
480.79	26.221
481.14	26.534
481.49	25.252
481.84	26.297
482.19	25.939
482.53	25.867
482.88	25.986
483.23	25.395
483.58	26.346
483.92	26.737
484.27	26.241
484.62	26.104
484.97	25.360
485.31	24.939
485.66	23.880
486.01	22.861
486.36	22.837
486.70	22.423
487.05	23.452
487.40	23.172
487.75	24.144
488.09	23.835
488.44	24.761
488.79	24.471
489.13	25.569
489.48	25.210
489.83	25.229
490.17	25.310
490.52	26.443
490.87	25.345
491.22	26.285
491.56	26.175
491.91	25.403
492.26	25.746
492.60	26.469
492.95	26.325
493.30	26.615
493.64	26.146
493.99	25.358
494.34	25.818
494.68	25.719
495.03	25.505
495.37	26.339
495.72	25.408
496.07	25.606
496.41	25.456
496.76	25.707
497.11	25.750
497.45	25.690
497.80	26.089
498.14	25.751
498.49	25.812
498.84	26.682
499.18	25.411
499.53	25.586
499.87	25.741
500.22	25.518
500.56	24.930
500.91	26.531
501.26	25.448
501.60	25.592
501.95	25.045
502.29	25.556
502.64	25.496
502.98	24.678
503.33	25.523
503.67	24.768
504.02	24.496
504.36	25.068
504.71	26.159
505.06	25.340
505.40	25.035
505.75	25.304
506.09	25.292
506.44	25.282
506.78	25.945
507.13	25.788
507.47	25.910
507.82	26.229
508.16	26.458
508.51	25.314
508.85	25.356
509.19	26.187
509.54	25.684
509.88	26.106
510.23	25.784
510.57	25.386
510.92	26.024
511.26	26.054
511.61	25.406
511.95	25.187
512.30	25.100
512.64	25.857
512.98	26.448
513.33	26.127
513.67	26.463
514.02	26.286
514.36	26.116
514.70	26.400
515.05	25.839
515.39	25.658
515.74	26.627
516.08	26.198
516.42	26.995
516.77	25.547
517.11	25.707
517.46	25.970
517.80	26.215
518.14	27.042
518.49	25.634
518.83	25.549
519.17	25.790
519.52	25.942
519.86	25.777
520.20	26.137
520.55	25.382
520.89	26.609
521.23	26.577
521.58	26.449
521.92	26.647
522.26	25.889
522.61	25.847
522.95	26.787
523.29	26.082
523.64	25.838
523.98	27.113
524.32	25.663
524.66	25.739
525.01	25.325
525.35	25.928
525.69	26.911
526.04	27.365
526.38	25.956
526.72	25.895
527.06	25.192
527.41	26.542
527.75	25.685
528.09	25.707
528.43	26.297
528.78	25.641
529.12	26.129
529.46	26.125
529.80	25.876
530.15	25.516
530.49	24.549
530.83	25.350
531.17	25.461
531.51	25.812
531.86	25.906
532.20	26.082
532.54	25.675
532.88	25.859
533.22	26.691
533.57	25.015
533.91	25.000
534.25	24.755
534.59	24.912
534.93	24.403
535.27	24.303
535.62	24.796
535.96	24.645
536.30	25.229
536.64	24.720
536.98	25.299
537.32	24.625
537.66	24.362
538.01	25.635
538.35	25.702
538.69	24.879
539.03	24.938
539.37	24.636
539.71	24.938
540.05	25.231
540.39	25.660
540.73	26.013
541.07	24.529
541.42	24.689
541.76	24.846
542.10	24.168
542.44	24.439
542.78	24.858
543.12	25.031
543.46	24.687
543.80	26.316
544.14	24.768
544.48	24.878
544.82	24.709
545.16	24.529
545.50	24.831
545.84	25.126
546.18	26.528
546.52	24.852
546.86	25.596
547.20	24.935
547.54	24.953
547.88	23.844
548.22	24.044
548.56	23.630
548.90	24.792
549.24	23.942
549.58	23.969
549.92	25.671
550.26	25.220
550.60	25.216
550.94	25.916
551.28	25.310
551.62	25.034
551.96	24.797
552.30	24.127
552.64	25.307
552.98	23.840
553.32	24.328
553.66	25.212
554.00	24.067
554.34	25.632
554.68	24.866
555.02	24.915
555.36	24.468
555.69	25.327
556.03	25.159
556.37	24.410
556.71	25.293
557.05	23.132
557.39	24.133
557.73	25.876
558.07	25.151
558.41	24.400
558.75	24.966
559.08	25.947
559.42	25.340
559.76	25.089
560.10	24.226
560.44	24.818
560.78	25.575
561.12	24.221
561.45	23.780
561.79	23.533
562.13	23.816
562.47	24.984
562.81	24.333
563.15	24.370
563.48	21.988
563.82	23.830
564.16	24.254
564.50	23.689
564.84	23.526
565.17	24.005
565.51	24.076
565.85	24.306
566.19	23.333
566.52	22.924
566.86	23.292
567.20	23.596
567.54	23.144
567.88	23.839
568.21	22.366
568.55	22.179
568.89	22.126
569.23	21.398
569.56	21.765
569.90	20.697
570.24	20.886
570.57	20.376
570.91	19.719
571.25	19.484
571.59	19.430
571.92	19.026
572.26	18.760
572.60	19.272
572.93	20.127
573.27	19.242
573.61	18.787
573.95	19.223
574.28	19.050
574.62	18.887
574.96	18.829
575.29	18.451
575.63	18.186
575.97	18.866
576.30	18.755
576.64	19.046
576.98	18.853
577.31	18.567
577.65	18.617
577.98	18.068
578.32	17.871
578.66	18.313
578.99	18.083
579.33	18.764
579.67	18.324
580.00	18.161
580.34	18.418
580.67	18.188
581.01	18.477
581.35	18.128
581.68	17.559
582.02	17.639
582.35	17.534
582.69	17.935
583.02	18.248
583.36	18.435
583.70	18.538
584.03	19.090
584.37	19.081
584.70	18.413
585.04	17.773
585.37	17.876
585.71	18.360
586.04	17.997
586.38	18.434
586.72	18.842
587.05	18.399
587.39	19.090
587.72	18.590
588.06	18.624
588.39	18.705
588.73	18.605
589.06	19.346
589.40	19.124
589.73	19.272
590.07	19.629
590.40	20.383
590.73	20.162
591.07	20.342
591.40	20.120
591.74	20.008
592.07	19.925
592.41	20.264
592.74	19.297
593.08	18.620
593.41	18.731
593.75	18.712
594.08	19.064
594.41	19.518
594.75	19.247
595.08	19.136
595.42	19.552
595.75	19.283
596.09	19.673
596.42	19.264
596.75	20.633
597.09	19.934
597.42	19.592
597.75	19.026
598.09	19.860
598.42	19.625
598.76	19.237
599.09	19.529
599.42	18.893
599.76	19.810
600.09	19.051
600.42	19.475
600.76	18.627
601.09	19.227
601.42	19.535
601.76	18.439
602.09	19.647
602.42	19.556
602.76	19.317
603.09	20.098
603.42	19.486
603.76	19.234
604.09	19.291
604.42	19.736
604.76	19.557
605.09	19.673
605.42	20.033
605.75	19.266
606.09	19.472
606.42	19.166
606.75	18.927
607.09	19.226
607.42	19.405
607.75	19.347
608.08	19.903
608.42	19.463
608.75	19.512
609.08	19.446
609.41	19.955
609.75	20.513
610.08	20.638
610.41	19.763
610.74	19.351
611.07	20.100
611.41	20.853
611.74	19.981
612.07	19.990
612.40	20.273
612.73	20.320
613.07	20.730
613.40	20.451
613.73	20.869
614.06	20.250
614.39	20.758
614.72	20.141
615.06	20.227
615.39	20.050
615.72	20.087
616.05	20.492
616.38	20.193
616.71	20.402
617.05	20.428
617.38	21.180
617.71	20.922
618.04	20.639
618.37	20.901
618.70	21.478
619.03	20.696
619.36	22.927
619.69	21.636
620.03	23.157
620.36	21.130
620.69	22.989
621.02	22.418
621.35	21.490
621.68	22.419
622.01	23.395
622.34	22.505
622.67	23.315
623.00	23.213
623.33	22.874
623.66	21.623
623.99	22.055
624.32	21.680
624.65	22.778
624.99	22.853
625.32	22.512
625.65	21.517
625.98	21.757
626.31	23.071
626.64	21.716
626.97	22.800
627.30	23.292
627.63	22.606
627.96	22.300
628.29	23.762
628.62	23.268
628.95	24.557
629.28	25.855
629.61	24.165
629.94	23.941
630.26	25.303
630.59	24.911
630.92	22.960
631.25	25.476
631.58	23.819
631.91	24.358
632.24	24.393
632.57	24.558
632.90	26.812
633.23	25.603
633.56	24.552
633.89	26.688
634.22	25.834
634.55	25.806
634.88	26.506
635.20	26.794
635.53	26.829
635.86	27.069
636.19	26.936
636.52	24.108
636.85	24.595
637.18	24.810
637.51	26.369
637.83	25.286
638.16	27.081
638.49	26.228
638.82	26.291
639.15	25.969
639.48	27.962
639.81	26.252
640.13	26.994
640.46	27.560
640.79	27.568
641.12	24.934
641.45	26.908
641.77	28.666
642.10	27.979
642.43	27.169
642.76	26.705
643.09	29.395
643.41	27.209
643.74	28.921
644.07	29.056
644.40	28.402
644.73	30.480
645.05	30.163
645.38	28.943
645.71	28.680
646.04	29.771
646.36	28.795
646.69	28.640
647.02	30.880
647.35	27.559
647.67	30.146
648.00	29.805
648.33	28.872
648.66	30.303
648.98	27.101
649.31	26.316
649.64	25.450
649.96	24.893
650.29	26.571
650.62	29.013
650.94	27.560
651.27	29.825
651.60	27.856
651.92	28.571
652.25	29.449
652.58	27.234
652.90	27.994
653.23	29.099
653.56	28.338
653.88	26.725
654.21	28.299
654.54	28.111
654.86	26.549
655.19	27.441
655.52	22.061
655.84	14.968
656.17	16.363
656.49	23.532
656.82	27.251
657.15	22.389
657.47	16.763
657.80	12.375
658.13	9.721
658.45	13.209
658.78	15.895
659.10	16.491
659.43	17.072
659.75	18.142
660.08	19.424
660.41	22.595
660.73	24.843
661.06	26.426
661.38	29.302
661.71	31.115
662.03	29.278
662.36	29.905
662.68	29.795
663.01	30.991
663.33	30.755
663.66	29.191
663.98	29.563
664.31	31.157
664.63	27.969
664.96	32.083
665.28	29.567
665.61	29.057
665.93	31.509
666.26	32.150
666.58	29.908
666.91	28.764
667.23	29.116
667.56	32.238
667.88	33.402
668.21	30.943
668.53	31.250
668.86	31.062
669.18	31.365
669.50	30.992
669.83	32.649
670.15	28.482
670.48	26.953
670.80	31.873
671.13	29.482
671.45	31.263
671.77	27.273
672.10	27.469
672.42	27.961
672.75	28.323
673.07	25.119
673.39	28.754
673.72	26.644
674.04	29.928
674.37	29.583
674.69	27.695
675.01	27.799
675.34	27.907
675.66	30.078
675.98	27.219
676.31	28.600
676.63	27.038
676.95	29.762
677.28	31.846
677.60	30.986
677.92	26.984
678.25	30.039
678.57	29.050
678.89	30.922
679.22	29.228
679.54	29.004
679.86	28.621
680.18	24.605
680.51	25.373
680.83	26.351
681.15	25.650
681.48	28.125
681.80	27.145
682.12	27.163
682.44	24.865
682.77	29.181
683.09	30.680
683.41	29.796
683.73	30.315
684.06	28.571
684.38	27.713
684.70	25.899
685.02	26.389
685.34	27.993
685.67	26.045
685.99	25.123
686.31	25.886
686.63	26.341
686.96	26.471
687.28	25.000
687.60	26.792
687.92	26.131
688.24	27.931
688.56	27.224
688.89	27.725
689.21	30.443
689.53	27.470
689.85	26.423
690.17	28.350
690.49	28.629
690.82	29.412
691.14	29.091
691.46	30.185
691.78	28.460
692.10	29.389
692.42	28.675
692.74	29.264
693.06	30.426
693.39	27.273
693.71	26.523
694.03	29.783
694.35	29.116
694.67	26.069
694.99	29.933
695.31	32.432
695.63	30.543
695.95	30.543
696.27	31.195
696.59	29.356
696.91	29.367
697.23	31.674
697.56	26.971
697.88	26.347
698.20	26.981
698.52	24.708
698.84	27.721
699.16	30.277
699.48	26.907
699.80	30.719
700.12	28.406
700.44	28.505
700.76	29.356
701.08	32.898
701.40	31.169
701.72	35.294
702.04	33.875
702.36	30.645
702.68	30.585
703.00	28.822
703.32	31.017
703.64	31.738
703.96	29.167
704.28	28.571
704.60	36.056
704.91	28.291
705.23	32.670
705.55	29.674
705.87	32.063
706.19	33.856
706.51	38.245
706.83	32.448
707.15	32.888
707.47	29.782
707.79	29.425
708.11	27.438
708.43	27.416
708.74	28.507
709.06	27.209
709.38	31.762
709.70	28.883
710.02	30.435
710.34	29.834
710.66	31.667
710.98	32.514
711.29	33.148
711.61	35.097
711.93	34.954
712.25	31.928
712.57	35.370
712.89	32.121
713.20	32.268
713.52	33.956
713.84	32.628
714.16	31.014
714.48	29.107
714.80	28.997
715.11	27.926
715.43	28.771
715.75	29.859
716.07	32.081
716.39	34.000
716.70	33.022
717.02	30.303
717.34	38.129
717.66	36.458
717.97	40.909
718.29	30.634
718.61	34.797
718.93	32.180
719.24	31.208
719.56	25.517
719.88	29.936
720.20	31.935
720.51	33.333
720.83	31.438
721.15	36.054
721.46	37.671
721.78	34.146
722.10	35.764
722.42	29.766
722.73	36.462
723.05	38.596
723.37	34.982
723.68	30.859
724.00	33.712
724.32	31.939
724.63	33.462
724.95	35.294
725.27	33.829
725.58	31.618
725.90	32.042
726.22	35.959
726.53	32.776
726.85	34.853
727.16	34.564
727.48	33.555
727.80	29.496
728.11	35.000
728.43	31.159
728.74	31.469
729.06	30.108
729.38	35.439
729.69	37.000
730.01	33.553
730.32	34.899
730.64	34.884
730.96	31.832
731.27	24.465
731.59	25.862
731.90	29.526
732.22	28.571
732.53	25.926
732.85	30.117
733.16	33.735
733.48	29.781
733.80	30.435
734.11	30.675
734.43	26.608
734.74	30.831
735.06	29.101
735.37	26.546
735.69	28.116
736.00	33.028
736.32	28.788
736.63	25.552
736.95	31.366
737.26	30.488
737.58	31.595
737.89	25.904
738.21	28.146
738.52	31.773
738.83	34.066
739.15	31.359
739.46	30.345
739.78	27.891
740.09	29.446
740.41	29.755
740.72	29.841
741.04	33.566
741.35	36.719
741.66	32.411
741.98	33.047
742.29	38.426
742.61	36.283
742.92	36.441
743.23	32.800
743.55	34.340
743.86	31.373
744.18	34.322
744.49	38.843
744.80	38.249
745.12	39.286
745.43	34.579
745.74	35.111
746.06	29.825
746.37	37.674
746.68	35.841
747.00	37.668
747.31	34.454
747.62	29.918
747.94	35.193
748.25	28.794
748.56	32.627
748.88	36.607
749.19	31.163
749.50	37.443
749.82	38.272
750.13	34.783
750.44	26.667
750.75	31.544
751.07	27.303
751.38	29.043
751.69	29.293
752.01	30.420
752.32	28.904
752.63	31.879
752.94	29.371
753.26	31.641
753.57	34.630
753.88	31.835
754.19	30.325
754.51	31.894
754.82	27.852
755.13	30.068
755.44	32.222
755.75	35.052
756.07	32.534
756.38	27.778
756.69	29.688
757.00	31.157
757.31	29.014
757.63	27.273
757.94	25.798
758.25	24.638
758.56	26.316
758.87	27.820
759.18	30.233
759.50	28.571
759.81	26.409
760.12	25.843
760.43	25.210
760.74	27.089
761.05	25.995
761.36	26.562
761.67	29.650
761.99	29.577
762.30	30.225
762.61	27.778
762.92	27.273
763.23	32.453
763.54	33.462
763.85	29.961
764.16	35.417
764.47	31.757
764.78	28.339
765.10	28.049
765.41	28.125
765.72	27.072
766.03	27.190
766.34	27.178
766.65	30.418
766.96	34.413
767.27	36.916
767.58	40.594
767.89	39.779
768.20	39.024
768.51	35.714
768.82	36.842
769.13	29.412
769.44	32.707
769.75	31.461
770.06	34.874
770.37	27.632
770.68	28.889
770.99	34.746
771.30	30.544
771.61	29.615
771.92	32.824
772.23	29.435
772.54	38.667
772.85	38.614
773.16	39.674
773.47	37.222
773.78	39.604
774.09	43.750
774.39	35.758
774.70	40.588
775.01	34.211
775.32	39.130
775.63	41.096
775.94	38.889
776.25	46.897
776.56	37.405
776.87	46.565
777.18	44.697
777.48	53.543
777.79	43.077
778.10	37.879
778.41	49.254
778.72	39.850
779.03	37.821
779.34	41.216
779.65	47.826
779.95	40.373
780.26	41.667
780.57	53.741
780.88	42.553
781.19	47.500
781.50	42.012
781.80	36.066
782.11	37.566
782.42	37.356
782.73	36.158
783.04	39.355
783.34	30.233
783.65	39.456
783.96	45.161
784.27	38.411
784.57	36.184
784.88	39.855
785.19	48.333
785.50	51.724
785.81	56.589
786.11	45.185
786.42	43.307
786.73	53.153
787.04	49.057
787.34	38.211
787.65	49.242
787.96	46.970
788.26	55.118
788.57	40.146
788.88	40.845
789.19	43.511
789.49	41.216
789.80	40.625
790.11	48.760
790.41	59.259
790.72	46.296
791.03	54.808
791.33	57.576
791.64	55.789
791.95	50.526
792.25	44.792
792.56	46.000
792.87	51.220
793.17	67.045
793.48	58.824
793.79	56.322
794.09	46.591
794.40	50.862
794.70	40.476
795.01	43.077
795.32	44.275
795.62	41.880
795.93	50.420
796.23	52.033
796.54	57.143
796.85	53.409
797.15	67.532
797.46	63.415
797.76	55.000
798.07	61.333
798.37	70.000
798.68	71.250
798.99	70.732
799.29	60.000
799.60	65.116
799.90	64.474
800.21	66.667
800.51	61.972
800.82	77.586
801.12	89.231
801.43	70.667
801.73	74.138
802.04	71.429
802.34	65.753
802.65	107.843
802.95	93.478
803.26	93.548
803.56	81.667
803.87	74.627
804.17	74.603
804.48	83.019
804.78	63.889
805.09	65.152
805.39	79.365
805.70	71.930
806.00	70.000
806.30	65.625
806.61	62.353
806.91	65.556
807.22	48.913
807.52	61.842
807.83	67.105
808.13	50.725
808.43	69.355
808.74	71.233
809.04	69.643
809.35	80.882
809.65	81.818
809.95	78.431
810.26	98.148
810.56	84.375
810.86	71.429
811.17	77.193
811.47	69.565
811.77	56.897
812.08	62.069
812.38	78.571
812.69	92.857
812.99	115.556
813.29	102.857
813.59	122.581
813.90	87.931
814.20	83.607
814.50	80.000
814.81	84.211
815.11	92.593
815.41	73.214
815.72	103.571
816.02	88.000
816.32	104.878
816.62	81.034
816.93	112.121
817.23	90.244
817.53	89.286
817.84	95.556
818.14	104.762
818.44	85.417
818.74	90.566
819.04	97.436
819.35	127.273
819.65	98.077
819.95	118.519
820.25	91.489
820.56	116.216
820.86	105.263
821.16	76.596
821.46	110.526
821.76	87.273
822.07	92.857
822.37	81.579
822.67	104.651
822.97	84.211
823.27	95.652
823.57	118.750
823.88	102.564
824.18	130.303
824.48	117.391
824.78	116.667
825.08	173.913
825.38	144.828
825.69	129.412
825.99	76.596
826.29	116.667
826.59	117.143
826.89	130.000
827.19	91.429
827.49	145.161
827.79	130.769
828.09	95.238
828.39	111.111
828.70	89.189
829.00	164.286
829.30	193.750
829.60	108.333
829.90	125.806
830.20	72.727
830.50	135.135
830.80	162.500
831.10	169.231
831.40	147.619
831.70	187.500
832.00	146.667
832.30	156.522
832.60	162.500
832.90	115.152
833.20	150.000
833.50	107.895
833.80	97.059
834.10	94.737
834.40	152.632
834.70	120.000
835.00	116.000
835.30	91.892
835.60	143.750
835.90	129.730
836.20	153.846
836.50	154.545
836.80	97.561
837.10	117.391
837.40	300.000
837.70	136.842
838.00	113.333
838.30	187.500
838.60	140.000
838.90	350.000
839.19	125.000
839.49	160.000
839.79	127.586
840.09	161.538
840.39	193.333
840.69	215.789
840.99	119.048
841.29	156.522
841.59	180.000
841.88	204.000
842.18	388.889
842.48	150.000
842.78	144.444
843.08	169.231
843.38	122.727
843.68	321.429
843.97	428.571
844.27	165.217
844.57	1950.000
844.87	335.714
845.17	183.333
845.47	161.905
845.76	141.667
846.06	414.286
846.36	194.118
846.66	315.385
846.96	193.750
847.25	207.692
847.55	178.947
847.85	161.111
848.15	460.000
848.44	300.000
848.74	133.333
849.04	166.667
849.34	188.235
849.63	225.000
849.93	243.750
850.23	833.333
850.53	425.000
850.82	209.091
851.12	176.471
851.42	141.667
851.71	243.750
852.01	0.000
852.31	176.471
852.61	410.000
852.90	166.667
853.20	333.333
853.50	-2200.000
853.79	136.000
854.09	143.750
854.39	110.345
854.68	127.586
854.98	242.857
855.28	122.581
855.57	192.857
855.87	166.667
856.17	148.148
856.46	210.526
856.76	119.355
857.05	182.353
857.35	218.182
857.65	307.692
857.94	155.000
858.24	466.667
858.53	242.857
858.83	500.000
859.13	165.217
859.42	422.222
859.72	262.500
860.01	250.000
860.31	775.000
860.60	340.000
860.90	400.000
861.20	246.154
861.49	428.571
861.79	-3800.000
862.08	557.143
862.38	400.000
862.67	207.143
862.97	330.000
863.26	120.000
863.56	700.000
863.85	315.385
864.15	241.176
864.44	211.111
864.74	383.333
865.03	227.273
865.33	450.000
865.62	246.667
865.92	616.667
866.21	625.000
866.51	640.000
866.80	233.333
867.10	1000.000
867.39	2600.000
867.69	760.000
867.98	600.000
868.27	123.810
868.57	273.333
868.86	925.000
869.16	147.619
869.45	2400.000
869.75	-350.000
870.04	875.000
870.33	560.000
870.63	337.500
870.92	164.706
871.22	775.000
871.51	500.000
871.80	325.000
872.10	330.769
>>>>>End Processed Spectral Data<<<<<
