SpectraSuite Data File
++++++++++++++++++++++++++++++++++++
Date: Tue May 12 16:31:29 PDT 2015
User: schluterlab
Dark Spectrum Present: Yes
Reference Spectrum Present: Yes
Number of Sampled Component Spectra: 1
Spectrometers: USB2E3373
Integration Time (usec): 3000 (USB2E3373)
Spectra Averaged: 3 (USB2E3373)
Boxcar Smoothing: 0 (USB2E3373)
Correct for Electrical Dark: No (USB2E3373)
Strobe/Lamp Enabled: No (USB2E3373)
Correct for Detector Non-linearity: No (USB2E3373)
Correct for Stray Light: No (USB2E3373)
Number of Pixels in Processed Spectrum: 2048
>>>>>Begin Processed Spectral Data<<<<<
178.53	0.000
178.91	-283.333
179.29	-525.000
179.67	-3400.000
180.04	-166.667
180.42	525.000
180.80	1700.000
181.18	0.000
181.56	-287.500
181.94	0.000
182.31	1133.333
182.69	-2800.000
183.07	514.286
183.45	-3600.000
183.83	-1650.000
184.20	320.000
184.58	514.286
184.96	-223.077
185.34	-166.667
185.72	1550.000
186.09	-650.000
186.47	-2900.000
186.85	766.667
187.23	800.000
187.61	1550.000
187.98	500.000
188.36	278.571
188.74	191.667
189.12	308.333
189.49	1075.000
189.87	0.000
190.25	437.500
190.63	2100.000
191.00	-250.000
191.38	-3400.000
191.76	-700.000
192.14	475.000
192.51	-2900.000
192.89	1900.000
193.27	1033.333
193.65	-900.000
194.02	-640.000
194.40	571.429
194.78	-242.857
195.15	253.333
195.53	-4000.000
195.91	-360.000
196.29	3300.000
196.66	312.500
197.04	950.000
197.42	-1300.000
197.79	825.000
198.17	300.000
198.55	0.000
198.92	500.000
199.30	1133.333
199.68	1550.000
200.05	616.667
200.43	-616.667
200.81	205.556
201.18	3100.000
201.56	200.000
201.94	-775.000
202.31	-187.500
202.69	-520.000
203.07	3200.000
203.44	-416.667
203.82	216.667
204.19	620.000
204.57	-1400.000
204.95	-500.000
205.32	-820.000
205.70	566.667
206.08	850.000
206.45	-1133.333
206.83	255.556
207.20	163.158
207.58	241.667
207.96	640.000
208.33	0.000
208.71	542.857
209.08	740.000
209.46	-2600.000
209.84	-900.000
210.21	920.000
210.59	-500.000
210.96	225.000
211.34	-975.000
211.71	309.091
212.09	875.000
212.46	1600.000
212.84	-400.000
213.22	422.222
213.59	-3100.000
213.97	330.000
214.34	1175.000
214.72	933.333
215.09	1100.000
215.47	-3400.000
215.84	-350.000
216.22	-387.500
216.59	0.000
216.97	0.000
217.34	1050.000
217.72	-1650.000
218.09	1133.333
218.47	462.500
218.84	750.000
219.22	1066.667
219.59	666.667
219.97	485.714
220.34	422.222
220.72	1500.000
221.09	3300.000
221.47	300.000
221.84	833.333
222.22	390.000
222.59	250.000
222.97	192.857
223.34	200.000
223.72	-1700.000
224.09	1433.333
224.46	200.000
224.84	-750.000
225.21	377.778
225.59	286.667
225.96	1200.000
226.34	-480.000
226.71	-550.000
227.08	-640.000
227.46	0.000
227.83	-533.333
228.21	-1450.000
228.58	483.333
228.95	950.000
229.33	388.889
229.70	1000.000
230.08	269.231
230.45	2700.000
230.82	-800.000
231.20	-900.000
231.57	-1366.667
231.95	660.000
232.32	316.667
232.69	600.000
233.07	216.667
233.44	-1450.000
233.81	233.333
234.19	159.259
234.56	200.000
234.93	235.294
235.31	230.000
235.68	237.500
236.05	189.286
236.43	177.778
236.80	150.000
237.17	196.552
237.55	150.000
237.92	135.000
238.29	169.697
238.67	146.875
239.04	131.707
239.41	125.000
239.79	117.500
240.16	112.500
240.53	108.197
240.91	88.406
241.28	108.475
241.65	84.848
242.02	105.634
242.40	107.143
242.77	84.615
243.14	83.544
243.51	90.909
243.89	76.636
244.26	74.766
244.63	75.248
245.00	86.239
245.38	79.661
245.75	84.091
246.12	74.815
246.49	60.993
246.87	79.508
247.24	74.000
247.61	64.375
247.98	70.068
248.36	64.242
248.73	69.898
249.10	70.833
249.47	66.000
249.84	68.159
250.22	72.973
250.59	67.000
250.96	64.979
251.33	64.651
251.70	66.518
252.08	64.286
252.45	62.550
252.82	56.274
253.19	66.008
253.56	61.923
253.94	63.043
254.31	65.891
254.68	67.247
255.05	65.862
255.42	60.949
255.79	62.215
256.16	60.678
256.54	61.039
256.91	62.418
257.28	66.221
257.65	60.502
258.02	60.177
258.39	61.605
258.76	61.449
259.14	61.429
259.51	60.058
259.88	63.222
260.25	58.516
260.62	57.808
260.99	58.127
261.36	61.003
261.73	59.840
262.10	59.686
262.47	56.000
262.85	57.867
263.22	59.897
263.59	59.079
263.96	59.649
264.33	57.284
264.70	62.162
265.07	60.732
265.44	58.486
265.81	60.377
266.18	58.581
266.55	59.811
266.92	61.521
267.29	58.333
267.66	60.987
268.03	58.744
268.40	57.928
268.77	59.031
269.14	56.616
269.51	59.688
269.88	57.551
270.25	55.940
270.62	57.296
270.99	58.418
271.36	58.130
271.73	56.813
272.10	55.354
272.47	53.373
272.84	54.691
273.21	55.579
273.58	54.656
273.95	56.057
274.32	53.696
274.69	57.480
275.06	55.373
275.43	56.322
275.80	53.396
276.17	54.228
276.54	56.636
276.91	56.157
277.28	52.007
277.65	55.166
278.02	56.618
278.39	53.957
278.76	53.966
279.13	54.448
279.50	54.364
279.87	56.238
280.23	54.696
280.60	56.934
280.97	53.793
281.34	49.505
281.71	54.435
282.08	55.556
282.45	53.547
282.82	52.843
283.19	52.464
283.56	53.388
283.92	53.257
284.29	52.413
284.66	51.429
285.03	54.561
285.40	51.901
285.77	51.698
286.14	50.929
286.51	50.613
286.87	50.791
287.24	48.649
287.61	49.088
287.98	47.761
288.35	49.630
288.72	50.076
289.08	50.901
289.45	48.933
289.82	52.188
290.19	48.170
290.56	49.927
290.93	46.619
291.29	47.099
291.66	46.045
292.03	46.985
292.40	46.341
292.77	44.986
293.13	45.792
293.50	43.860
293.87	44.715
294.24	46.154
294.60	45.626
294.97	45.035
295.34	44.090
295.71	43.758
296.08	45.333
296.44	43.456
296.81	42.432
297.18	41.698
297.55	42.241
297.91	41.379
298.28	40.700
298.65	40.491
299.02	41.375
299.38	40.887
299.75	39.634
300.12	40.367
300.48	39.344
300.85	38.737
301.22	39.186
301.59	38.797
301.95	36.989
302.32	39.697
302.69	39.819
303.05	41.190
303.42	37.444
303.79	39.328
304.15	38.504
304.52	37.632
304.89	38.273
305.25	38.487
305.62	38.486
305.99	37.391
306.35	38.316
306.72	36.733
307.09	37.888
307.45	36.748
307.82	36.317
308.19	36.907
308.55	37.400
308.92	37.978
309.29	36.785
309.65	36.373
310.02	37.728
310.38	36.191
310.75	35.873
311.12	34.195
311.48	36.486
311.85	36.546
312.22	36.103
312.58	35.666
312.95	35.825
313.31	36.142
313.68	36.492
314.05	36.538
314.41	34.544
314.78	36.080
315.14	37.251
315.51	37.465
315.87	35.310
316.24	36.788
316.61	34.557
316.97	35.872
317.34	35.939
317.70	36.435
318.07	38.078
318.43	36.731
318.80	36.077
319.16	36.364
319.53	35.221
319.89	35.842
320.26	36.872
320.62	37.546
320.99	35.462
321.35	35.807
321.72	37.571
322.08	36.196
322.45	36.421
322.81	36.322
323.18	37.034
323.54	36.585
323.91	37.625
324.27	36.693
324.64	37.111
325.00	36.638
325.37	36.509
325.73	37.268
326.10	36.537
326.46	36.086
326.83	34.560
327.19	36.707
327.56	35.703
327.92	36.148
328.29	36.170
328.65	36.729
329.01	36.014
329.38	35.618
329.74	34.500
330.11	35.969
330.47	35.635
330.84	36.411
331.20	35.364
331.56	36.788
331.93	36.869
332.29	34.779
332.66	36.310
333.02	35.137
333.38	35.079
333.75	36.781
334.11	36.242
334.48	36.154
334.84	34.544
335.20	35.843
335.57	35.600
335.93	34.651
336.29	34.494
336.66	36.535
337.02	35.244
337.38	36.113
337.75	35.473
338.11	35.612
338.47	33.954
338.84	34.462
339.20	34.199
339.56	33.221
339.93	34.866
340.29	34.370
340.65	34.702
341.02	34.433
341.38	34.893
341.74	34.801
342.11	34.057
342.47	33.634
342.83	35.685
343.20	34.276
343.56	33.916
343.92	33.361
344.28	33.652
344.65	33.822
345.01	33.730
345.37	34.615
345.73	33.413
346.10	32.271
346.46	33.413
346.82	32.485
347.19	32.689
347.55	31.616
347.91	32.704
348.27	33.075
348.63	33.307
349.00	33.740
349.36	33.385
349.72	34.633
350.08	33.618
350.45	33.130
350.81	33.563
351.17	31.587
351.53	31.024
351.89	32.556
352.26	31.293
352.62	33.107
352.98	31.902
353.34	32.820
353.70	31.957
354.07	32.385
354.43	32.873
354.79	31.435
355.15	31.776
355.51	32.024
355.87	33.057
356.24	32.333
356.60	32.040
356.96	32.980
357.32	31.876
357.68	31.938
358.04	33.055
358.40	31.634
358.77	31.781
359.13	32.132
359.49	32.468
359.85	31.943
360.21	31.278
360.57	32.701
360.93	31.457
361.29	32.900
361.66	31.544
362.02	30.256
362.38	31.385
362.74	31.847
363.10	31.487
363.46	31.215
363.82	30.505
364.18	31.437
364.54	31.831
364.90	31.794
365.26	32.130
365.62	31.146
365.98	31.659
366.35	30.690
366.71	31.367
367.07	31.331
367.43	30.826
367.79	31.117
368.15	30.190
368.51	31.151
368.87	29.755
369.23	30.423
369.59	31.220
369.95	31.329
370.31	31.554
370.67	30.881
371.03	31.793
371.39	31.302
371.75	30.984
372.11	30.727
372.47	30.822
372.83	31.271
373.19	31.254
373.55	30.997
373.91	31.077
374.27	30.489
374.63	30.983
374.99	30.728
375.35	31.183
375.71	31.794
376.07	31.432
376.42	29.731
376.78	30.893
377.14	31.455
377.50	30.337
377.86	30.109
378.22	30.469
378.58	31.174
378.94	31.080
379.30	29.897
379.66	29.982
380.02	31.261
380.38	30.328
380.74	31.084
381.09	30.607
381.45	30.809
381.81	30.969
382.17	30.037
382.53	30.234
382.89	30.337
383.25	29.603
383.61	30.951
383.97	29.574
384.32	31.043
384.68	30.541
385.04	31.008
385.40	30.427
385.76	30.369
386.12	30.921
386.48	30.638
386.83	30.562
387.19	29.564
387.55	30.801
387.91	30.023
388.27	30.399
388.62	30.575
388.98	30.087
389.34	29.625
389.70	29.363
390.06	30.122
390.42	30.105
390.77	30.160
391.13	29.451
391.49	29.764
391.85	29.354
392.20	29.499
392.56	29.331
392.92	29.759
393.28	29.709
393.64	29.358
393.99	29.638
394.35	29.665
394.71	29.373
395.07	29.136
395.42	30.211
395.78	30.352
396.14	30.542
396.50	28.941
396.85	29.878
397.21	30.144
397.57	29.588
397.92	28.827
398.28	29.068
398.64	29.959
399.00	29.503
399.35	28.395
399.71	28.918
400.07	29.623
400.42	29.910
400.78	28.798
401.14	29.830
401.49	29.263
401.85	29.722
402.21	29.115
402.57	29.503
402.92	28.970
403.28	29.415
403.63	29.076
403.99	30.157
404.35	30.305
404.70	30.419
405.06	28.804
405.42	30.341
405.77	29.162
406.13	28.579
406.49	28.994
406.84	28.483
407.20	29.452
407.55	28.308
407.91	30.313
408.27	29.776
408.62	28.563
408.98	28.445
409.34	28.404
409.69	28.998
410.05	28.265
410.40	28.916
410.76	28.105
411.11	29.325
411.47	29.136
411.83	27.358
412.18	28.684
412.54	28.529
412.89	27.316
413.25	28.449
413.60	27.336
413.96	28.306
414.31	28.512
414.67	29.981
415.03	28.736
415.38	28.770
415.74	27.795
416.09	29.419
416.45	28.895
416.80	28.929
417.16	29.472
417.51	29.236
417.87	29.036
418.22	28.736
418.58	28.981
418.93	29.149
419.29	28.774
419.64	28.468
420.00	29.177
420.35	28.862
420.71	29.697
421.06	29.017
421.42	28.670
421.77	28.762
422.12	28.942
422.48	29.327
422.83	28.906
423.19	28.294
423.54	28.579
423.90	29.275
424.25	28.619
424.61	29.251
424.96	28.402
425.31	28.900
425.67	28.956
426.02	28.547
426.38	28.646
426.73	28.629
427.09	28.944
427.44	28.813
427.79	28.645
428.15	29.523
428.50	29.371
428.85	28.924
429.21	28.471
429.56	29.113
429.92	28.792
430.27	28.786
430.62	28.390
430.98	28.743
431.33	28.831
431.68	27.062
432.04	28.764
432.39	28.924
432.74	29.333
433.10	29.347
433.45	29.581
433.80	29.288
434.16	28.324
434.51	28.483
434.86	29.559
435.22	28.363
435.57	28.512
435.92	29.880
436.28	29.378
436.63	28.525
436.98	29.167
437.34	28.653
437.69	28.052
438.04	28.925
438.39	29.247
438.75	29.399
439.10	28.872
439.45	29.791
439.81	28.976
440.16	28.343
440.51	28.209
440.86	29.117
441.22	28.301
441.57	29.711
441.92	28.480
442.27	28.660
442.63	28.455
442.98	29.203
443.33	29.084
443.68	28.823
444.03	28.841
444.39	28.672
444.74	29.244
445.09	29.015
445.44	29.012
445.79	28.752
446.15	29.053
446.50	29.114
446.85	28.785
447.20	29.104
447.55	28.331
447.91	29.302
448.26	28.435
448.61	29.685
448.96	29.684
449.31	30.033
449.66	29.568
450.02	29.444
450.37	29.150
450.72	30.138
451.07	29.319
451.42	28.986
451.77	29.152
452.12	29.836
452.47	30.134
452.83	29.634
453.18	29.550
453.53	30.373
453.88	30.400
454.23	29.924
454.58	29.138
454.93	30.227
455.28	29.376
455.63	29.728
455.98	29.216
456.34	30.152
456.69	29.512
457.04	29.535
457.39	29.257
457.74	30.068
458.09	28.972
458.44	30.011
458.79	29.231
459.14	29.078
459.49	29.841
459.84	30.217
460.19	29.096
460.54	29.858
460.89	30.064
461.24	29.324
461.59	29.025
461.94	28.783
462.29	29.920
462.64	29.837
462.99	30.198
463.34	30.006
463.69	30.067
464.04	29.706
464.39	29.823
464.74	28.957
465.09	30.006
465.44	28.727
465.79	29.614
466.14	28.829
466.49	29.517
466.84	29.543
467.19	29.818
467.54	29.309
467.89	30.047
468.24	29.531
468.59	29.940
468.94	29.469
469.29	29.444
469.64	29.711
469.99	29.627
470.34	29.412
470.68	29.862
471.03	29.953
471.38	30.199
471.73	30.438
472.08	30.594
472.43	30.230
472.78	30.794
473.13	30.100
473.48	29.707
473.83	29.918
474.17	29.544
474.52	30.450
474.87	29.619
475.22	29.812
475.57	30.010
475.92	29.637
476.27	28.727
476.61	29.544
476.96	30.512
477.31	30.334
477.66	29.522
478.01	30.222
478.36	29.300
478.70	28.536
479.05	29.289
479.40	29.365
479.75	29.444
480.10	28.170
480.45	29.085
480.79	29.263
481.14	29.672
481.49	28.911
481.84	28.672
482.19	29.127
482.53	28.942
482.88	28.719
483.23	29.138
483.58	29.174
483.92	30.804
484.27	29.366
484.62	29.711
484.97	28.672
485.31	28.287
485.66	28.202
486.01	27.772
486.36	27.171
486.70	27.141
487.05	27.371
487.40	27.635
487.75	28.683
488.09	28.608
488.44	27.884
488.79	28.462
489.13	29.302
489.48	28.925
489.83	28.649
490.17	29.026
490.52	29.242
490.87	29.009
491.22	29.034
491.56	29.293
491.91	29.749
492.26	29.087
492.60	29.886
492.95	29.089
493.30	29.026
493.64	30.099
493.99	29.338
494.34	29.314
494.68	29.172
495.03	29.681
495.37	29.131
495.72	29.371
496.07	29.290
496.41	28.714
496.76	28.873
497.11	29.177
497.45	29.811
497.80	29.194
498.14	29.219
498.49	29.387
498.84	30.234
499.18	28.428
499.53	29.766
499.87	28.122
500.22	29.065
500.56	29.573
500.91	30.519
501.26	29.995
501.60	29.508
501.95	28.853
502.29	29.467
502.64	28.937
502.98	28.857
503.33	29.042
503.67	28.918
504.02	27.765
504.36	29.321
504.71	28.713
505.06	29.094
505.40	29.340
505.75	29.093
506.09	29.725
506.44	28.806
506.78	29.064
507.13	29.035
507.47	29.112
507.82	30.073
508.16	29.495
508.51	29.903
508.85	29.345
509.19	28.977
509.54	28.906
509.88	30.035
510.23	29.069
510.57	28.378
510.92	30.320
511.26	29.568
511.61	29.345
511.95	29.318
512.30	28.800
512.64	29.491
512.98	29.472
513.33	29.662
513.67	30.088
514.02	29.299
514.36	28.816
514.70	29.707
515.05	29.409
515.39	31.360
515.74	30.399
516.08	30.065
516.42	30.820
516.77	29.227
517.11	29.387
517.46	28.502
517.80	29.711
518.14	30.366
518.49	28.886
518.83	28.626
519.17	30.616
519.52	29.656
519.86	30.027
520.20	29.644
520.55	29.734
520.89	30.805
521.23	29.965
521.58	29.891
521.92	29.563
522.26	29.680
522.61	30.481
522.95	30.931
523.29	30.292
523.64	30.347
523.98	29.754
524.32	29.239
524.66	29.855
525.01	29.882
525.35	29.287
525.69	30.464
526.04	30.577
526.38	29.665
526.72	29.117
527.06	29.982
527.41	30.593
527.75	30.067
528.09	29.139
528.43	29.835
528.78	29.815
529.12	30.283
529.46	29.749
529.80	29.965
530.15	30.112
530.49	29.242
530.83	30.591
531.17	30.689
531.51	30.717
531.86	29.589
532.20	29.913
532.54	30.195
532.88	29.919
533.22	30.408
533.57	29.530
533.91	28.730
534.25	28.505
534.59	29.883
534.93	29.181
535.27	28.628
535.62	28.821
535.96	28.546
536.30	29.799
536.64	29.130
536.98	29.452
537.32	30.062
537.66	29.783
538.01	29.969
538.35	30.069
538.69	28.823
539.03	28.980
539.37	29.915
539.71	29.506
540.05	29.046
540.39	29.308
540.73	29.873
541.07	29.548
541.42	29.726
541.76	29.285
542.10	29.655
542.44	28.928
542.78	29.327
543.12	28.957
543.46	29.135
543.80	28.885
544.14	28.607
544.48	29.988
544.82	28.318
545.16	28.537
545.50	28.642
545.84	29.735
546.18	30.299
546.52	29.180
546.86	29.787
547.20	29.264
547.54	29.386
547.88	29.319
548.22	30.115
548.56	28.049
548.90	27.995
549.24	28.996
549.58	28.544
549.92	29.339
550.26	29.953
550.60	28.343
550.94	29.308
551.28	30.276
551.62	30.207
551.96	29.257
552.30	28.477
552.64	29.709
552.98	28.286
553.32	29.449
553.66	28.860
554.00	29.987
554.34	29.561
554.68	28.898
555.02	29.871
555.36	28.590
555.69	29.319
556.03	29.745
556.37	29.382
556.71	29.140
557.05	29.030
557.39	29.933
557.73	30.121
558.07	29.309
558.41	30.569
558.75	30.027
559.08	29.950
559.42	29.205
559.76	29.651
560.10	28.493
560.44	28.998
560.78	29.284
561.12	28.798
561.45	28.723
561.79	28.964
562.13	28.996
562.47	29.332
562.81	29.343
563.15	28.571
563.48	28.012
563.82	29.632
564.16	29.042
564.50	28.330
564.84	28.450
565.17	29.293
565.51	29.926
565.85	29.056
566.19	28.274
566.52	28.339
566.86	29.539
567.20	29.270
567.54	28.002
567.88	28.951
568.21	27.708
568.55	28.210
568.89	28.467
569.23	27.135
569.56	27.516
569.90	27.057
570.24	27.291
570.57	27.644
570.91	26.677
571.25	26.690
571.59	26.199
571.92	26.265
572.26	26.119
572.60	25.993
572.93	26.970
573.27	26.048
573.61	26.367
573.95	26.195
574.28	26.975
574.62	26.409
574.96	25.610
575.29	25.696
575.63	25.819
575.97	25.292
576.30	25.690
576.64	25.882
576.98	25.842
577.31	26.383
577.65	26.010
577.98	25.977
578.32	25.512
578.66	25.816
578.99	25.991
579.33	26.319
579.67	25.779
580.00	26.301
580.34	25.592
580.67	25.615
581.01	26.136
581.35	25.721
581.68	25.353
582.02	25.759
582.35	25.046
582.69	25.527
583.02	25.329
583.36	25.965
583.70	26.147
584.03	25.951
584.37	26.275
584.70	26.151
585.04	26.077
585.37	25.316
585.71	26.247
586.04	25.480
586.38	26.119
586.72	25.972
587.05	26.402
587.39	25.891
587.72	25.665
588.06	25.726
588.39	26.100
588.73	25.906
589.06	25.270
589.40	26.479
589.73	26.090
590.07	26.973
590.40	27.213
590.73	27.470
591.07	27.097
591.40	26.747
591.74	26.948
592.07	26.539
592.41	26.859
592.74	26.547
593.08	25.944
593.41	25.254
593.75	25.622
594.08	26.240
594.41	25.415
594.75	25.959
595.08	26.749
595.42	26.498
595.75	25.864
596.09	26.451
596.42	26.438
596.75	26.763
597.09	27.445
597.42	26.204
597.75	26.045
598.09	26.590
598.42	26.357
598.76	26.060
599.09	26.664
599.42	26.125
599.76	26.153
600.09	25.661
600.42	26.105
600.76	25.561
601.09	26.200
601.42	25.871
601.76	25.994
602.09	26.821
602.42	25.767
602.76	26.869
603.09	27.112
603.42	26.202
603.76	26.067
604.09	26.059
604.42	26.629
604.76	25.998
605.09	26.490
605.42	26.900
605.75	26.490
606.09	26.435
606.42	26.343
606.75	26.312
607.09	25.740
607.42	26.517
607.75	26.592
608.08	25.630
608.42	27.013
608.75	25.588
609.08	26.837
609.41	26.682
609.75	26.145
610.08	26.574
610.41	26.175
610.74	26.407
611.07	27.103
611.41	27.340
611.74	26.625
612.07	27.216
612.40	26.608
612.73	26.510
613.07	27.268
613.40	26.566
613.73	26.410
614.06	26.250
614.39	26.970
614.72	26.118
615.06	25.767
615.39	26.881
615.72	26.815
616.05	26.419
616.38	26.230
616.71	26.696
617.05	26.085
617.38	26.910
617.71	26.715
618.04	26.977
618.37	26.793
618.70	26.386
619.03	27.411
619.36	27.701
619.69	26.913
620.03	28.702
620.36	27.553
620.69	27.969
621.02	28.533
621.35	26.003
621.68	27.655
622.01	28.339
622.34	27.167
622.67	27.247
623.00	27.025
623.33	27.935
623.66	27.279
623.99	28.288
624.32	27.642
624.65	27.321
624.99	27.992
625.32	26.253
625.65	26.759
625.98	27.964
626.31	28.264
626.64	26.879
626.97	28.003
627.30	27.019
627.63	27.708
627.96	27.308
628.29	28.300
628.62	27.716
628.95	28.369
629.28	28.133
629.61	27.856
629.94	26.880
630.26	28.510
630.59	29.344
630.92	28.251
631.25	28.921
631.58	27.772
631.91	28.069
632.24	28.183
632.57	28.585
632.90	29.814
633.23	28.437
633.56	28.346
633.89	28.832
634.22	30.248
634.55	27.312
634.88	29.682
635.20	29.372
635.53	30.894
635.86	28.859
636.19	28.956
636.52	29.081
636.85	29.126
637.18	28.927
637.51	27.709
637.83	28.604
638.16	28.722
638.49	29.581
638.82	28.873
639.15	29.377
639.48	29.621
639.81	29.792
640.13	27.975
640.46	29.204
640.79	30.169
641.12	29.396
641.45	30.660
641.77	30.647
642.10	31.995
642.43	27.881
642.76	27.983
643.09	28.674
643.41	29.874
643.74	30.216
644.07	31.268
644.40	28.107
644.73	30.931
645.05	31.947
645.38	29.862
645.71	31.259
646.04	30.840
646.36	29.890
646.69	29.920
647.02	29.920
647.35	29.606
647.67	30.794
648.00	29.642
648.33	30.677
648.66	29.394
648.98	29.275
649.31	28.070
649.64	28.492
649.96	28.876
650.29	29.286
650.62	30.486
650.94	29.518
651.27	31.738
651.60	28.951
651.92	31.951
652.25	32.598
652.58	29.787
652.90	30.838
653.23	28.951
653.56	31.009
653.88	28.047
654.21	30.499
654.54	29.136
654.86	28.909
655.19	29.947
655.52	26.746
655.84	22.688
656.17	26.827
656.49	38.349
656.82	43.716
657.15	34.394
657.47	25.721
657.80	19.318
658.13	15.430
658.45	21.135
658.78	25.337
659.10	25.251
659.43	25.907
659.75	27.038
660.08	27.444
660.41	28.766
660.73	31.870
661.06	31.231
661.38	31.005
661.71	30.935
662.03	32.510
662.36	31.429
662.68	29.795
663.01	32.072
663.33	30.755
663.66	30.375
663.98	30.556
664.31	32.463
664.63	30.460
664.96	33.021
665.28	30.508
665.61	30.566
665.93	31.887
666.26	32.336
666.58	32.294
666.91	30.116
667.23	29.518
667.56	31.417
667.88	32.780
668.21	31.967
668.53	33.871
668.86	32.665
669.18	30.346
669.50	28.099
669.83	33.881
670.15	30.977
670.48	29.883
670.80	32.072
671.13	29.880
671.45	30.661
671.77	31.169
672.10	30.700
672.42	30.921
672.75	28.006
673.07	29.253
673.39	29.393
673.72	28.374
674.04	32.437
674.37	30.853
674.69	29.554
675.01	29.478
675.34	29.651
675.66	32.227
675.98	29.389
676.31	29.400
676.63	29.821
676.95	30.159
677.28	29.412
677.60	31.992
677.92	29.167
678.25	32.171
678.57	31.844
678.89	31.826
679.22	30.699
679.54	31.495
679.86	30.366
680.18	29.525
680.51	28.027
680.83	29.730
681.15	30.156
681.48	31.597
681.80	29.597
682.12	30.623
682.44	31.351
682.77	30.249
683.09	31.262
683.41	29.388
683.73	30.118
684.06	30.754
684.38	32.752
684.70	30.216
685.02	29.167
685.34	29.225
685.67	31.994
685.99	30.213
686.31	29.122
686.63	30.244
686.96	28.105
687.28	29.027
687.60	30.375
687.92	29.648
688.24	30.690
688.56	31.139
688.89	28.107
689.21	30.443
689.53	31.818
689.85	30.285
690.17	29.515
690.49	31.250
690.82	32.353
691.14	32.525
691.46	32.444
691.78	31.774
692.10	30.725
692.42	29.220
692.74	28.295
693.06	30.039
693.39	28.261
693.71	29.666
694.03	32.347
694.35	32.129
694.67	31.976
694.99	32.373
695.31	30.631
695.63	30.769
695.95	30.995
696.27	36.504
696.59	28.640
696.91	32.658
697.23	28.281
697.56	28.838
697.88	28.942
698.20	29.623
698.52	30.156
698.84	32.238
699.16	32.196
699.48	29.449
699.80	32.680
700.12	30.485
700.44	28.972
700.76	32.458
701.08	32.637
701.40	33.247
701.72	33.690
702.04	31.978
702.36	33.333
702.68	33.245
703.00	28.070
703.32	32.506
703.64	31.234
703.96	32.552
704.28	32.540
704.60	32.958
704.91	33.894
705.23	33.523
705.55	34.718
705.87	31.746
706.19	38.558
706.51	33.856
706.83	34.808
707.15	34.492
707.47	33.172
707.79	31.494
708.11	29.705
708.43	31.461
708.74	28.281
709.06	30.698
709.38	30.025
709.70	31.335
710.02	31.522
710.34	28.177
710.66	32.222
710.98	34.699
711.29	29.805
711.61	36.212
711.93	32.827
712.25	31.627
712.57	32.797
712.89	34.545
713.20	31.629
713.52	34.268
713.84	34.441
714.16	31.594
714.48	29.971
714.80	31.165
715.11	32.181
715.43	31.285
715.75	30.704
716.07	34.393
716.39	32.000
716.70	32.710
717.02	35.017
717.34	33.813
717.66	35.069
717.97	39.015
718.29	32.042
718.61	34.459
718.93	37.024
719.24	37.248
719.56	29.310
719.88	32.803
720.20	35.806
720.51	32.680
720.83	34.783
721.15	31.293
721.46	36.986
721.78	36.237
722.10	37.153
722.42	32.776
722.73	34.296
723.05	36.140
723.37	40.636
723.68	36.328
724.00	37.879
724.32	34.601
724.63	35.385
724.95	34.510
725.27	31.970
725.58	38.235
725.90	31.338
726.22	35.959
726.53	32.776
726.85	32.899
727.16	34.564
727.48	39.535
727.80	33.813
728.11	37.143
728.43	36.232
728.74	35.664
729.06	33.692
729.38	38.596
729.69	38.000
730.01	36.513
730.32	37.919
730.64	35.880
730.96	34.535
731.27	29.052
731.59	28.736
731.90	32.312
732.22	33.143
732.53	31.624
732.85	32.456
733.16	34.639
733.48	32.915
733.80	32.464
734.11	33.129
734.43	29.532
734.74	31.367
735.06	33.862
735.37	30.412
735.69	28.696
736.00	36.391
736.32	30.909
736.63	30.915
736.95	30.745
737.26	32.927
737.58	33.129
737.89	33.133
738.21	32.119
738.52	34.114
738.83	39.927
739.15	34.146
739.46	33.793
739.78	35.034
740.09	31.778
740.41	32.822
740.72	36.508
741.04	31.818
741.35	34.766
741.66	34.387
741.98	39.914
742.29	40.741
742.61	32.743
742.92	36.017
743.23	36.000
743.55	33.962
743.86	32.157
744.18	35.593
744.49	33.884
744.80	39.171
745.12	38.839
745.43	40.654
745.74	39.556
746.06	29.825
746.37	37.674
746.68	38.053
747.00	35.426
747.31	34.874
747.62	34.016
747.94	32.618
748.25	37.354
748.56	33.051
748.88	39.286
749.19	38.140
749.50	35.160
749.82	39.506
750.13	37.945
750.44	33.000
750.75	33.893
751.07	33.224
751.38	32.343
751.69	32.323
752.01	30.769
752.32	33.223
752.63	35.570
752.94	33.217
753.26	38.672
753.57	31.518
753.88	33.333
754.19	37.184
754.51	34.219
754.82	33.893
755.13	36.824
755.44	37.778
755.75	36.082
756.07	33.562
756.38	33.333
756.69	34.375
757.00	31.454
757.31	32.676
757.63	31.680
757.94	29.787
758.25	31.643
758.56	30.206
758.87	29.073
759.18	33.140
759.50	30.091
759.81	32.344
760.12	30.899
760.43	31.933
760.74	31.139
761.05	31.830
761.36	29.427
761.67	31.806
761.99	30.423
762.30	29.260
762.61	35.417
762.92	32.576
763.23	34.717
763.54	33.846
763.85	33.852
764.16	35.417
764.47	33.108
764.78	32.573
765.10	33.537
765.41	28.977
765.72	30.663
766.03	30.211
766.34	34.495
766.65	33.460
766.96	39.271
767.27	35.514
767.58	38.119
767.89	42.541
768.20	43.293
768.51	32.143
768.82	36.842
769.13	36.471
769.44	36.090
769.75	34.457
770.06	38.235
770.37	27.632
770.68	35.111
770.99	38.136
771.30	43.515
771.61	40.769
771.92	33.588
772.23	33.871
772.54	36.444
772.85	40.594
773.16	34.239
773.47	42.778
773.78	42.574
774.09	40.341
774.39	48.485
774.70	41.176
775.01	35.526
775.32	42.857
775.63	42.466
775.94	53.086
776.25	39.310
776.56	44.275
776.87	51.145
777.18	46.970
777.48	50.394
777.79	47.692
778.10	43.182
778.41	48.507
778.72	45.113
779.03	39.744
779.34	44.595
779.65	48.447
779.95	46.584
780.26	37.500
780.57	51.701
780.88	48.936
781.19	51.667
781.50	44.970
781.80	41.530
782.11	37.037
782.42	37.931
782.73	40.678
783.04	41.290
783.34	49.612
783.65	36.054
783.96	50.323
784.27	43.046
784.57	50.000
784.88	48.551
785.19	49.167
785.50	42.241
785.81	45.736
786.11	45.926
786.42	40.157
786.73	47.748
787.04	49.057
787.34	47.154
787.65	48.485
787.96	46.212
788.26	56.693
788.57	48.175
788.88	45.775
789.19	41.985
789.49	50.676
789.80	39.062
790.11	45.455
790.41	50.000
790.72	40.741
791.03	54.808
791.33	54.545
791.64	55.789
791.95	47.368
792.25	54.167
792.56	46.000
792.87	67.073
793.17	40.909
793.48	63.529
793.79	60.920
794.09	54.545
794.40	59.483
794.70	42.063
795.01	45.385
795.32	47.328
795.62	43.590
795.93	52.941
796.23	42.276
796.54	50.000
796.85	63.636
797.15	57.143
797.46	70.732
797.76	53.750
798.07	66.667
798.37	65.000
798.68	58.750
798.99	60.976
799.29	42.667
799.60	53.488
799.90	78.947
800.21	66.667
800.51	66.197
800.82	65.517
801.12	76.923
801.43	65.333
801.73	56.897
802.04	71.429
802.34	61.644
802.65	64.706
802.95	91.304
803.26	85.484
803.56	93.333
803.87	68.657
804.17	61.905
804.48	77.358
804.78	58.333
805.09	71.212
805.39	77.778
805.70	80.702
806.00	64.286
806.30	70.312
806.61	54.118
806.91	62.222
807.22	48.913
807.52	57.895
807.83	77.632
808.13	71.014
808.43	80.645
808.74	73.973
809.04	80.357
809.35	72.059
809.65	72.727
809.95	94.118
810.26	100.000
810.56	84.375
810.86	81.633
811.17	84.211
811.47	82.609
811.77	62.069
812.08	63.793
812.38	100.000
812.69	88.095
812.99	75.556
813.29	105.714
813.59	109.677
813.90	77.586
814.20	86.885
814.50	92.000
814.81	75.439
815.11	101.852
815.41	92.857
815.72	92.857
816.02	72.000
816.32	107.317
816.62	87.931
816.93	127.273
817.23	121.951
817.53	75.000
817.84	97.778
818.14	104.762
818.44	91.667
818.74	86.792
819.04	84.615
819.35	124.242
819.65	103.846
819.95	107.407
820.25	82.979
820.56	121.622
820.86	100.000
821.16	68.085
821.46	121.053
821.76	76.364
822.07	66.667
822.37	107.895
822.67	90.698
822.97	105.263
823.27	95.652
823.57	115.625
823.88	74.359
824.18	109.091
824.48	126.087
824.78	108.333
825.08	130.435
825.38	113.793
825.69	123.529
825.99	91.489
826.29	77.778
826.59	117.143
826.89	123.333
827.19	114.286
827.49	125.806
827.79	153.846
828.09	95.238
828.39	105.556
828.70	91.892
829.00	153.571
829.30	162.500
829.60	91.667
829.90	129.032
830.20	90.909
830.50	110.811
830.80	112.500
831.10	146.154
831.40	133.333
831.70	162.500
832.00	116.667
832.30	143.478
832.60	137.500
832.90	130.303
833.20	180.000
833.50	115.789
833.80	144.118
834.10	126.316
834.40	136.842
834.70	90.000
835.00	120.000
835.30	91.892
835.60	150.000
835.90	108.108
836.20	142.308
836.50	95.455
836.80	97.561
837.10	117.391
837.40	338.462
837.70	136.842
838.00	126.667
838.30	187.500
838.60	184.000
838.90	240.000
839.19	131.250
839.49	143.333
839.79	144.828
840.09	153.846
840.39	193.333
840.69	189.474
840.99	133.333
841.29	156.522
841.59	200.000
841.88	220.000
842.18	288.889
842.48	164.286
842.78	148.148
843.08	238.462
843.38	172.727
843.68	214.286
843.97	257.143
844.27	160.870
844.57	1400.000
844.87	335.714
845.17	227.778
845.47	123.810
845.76	183.333
846.06	442.857
846.36	152.941
846.66	292.308
846.96	262.500
847.25	315.385
847.55	131.579
847.85	172.222
848.15	640.000
848.44	281.818
848.74	171.429
849.04	158.333
849.34	182.353
849.63	193.750
849.93	206.250
850.23	1033.333
850.53	375.000
850.82	254.545
851.12	200.000
851.42	166.667
851.71	200.000
852.01	0.000
852.31	176.471
852.61	410.000
852.90	166.667
853.20	333.333
853.50	-2300.000
853.79	144.000
854.09	159.375
854.39	144.828
854.68	131.034
854.98	209.524
855.28	141.935
855.57	321.429
855.87	183.333
856.17	140.741
856.46	205.263
856.76	138.710
857.05	247.059
857.35	254.545
857.65	230.769
857.94	160.000
858.24	422.222
858.53	264.286
858.83	528.571
859.13	173.913
859.42	366.667
859.72	412.500
860.01	333.333
860.31	925.000
860.60	290.000
860.90	375.000
861.20	269.231
861.49	414.286
861.79	-2600.000
862.08	557.143
862.38	377.778
862.67	192.857
862.97	490.000
863.26	110.000
863.56	725.000
863.85	223.077
864.15	229.412
864.44	183.333
864.74	308.333
865.03	354.545
865.33	375.000
865.62	213.333
865.92	533.333
866.21	750.000
866.51	520.000
866.80	200.000
867.10	933.333
867.39	3300.000
867.69	700.000
867.98	825.000
868.27	171.429
868.57	266.667
868.86	1050.000
869.16	138.095
869.45	2800.000
869.75	-466.667
870.04	600.000
870.33	580.000
870.63	450.000
870.92	182.353
871.22	900.000
871.51	457.143
871.80	350.000
872.10	315.385
>>>>>End Processed Spectral Data<<<<<
