SpectraSuite Data File
++++++++++++++++++++++++++++++++++++
Date: Tue May 12 16:35:46 PDT 2015
User: schluterlab
Dark Spectrum Present: Yes
Reference Spectrum Present: Yes
Number of Sampled Component Spectra: 1
Spectrometers: USB2E3373
Integration Time (usec): 3000 (USB2E3373)
Spectra Averaged: 3 (USB2E3373)
Boxcar Smoothing: 0 (USB2E3373)
Correct for Electrical Dark: No (USB2E3373)
Strobe/Lamp Enabled: No (USB2E3373)
Correct for Detector Non-linearity: No (USB2E3373)
Correct for Stray Light: No (USB2E3373)
Number of Pixels in Processed Spectrum: 2048
>>>>>Begin Processed Spectral Data<<<<<
178.53	0.000
178.91	-216.667
179.29	-725.000
179.67	-2900.000
180.04	-133.333
180.42	550.000
180.80	1350.000
181.18	0.000
181.56	-387.500
181.94	0.000
182.31	1133.333
182.69	-2800.000
183.07	657.143
183.45	-3200.000
183.83	-1650.000
184.20	340.000
184.58	442.857
184.96	-192.308
185.34	-175.000
185.72	1750.000
186.09	-650.000
186.47	-1800.000
186.85	1066.667
187.23	580.000
187.61	1750.000
187.98	425.000
188.36	221.429
188.74	341.667
189.12	391.667
189.49	675.000
189.87	0.000
190.25	512.500
190.63	2100.000
191.00	-216.667
191.38	-3200.000
191.76	-850.000
192.14	537.500
192.51	-2600.000
192.89	1350.000
193.27	1166.667
193.65	-733.333
194.02	-660.000
194.40	471.429
194.78	-128.571
195.15	226.667
195.53	-2800.000
195.91	-620.000
196.29	3400.000
196.66	218.750
197.04	800.000
197.42	-1500.000
197.79	575.000
198.17	283.333
198.55	0.000
198.92	542.857
199.30	933.333
199.68	1950.000
200.05	533.333
200.43	-450.000
200.81	205.556
201.18	3600.000
201.56	266.667
201.94	-700.000
202.31	-350.000
202.69	-660.000
203.07	1500.000
203.44	-366.667
203.82	258.333
204.19	640.000
204.57	-1650.000
204.95	-450.000
205.32	-700.000
205.70	600.000
206.08	950.000
206.45	-1033.333
206.83	344.444
207.20	210.526
207.58	316.667
207.96	680.000
208.33	0.000
208.71	585.714
209.08	740.000
209.46	-2900.000
209.84	-700.000
210.21	660.000
210.59	-560.000
210.96	266.667
211.34	-675.000
211.71	409.091
212.09	925.000
212.46	1900.000
212.84	-483.333
213.22	377.778
213.59	-2400.000
213.97	330.000
214.34	900.000
214.72	1400.000
215.09	1200.000
215.47	-2600.000
215.84	-370.000
216.22	-462.500
216.59	0.000
216.97	0.000
217.34	850.000
217.72	-1400.000
218.09	1000.000
218.47	375.000
218.84	725.000
219.22	800.000
219.59	766.667
219.97	557.143
220.34	433.333
220.72	1700.000
221.09	2600.000
221.47	341.667
221.84	833.333
222.22	330.000
222.59	233.333
222.97	192.857
223.34	206.250
223.72	-1550.000
224.09	1133.333
224.46	261.538
224.84	-925.000
225.21	333.333
225.59	253.333
225.96	1466.667
226.34	-840.000
226.71	-575.000
227.08	-440.000
227.46	0.000
227.83	-400.000
228.21	-1500.000
228.58	325.000
228.95	1100.000
229.33	311.111
229.70	925.000
230.08	292.308
230.45	3100.000
230.82	-825.000
231.20	-700.000
231.57	-900.000
231.95	640.000
232.32	225.000
232.69	366.667
233.07	291.667
233.44	-1450.000
233.81	213.333
234.19	133.333
234.56	168.750
234.93	188.235
235.31	215.000
235.68	200.000
236.05	135.714
236.43	125.926
236.80	228.571
237.17	151.724
237.55	100.000
237.92	102.500
238.29	118.182
238.67	143.750
239.04	100.000
239.41	56.250
239.79	87.500
240.16	95.833
240.53	57.377
240.91	63.768
241.28	69.492
241.65	66.667
242.02	73.239
242.40	51.429
242.77	46.154
243.14	51.899
243.51	49.495
243.89	43.925
244.26	42.991
244.63	52.475
245.00	44.037
245.38	38.136
245.75	39.394
246.12	42.963
246.49	36.879
246.87	39.344
247.24	44.667
247.61	41.250
247.98	41.497
248.36	26.061
248.73	34.184
249.10	31.548
249.47	32.000
249.84	29.851
250.22	32.973
250.59	31.000
250.96	31.224
251.33	27.442
251.70	32.143
252.08	30.672
252.45	25.100
252.82	30.038
253.19	26.482
253.56	28.077
253.94	28.261
254.31	28.295
254.68	29.268
255.05	28.621
255.42	27.372
255.79	28.013
256.16	24.068
256.54	27.273
256.91	25.817
257.28	25.418
257.65	24.765
258.02	24.189
258.39	25.788
258.76	29.275
259.14	24.286
259.51	28.571
259.88	21.581
260.25	22.802
260.62	25.753
260.99	22.039
261.36	25.070
261.73	26.064
262.10	21.204
262.47	24.500
262.85	25.067
263.22	23.393
263.59	24.297
263.96	24.060
264.33	23.210
264.70	26.781
265.07	21.951
265.44	25.229
265.81	24.528
266.18	24.027
266.55	23.404
266.92	23.266
267.29	23.246
267.66	21.973
268.03	21.525
268.40	23.467
268.77	23.348
269.14	23.210
269.51	20.935
269.88	23.265
270.25	20.950
270.62	20.815
270.99	23.124
271.36	23.374
271.73	20.964
272.10	21.616
272.47	21.230
272.84	20.359
273.21	22.727
273.58	26.113
273.95	19.918
274.32	24.514
274.69	25.394
275.06	20.947
275.43	21.073
275.80	23.208
276.17	22.610
276.54	23.551
276.91	21.642
277.28	19.343
277.65	22.325
278.02	21.140
278.39	21.043
278.76	20.862
279.13	21.708
279.50	21.091
279.87	21.415
280.23	20.442
280.60	22.993
280.97	22.241
281.34	21.617
281.71	20.870
282.08	21.880
282.45	20.101
282.82	21.237
283.19	19.555
283.56	20.000
283.92	20.521
284.29	19.967
284.66	21.345
285.03	19.735
285.40	20.331
285.77	18.827
286.14	19.505
286.51	21.472
286.87	18.354
287.24	17.568
287.61	20.973
287.98	20.149
288.35	19.111
288.72	20.030
289.08	19.219
289.45	19.512
289.82	20.469
290.19	18.887
290.56	20.233
290.93	19.137
291.29	19.613
291.66	19.350
292.03	18.513
292.40	17.751
292.77	17.131
293.13	19.829
293.50	17.409
293.87	16.938
294.24	18.601
294.60	17.497
294.97	18.741
295.34	16.866
295.71	17.608
296.08	18.400
296.44	17.281
296.81	16.005
297.18	15.589
297.55	17.118
297.91	15.394
298.28	17.029
298.65	17.914
299.02	16.405
299.38	16.067
299.75	15.976
300.12	17.317
300.48	18.033
300.85	17.640
301.22	16.512
301.59	16.745
301.95	16.569
302.32	16.414
302.69	17.195
303.05	17.396
303.42	15.695
303.79	17.660
304.15	17.052
304.52	15.962
304.89	16.738
305.25	17.241
305.62	17.697
305.99	16.739
306.35	14.842
306.72	16.441
307.09	16.149
307.45	17.001
307.82	15.432
308.19	16.392
308.55	15.900
308.92	16.487
309.29	17.751
309.65	16.650
310.02	17.444
310.38	16.251
310.75	16.490
311.12	16.284
311.48	18.919
311.85	17.080
312.22	17.956
312.58	16.424
312.95	17.767
313.31	18.914
313.68	16.510
314.05	17.949
314.41	18.063
314.78	16.477
315.14	19.336
315.51	19.016
315.87	18.522
316.24	19.048
316.61	19.875
316.97	16.972
317.34	19.946
317.70	21.071
318.07	20.641
318.43	20.299
318.80	21.016
319.16	20.455
319.53	21.150
319.89	19.713
320.26	22.346
320.62	21.062
320.99	21.258
321.35	23.933
321.72	23.150
322.08	23.823
322.45	23.070
322.81	24.337
323.18	24.689
323.54	24.913
323.91	25.657
324.27	25.906
324.64	25.346
325.00	25.776
325.37	25.801
325.73	27.234
326.10	27.672
326.46	26.837
326.83	27.040
327.19	29.237
327.56	29.313
327.92	29.508
328.29	29.951
328.65	30.479
329.01	30.368
329.38	30.372
329.74	30.487
330.11	29.800
330.47	31.628
330.84	30.198
331.20	31.726
331.56	32.729
331.93	31.309
332.29	31.633
332.66	31.037
333.02	31.100
333.38	31.501
333.75	32.110
334.11	32.131
334.48	33.675
334.84	32.517
335.20	32.763
335.57	31.822
335.93	31.791
336.29	32.421
336.66	33.190
337.02	32.250
337.38	32.588
337.75	33.193
338.11	33.840
338.47	32.769
338.84	32.261
339.20	31.861
339.56	32.548
339.93	32.274
340.29	30.840
340.65	33.361
341.02	31.858
341.38	32.512
341.74	33.638
342.11	32.805
342.47	31.747
342.83	33.634
343.20	33.064
343.56	31.692
343.92	33.113
344.28	33.812
344.65	33.822
345.01	32.540
345.37	32.131
345.73	32.302
346.10	32.988
346.46	33.014
346.82	31.867
347.19	31.839
347.55	32.084
347.91	32.553
348.27	33.230
348.63	32.832
349.00	32.369
349.36	32.918
349.72	33.486
350.08	33.618
350.45	33.892
350.81	33.104
351.17	33.051
351.53	31.640
351.89	32.323
352.26	32.200
352.62	33.183
352.98	32.745
353.34	32.820
353.70	32.110
354.07	32.769
354.43	32.873
354.79	33.030
355.15	33.920
355.51	32.402
355.87	32.756
356.24	33.718
356.60	32.040
356.96	32.070
357.32	32.102
357.68	32.819
358.04	33.967
358.40	33.058
358.77	33.509
359.13	32.733
359.49	33.210
359.85	33.284
360.21	32.467
360.57	32.263
360.93	32.756
361.29	32.973
361.66	34.228
362.02	33.026
362.38	33.333
362.74	33.263
363.10	32.048
363.46	32.735
363.82	33.240
364.18	32.575
364.54	33.548
364.90	32.999
365.26	34.282
365.62	33.633
365.98	32.485
366.35	33.103
366.71	32.616
367.07	32.696
367.43	32.304
367.79	33.112
368.15	32.429
368.51	33.287
368.87	32.541
369.23	33.403
369.59	32.367
369.95	33.427
370.31	33.812
370.67	34.212
371.03	33.824
371.39	34.349
371.75	33.357
372.11	33.311
372.47	33.288
372.83	35.078
373.19	34.339
373.55	33.677
373.91	32.390
374.27	33.201
374.63	32.881
374.99	33.895
375.35	33.266
375.71	33.971
376.07	34.019
376.42	32.289
376.78	33.911
377.14	33.683
377.50	33.521
377.86	33.889
378.22	34.491
378.58	33.535
378.94	34.218
379.30	33.899
379.66	34.557
380.02	34.252
380.38	32.436
380.74	33.910
381.09	33.528
381.45	34.277
381.81	33.274
382.17	34.310
382.53	33.533
382.89	33.826
383.25	32.800
383.61	33.372
383.97	32.933
384.32	34.117
384.68	34.641
385.04	34.291
385.40	34.282
385.76	33.879
386.12	33.766
386.48	33.921
386.83	34.963
387.19	33.863
387.55	33.628
387.91	34.180
388.27	34.265
388.62	34.507
388.98	33.936
389.34	32.302
389.70	33.196
390.06	33.720
390.42	33.806
390.77	33.047
391.13	33.615
391.49	32.365
391.85	33.292
392.20	33.969
392.56	33.931
392.92	34.082
393.28	32.231
393.64	33.314
393.99	34.440
394.35	32.607
394.71	32.931
395.07	32.908
395.42	33.138
395.78	33.745
396.14	33.795
396.50	32.852
396.85	33.537
397.21	33.153
397.57	33.533
397.92	31.716
398.28	32.377
398.64	33.566
399.00	31.908
399.35	32.636
399.71	33.223
400.07	33.333
400.42	33.791
400.78	32.727
401.14	32.648
401.49	32.431
401.85	32.793
402.21	31.752
402.57	32.675
402.92	31.758
403.28	32.100
403.63	32.607
403.99	32.147
404.35	32.708
404.70	32.073
405.06	31.050
405.42	31.418
405.77	31.036
406.13	31.345
406.49	31.154
406.84	31.303
407.20	32.249
407.55	32.308
407.91	32.802
408.27	31.534
408.62	31.402
408.98	31.638
409.34	31.210
409.69	30.803
410.05	30.948
410.40	31.920
410.76	31.654
411.11	31.220
411.47	31.111
411.83	30.463
412.18	30.978
412.54	30.871
412.89	30.737
413.25	30.730
413.60	30.607
413.96	30.162
414.31	30.165
414.67	31.782
415.03	30.587
415.38	30.726
415.74	31.522
416.09	30.543
416.45	31.933
416.80	32.393
417.16	30.490
417.51	31.401
417.87	31.289
418.22	31.045
418.58	31.592
418.93	31.231
419.29	30.684
419.64	31.012
420.00	31.384
420.35	31.185
420.71	31.272
421.06	31.783
421.42	31.203
421.77	30.927
422.12	31.202
422.48	30.406
422.83	31.083
423.19	31.425
423.54	30.609
423.90	31.710
424.25	31.370
424.61	30.992
424.96	30.774
425.31	31.199
425.67	32.660
426.02	31.688
426.38	31.214
426.73	33.314
427.09	32.206
427.44	32.696
427.79	31.103
428.15	32.410
428.50	32.000
428.85	32.040
429.21	32.523
429.56	32.154
429.92	32.521
430.27	31.737
430.62	30.788
430.98	32.186
431.33	30.796
431.68	30.914
432.04	31.247
432.39	32.162
432.74	33.782
433.10	32.835
433.45	33.831
433.80	33.646
434.16	32.212
434.51	32.250
434.86	33.315
435.22	32.955
435.57	33.017
435.92	33.125
436.28	33.698
436.63	33.009
436.98	33.671
437.34	33.219
437.69	32.139
438.04	32.742
438.39	33.217
438.75	33.352
439.10	33.028
439.45	33.239
439.81	34.008
440.16	34.012
440.51	32.995
440.86	33.276
441.22	32.955
441.57	32.966
441.92	33.070
442.27	33.299
442.63	32.876
442.98	32.274
443.33	33.262
443.68	34.205
444.03	33.553
444.39	32.957
444.74	33.333
445.09	34.544
445.44	32.465
445.79	33.187
446.15	33.579
446.50	33.755
446.85	32.321
447.20	33.383
447.55	33.061
447.91	34.523
448.26	33.866
448.61	33.610
448.96	33.497
449.31	33.993
449.66	33.887
450.02	33.766
450.37	34.092
450.72	34.050
451.07	34.090
451.42	34.025
451.77	34.307
452.12	33.749
452.47	34.143
452.83	34.423
453.18	34.715
453.53	34.399
453.88	34.743
454.23	34.863
454.58	34.033
454.93	33.722
455.28	34.639
455.63	34.456
455.98	34.292
456.34	35.380
456.69	35.549
457.04	34.248
457.39	33.829
457.74	35.473
458.09	33.015
458.44	34.337
458.79	34.005
459.14	33.933
459.49	33.749
459.84	33.913
460.19	34.746
460.54	33.618
460.89	34.115
461.24	33.276
461.59	35.147
461.94	33.688
462.29	35.183
462.64	34.987
462.99	34.485
463.34	34.867
463.69	35.330
464.04	34.197
464.39	35.260
464.74	33.705
465.09	33.546
465.44	33.841
465.79	33.696
466.14	33.545
466.49	34.183
466.84	33.501
467.19	33.919
467.54	34.535
467.89	35.270
468.24	33.990
468.59	33.810
468.94	34.179
469.29	34.392
469.64	34.791
469.99	34.704
470.34	34.725
470.68	35.034
471.03	35.490
471.38	35.099
471.73	34.618
472.08	35.877
472.43	35.568
472.78	35.211
473.13	34.856
473.48	34.291
473.83	35.041
474.17	35.076
474.52	33.472
474.87	33.599
475.22	34.723
475.57	34.050
475.92	33.572
476.27	34.222
476.61	35.013
476.96	34.169
477.31	35.013
477.66	35.212
478.01	35.121
478.36	34.706
478.70	33.747
479.05	33.996
479.40	33.185
479.75	35.204
480.10	34.947
480.45	33.940
480.79	33.594
481.14	33.571
481.49	33.806
481.84	33.245
482.19	33.843
482.53	35.090
482.88	34.633
483.23	33.739
483.58	34.785
483.92	34.963
484.27	34.289
484.62	35.399
484.97	34.048
485.31	32.822
485.66	32.630
486.01	32.161
486.36	31.164
486.70	30.807
487.05	31.655
487.40	31.410
487.75	31.898
488.09	32.045
488.44	32.951
488.79	32.558
489.13	34.005
489.48	33.959
489.83	33.778
490.17	33.815
490.52	34.367
490.87	34.569
491.22	34.220
491.56	34.607
491.91	34.901
492.26	34.076
492.60	34.852
492.95	34.436
493.30	34.759
493.64	33.513
493.99	34.660
494.34	33.752
494.68	33.732
495.03	34.710
495.37	35.074
495.72	34.592
496.07	34.681
496.41	34.405
496.76	33.685
497.11	34.919
497.45	34.415
497.80	34.476
498.14	33.981
498.49	34.726
498.84	35.093
499.18	33.775
499.53	34.451
499.87	33.962
500.22	34.823
500.56	34.865
500.91	34.740
501.26	34.589
501.60	34.608
501.95	33.065
502.29	34.889
502.64	33.569
502.98	33.837
503.33	34.477
503.67	34.216
504.02	33.856
504.36	34.480
504.71	35.478
505.06	34.491
505.40	34.628
505.75	33.957
506.09	34.904
506.44	34.539
506.78	35.302
507.13	35.385
507.47	35.274
507.82	35.426
508.16	35.767
508.51	35.556
508.85	34.995
509.19	35.438
509.54	34.619
509.88	35.604
510.23	35.343
510.57	33.880
510.92	35.415
511.26	35.090
511.61	34.958
511.95	34.943
512.30	35.450
512.64	35.358
512.98	35.315
513.33	34.477
513.67	35.577
514.02	35.740
514.36	35.151
514.70	35.200
515.05	35.855
515.39	36.075
515.74	36.851
516.08	36.383
516.42	36.230
516.77	35.147
517.11	35.520
517.46	35.991
517.80	35.882
518.14	36.225
518.49	35.281
518.83	34.835
519.17	35.108
519.52	36.483
519.86	36.076
520.20	36.055
520.55	36.179
520.89	37.529
521.23	36.974
521.58	36.431
521.92	36.152
522.26	36.671
522.61	36.661
522.95	37.357
523.29	38.012
523.64	36.647
523.98	37.148
524.32	36.678
524.66	36.348
525.01	36.982
525.35	36.064
525.69	37.809
526.04	36.883
526.38	36.551
526.72	35.919
527.06	36.783
527.41	37.062
527.75	37.432
528.09	36.905
528.43	37.096
528.78	36.374
529.12	37.809
529.46	35.593
529.80	37.091
530.15	37.301
530.49	35.560
530.83	36.929
531.17	37.454
531.51	36.849
531.86	35.205
532.20	35.970
532.54	35.907
532.88	36.665
533.22	35.710
533.57	37.096
533.91	36.538
534.25	35.430
534.59	36.491
534.93	36.121
535.27	34.832
535.62	36.056
535.96	36.288
536.30	36.502
536.64	36.398
536.98	36.060
537.32	37.062
537.66	35.778
538.01	35.480
538.35	36.182
538.69	35.740
539.03	36.567
539.37	35.619
539.71	35.864
540.05	35.692
540.39	36.478
540.73	37.468
541.07	35.069
541.42	36.007
541.76	35.758
542.10	35.573
542.44	35.973
542.78	36.249
543.12	35.828
543.46	35.526
543.80	36.591
544.14	37.090
544.48	36.071
544.82	35.535
545.16	35.216
545.50	37.308
545.84	35.922
546.18	36.801
546.52	37.377
546.86	36.557
547.20	36.047
547.54	36.352
547.88	36.983
548.22	36.430
548.56	35.180
548.90	35.350
549.24	36.513
549.58	35.825
549.92	35.691
550.26	37.187
550.60	35.862
550.94	36.839
551.28	37.517
551.62	37.379
551.96	37.162
552.30	35.333
552.64	36.505
552.98	36.211
553.32	36.236
553.66	36.547
554.00	35.328
554.34	36.285
554.68	36.962
555.02	37.135
555.36	36.835
555.69	36.453
556.03	35.605
556.37	36.329
556.71	37.484
557.05	35.256
557.39	36.600
557.73	36.995
558.07	37.156
558.41	36.532
558.75	37.415
559.08	39.099
559.42	38.082
559.76	38.275
560.10	37.096
560.44	36.430
560.78	36.893
561.12	35.346
561.45	36.608
561.79	36.579
562.13	36.134
562.47	35.821
562.81	37.020
563.15	36.716
563.48	34.969
563.82	36.057
564.16	37.065
564.50	35.684
564.84	35.745
565.17	35.710
565.51	37.131
565.85	36.397
566.19	36.429
566.52	36.101
566.86	36.194
567.20	35.674
567.54	35.262
567.88	36.255
568.21	35.247
568.55	34.679
568.89	35.036
569.23	33.865
569.56	34.505
569.90	33.309
570.24	33.663
570.57	32.998
570.91	32.324
571.25	32.266
571.59	31.951
571.92	31.109
572.26	30.889
572.60	31.713
572.93	32.720
573.27	31.361
573.61	31.240
573.95	31.399
574.28	32.235
574.62	31.928
574.96	30.787
575.29	30.609
575.63	30.836
575.97	30.721
576.30	30.549
576.64	30.601
576.98	30.810
577.31	31.265
577.65	30.862
577.98	30.883
578.32	30.205
578.66	29.996
578.99	30.963
579.33	31.349
579.67	30.464
580.00	30.062
580.34	30.510
580.67	31.141
581.01	31.402
581.35	30.650
581.68	30.127
582.02	30.727
582.35	30.316
582.69	30.855
583.02	30.597
583.36	30.880
583.70	31.104
584.03	31.867
584.37	30.893
584.70	31.252
585.04	30.883
585.37	30.523
585.71	31.416
586.04	30.726
586.38	31.482
586.72	31.840
587.05	31.704
587.39	31.429
587.72	31.325
588.06	31.065
588.39	31.295
588.73	31.790
589.06	32.390
589.40	32.300
589.73	32.350
590.07	33.047
590.40	33.275
590.73	33.272
591.07	34.345
591.40	32.934
591.74	33.198
592.07	32.404
592.41	33.293
592.74	32.992
593.08	31.901
593.41	31.897
593.75	32.152
594.08	32.676
594.41	32.551
594.75	32.329
595.08	32.030
595.42	32.390
595.75	32.215
596.09	32.638
596.42	32.957
596.75	33.814
597.09	33.347
597.42	32.816
597.75	33.550
598.09	32.663
598.42	33.048
598.76	33.076
599.09	33.284
599.42	32.630
599.76	32.564
600.09	32.814
600.42	32.528
600.76	32.087
601.09	32.793
601.42	32.489
601.76	32.223
602.09	33.039
602.42	31.978
602.76	32.979
603.09	32.919
603.42	33.835
603.76	33.478
604.09	32.429
604.42	32.505
604.76	33.188
605.09	33.306
605.42	32.792
605.75	32.689
606.09	33.015
606.42	32.657
606.75	33.424
607.09	32.452
607.42	33.106
607.75	33.559
608.08	33.022
608.42	33.767
608.75	33.333
609.08	33.172
609.41	34.045
609.75	34.432
610.08	32.779
610.41	33.377
610.74	33.766
611.07	33.606
611.41	34.384
611.74	34.943
612.07	34.345
612.40	34.259
612.73	34.398
613.07	34.060
613.40	34.386
613.73	34.498
614.06	33.900
614.39	34.141
614.72	34.756
615.06	33.333
615.39	33.812
615.72	32.962
616.05	34.656
616.38	33.993
616.71	34.617
617.05	33.663
617.38	33.652
617.71	34.871
618.04	35.222
618.37	33.797
618.70	35.046
619.03	35.104
619.36	36.118
619.69	36.214
620.03	35.747
620.36	36.737
620.69	36.973
621.02	36.481
621.35	36.318
621.68	36.652
622.01	37.860
622.34	35.980
622.67	36.166
623.00	36.283
623.33	35.830
623.66	35.729
623.99	36.507
624.32	35.501
624.65	34.826
624.99	36.646
625.32	36.540
625.65	35.586
625.98	36.681
626.31	37.092
626.64	36.143
626.97	35.807
627.30	37.112
627.63	37.991
627.96	37.011
628.29	38.449
628.62	37.810
628.95	37.057
629.28	39.702
629.61	37.346
629.94	38.462
630.26	38.128
630.59	37.855
630.92	37.937
631.25	38.259
631.58	40.405
631.91	39.391
632.24	38.873
632.57	38.998
632.90	41.408
633.23	40.399
633.56	41.728
633.89	40.836
634.22	40.581
634.55	39.462
634.88	40.088
635.20	41.480
635.53	41.812
635.86	39.933
636.19	41.414
636.52	39.351
636.85	37.972
637.18	39.220
637.51	41.117
637.83	40.847
638.16	43.142
638.49	42.275
638.82	42.371
639.15	40.306
639.48	40.521
639.81	41.880
640.13	42.331
640.46	42.984
640.79	42.523
641.12	41.339
641.45	42.173
641.77	41.347
642.10	42.169
642.43	43.528
642.76	43.324
643.09	44.092
643.41	42.637
643.74	42.446
644.07	43.658
644.40	44.675
644.73	44.294
645.05	43.388
645.38	42.113
645.71	43.854
646.04	46.107
646.36	43.975
646.69	42.560
647.02	43.680
647.35	43.307
647.67	45.057
648.00	44.625
648.33	42.256
648.66	43.485
648.98	42.174
649.31	40.621
649.64	40.664
649.96	41.679
650.29	40.143
650.62	43.594
650.94	43.825
651.27	45.455
651.60	44.288
651.92	43.472
652.25	42.677
652.58	40.284
652.90	42.216
653.23	40.030
653.56	42.730
653.88	41.410
654.21	42.522
654.54	40.703
654.86	42.330
655.19	40.501
655.52	35.690
655.84	27.373
656.17	31.172
656.49	44.671
656.82	51.719
657.15	42.106
657.47	31.261
657.80	22.976
658.13	17.890
658.45	24.364
658.78	29.553
659.10	30.316
659.43	30.767
659.75	32.997
660.08	34.085
660.41	37.387
660.73	40.025
661.06	41.441
661.38	43.612
661.71	43.705
662.03	42.966
662.36	42.476
662.68	42.644
663.01	42.523
663.33	42.642
663.66	46.746
663.98	46.429
664.31	44.590
664.63	45.402
664.96	47.280
665.28	43.879
665.61	43.962
665.93	44.717
666.26	44.486
666.58	46.422
666.91	46.332
667.23	46.386
667.56	46.201
667.88	46.058
668.21	43.443
668.53	47.177
668.86	46.894
669.18	43.788
669.50	44.215
669.83	48.255
670.15	42.620
670.48	43.359
670.80	45.618
671.13	44.622
671.45	45.291
671.77	45.640
672.10	44.345
672.42	42.434
672.75	41.930
673.07	42.607
673.39	42.652
673.72	43.772
674.04	42.832
674.37	45.191
674.69	43.309
675.01	43.097
675.34	39.147
675.66	46.094
675.98	43.984
676.31	42.800
676.63	42.942
676.95	44.444
677.28	43.408
677.60	43.662
677.92	43.254
678.25	45.349
678.57	43.575
678.89	42.134
679.22	43.015
679.54	42.527
679.86	43.455
680.18	42.355
680.51	41.128
680.83	39.696
681.15	41.941
681.48	43.576
681.80	41.506
682.12	40.830
682.44	41.441
682.77	41.993
683.09	43.495
683.41	41.837
683.73	43.110
684.06	40.873
684.38	44.186
684.70	41.187
685.02	40.451
685.34	39.965
685.67	40.032
685.99	40.887
686.31	41.140
686.63	38.699
686.96	40.523
687.28	37.081
687.60	39.078
687.92	39.196
688.24	41.207
688.56	39.858
688.89	40.918
689.21	43.545
689.53	43.281
689.85	43.089
690.17	41.359
690.49	41.129
690.82	43.908
691.14	43.636
691.46	40.452
691.78	43.470
692.10	43.511
692.42	40.653
692.74	43.023
693.06	44.574
693.39	41.107
693.71	41.454
694.03	44.576
694.35	43.976
694.67	40.530
694.99	43.016
695.31	45.045
695.63	47.285
695.95	43.213
696.27	44.248
696.59	47.971
696.91	43.038
697.23	42.760
697.56	40.664
697.88	40.519
698.20	40.943
698.52	39.105
698.84	43.532
699.16	40.299
699.48	40.254
699.80	42.702
700.12	46.651
700.44	40.421
700.76	44.630
701.08	46.475
701.40	42.078
701.72	46.524
702.04	46.070
702.36	48.387
702.68	47.606
703.00	45.113
703.32	44.665
703.64	46.851
703.96	43.750
704.28	46.296
704.60	43.944
704.91	44.538
705.23	47.159
705.55	48.071
705.87	46.032
706.19	48.589
706.51	52.038
706.83	50.442
707.15	45.455
707.47	44.310
707.79	40.690
708.11	42.630
708.43	44.270
708.74	42.308
709.06	41.395
709.38	43.921
709.70	42.234
710.02	46.467
710.34	46.133
710.66	44.444
710.98	43.716
711.29	44.011
711.61	48.189
711.93	44.681
712.25	44.277
712.57	48.875
712.89	48.788
713.20	48.882
713.52	44.548
713.84	48.943
714.16	43.768
714.48	40.634
714.80	43.089
715.11	44.947
715.43	42.737
715.75	42.817
716.07	42.197
716.39	43.429
716.70	42.991
717.02	53.535
717.34	52.518
717.66	47.222
717.97	49.621
718.29	50.352
718.61	45.270
718.93	49.481
719.24	41.611
719.56	47.586
719.88	42.038
720.20	46.452
720.51	40.850
720.83	45.485
721.15	46.259
721.46	47.945
721.78	50.523
722.10	48.264
722.42	50.167
722.73	46.570
723.05	48.421
723.37	47.350
723.68	45.703
724.00	52.273
724.32	48.289
724.63	46.923
724.95	47.451
725.27	40.892
725.58	46.324
725.90	43.310
726.22	44.521
726.53	43.144
726.85	45.928
727.16	44.631
727.48	46.512
727.80	50.000
728.11	40.357
728.43	41.667
728.74	47.203
729.06	44.086
729.38	47.368
729.69	47.000
730.01	44.737
730.32	44.295
730.64	46.179
730.96	41.742
731.27	37.920
731.59	42.241
731.90	40.111
732.22	40.000
732.53	39.316
732.85	43.567
733.16	41.265
733.48	44.514
733.80	43.188
734.11	48.466
734.43	40.058
734.74	39.946
735.06	41.534
735.37	42.526
735.69	42.029
736.00	43.119
736.32	39.091
736.63	39.432
736.95	43.478
737.26	39.024
737.58	40.798
737.89	43.072
738.21	42.715
738.52	42.140
738.83	47.619
739.15	40.070
739.46	45.172
739.78	44.218
740.09	39.067
740.41	42.945
740.72	45.079
741.04	44.406
741.35	46.484
741.66	46.245
741.98	47.639
742.29	50.926
742.61	48.673
742.92	44.068
743.23	47.600
743.55	42.642
743.86	45.098
744.18	47.034
744.49	48.347
744.80	53.917
745.12	47.768
745.43	50.000
745.74	47.111
746.06	45.614
746.37	47.907
746.68	53.097
747.00	48.430
747.31	49.160
747.62	42.213
747.94	42.060
748.25	42.023
748.56	45.339
748.88	46.429
749.19	51.628
749.50	45.662
749.82	47.737
750.13	51.779
750.44	39.000
750.75	44.966
751.07	36.842
751.38	43.564
751.69	39.394
752.01	45.455
752.32	39.867
752.63	42.953
752.94	45.455
753.26	44.922
753.57	52.918
753.88	47.566
754.19	45.487
754.51	41.196
754.82	38.255
755.13	43.243
755.44	42.222
755.75	46.048
756.07	42.808
756.38	40.523
756.69	40.000
757.00	43.027
757.31	40.000
757.63	38.017
757.94	38.032
758.25	39.855
758.56	35.011
758.87	40.602
759.18	40.988
759.50	39.514
759.81	40.356
760.12	39.607
760.43	38.655
760.74	38.481
761.05	37.931
761.36	38.802
761.67	36.658
761.99	38.028
762.30	42.444
762.61	40.278
762.92	39.394
763.23	47.170
763.54	40.000
763.85	43.191
764.16	45.139
764.47	39.865
764.78	38.762
765.10	39.634
765.41	34.943
765.72	35.912
766.03	36.858
766.34	40.767
766.65	42.586
766.96	44.939
767.27	48.131
767.58	50.000
767.89	51.381
768.20	54.268
768.51	45.918
768.82	49.561
769.13	41.176
769.44	43.233
769.75	41.199
770.06	44.538
770.37	41.228
770.68	43.111
770.99	47.458
771.30	43.096
771.61	46.154
771.92	43.893
772.23	43.145
772.54	43.556
772.85	50.990
773.16	41.848
773.47	51.111
773.78	46.040
774.09	59.091
774.39	55.152
774.70	49.412
775.01	42.105
775.32	52.174
775.63	52.740
775.94	61.111
776.25	55.862
776.56	61.069
776.87	53.435
777.18	48.485
777.48	62.992
777.79	57.692
778.10	51.515
778.41	62.687
778.72	60.150
779.03	46.154
779.34	53.378
779.65	50.311
779.95	55.901
780.26	50.595
780.57	64.626
780.88	55.319
781.19	59.167
781.50	55.030
781.80	45.902
782.11	39.153
782.42	42.529
782.73	46.328
783.04	51.613
783.34	54.264
783.65	49.660
783.96	47.097
784.27	48.344
784.57	48.684
784.88	52.174
785.19	55.833
785.50	60.345
785.81	58.140
786.11	48.148
786.42	53.543
786.73	61.261
787.04	63.208
787.34	56.098
787.65	50.000
787.96	56.061
788.26	57.480
788.57	52.555
788.88	50.000
789.19	57.252
789.49	50.676
789.80	59.375
790.11	52.893
790.41	60.185
790.72	59.259
791.03	63.462
791.33	65.657
791.64	67.368
791.95	57.895
792.25	61.458
792.56	62.000
792.87	78.049
793.17	59.091
793.48	76.471
793.79	66.667
794.09	67.045
794.40	58.621
794.70	51.587
795.01	53.846
795.32	47.328
795.62	46.154
795.93	57.983
796.23	53.659
796.54	69.388
796.85	70.455
797.15	85.714
797.46	62.195
797.76	61.250
798.07	76.000
798.37	68.750
798.68	76.250
798.99	91.463
799.29	65.333
799.60	68.605
799.90	75.000
800.21	80.303
800.51	69.014
800.82	87.931
801.12	90.769
801.43	76.000
801.73	74.138
802.04	61.039
802.34	87.671
802.65	82.353
802.95	106.522
803.26	82.258
803.56	106.667
803.87	85.075
804.17	93.651
804.48	96.226
804.78	65.278
805.09	77.273
805.39	74.603
805.70	84.211
806.00	71.429
806.30	73.437
806.61	62.353
806.91	63.333
807.22	64.130
807.52	67.105
807.83	82.895
808.13	85.507
808.43	90.323
808.74	76.712
809.04	83.929
809.35	80.882
809.65	75.758
809.95	105.882
810.26	112.963
810.56	95.312
810.86	97.959
811.17	82.456
811.47	86.957
811.77	89.655
812.08	84.483
812.38	100.000
812.69	116.667
812.99	91.111
813.29	134.286
813.59	125.806
813.90	82.759
814.20	83.607
814.50	66.000
814.81	75.439
815.11	107.407
815.41	100.000
815.72	91.071
816.02	102.000
816.32	136.585
816.62	112.069
816.93	136.364
817.23	119.512
817.53	85.714
817.84	100.000
818.14	104.762
818.44	79.167
818.74	111.321
819.04	89.744
819.35	151.515
819.65	117.308
819.95	103.704
820.25	100.000
820.56	110.811
820.86	123.684
821.16	63.830
821.46	128.947
821.76	103.636
822.07	90.476
822.37	86.842
822.67	109.302
822.97	86.842
823.27	106.522
823.57	140.625
823.88	112.821
824.18	118.182
824.48	186.957
824.78	119.444
825.08	139.130
825.38	165.517
825.69	97.059
825.99	89.362
826.29	113.889
826.59	120.000
826.89	140.000
827.19	100.000
827.49	164.516
827.79	180.769
828.09	100.000
828.39	116.667
828.70	108.108
829.00	203.571
829.30	187.500
829.60	116.667
829.90	119.355
830.20	93.939
830.50	143.243
830.80	200.000
831.10	180.769
831.40	147.619
831.70	195.833
832.00	123.333
832.30	156.522
832.60	166.667
832.90	142.424
833.20	200.000
833.50	121.053
833.80	117.647
834.10	121.053
834.40	126.316
834.70	126.667
835.00	160.000
835.30	105.405
835.60	187.500
835.90	140.541
836.20	169.231
836.50	118.182
836.80	109.756
837.10	147.826
837.40	292.308
837.70	131.579
838.00	146.667
838.30	175.000
838.60	152.000
838.90	270.000
839.19	200.000
839.49	126.667
839.79	106.897
840.09	188.462
840.39	213.333
840.69	121.053
840.99	109.524
841.29	143.478
841.59	210.000
841.88	192.000
842.18	311.111
842.48	153.571
842.78	166.667
843.08	238.462
843.38	163.636
843.68	250.000
843.97	442.857
844.27	160.870
844.57	1600.000
844.87	285.714
845.17	227.778
845.47	119.048
845.76	195.833
846.06	457.143
846.36	205.882
846.66	284.615
846.96	200.000
847.25	200.000
847.55	226.316
847.85	150.000
848.15	520.000
848.44	245.455
848.74	166.667
849.04	145.833
849.34	170.588
849.63	231.250
849.93	275.000
850.23	1200.000
850.53	525.000
850.82	409.091
851.12	217.647
851.42	187.500
851.71	243.750
852.01	0.000
852.31	152.941
852.61	310.000
852.90	150.000
853.20	222.222
853.50	-1300.000
853.79	152.000
854.09	156.250
854.39	110.345
854.68	148.276
854.98	171.429
855.28	119.355
855.57	257.143
855.87	183.333
856.17	159.259
856.46	205.263
856.76	138.710
857.05	252.941
857.35	227.273
857.65	215.385
857.94	225.000
858.24	422.222
858.53	264.286
858.83	514.286
859.13	243.478
859.42	311.111
859.72	412.500
860.01	216.667
860.31	825.000
860.60	300.000
860.90	450.000
861.20	238.462
861.49	471.429
861.79	-3500.000
862.08	514.286
862.38	388.889
862.67	242.857
862.97	340.000
863.26	160.000
863.56	675.000
863.85	300.000
864.15	247.059
864.44	211.111
864.74	391.667
865.03	318.182
865.33	400.000
865.62	240.000
865.92	566.667
866.21	725.000
866.51	740.000
866.80	261.111
867.10	566.667
867.39	2900.000
867.69	720.000
867.98	1100.000
868.27	190.476
868.57	280.000
868.86	925.000
869.16	128.571
869.45	3100.000
869.75	-483.333
870.04	900.000
870.33	640.000
870.63	375.000
870.92	229.412
871.22	725.000
871.51	342.857
871.80	316.667
872.10	292.308
>>>>>End Processed Spectral Data<<<<<
