SpectraSuite Data File
++++++++++++++++++++++++++++++++++++
Date: Tue May 12 15:19:53 PDT 2015
User: schluterlab
Dark Spectrum Present: Yes
Reference Spectrum Present: Yes
Number of Sampled Component Spectra: 1
Spectrometers: USB2E3373
Integration Time (usec): 3000 (USB2E3373)
Spectra Averaged: 3 (USB2E3373)
Boxcar Smoothing: 0 (USB2E3373)
Correct for Electrical Dark: No (USB2E3373)
Strobe/Lamp Enabled: No (USB2E3373)
Correct for Detector Non-linearity: No (USB2E3373)
Correct for Stray Light: No (USB2E3373)
Number of Pixels in Processed Spectrum: 2048
>>>>>Begin Processed Spectral Data<<<<<
178.53	0.000
178.91	-316.667
179.29	-450.000
179.67	-2900.000
180.04	-46.667
180.42	375.000
180.80	1200.000
181.18	0.000
181.56	-287.500
181.94	0.000
182.31	833.333
182.69	-2700.000
183.07	585.714
183.45	-3400.000
183.83	-1800.000
184.20	420.000
184.58	557.143
184.96	-261.538
185.34	-216.667
185.72	1650.000
186.09	-675.000
186.47	-2900.000
186.85	933.333
187.23	700.000
187.61	1750.000
187.98	337.500
188.36	264.286
188.74	366.667
189.12	283.333
189.49	750.000
189.87	0.000
190.25	425.000
190.63	1700.000
191.00	-200.000
191.38	-3300.000
191.76	-675.000
192.14	725.000
192.51	-2600.000
192.89	1750.000
193.27	1200.000
193.65	-733.333
194.02	-520.000
194.40	471.429
194.78	-264.286
195.15	226.667
195.53	-2500.000
195.91	-580.000
196.29	4300.000
196.66	193.750
197.04	775.000
197.42	-750.000
197.79	400.000
198.17	291.667
198.55	0.000
198.92	471.429
199.30	1066.667
199.68	1450.000
200.05	633.333
200.43	-333.333
200.81	227.778
201.18	3500.000
201.56	216.667
201.94	-700.000
202.31	-412.500
202.69	-520.000
203.07	3300.000
203.44	-450.000
203.82	300.000
204.19	660.000
204.57	-1500.000
204.95	-650.000
205.32	-620.000
205.70	433.333
206.08	725.000
206.45	-933.333
206.83	288.889
207.20	173.684
207.58	275.000
207.96	780.000
208.33	0.000
208.71	514.286
209.08	640.000
209.46	-3500.000
209.84	-600.000
210.21	840.000
210.59	-520.000
210.96	200.000
211.34	-850.000
211.71	300.000
212.09	675.000
212.46	1550.000
212.84	-533.333
213.22	411.111
213.59	-3400.000
213.97	360.000
214.34	1050.000
214.72	1366.667
215.09	866.667
215.47	-3600.000
215.84	-310.000
216.22	-337.500
216.59	0.000
216.97	0.000
217.34	950.000
217.72	-1250.000
218.09	866.667
218.47	387.500
218.84	800.000
219.22	1066.667
219.59	833.333
219.97	485.714
220.34	400.000
220.72	1350.000
221.09	2500.000
221.47	350.000
221.84	1100.000
222.22	430.000
222.59	238.889
222.97	242.857
223.34	250.000
223.72	-1600.000
224.09	1033.333
224.46	369.231
224.84	-750.000
225.21	366.667
225.59	320.000
225.96	1233.333
226.34	-640.000
226.71	-600.000
227.08	-720.000
227.46	0.000
227.83	-583.333
228.21	-1750.000
228.58	408.333
228.95	825.000
229.33	277.778
229.70	875.000
230.08	330.769
230.45	3400.000
230.82	-775.000
231.20	-866.667
231.57	-1066.667
231.95	740.000
232.32	266.667
232.69	600.000
233.07	233.333
233.44	-1200.000
233.81	280.000
234.19	144.444
234.56	206.250
234.93	170.588
235.31	175.000
235.68	250.000
236.05	167.857
236.43	151.852
236.80	264.286
237.17	151.724
237.55	159.375
237.92	125.000
238.29	166.667
238.67	153.125
239.04	112.195
239.41	95.833
239.79	92.500
240.16	97.917
240.53	86.885
240.91	86.957
241.28	81.356
241.65	83.333
242.02	74.648
242.40	88.571
242.77	65.934
243.14	73.418
243.51	73.737
243.89	71.028
244.26	65.421
244.63	65.347
245.00	61.468
245.38	60.169
245.75	64.394
246.12	65.185
246.49	63.830
246.87	51.639
247.24	68.667
247.61	61.250
247.98	60.544
248.36	58.788
248.73	55.612
249.10	52.381
249.47	62.000
249.84	51.244
250.22	62.703
250.59	55.000
250.96	51.055
251.33	51.628
251.70	50.893
252.08	52.521
252.45	48.606
252.82	49.810
253.19	51.779
253.56	51.538
253.94	46.014
254.31	48.450
254.68	53.310
255.05	52.414
255.42	54.380
255.79	53.746
256.16	48.814
256.54	46.429
256.91	48.366
257.28	47.826
257.65	42.947
258.02	48.673
258.39	48.424
258.76	48.986
259.14	45.714
259.51	50.729
259.88	51.064
260.25	45.879
260.62	48.767
260.99	47.107
261.36	45.404
261.73	44.149
262.10	45.288
262.47	44.500
262.85	44.000
263.22	50.129
263.59	44.246
263.96	48.872
264.33	45.679
264.70	45.209
265.07	43.902
265.44	45.413
265.81	45.991
266.18	48.513
266.55	48.463
266.92	43.624
267.29	46.711
267.66	45.516
268.03	45.291
268.40	46.723
268.77	44.934
269.14	41.866
269.51	44.543
269.88	46.939
270.25	41.901
270.62	45.923
270.99	44.219
271.36	45.528
271.73	45.493
272.10	44.242
272.47	43.651
272.84	42.914
273.21	42.149
273.58	43.117
273.95	45.380
274.32	43.774
274.69	45.472
275.06	43.716
275.43	44.444
275.80	44.528
276.17	43.934
276.54	43.738
276.91	45.896
277.28	42.701
277.65	44.649
278.02	43.199
278.39	43.705
278.76	41.034
279.13	42.705
279.50	41.273
279.87	39.851
280.23	41.436
280.60	42.701
280.97	42.586
281.34	41.749
281.71	41.565
282.08	42.735
282.45	42.905
282.82	41.806
283.19	41.017
283.56	40.661
283.92	42.997
284.29	38.602
284.66	39.496
285.03	41.294
285.40	41.983
285.77	38.272
286.14	41.176
286.51	40.184
286.87	37.816
287.24	38.589
287.61	39.970
287.98	37.463
288.35	39.852
288.72	38.998
289.08	39.039
289.45	39.024
289.82	38.906
290.19	37.775
290.56	38.865
290.93	36.835
291.29	36.326
291.66	37.006
292.03	37.307
292.40	36.179
292.77	34.680
293.13	35.093
293.50	34.818
293.87	33.875
294.24	36.503
294.60	36.474
294.97	36.084
295.34	34.396
295.71	35.085
296.08	34.000
296.44	34.689
296.81	33.499
297.18	32.446
297.55	35.099
297.91	30.911
298.28	33.213
298.65	32.638
299.02	32.328
299.38	32.494
299.75	30.854
300.12	31.651
300.48	34.192
300.85	32.181
301.22	29.651
301.59	30.071
301.95	31.389
302.32	32.130
302.69	31.674
303.05	32.323
303.42	30.269
303.79	32.069
304.15	30.363
304.52	30.021
304.89	31.023
305.25	30.812
305.62	30.704
305.99	29.565
306.35	29.895
306.72	28.928
307.09	28.778
307.45	29.356
307.82	29.527
308.19	28.763
308.55	28.000
308.92	29.833
309.29	28.895
309.65	29.832
310.02	29.310
310.38	29.811
310.75	28.833
311.12	28.352
311.48	29.633
311.85	29.008
312.22	28.367
312.58	28.571
312.95	29.515
313.31	28.558
313.68	27.861
314.05	29.396
314.41	27.374
314.78	28.220
315.14	27.109
315.51	28.477
315.87	27.190
316.24	27.824
316.61	27.395
316.97	27.982
317.34	28.302
317.70	28.095
318.07	29.448
318.43	28.207
318.80	27.846
319.16	27.622
319.53	26.549
319.89	26.971
320.26	27.933
320.62	29.121
320.99	27.645
321.35	27.644
321.72	27.040
322.08	27.886
322.45	26.612
322.81	27.173
323.18	27.353
323.54	27.787
323.91	27.199
324.27	26.790
324.64	25.087
325.00	26.638
325.37	26.813
325.73	25.211
326.10	27.341
326.46	25.434
326.83	26.400
327.19	26.586
327.56	26.518
327.92	25.902
328.29	27.987
328.65	28.339
329.01	26.604
329.38	26.227
329.74	24.936
330.11	25.977
330.47	27.280
330.84	25.712
331.20	25.465
331.56	27.547
331.93	26.176
332.29	25.850
332.66	27.296
333.02	25.859
333.38	26.614
333.75	25.771
334.11	25.168
334.48	26.410
334.84	26.182
335.20	26.005
335.57	24.685
335.93	25.484
336.29	24.876
336.66	26.415
337.02	25.663
337.38	25.709
337.75	24.831
338.11	26.835
338.47	25.826
338.84	25.233
339.20	24.675
339.56	24.811
339.93	26.087
340.29	24.118
340.65	25.985
341.02	26.307
341.38	24.713
341.74	25.000
342.11	24.541
342.47	25.759
342.83	25.021
343.20	25.707
343.56	23.670
343.92	24.938
344.28	24.163
344.65	23.798
345.01	24.603
345.37	23.878
345.73	25.159
346.10	23.586
346.46	24.880
346.82	24.151
347.19	25.116
347.55	23.653
347.91	24.471
348.27	23.548
348.63	24.367
349.00	23.077
349.36	24.591
349.72	24.083
350.08	24.379
350.45	24.600
350.81	24.159
351.17	23.035
351.53	23.865
351.89	24.242
352.26	24.868
352.62	23.605
352.98	24.387
353.34	24.345
353.70	23.777
354.07	25.308
354.43	23.656
354.79	23.083
355.15	24.962
355.51	23.187
355.87	24.021
356.24	23.403
356.60	22.222
356.96	22.820
357.32	24.039
357.68	23.568
358.04	23.632
358.40	25.637
358.77	23.516
359.13	23.273
359.49	23.499
359.85	22.636
360.21	22.511
360.57	22.628
360.93	23.232
361.29	23.882
361.66	23.937
362.02	21.662
362.38	22.439
362.74	23.850
363.10	23.492
363.46	22.376
363.82	22.511
364.18	23.898
364.54	22.961
364.90	23.092
365.26	22.693
365.62	22.445
365.98	22.918
366.35	22.138
366.71	23.387
367.07	23.003
367.43	23.976
367.79	23.604
368.15	21.370
368.51	22.192
368.87	21.875
369.23	22.523
369.59	22.589
369.95	23.077
370.31	22.313
370.67	22.484
371.03	22.619
371.39	22.507
371.75	22.401
372.11	22.774
372.47	22.123
372.83	22.910
373.19	22.550
373.55	22.268
373.91	21.340
374.27	21.230
374.63	22.034
374.99	22.237
375.35	22.177
375.71	23.021
376.07	22.679
376.42	21.355
376.78	23.378
377.14	22.608
377.50	22.409
377.86	22.101
378.22	21.816
378.58	22.881
378.94	22.148
379.30	21.528
379.66	21.794
380.02	22.170
380.38	21.838
380.74	23.126
381.09	22.313
381.45	21.618
381.81	21.099
382.17	21.978
382.53	22.016
382.89	21.526
383.25	20.782
383.61	22.133
383.97	21.296
384.32	22.001
384.68	22.222
385.04	20.926
385.40	22.301
385.76	21.358
386.12	21.954
386.48	21.884
386.83	22.372
387.19	22.144
387.55	21.908
387.91	22.402
388.27	22.249
388.62	21.831
388.98	20.991
389.34	21.118
389.70	20.814
390.06	22.012
390.42	22.394
390.77	21.437
391.13	22.692
391.49	20.992
391.85	21.785
392.20	21.573
392.56	21.804
392.92	20.382
393.28	21.469
393.64	21.560
393.99	21.221
394.35	21.836
394.71	21.532
395.07	21.290
395.42	21.546
395.78	22.579
396.14	22.530
396.50	21.300
396.85	21.646
397.21	21.661
397.57	21.160
397.92	20.335
398.28	20.960
398.64	22.455
399.00	20.631
399.35	20.612
399.71	21.413
400.07	20.947
400.42	21.612
400.78	21.232
401.14	21.198
401.49	21.313
401.85	21.031
402.21	20.972
402.57	21.484
402.92	20.485
403.28	19.988
403.63	20.541
403.99	21.773
404.35	21.747
404.70	21.559
405.06	20.887
405.42	21.305
405.77	20.507
406.13	20.824
406.49	21.376
406.84	20.699
407.20	21.176
407.55	21.046
407.91	21.378
408.27	21.831
408.62	21.348
408.98	21.467
409.34	21.040
409.69	21.842
410.05	20.871
410.40	20.789
410.76	19.977
411.11	21.268
411.47	20.123
411.83	20.387
412.18	19.988
412.54	21.081
412.89	20.472
413.25	21.323
413.60	20.444
413.96	20.826
414.31	20.602
414.67	21.601
415.03	20.945
415.38	21.009
415.74	20.657
416.09	21.299
416.45	21.784
416.80	21.809
417.16	21.833
417.51	20.637
417.87	20.776
418.22	21.689
418.58	20.446
418.93	20.405
419.29	19.901
419.64	21.018
420.00	21.241
420.35	20.441
420.71	20.420
421.06	20.777
421.42	20.956
421.77	20.267
422.12	20.838
422.48	20.288
422.83	20.033
423.19	19.870
423.54	20.461
423.90	21.008
424.25	20.859
424.61	20.371
424.96	21.118
425.31	20.963
425.67	20.707
426.02	20.864
426.38	20.128
426.73	21.284
427.09	20.463
427.44	19.696
427.79	20.640
428.15	21.803
428.50	20.914
428.85	20.635
429.21	20.583
429.56	20.339
429.92	20.189
430.27	20.271
430.62	20.166
430.98	20.110
431.33	19.708
431.68	19.802
432.04	20.383
432.39	21.131
432.74	21.194
433.10	20.709
433.45	21.137
433.80	21.677
434.16	20.441
434.51	19.763
434.86	20.631
435.22	20.367
435.57	19.976
435.92	20.888
436.28	20.680
436.63	20.637
436.98	20.045
437.34	20.719
437.69	20.381
438.04	20.968
438.39	19.965
438.75	20.379
439.10	20.669
439.45	20.350
439.81	20.532
440.16	20.583
440.51	20.664
440.86	21.311
441.22	20.022
441.57	20.367
441.92	19.793
442.27	20.619
442.63	20.427
442.98	20.797
443.33	20.246
443.68	20.272
444.03	19.604
444.39	20.433
444.74	19.410
445.09	20.748
445.44	20.776
445.79	19.932
446.15	20.579
446.50	19.937
446.85	20.667
447.20	20.348
447.55	20.174
447.91	20.991
448.26	20.288
448.61	20.398
448.96	20.806
449.31	20.242
449.66	20.377
450.02	19.989
450.37	19.822
450.72	20.441
451.07	21.175
451.42	19.858
451.77	20.332
452.12	21.100
452.47	20.595
452.83	20.563
453.18	21.021
453.53	20.841
453.88	20.571
454.23	20.453
454.58	20.163
454.93	19.988
455.28	20.747
455.63	20.508
455.98	20.417
456.34	21.216
456.69	20.183
457.04	20.764
457.39	20.629
457.74	21.509
458.09	19.933
458.44	20.263
458.79	20.265
459.14	20.185
459.49	20.668
459.84	20.815
460.19	20.282
460.54	21.481
460.89	20.469
461.24	19.931
461.59	21.825
461.94	20.213
462.29	20.538
462.64	20.477
462.99	20.218
463.34	21.063
463.69	21.476
464.04	20.380
464.39	20.607
464.74	19.988
465.09	20.546
465.44	19.967
465.79	19.924
466.14	20.456
466.49	19.696
466.84	20.624
467.19	20.328
467.54	20.360
467.89	20.305
468.24	20.208
468.59	20.536
468.94	21.135
469.29	20.525
469.64	20.707
469.99	19.987
470.34	20.367
470.68	20.138
471.03	20.080
471.38	20.530
471.73	20.705
472.08	20.352
472.43	20.795
472.78	20.166
473.13	19.900
473.48	20.355
473.83	20.789
474.17	20.243
474.52	20.083
474.87	19.386
475.22	20.046
475.57	19.990
475.92	20.031
476.27	19.695
476.61	20.214
476.96	20.167
477.31	19.949
477.66	19.646
478.01	20.113
478.36	20.082
478.70	19.653
479.05	19.874
479.40	19.593
479.75	20.357
480.10	19.942
480.45	19.655
480.79	20.415
481.14	19.591
481.49	18.847
481.84	19.877
482.19	19.563
482.53	19.807
482.88	19.400
483.23	19.441
483.58	19.973
483.92	20.430
484.27	20.462
484.62	19.440
484.97	19.712
485.31	19.254
485.66	19.663
486.01	19.048
486.36	18.782
486.70	18.757
487.05	18.538
487.40	18.708
487.75	18.932
488.09	19.148
488.44	19.089
488.79	19.021
489.13	19.522
489.48	19.616
489.83	19.141
490.17	18.869
490.52	18.777
490.87	19.353
491.22	19.459
491.56	19.060
491.91	19.310
492.26	19.510
492.60	19.362
492.95	19.483
493.30	19.154
493.64	19.901
493.99	19.767
494.34	19.901
494.68	19.079
495.03	19.578
495.37	20.036
495.72	19.534
496.07	20.036
496.41	19.765
496.76	18.995
497.11	19.837
497.45	19.553
497.80	19.648
498.14	19.649
498.49	19.499
498.84	20.374
499.18	19.104
499.53	19.430
499.87	19.407
500.22	20.129
500.56	19.684
500.91	20.686
501.26	19.476
501.60	19.718
501.95	19.086
502.29	20.089
502.64	19.144
502.98	19.342
503.33	19.376
503.67	19.779
504.02	18.988
504.36	19.186
504.71	18.921
505.06	19.193
505.40	19.186
505.75	19.691
506.09	19.972
506.44	19.502
506.78	20.038
507.13	19.583
507.47	19.214
507.82	19.124
508.16	19.941
508.51	19.952
508.85	19.468
509.19	19.971
509.54	19.678
509.88	20.139
510.23	19.755
510.57	18.195
510.92	20.230
511.26	20.432
511.61	19.744
511.95	19.562
512.30	19.400
512.64	18.640
512.98	19.375
513.33	20.287
513.67	19.990
514.02	19.532
514.36	18.847
514.70	20.267
515.05	19.606
515.39	19.682
515.74	19.956
516.08	19.935
516.42	20.328
516.77	19.840
517.11	19.467
517.46	19.397
517.80	19.224
518.14	19.324
518.49	19.570
518.83	19.176
519.17	20.410
519.52	20.317
519.86	19.728
520.20	19.945
520.55	19.955
520.89	19.138
521.23	19.918
521.58	19.449
521.92	19.475
522.26	19.550
522.61	19.964
522.95	19.640
523.29	19.708
523.64	19.422
523.98	20.246
524.32	19.319
524.66	19.594
525.01	19.586
525.35	19.918
525.69	20.169
526.04	19.869
526.38	20.188
526.72	19.809
527.06	19.870
527.41	20.738
527.75	19.781
528.09	19.085
528.43	20.561
528.78	20.692
529.12	20.108
529.46	20.339
529.80	19.276
530.15	19.446
530.49	19.735
530.83	20.293
531.17	18.881
531.51	19.068
531.86	19.807
532.20	20.148
532.54	20.339
532.88	19.363
533.22	20.353
533.57	19.951
533.91	19.406
534.25	19.504
534.59	19.825
534.93	19.625
535.27	19.636
535.62	19.720
535.96	18.676
536.30	20.719
536.64	19.876
536.98	18.817
537.32	20.000
537.66	19.260
538.01	19.690
538.35	20.337
538.69	18.568
539.03	19.465
539.37	19.357
539.71	19.753
540.05	18.769
540.39	20.000
540.73	19.241
541.07	18.632
541.42	19.776
541.76	20.160
542.10	19.667
542.44	20.137
542.78	18.943
543.12	19.448
543.46	18.860
543.80	19.298
544.14	19.628
544.48	20.255
544.82	19.633
545.16	19.004
545.50	19.791
545.84	20.328
546.18	19.766
546.52	20.066
546.86	19.665
547.20	19.380
547.54	19.759
547.88	19.039
548.22	19.490
548.56	19.446
548.90	19.395
549.24	18.762
549.58	18.235
549.92	19.581
550.26	20.284
550.60	18.629
550.94	20.556
551.28	20.345
551.62	20.690
551.96	19.459
552.30	18.721
552.64	20.065
552.98	18.750
553.32	18.758
553.66	19.218
554.00	18.533
554.34	20.373
554.68	19.489
555.02	19.823
555.36	19.215
555.69	20.223
556.03	19.427
556.37	19.758
556.71	20.339
557.05	18.152
557.39	18.800
557.73	19.744
558.07	20.456
558.41	20.631
558.75	19.152
559.08	19.728
559.42	19.470
559.76	19.387
560.10	19.202
560.44	19.376
560.78	20.077
561.12	20.089
561.45	19.837
561.79	19.351
562.13	18.509
562.47	19.468
562.81	19.844
563.15	20.168
563.48	19.006
563.82	20.150
564.16	19.154
564.50	19.289
564.84	19.574
565.17	18.895
565.51	19.273
565.85	20.358
566.19	18.929
566.52	19.073
566.86	19.731
567.20	19.888
567.54	18.941
567.88	19.405
568.21	19.621
568.55	19.358
568.89	19.343
569.23	19.198
569.56	19.888
569.90	18.829
570.24	18.876
570.57	19.338
570.91	19.407
571.25	18.505
571.59	18.528
571.92	18.515
572.26	18.194
572.60	17.745
572.93	18.631
573.27	18.725
573.61	17.948
573.95	18.949
574.28	18.880
574.62	18.328
574.96	18.558
575.29	18.542
575.63	18.469
575.97	18.549
576.30	18.400
576.64	18.390
576.98	18.458
577.31	18.656
577.65	18.388
577.98	18.299
578.32	18.341
578.66	18.293
578.99	18.565
579.33	18.426
579.67	18.001
580.00	18.184
580.34	18.395
580.67	18.300
581.01	18.740
581.35	18.744
581.68	18.228
582.02	18.389
582.35	18.036
582.69	18.266
583.02	18.267
583.36	17.971
583.70	18.561
584.03	18.916
584.37	18.728
584.70	18.288
585.04	18.511
585.37	18.237
585.71	18.584
586.04	18.065
586.38	18.386
586.72	18.584
587.05	18.785
587.39	18.609
587.72	18.492
588.06	18.053
588.39	18.296
588.73	18.551
589.06	18.734
589.40	18.873
589.73	18.584
590.07	18.737
590.40	18.990
590.73	19.758
591.07	19.431
591.40	19.002
591.74	18.588
592.07	18.136
592.41	19.305
592.74	18.784
593.08	18.652
593.41	18.193
593.75	18.565
594.08	18.848
594.41	17.986
594.75	18.938
595.08	18.381
595.42	18.960
595.75	18.855
596.09	18.874
596.42	18.609
596.75	19.511
597.09	19.067
597.42	18.735
597.75	18.905
598.09	18.794
598.42	18.849
598.76	19.005
599.09	19.161
599.42	18.616
599.76	18.928
600.09	18.712
600.42	19.130
600.76	18.729
601.09	18.433
601.42	19.043
601.76	18.869
602.09	18.911
602.42	18.447
602.76	18.786
603.09	19.080
603.42	19.229
603.76	18.474
604.09	18.458
604.42	18.606
604.76	19.083
605.09	18.694
605.42	18.935
605.75	18.989
606.09	18.745
606.42	18.828
606.75	19.238
607.09	18.279
607.42	18.080
607.75	18.989
608.08	18.562
608.42	19.379
608.75	18.442
609.08	18.962
609.41	19.227
609.75	18.956
610.08	18.570
610.41	18.972
610.74	18.961
611.07	19.372
611.41	19.462
611.74	19.168
612.07	18.931
612.40	19.152
612.73	19.571
613.07	19.311
613.40	19.799
613.73	19.371
614.06	18.050
614.39	19.394
614.72	19.086
615.06	18.744
615.39	18.713
615.72	19.119
616.05	19.136
616.38	18.924
616.71	18.448
617.05	18.726
617.38	18.652
617.71	19.123
618.04	19.462
618.37	19.122
618.70	18.129
619.03	19.414
619.36	19.786
619.69	18.931
620.03	20.091
620.36	19.974
620.69	20.498
621.02	19.769
621.35	19.484
621.68	18.658
622.01	19.557
622.34	19.228
622.67	19.101
623.00	19.197
623.33	19.906
623.66	19.095
623.99	19.863
624.32	19.512
624.65	19.487
624.99	20.352
625.32	20.574
625.65	18.138
625.98	18.619
626.31	19.955
626.64	18.603
626.97	18.898
627.30	19.177
627.63	19.466
627.96	18.623
628.29	19.472
628.62	19.504
628.95	20.124
629.28	20.333
629.61	19.244
629.94	19.015
630.26	21.057
630.59	20.479
630.92	19.103
631.25	20.580
631.58	19.865
631.91	19.029
632.24	19.048
632.57	17.976
632.90	21.429
633.23	20.252
633.56	19.810
633.89	20.150
634.22	20.883
634.55	19.677
634.88	21.030
635.20	20.964
635.53	19.396
635.86	20.134
636.19	20.651
636.52	19.027
636.85	20.388
637.18	22.210
637.51	20.447
637.83	19.565
638.16	21.454
638.49	22.156
638.82	20.540
639.15	19.036
639.48	22.156
639.81	21.123
640.13	19.877
640.46	21.618
640.79	22.237
641.12	19.816
641.45	21.992
641.77	21.797
642.10	22.088
642.43	22.617
642.76	20.170
643.09	20.461
643.41	21.178
643.74	22.302
644.07	22.419
644.40	21.598
644.73	22.673
645.05	20.802
645.38	23.124
645.71	21.093
646.04	23.664
646.36	22.066
646.69	20.000
647.02	21.600
647.35	20.315
647.67	24.473
648.00	21.498
648.33	21.654
648.66	22.273
648.98	22.464
649.31	20.108
649.64	20.470
649.96	19.061
650.29	20.286
650.62	24.448
650.94	21.687
651.27	21.850
651.60	21.283
651.92	20.737
652.25	23.150
652.58	20.851
652.90	21.108
653.23	20.975
653.56	22.700
653.88	21.586
654.21	22.727
654.54	21.083
654.86	20.354
655.19	21.240
655.52	19.591
655.84	16.792
656.17	19.511
656.49	28.836
656.82	32.954
657.15	26.215
657.47	19.376
657.80	14.420
658.13	11.036
658.45	15.334
658.78	18.567
659.10	19.060
659.43	19.628
659.75	20.333
660.08	21.742
660.41	21.869
660.73	22.083
661.06	21.922
661.38	20.954
661.71	21.043
662.03	20.913
662.36	22.095
662.68	22.719
663.01	22.523
663.33	22.264
663.66	22.091
663.98	24.405
664.31	24.627
664.63	23.372
664.96	21.576
665.28	22.034
665.61	21.698
665.93	22.453
666.26	22.430
666.58	23.486
666.91	21.815
667.23	22.892
667.56	23.203
667.88	23.651
668.21	22.131
668.53	22.581
668.86	25.050
669.18	22.607
669.50	20.455
669.83	23.819
670.15	23.493
670.48	22.656
670.80	23.506
671.13	21.514
671.45	25.050
671.77	22.263
672.10	22.083
672.42	23.026
672.75	22.785
673.07	23.688
673.39	22.684
673.72	21.626
674.04	21.505
674.37	21.416
674.69	22.677
675.01	22.948
675.34	21.318
675.66	24.609
675.98	22.485
676.31	21.400
676.63	21.471
676.95	24.405
677.28	22.515
677.60	20.926
677.92	21.627
678.25	21.899
678.57	21.788
678.89	21.700
679.22	22.610
679.54	22.598
679.86	23.386
680.18	22.847
680.51	19.900
680.83	20.101
681.15	22.357
681.48	23.090
681.80	21.191
682.12	24.567
682.44	21.982
682.77	22.420
683.09	22.718
683.41	20.816
683.73	24.213
684.06	21.032
684.38	25.775
684.70	21.223
685.02	20.833
685.34	22.007
685.67	22.186
685.99	20.361
686.31	21.572
686.63	22.114
686.96	21.569
687.28	23.826
687.60	19.966
687.92	21.441
688.24	25.345
688.56	20.641
688.89	19.885
689.21	24.470
689.53	24.704
689.85	21.341
690.17	21.942
690.49	23.589
690.82	21.849
691.14	26.869
691.46	22.587
691.78	23.392
692.10	22.710
692.42	21.053
692.74	23.643
693.06	22.093
693.39	21.542
693.71	22.397
694.03	24.852
694.35	25.301
694.67	23.218
694.99	23.725
695.31	21.847
695.63	22.851
695.95	21.946
696.27	25.885
696.59	26.014
696.91	26.076
697.23	25.339
697.56	20.332
697.88	22.156
698.20	21.509
698.52	20.428
698.84	21.971
699.16	23.667
699.48	23.093
699.80	24.401
700.12	26.097
700.44	23.832
700.76	26.253
701.08	22.715
701.40	22.078
701.72	27.540
702.04	24.932
702.36	25.806
702.68	27.926
703.00	24.311
703.32	24.069
703.64	25.189
703.96	24.740
704.28	25.132
704.60	27.324
704.91	24.090
705.23	26.136
705.55	24.629
705.87	24.762
706.19	29.781
706.51	28.840
706.83	26.549
707.15	25.668
707.47	24.939
707.79	23.908
708.11	23.583
708.43	26.742
708.74	23.982
709.06	24.419
709.38	23.077
709.70	24.523
710.02	23.913
710.34	26.243
710.66	25.833
710.98	27.322
711.29	27.577
711.61	27.019
711.93	24.012
712.25	26.506
712.57	27.010
712.89	29.091
713.20	25.240
713.52	25.857
713.84	27.795
714.16	21.449
714.48	22.478
714.80	22.764
715.11	22.606
715.43	25.698
715.75	25.070
716.07	23.699
716.39	26.571
716.70	20.561
717.02	26.599
717.34	29.496
717.66	31.597
717.97	29.167
718.29	28.521
718.61	23.649
718.93	25.260
719.24	27.852
719.56	25.862
719.88	25.478
720.20	28.065
720.51	23.529
720.83	29.097
721.15	26.871
721.46	26.370
721.78	25.436
722.10	27.083
722.42	27.425
722.73	29.242
723.05	32.632
723.37	31.095
723.68	26.953
724.00	25.379
724.32	32.700
724.63	27.308
724.95	31.373
725.27	28.996
725.58	27.574
725.90	23.592
726.22	26.027
726.53	25.753
726.85	26.384
727.16	33.221
727.48	25.914
727.80	27.338
728.11	24.286
728.43	27.174
728.74	24.126
729.06	28.315
729.38	28.772
729.69	30.000
730.01	30.263
730.32	30.201
730.64	29.236
730.96	27.327
731.27	21.101
731.59	21.839
731.90	24.234
732.22	24.571
732.53	23.932
732.85	30.117
733.16	25.904
733.48	24.765
733.80	30.145
734.11	28.834
734.43	22.515
734.74	26.273
735.06	26.455
735.37	26.546
735.69	25.797
736.00	29.664
736.32	23.939
736.63	24.921
736.95	26.087
737.26	25.000
737.58	26.380
737.89	25.000
738.21	23.179
738.52	24.415
738.83	30.037
739.15	27.178
739.46	24.828
739.78	27.211
740.09	27.697
740.41	27.914
740.72	22.857
741.04	31.818
741.35	29.688
741.66	29.249
741.98	33.047
742.29	30.556
742.61	31.858
742.92	27.542
743.23	27.200
743.55	29.057
743.86	28.235
744.18	27.966
744.49	34.298
744.80	34.101
745.12	33.482
745.43	32.243
745.74	28.000
746.06	25.877
746.37	28.372
746.68	31.858
747.00	28.700
747.31	29.412
747.62	27.869
747.94	27.897
748.25	25.292
748.56	30.085
748.88	31.250
749.19	26.047
749.50	26.941
749.82	29.218
750.13	27.668
750.44	23.333
750.75	30.872
751.07	26.316
751.38	28.053
751.69	26.599
752.01	27.972
752.32	34.551
752.63	33.893
752.94	30.420
753.26	30.078
753.57	25.681
753.88	29.213
754.19	25.632
754.51	29.236
754.82	25.168
755.13	27.365
755.44	27.037
755.75	27.835
756.07	29.110
756.38	26.797
756.69	25.313
757.00	28.190
757.31	27.042
757.63	23.140
757.94	23.670
758.25	23.430
758.56	23.570
758.87	29.323
759.18	27.326
759.50	26.444
759.81	28.487
760.12	24.719
760.43	24.650
760.74	27.848
761.05	27.851
761.36	25.521
761.67	26.146
761.99	30.141
762.30	25.402
762.61	28.125
762.92	26.136
763.23	28.679
763.54	28.077
763.85	27.626
764.16	28.472
764.47	29.392
764.78	22.150
765.10	25.915
765.41	28.125
765.72	24.309
766.03	25.982
766.34	25.784
766.65	33.840
766.96	33.603
767.27	37.383
767.58	39.109
767.89	34.807
768.20	35.976
768.51	33.673
768.82	30.702
769.13	29.412
769.44	27.820
769.75	26.217
770.06	34.454
770.37	28.947
770.68	28.444
770.99	33.475
771.30	27.197
771.61	32.308
771.92	29.771
772.23	33.065
772.54	34.222
772.85	39.604
773.16	36.413
773.47	31.111
773.78	28.713
774.09	34.659
774.39	32.727
774.70	27.647
775.01	29.605
775.32	37.267
775.63	35.616
775.94	39.506
776.25	40.000
776.56	41.985
776.87	41.985
777.18	36.364
777.48	42.520
777.79	43.077
778.10	39.394
778.41	51.493
778.72	38.346
779.03	29.487
779.34	35.811
779.65	36.646
779.95	42.857
780.26	39.881
780.57	51.020
780.88	35.461
781.19	56.667
781.50	32.544
781.80	39.891
782.11	33.333
782.42	31.609
782.73	35.593
783.04	34.839
783.34	36.434
783.65	34.694
783.96	43.871
784.27	33.775
784.57	32.237
784.88	43.478
785.19	37.500
785.50	48.276
785.81	41.085
786.11	34.074
786.42	37.795
786.73	37.838
787.04	46.226
787.34	39.024
787.65	46.212
787.96	41.667
788.26	45.669
788.57	48.905
788.88	40.141
789.19	40.458
789.49	42.568
789.80	40.625
790.11	41.322
790.41	51.852
790.72	39.815
791.03	51.923
791.33	49.495
791.64	50.526
791.95	37.895
792.25	55.208
792.56	48.000
792.87	39.024
793.17	50.000
793.48	54.118
793.79	55.172
794.09	53.409
794.40	48.276
794.70	43.651
795.01	40.769
795.32	41.985
795.62	40.171
795.93	42.017
796.23	41.463
796.54	54.082
796.85	62.500
797.15	58.442
797.46	59.756
797.76	52.500
798.07	61.333
798.37	63.750
798.68	68.750
798.99	57.317
799.29	61.333
799.60	50.000
799.90	53.947
800.21	56.061
800.51	67.606
800.82	60.345
801.12	64.615
801.43	77.333
801.73	72.414
802.04	63.636
802.34	56.164
802.65	80.392
802.95	76.087
803.26	67.742
803.56	80.000
803.87	61.194
804.17	63.492
804.48	66.038
804.78	63.889
805.09	75.758
805.39	74.603
805.70	70.175
806.00	61.429
806.30	57.813
806.61	61.176
806.91	51.111
807.22	51.087
807.52	60.526
807.83	59.211
808.13	73.913
808.43	79.032
808.74	60.274
809.04	71.429
809.35	76.471
809.65	77.273
809.95	84.314
810.26	92.593
810.56	71.875
810.86	63.265
811.17	78.947
811.47	76.087
811.77	68.966
812.08	55.172
812.38	73.810
812.69	107.143
812.99	64.444
813.29	97.143
813.59	141.935
813.90	58.621
814.20	67.213
814.50	58.000
814.81	42.105
815.11	79.630
815.41	85.714
815.72	101.786
816.02	86.000
816.32	102.439
816.62	79.310
816.93	84.848
817.23	87.805
817.53	71.429
817.84	73.333
818.14	100.000
818.44	81.250
818.74	77.358
819.04	107.692
819.35	130.303
819.65	100.000
819.95	90.741
820.25	95.745
820.56	105.405
820.86	107.895
821.16	68.085
821.46	115.789
821.76	80.000
822.07	69.048
822.37	94.737
822.67	81.395
822.97	65.789
823.27	108.696
823.57	112.500
823.88	110.256
824.18	96.970
824.48	91.304
824.78	80.556
825.08	121.739
825.38	137.931
825.69	73.529
825.99	89.362
826.29	33.333
826.59	94.286
826.89	120.000
827.19	71.429
827.49	112.903
827.79	138.462
828.09	85.714
828.39	86.111
828.70	72.973
829.00	160.714
829.30	175.000
829.60	108.333
829.90	122.581
830.20	66.667
830.50	121.622
830.80	191.667
831.10	150.000
831.40	114.286
831.70	158.333
832.00	110.000
832.30	147.826
832.60	162.500
832.90	121.212
833.20	135.000
833.50	131.579
833.80	129.412
834.10	107.895
834.40	189.474
834.70	86.667
835.00	112.000
835.30	83.784
835.60	128.125
835.90	121.622
836.20	126.923
836.50	136.364
836.80	112.195
837.10	126.087
837.40	246.154
837.70	131.579
838.00	143.333
838.30	150.000
838.60	168.000
838.90	290.000
839.19	193.750
839.49	146.667
839.79	141.379
840.09	119.231
840.39	160.000
840.69	215.789
840.99	128.571
841.29	126.087
841.59	165.000
841.88	188.000
842.18	255.556
842.48	160.714
842.78	144.444
843.08	192.308
843.38	181.818
843.68	214.286
843.97	185.714
844.27	204.348
844.57	1150.000
844.87	314.286
845.17	205.556
845.47	114.286
845.76	183.333
846.06	385.714
846.36	241.176
846.66	200.000
846.96	237.500
847.25	223.077
847.55	173.684
847.85	150.000
848.15	360.000
848.44	281.818
848.74	209.524
849.04	170.833
849.34	194.118
849.63	200.000
849.93	225.000
850.23	1100.000
850.53	500.000
850.82	236.364
851.12	229.412
851.42	170.833
851.71	250.000
852.01	0.000
852.31	247.059
852.61	320.000
852.90	145.833
853.20	222.222
853.50	-1300.000
853.79	88.000
854.09	150.000
854.39	144.828
854.68	186.207
854.98	209.524
855.28	138.710
855.57	171.429
855.87	205.556
856.17	122.222
856.46	136.842
856.76	125.806
857.05	152.941
857.35	281.818
857.65	200.000
857.94	180.000
858.24	266.667
858.53	250.000
858.83	642.857
859.13	165.217
859.42	244.444
859.72	325.000
860.01	291.667
860.31	850.000
860.60	300.000
860.90	400.000
861.20	230.769
861.49	471.429
861.79	-3900.000
862.08	442.857
862.38	344.444
862.67	221.429
862.97	420.000
863.26	123.333
863.56	875.000
863.85	230.769
864.15	270.588
864.44	222.222
864.74	250.000
865.03	236.364
865.33	250.000
865.62	160.000
865.92	450.000
866.21	850.000
866.51	520.000
866.80	255.556
867.10	866.667
867.39	3100.000
867.69	620.000
867.98	725.000
868.27	185.714
868.57	220.000
868.86	975.000
869.16	157.143
869.45	2700.000
869.75	-433.333
870.04	675.000
870.33	700.000
870.63	275.000
870.92	211.765
871.22	600.000
871.51	400.000
871.80	358.333
872.10	284.615
>>>>>End Processed Spectral Data<<<<<
