SpectraSuite Data File
++++++++++++++++++++++++++++++++++++
Date: Tue May 12 15:11:19 PDT 2015
User: schluterlab
Dark Spectrum Present: Yes
Reference Spectrum Present: Yes
Number of Sampled Component Spectra: 1
Spectrometers: USB2E3373
Integration Time (usec): 3000 (USB2E3373)
Spectra Averaged: 3 (USB2E3373)
Boxcar Smoothing: 0 (USB2E3373)
Correct for Electrical Dark: No (USB2E3373)
Strobe/Lamp Enabled: No (USB2E3373)
Correct for Detector Non-linearity: No (USB2E3373)
Correct for Stray Light: No (USB2E3373)
Number of Pixels in Processed Spectrum: 2048
>>>>>Begin Processed Spectral Data<<<<<
178.53	0.000
178.91	-125.000
179.29	-325.000
179.67	-2900.000
180.04	-33.333
180.42	350.000
180.80	800.000
181.18	0.000
181.56	-175.000
181.94	0.000
182.31	566.667
182.69	-1200.000
183.07	328.571
183.45	-2100.000
183.83	-1100.000
184.20	230.000
184.58	285.714
184.96	-176.923
185.34	-133.333
185.72	1200.000
186.09	-250.000
186.47	-1800.000
186.85	466.667
187.23	220.000
187.61	1200.000
187.98	287.500
188.36	171.429
188.74	225.000
189.12	241.667
189.49	625.000
189.87	0.000
190.25	400.000
190.63	1500.000
191.00	-91.667
191.38	-2400.000
191.76	-350.000
192.14	425.000
192.51	-1800.000
192.89	1500.000
193.27	766.667
193.65	-633.333
194.02	-540.000
194.40	328.571
194.78	-78.571
195.15	153.333
195.53	-1700.000
195.91	-200.000
196.29	1700.000
196.66	168.750
197.04	475.000
197.42	-650.000
197.79	425.000
198.17	216.667
198.55	0.000
198.92	328.571
199.30	666.667
199.68	1750.000
200.05	466.667
200.43	-166.667
200.81	172.222
201.18	2500.000
201.56	241.667
201.94	-525.000
202.31	-187.500
202.69	-420.000
203.07	1500.000
203.44	-183.333
203.82	183.333
204.19	480.000
204.57	-900.000
204.95	-650.000
205.32	-380.000
205.70	350.000
206.08	450.000
206.45	-500.000
206.83	222.222
207.20	105.263
207.58	200.000
207.96	600.000
208.33	0.000
208.71	442.857
209.08	460.000
209.46	-2700.000
209.84	-425.000
210.21	780.000
210.59	-280.000
210.96	233.333
211.34	-700.000
211.71	300.000
212.09	700.000
212.46	1350.000
212.84	-300.000
213.22	244.444
213.59	-1500.000
213.97	240.000
214.34	700.000
214.72	633.333
215.09	366.667
215.47	-1300.000
215.84	-190.000
216.22	-162.500
216.59	0.000
216.97	0.000
217.34	700.000
217.72	-850.000
218.09	733.333
218.47	237.500
218.84	500.000
219.22	566.667
219.59	533.333
219.97	385.714
220.34	333.333
220.72	950.000
221.09	2500.000
221.47	200.000
221.84	800.000
222.22	260.000
222.59	211.111
222.97	114.286
223.34	168.750
223.72	-1300.000
224.09	800.000
224.46	184.615
224.84	-475.000
225.21	266.667
225.59	180.000
225.96	900.000
226.34	-380.000
226.71	-325.000
227.08	-400.000
227.46	0.000
227.83	-350.000
228.21	-700.000
228.58	275.000
228.95	675.000
229.33	322.222
229.70	725.000
230.08	292.308
230.45	2600.000
230.82	-575.000
231.20	-400.000
231.57	-600.000
231.95	260.000
232.32	200.000
232.69	266.667
233.07	308.333
233.44	-1550.000
233.81	106.667
234.19	133.333
234.56	187.500
234.93	117.647
235.31	195.000
235.68	175.000
236.05	100.000
236.43	103.704
236.80	178.571
237.17	113.793
237.55	106.250
237.92	82.500
238.29	87.879
238.67	128.125
239.04	82.927
239.41	39.583
239.79	85.000
240.16	79.167
240.53	52.459
240.91	52.174
241.28	57.627
241.65	39.394
242.02	67.606
242.40	68.571
242.77	51.648
243.14	45.570
243.51	59.596
243.89	43.925
244.26	51.402
244.63	38.614
245.00	46.789
245.38	31.356
245.75	47.727
246.12	49.630
246.49	46.099
246.87	40.164
247.24	35.333
247.61	43.750
247.98	46.939
248.36	39.394
248.73	47.449
249.10	37.500
249.47	40.500
249.84	38.308
250.22	45.405
250.59	34.500
250.96	36.287
251.33	40.000
251.70	39.732
252.08	36.555
252.45	38.645
252.82	34.981
253.19	37.945
253.56	37.692
253.94	36.957
254.31	37.984
254.68	34.495
255.05	39.655
255.42	36.496
255.79	35.179
256.16	34.915
256.54	38.636
256.91	36.928
257.28	36.789
257.65	32.602
258.02	34.808
258.39	38.395
258.76	35.652
259.14	33.714
259.51	35.569
259.88	36.170
260.25	32.143
260.62	32.603
260.99	33.609
261.36	34.819
261.73	34.574
262.10	34.817
262.47	34.750
262.85	34.400
263.22	32.134
263.59	33.760
263.96	34.586
264.33	32.346
264.70	32.432
265.07	36.098
265.44	33.486
265.81	34.906
266.18	32.952
266.55	34.988
266.92	34.899
267.29	32.675
267.66	34.305
268.03	31.614
268.40	31.078
268.77	33.480
269.14	31.236
269.51	31.849
269.88	33.061
270.25	28.942
270.62	35.622
270.99	34.280
271.36	33.333
271.73	31.656
272.10	29.899
272.47	32.937
272.84	33.533
273.21	34.711
273.58	31.781
273.95	28.131
274.32	32.879
274.69	33.661
275.06	33.698
275.43	32.184
275.80	32.075
276.17	33.088
276.54	32.150
276.91	34.515
277.28	34.124
277.65	31.181
278.02	32.353
278.39	32.014
278.76	32.414
279.13	32.562
279.50	30.909
279.87	29.981
280.23	31.676
280.60	34.672
280.97	31.897
281.34	30.363
281.71	32.174
282.08	33.333
282.45	31.419
282.82	31.940
283.19	29.571
283.56	29.256
283.92	29.967
284.29	30.782
284.66	31.597
285.03	31.343
285.40	31.736
285.77	28.704
286.14	30.495
286.51	32.055
286.87	26.582
287.24	27.027
287.61	30.395
287.98	30.896
288.35	30.963
288.72	30.046
289.08	29.730
289.45	29.421
289.82	29.062
290.19	29.575
290.56	30.422
290.93	28.777
291.29	30.939
291.66	28.107
292.03	29.313
292.40	29.404
292.77	28.691
293.13	28.959
293.50	27.665
293.87	27.371
294.24	29.371
294.60	26.783
294.97	29.371
295.34	28.552
295.71	27.727
296.08	27.733
296.44	28.081
296.81	26.055
297.18	27.376
297.55	27.463
297.91	25.985
298.28	26.691
298.65	27.117
299.02	27.382
299.38	29.257
299.75	28.659
300.12	27.638
300.48	28.220
300.85	27.890
301.22	26.744
301.59	26.061
301.95	27.771
302.32	26.892
302.69	25.679
303.05	27.497
303.42	25.897
303.79	27.194
304.15	26.073
304.52	26.533
304.89	27.932
305.25	28.254
305.62	27.399
305.99	26.196
306.35	25.263
306.72	27.471
307.09	26.812
307.45	26.294
307.82	26.440
308.19	28.351
308.55	26.900
308.92	28.165
309.29	29.487
309.65	27.750
310.02	28.499
310.38	27.418
310.75	27.965
311.12	26.628
311.48	29.633
311.85	28.053
312.22	29.226
312.58	27.794
312.95	28.544
313.31	27.903
313.68	28.518
314.05	29.212
314.41	29.795
314.78	30.114
315.14	30.142
315.51	30.274
315.87	28.741
316.24	29.599
316.61	29.543
316.97	29.450
317.34	30.368
317.70	30.729
318.07	31.762
318.43	31.810
318.80	30.736
319.16	31.206
319.53	30.265
319.89	31.362
320.26	33.147
320.62	32.875
320.99	32.126
321.35	32.746
321.72	33.397
322.08	33.056
322.45	34.151
322.81	34.767
323.18	35.346
323.54	34.930
323.91	35.449
324.27	34.306
324.64	33.910
325.00	35.948
325.37	36.256
325.73	34.823
326.10	36.620
326.46	36.334
326.83	36.160
327.19	35.823
327.56	36.901
327.92	38.689
328.29	38.216
328.65	39.212
329.01	38.323
329.38	38.748
329.74	38.429
330.11	39.096
330.47	38.193
330.84	37.532
331.20	37.140
331.56	39.983
331.93	41.061
332.29	38.350
332.66	39.966
333.02	37.887
333.38	37.958
333.75	38.365
334.11	39.262
334.48	38.974
334.84	38.514
335.20	39.093
335.57	38.119
335.93	38.099
336.29	37.728
336.66	39.194
337.02	38.409
337.38	38.349
337.75	39.274
338.11	38.903
338.47	37.849
338.84	38.527
339.20	38.788
339.56	38.856
339.93	38.294
340.29	36.471
340.65	38.642
341.02	38.858
341.38	38.998
341.74	39.286
342.11	38.982
342.47	37.654
342.83	39.541
343.20	38.157
343.56	37.252
343.92	39.059
344.28	38.596
344.65	39.527
345.01	38.810
345.37	36.699
345.73	39.048
346.10	37.769
346.46	37.002
346.82	38.349
347.19	37.790
347.55	36.924
347.91	37.311
348.27	36.638
348.63	38.054
349.00	37.167
349.36	38.366
349.72	37.538
350.08	38.043
350.45	38.385
350.81	39.526
351.17	37.365
351.53	38.645
351.89	37.063
352.26	37.339
352.62	38.386
352.98	37.270
353.34	39.137
353.70	37.385
354.07	38.154
354.43	38.786
354.79	37.358
355.15	37.979
355.51	37.160
355.87	38.328
356.24	39.492
356.60	38.052
356.96	37.225
357.32	37.604
357.68	36.931
358.04	38.830
358.40	38.006
358.77	38.392
359.13	38.213
359.49	39.288
359.85	38.794
360.21	38.484
360.57	38.248
360.93	39.899
361.29	39.538
361.66	37.957
362.02	37.429
362.38	37.951
362.74	38.712
363.10	38.990
363.46	36.948
363.82	38.569
364.18	39.403
364.54	38.913
364.90	38.889
365.26	38.307
365.62	37.638
365.98	38.472
366.35	38.966
366.71	39.348
367.07	38.771
367.43	38.482
367.79	38.697
368.15	37.246
368.51	38.387
368.87	38.995
369.23	38.392
369.59	38.975
369.95	39.790
370.31	38.604
370.67	39.348
371.03	39.286
371.39	38.712
371.75	39.009
372.11	39.293
372.47	39.110
372.83	39.565
373.19	39.685
373.55	39.313
373.91	38.191
374.27	39.947
374.63	38.644
374.99	40.296
375.35	40.793
375.71	39.710
376.07	39.920
376.42	39.194
376.78	39.563
377.14	41.088
377.50	40.637
377.86	40.359
378.22	41.499
378.58	40.799
378.94	41.400
379.30	40.388
379.66	40.337
380.02	41.349
380.38	40.457
380.74	41.349
381.09	40.596
381.45	40.925
381.81	40.426
382.17	39.499
382.53	40.792
382.89	40.272
383.25	40.853
383.61	39.712
383.97	39.832
384.32	41.290
384.68	42.008
385.04	41.442
385.40	42.289
385.76	40.082
386.12	41.497
386.48	40.973
386.83	42.298
387.19	41.402
387.55	40.813
387.91	42.148
388.27	41.701
388.62	41.725
388.98	41.050
389.34	40.690
389.70	40.861
390.06	41.951
390.42	40.592
390.77	39.988
391.13	41.521
391.49	40.956
391.85	42.154
392.20	41.657
392.56	41.458
392.92	42.223
393.28	42.040
393.64	41.399
393.99	42.264
394.35	41.083
394.71	41.797
395.07	41.971
395.42	42.389
395.78	42.813
396.14	42.229
396.50	40.313
396.85	41.646
397.21	42.238
397.57	42.020
397.92	42.230
398.28	42.085
398.64	42.234
399.00	41.796
399.35	41.868
399.71	42.053
400.07	42.066
400.42	43.224
400.78	42.581
401.14	42.278
401.49	42.627
401.85	41.599
402.21	41.593
402.57	41.771
402.92	42.667
403.28	42.184
403.63	41.672
403.99	41.918
404.35	41.970
404.70	42.469
405.06	42.111
405.42	41.891
405.77	41.731
406.13	42.299
406.49	41.444
406.84	41.173
407.20	42.694
407.55	43.200
407.91	42.821
408.27	42.389
408.62	42.105
408.98	42.283
409.34	40.327
409.69	41.942
410.05	42.039
410.40	41.461
410.76	41.385
411.11	42.062
411.47	41.852
411.83	41.476
412.18	42.452
412.54	41.562
412.89	42.360
413.25	43.330
413.60	42.523
413.96	42.190
414.31	42.798
414.67	42.893
415.03	42.656
415.38	42.902
415.74	42.451
416.09	41.849
416.45	43.891
416.80	44.195
417.16	42.011
417.51	42.420
417.87	42.115
418.22	43.378
418.58	42.866
418.93	43.843
419.29	43.130
419.64	43.307
420.00	43.019
420.35	42.218
420.71	42.999
421.06	42.554
421.42	42.026
421.77	42.810
422.12	43.660
422.48	42.938
422.83	42.746
423.19	42.927
423.54	43.609
423.90	43.828
424.25	42.488
424.61	43.064
424.96	42.631
425.31	42.583
425.67	43.603
426.02	43.298
426.38	43.524
426.73	42.741
427.09	43.832
427.44	42.825
427.79	43.282
428.15	44.372
428.50	42.914
428.85	43.857
429.21	42.734
429.56	42.074
429.92	43.809
430.27	42.961
430.62	43.025
430.98	43.214
431.33	42.490
431.68	42.272
432.04	42.628
432.39	42.920
432.74	44.438
433.10	43.522
433.45	43.825
433.80	44.788
434.16	43.615
434.51	43.395
434.86	44.094
435.22	43.490
435.57	44.102
435.92	44.223
436.28	44.585
436.63	44.030
436.98	44.876
437.34	44.121
437.69	42.665
438.04	43.280
438.39	44.717
438.75	44.042
439.10	44.792
439.45	43.640
439.81	44.303
440.16	44.854
440.51	44.257
440.86	45.242
441.22	44.805
441.57	45.197
441.92	44.176
442.27	43.763
442.63	44.461
442.98	44.450
443.33	44.617
443.68	45.070
444.03	44.251
444.39	44.586
444.74	45.393
445.09	44.286
445.44	45.005
445.79	45.517
446.15	44.895
446.50	45.992
446.85	44.920
447.20	45.025
447.55	45.786
447.91	45.765
448.26	44.515
448.61	46.766
448.96	45.534
449.31	45.875
449.66	46.678
450.02	45.111
450.37	46.308
450.72	45.675
451.07	45.433
451.42	45.584
451.77	47.136
452.12	45.037
452.47	46.598
452.83	46.648
453.18	46.907
453.53	46.655
453.88	46.457
454.23	46.252
454.58	45.629
454.93	46.536
455.28	46.634
455.63	46.690
455.98	45.065
456.34	45.897
456.69	46.768
457.04	46.002
457.39	47.029
457.74	46.115
458.09	46.603
458.44	45.783
458.79	45.252
459.14	46.918
459.49	46.319
459.84	46.793
460.19	45.367
460.54	46.097
460.89	45.576
461.24	46.449
461.59	47.109
461.94	45.390
462.29	46.053
462.64	46.985
462.99	46.833
463.34	46.468
463.69	47.308
464.04	46.517
464.39	45.449
464.74	44.314
465.09	45.096
465.44	45.430
465.79	46.108
466.14	44.462
466.49	46.609
466.84	45.875
467.19	46.573
467.54	45.586
467.89	46.362
468.24	46.555
468.59	46.369
468.94	45.833
469.29	45.693
469.64	46.302
469.99	46.658
470.34	46.426
470.68	46.552
471.03	47.298
471.38	46.225
471.73	46.048
472.08	47.097
472.43	47.238
472.78	48.143
473.13	45.682
473.48	46.455
473.83	47.350
474.17	45.775
474.52	46.505
474.87	46.390
475.22	46.088
475.57	46.118
475.92	45.631
476.27	45.702
476.61	46.595
476.96	45.768
477.31	46.427
477.66	47.289
478.01	46.158
478.36	45.675
478.70	45.509
479.05	45.868
479.40	45.238
479.75	46.723
480.10	45.692
480.45	45.051
480.79	45.668
481.14	45.744
481.49	44.465
481.84	45.602
482.19	45.459
482.53	45.630
482.88	45.251
483.23	45.151
483.58	45.557
483.92	46.344
484.27	46.233
484.62	46.010
484.97	44.916
485.31	44.855
485.66	44.333
486.01	42.578
486.36	42.085
486.70	41.674
487.05	42.680
487.40	42.118
487.75	42.505
488.09	43.295
488.44	43.435
488.79	45.227
489.13	45.465
489.48	45.106
489.83	45.288
490.17	44.633
490.52	45.047
490.87	45.388
491.22	46.011
491.56	45.279
491.91	45.744
492.26	45.434
492.60	46.788
492.95	44.903
493.30	45.314
493.64	45.687
493.99	45.081
494.34	45.406
494.68	45.020
495.03	45.622
495.37	45.835
495.72	44.848
496.07	45.148
496.41	44.917
496.76	45.040
497.11	45.630
497.45	44.980
497.80	45.088
498.14	45.400
498.49	44.986
498.84	46.589
499.18	44.059
499.53	45.429
499.87	44.834
500.22	44.634
500.56	44.475
500.91	45.037
501.26	45.384
501.60	44.581
501.95	44.041
502.29	45.511
502.64	44.596
502.98	43.175
503.33	44.543
503.67	43.179
504.02	44.290
504.36	44.525
504.71	44.560
505.06	45.519
505.40	44.080
505.75	44.294
506.09	44.424
506.44	44.643
506.78	45.416
507.13	45.565
507.47	45.075
507.82	45.450
508.16	45.566
508.51	44.928
508.85	44.349
509.19	45.081
509.54	44.824
509.88	45.400
510.23	45.294
510.57	44.160
510.92	45.405
511.26	45.030
511.61	44.067
511.95	43.753
512.30	43.750
512.64	44.185
512.98	44.900
513.33	44.416
513.67	44.847
514.02	44.987
514.36	45.016
514.70	44.800
515.05	44.806
515.39	45.998
515.74	44.669
516.08	44.499
516.42	45.738
516.77	44.907
517.11	44.427
517.46	44.612
517.80	44.347
518.14	45.690
518.49	45.259
518.83	43.736
519.17	44.703
519.52	45.713
519.86	44.687
520.20	44.822
520.55	44.658
520.89	44.253
521.23	45.444
521.58	44.521
521.92	44.840
522.26	45.142
522.61	45.811
522.95	45.045
523.29	44.620
523.64	44.740
523.98	45.070
524.32	44.291
524.66	43.942
525.01	43.846
525.35	44.196
525.69	46.659
526.04	44.735
526.38	45.026
526.72	43.079
527.06	44.234
527.41	44.680
527.75	45.770
528.09	44.190
528.43	44.478
528.78	44.186
529.12	45.515
529.46	43.483
529.80	43.049
530.15	42.664
530.49	42.659
530.83	43.693
531.17	44.096
531.51	44.574
531.86	43.297
532.20	42.769
532.54	44.131
532.88	43.535
533.22	43.449
533.57	43.746
533.91	42.949
534.25	42.874
534.59	43.099
534.93	41.980
535.27	41.434
535.62	42.415
535.96	42.730
536.30	43.449
536.64	42.671
536.98	43.298
537.32	43.313
537.66	43.431
538.01	42.415
538.35	43.044
538.69	42.779
539.03	42.164
539.37	41.930
539.71	41.728
540.05	42.708
540.39	42.956
540.73	42.468
541.07	42.095
541.42	41.418
541.76	42.232
542.10	41.307
542.44	42.207
542.78	42.417
543.12	41.534
543.46	41.228
543.80	42.982
544.14	43.158
544.48	40.815
544.82	42.080
545.16	42.623
545.50	41.795
545.84	41.477
546.18	43.108
546.52	42.098
546.86	41.006
547.20	40.762
547.54	41.165
547.88	41.423
548.22	40.923
548.56	40.778
548.90	39.798
549.24	40.809
549.58	40.206
549.92	40.930
550.26	41.582
550.60	40.918
550.94	42.877
551.28	41.172
551.62	41.379
551.96	40.878
552.30	40.870
552.64	40.388
552.98	40.593
553.32	40.397
553.66	39.805
554.00	40.283
554.34	41.278
554.68	41.196
555.02	41.276
555.36	40.957
555.69	41.165
556.03	40.064
556.37	39.516
556.71	41.656
557.05	39.843
557.39	40.533
557.73	40.094
558.07	40.510
558.41	39.959
558.75	41.108
559.08	40.743
559.42	40.659
559.76	40.627
560.10	40.262
560.44	38.421
560.78	39.898
561.12	40.242
561.45	39.049
561.79	39.201
562.13	38.977
562.47	39.585
562.81	38.907
563.15	39.948
563.48	37.826
563.82	40.112
564.16	39.677
564.50	38.457
564.84	39.514
565.17	37.671
565.51	40.025
565.85	39.297
566.19	37.976
566.52	38.207
566.86	37.770
567.20	38.708
567.54	37.555
567.88	37.298
568.21	36.196
568.55	37.500
568.89	37.363
569.23	36.066
569.56	36.102
569.90	35.932
570.24	35.196
570.57	35.918
570.91	34.041
571.25	34.312
571.59	34.349
571.92	33.342
572.26	33.720
572.60	33.491
572.93	34.646
573.27	34.406
573.61	34.136
573.95	33.790
574.28	33.931
574.62	33.372
574.96	33.318
575.29	32.896
575.63	32.650
575.97	33.398
576.30	33.460
576.64	33.009
576.98	33.016
577.31	33.751
577.65	33.632
577.98	33.019
578.32	32.852
578.66	32.854
578.99	32.410
579.33	32.995
579.67	32.749
580.00	32.515
580.34	32.767
580.67	32.013
581.01	32.982
581.35	32.797
581.68	32.134
582.02	32.494
582.35	32.190
582.69	32.439
583.02	31.552
583.36	32.377
583.70	32.488
584.03	32.563
584.37	32.458
584.70	32.371
585.04	32.429
585.37	32.259
585.71	32.652
586.04	32.489
586.38	32.128
586.72	32.149
587.05	32.887
587.39	31.985
587.72	32.398
588.06	32.282
588.39	32.216
588.73	32.089
589.06	32.886
589.40	33.020
589.73	33.137
590.07	32.841
590.40	33.066
590.73	34.337
591.07	33.359
591.40	33.054
591.74	32.873
592.07	32.945
592.41	32.854
592.74	32.662
593.08	32.194
593.41	31.658
593.75	31.918
594.08	32.184
594.41	32.095
594.75	31.610
595.08	32.202
595.42	32.752
595.75	32.478
596.09	32.464
596.42	32.010
596.75	33.053
597.09	33.430
597.42	32.694
597.75	32.049
598.09	32.376
598.42	33.089
598.76	32.344
599.09	32.990
599.42	32.076
599.76	32.598
600.09	32.203
600.42	32.182
600.76	32.325
601.09	32.275
601.42	31.785
601.76	32.402
602.09	32.524
602.42	31.128
602.76	31.689
603.09	31.787
603.42	31.927
603.76	31.815
604.09	31.451
604.42	31.827
604.76	32.161
605.09	31.918
605.42	31.044
605.75	31.030
606.09	31.408
606.42	31.454
606.75	31.869
607.09	31.583
607.42	31.860
607.75	31.529
608.08	31.154
608.42	31.795
608.75	31.878
609.08	32.248
609.41	32.227
609.75	32.967
610.08	32.869
610.41	31.577
610.74	31.775
611.07	31.696
611.41	31.974
611.74	31.214
612.07	31.696
612.40	31.189
612.73	31.902
613.07	31.272
613.40	32.581
613.73	31.603
614.06	32.100
614.39	32.475
614.72	31.642
615.06	30.564
615.39	31.188
615.72	31.559
616.05	30.688
616.38	31.507
616.71	31.470
617.05	32.070
617.38	31.404
617.71	32.115
618.04	32.249
618.37	30.795
618.70	31.582
619.03	31.746
619.36	32.035
619.69	30.607
620.03	32.746
620.36	32.563
620.69	32.950
621.02	32.337
621.35	31.877
621.68	32.080
622.01	34.317
622.34	32.484
622.67	31.742
623.00	31.995
623.33	32.928
623.66	32.136
623.99	32.192
624.32	31.911
624.65	32.258
624.99	31.440
625.32	32.198
625.65	30.690
625.98	30.823
626.31	33.160
626.64	31.967
626.97	31.676
627.30	31.522
627.63	31.397
627.96	31.612
628.29	33.086
628.62	31.908
628.95	33.511
629.28	32.778
629.61	32.689
629.94	33.276
630.26	32.842
630.59	33.333
630.92	33.453
631.25	33.726
631.58	33.751
631.91	33.206
632.24	32.847
632.57	32.515
632.90	33.126
633.23	33.054
633.56	32.877
633.89	31.726
634.22	34.661
634.55	33.118
634.88	33.844
635.20	34.081
635.53	33.217
635.86	34.116
636.19	32.772
636.52	31.784
636.85	33.010
637.18	33.369
637.51	33.073
637.83	31.579
638.16	35.170
638.49	33.293
638.82	33.099
639.15	33.490
639.48	35.427
639.81	32.723
640.13	32.147
640.46	32.996
640.79	33.420
641.12	32.021
641.45	35.058
641.77	32.100
642.10	34.003
642.43	34.139
642.76	32.244
643.09	34.006
643.41	33.941
643.74	31.942
644.07	33.776
644.40	32.544
644.73	35.586
645.05	35.067
645.38	34.763
645.71	34.901
646.04	34.809
646.36	35.837
646.69	32.480
647.02	35.840
647.35	32.598
647.67	32.901
648.00	34.202
648.33	32.331
648.66	33.485
648.98	32.319
649.31	30.634
649.64	32.780
649.96	31.863
650.29	30.714
650.62	34.904
650.94	34.488
651.27	34.450
651.60	34.742
651.92	33.026
652.25	35.748
652.58	31.915
652.90	31.886
653.23	31.758
653.56	31.157
653.88	32.159
654.21	32.698
654.54	30.893
654.86	32.301
655.19	31.266
655.52	27.853
655.84	23.864
656.17	27.370
656.49	39.146
656.82	45.455
657.15	36.973
657.47	27.613
657.80	19.844
658.13	15.226
658.45	20.828
658.78	24.822
659.10	25.985
659.43	26.507
659.75	27.826
660.08	28.383
660.41	31.307
660.73	34.003
661.06	32.432
661.38	35.264
661.71	31.835
662.03	32.890
662.36	32.000
662.68	32.588
663.01	33.333
663.33	31.509
663.66	33.728
663.98	33.333
664.31	35.448
664.63	33.716
664.96	35.835
665.28	32.203
665.61	31.698
665.93	33.396
666.26	31.028
666.58	34.495
666.91	33.012
667.23	33.133
667.56	33.881
667.88	32.780
668.21	34.426
668.53	33.871
668.86	35.671
669.18	30.346
669.50	33.058
669.83	34.292
670.15	31.393
670.48	27.539
670.80	32.669
671.13	31.873
671.45	34.870
671.77	32.096
672.10	34.111
672.42	29.441
672.75	31.171
673.07	31.479
673.39	29.872
673.72	30.796
674.04	32.258
674.37	32.305
674.69	29.926
675.01	29.104
675.34	31.783
675.66	33.203
675.98	32.150
676.31	31.000
676.63	28.628
676.95	32.540
677.28	33.266
677.60	33.199
677.92	31.151
678.25	33.721
678.57	30.354
678.89	31.826
679.22	29.963
679.54	30.783
679.86	30.716
680.18	30.580
680.51	30.182
680.83	27.703
681.15	29.983
681.48	31.771
681.80	31.699
682.12	30.969
682.44	29.550
682.77	30.071
683.09	31.262
683.41	30.816
683.73	33.858
684.06	30.357
684.38	32.946
684.70	30.755
685.02	27.604
685.34	31.162
685.67	29.421
685.99	29.885
686.31	29.584
686.63	29.268
686.96	29.412
687.28	29.362
687.60	29.010
687.92	28.811
688.24	28.793
688.56	28.826
688.89	28.872
689.21	29.094
689.53	32.016
689.85	29.878
690.17	31.456
690.49	30.444
690.82	31.723
691.14	30.505
691.46	31.622
691.78	31.189
692.10	28.626
692.42	28.312
692.74	32.558
693.06	28.488
693.39	28.458
693.71	29.470
694.03	29.783
694.35	31.727
694.67	28.310
694.99	30.377
695.31	31.757
695.63	32.353
695.95	28.054
696.27	30.973
696.59	30.310
696.91	30.380
697.23	29.412
697.56	26.971
697.88	26.747
698.20	30.377
698.52	25.875
698.84	29.979
699.16	31.343
699.48	30.297
699.80	32.462
700.12	30.947
700.44	31.542
700.76	30.549
701.08	30.809
701.40	31.429
701.72	32.086
702.04	31.436
702.36	32.258
702.68	31.915
703.00	27.068
703.32	30.025
703.64	31.486
703.96	30.990
704.28	32.011
704.60	31.831
704.91	30.252
705.23	31.534
705.55	33.828
705.87	30.794
706.19	31.975
706.51	35.737
706.83	29.794
707.15	33.155
707.47	30.751
707.79	31.034
708.11	27.438
708.43	28.090
708.74	30.090
709.06	26.977
709.38	29.777
709.70	26.431
710.02	28.533
710.34	28.729
710.66	29.167
710.98	27.869
711.29	30.641
711.61	30.362
711.93	28.571
712.25	29.518
712.57	28.296
712.89	34.848
713.20	31.949
713.52	30.530
713.84	31.420
714.16	28.696
714.48	27.666
714.80	31.165
715.11	29.521
715.43	31.006
715.75	29.577
716.07	32.659
716.39	28.571
716.70	27.103
717.02	32.660
717.34	31.295
717.66	31.250
717.97	35.227
718.29	33.803
718.61	29.730
718.93	33.910
719.24	32.550
719.56	29.655
719.88	28.344
720.20	32.258
720.51	32.026
720.83	33.779
721.15	33.333
721.46	33.219
721.78	28.920
722.10	35.417
722.42	33.110
722.73	31.047
723.05	34.035
723.37	36.396
723.68	28.125
724.00	32.576
724.32	32.319
724.63	33.077
724.95	30.588
725.27	31.970
725.58	28.676
725.90	26.056
726.22	27.055
726.53	29.766
726.85	34.528
727.16	31.544
727.48	31.894
727.80	34.532
728.11	33.929
728.43	27.899
728.74	31.818
729.06	27.599
729.38	33.333
729.69	36.000
730.01	34.211
730.32	35.235
730.64	33.555
730.96	28.829
731.27	25.076
731.59	25.287
731.90	28.969
732.22	31.143
732.53	29.060
732.85	30.702
733.16	30.723
733.48	28.840
733.80	31.594
734.11	29.755
734.43	28.070
734.74	27.882
735.06	28.042
735.37	26.804
735.69	28.406
736.00	33.333
736.32	27.879
736.63	26.498
736.95	28.571
737.26	30.488
737.58	31.595
737.89	27.410
738.21	26.159
738.52	29.431
738.83	31.502
739.15	33.449
739.46	33.793
739.78	28.912
740.09	32.070
740.41	27.914
740.72	30.794
741.04	27.273
741.35	31.641
741.66	30.040
741.98	36.910
742.29	31.019
742.61	33.628
742.92	29.661
743.23	33.200
743.55	27.925
743.86	26.667
744.18	29.237
744.49	36.364
744.80	33.180
745.12	33.929
745.43	39.720
745.74	35.111
746.06	30.263
746.37	34.884
746.68	37.611
747.00	33.184
747.31	33.613
747.62	31.967
747.94	31.760
748.25	30.350
748.56	32.203
748.88	30.357
749.19	31.628
749.50	34.703
749.82	36.214
750.13	29.249
750.44	28.000
750.75	30.201
751.07	29.934
751.38	26.403
751.69	29.630
752.01	26.573
752.32	33.555
752.63	31.208
752.94	31.119
753.26	30.469
753.57	31.128
753.88	27.715
754.19	27.076
754.51	29.900
754.82	28.523
755.13	30.068
755.44	29.259
755.75	25.086
756.07	33.219
756.38	28.105
756.69	30.938
757.00	28.783
757.31	29.859
757.63	26.997
757.94	26.596
758.25	26.812
758.56	27.231
758.87	26.566
759.18	28.779
759.50	28.267
759.81	29.674
760.12	29.494
760.43	29.412
760.74	30.127
761.05	26.790
761.36	26.562
761.67	26.146
761.99	30.423
762.30	30.547
762.61	26.736
762.92	29.545
763.23	28.302
763.54	31.538
763.85	25.292
764.16	26.389
764.47	27.365
764.78	27.362
765.10	25.610
765.41	28.409
765.72	28.177
766.03	26.284
766.34	31.359
766.65	28.897
766.96	29.150
767.27	30.841
767.58	34.653
767.89	37.017
768.20	40.244
768.51	28.061
768.82	31.140
769.13	25.098
769.44	27.444
769.75	28.090
770.06	30.252
770.37	27.632
770.68	28.889
770.99	33.475
771.30	34.310
771.61	30.385
771.92	30.916
772.23	29.032
772.54	29.333
772.85	38.614
773.16	34.239
773.47	35.556
773.78	35.644
774.09	38.636
774.39	35.152
774.70	30.000
775.01	36.184
775.32	34.783
775.63	34.932
775.94	46.914
776.25	36.552
776.56	34.351
776.87	35.878
777.18	36.364
777.48	42.520
777.79	39.231
778.10	36.364
778.41	38.806
778.72	39.850
779.03	31.410
779.34	30.405
779.65	38.509
779.95	38.509
780.26	37.500
780.57	38.776
780.88	37.589
781.19	44.167
781.50	31.953
781.80	34.426
782.11	35.979
782.42	30.460
782.73	38.418
783.04	34.839
783.34	34.884
783.65	32.653
783.96	38.065
784.27	33.113
784.57	33.553
784.88	48.551
785.19	35.000
785.50	37.069
785.81	44.186
786.11	43.704
786.42	35.433
786.73	30.631
787.04	41.509
787.34	36.585
787.65	41.667
787.96	37.121
788.26	44.882
788.57	37.226
788.88	40.141
789.19	40.458
789.49	39.189
789.80	32.813
790.11	42.149
790.41	45.370
790.72	32.407
791.03	30.769
791.33	44.444
791.64	42.105
791.95	51.579
792.25	35.417
792.56	47.000
792.87	47.561
793.17	40.909
793.48	48.235
793.79	47.126
794.09	36.364
794.40	52.586
794.70	42.063
795.01	43.846
795.32	41.985
795.62	35.897
795.93	41.176
796.23	40.650
796.54	37.755
796.85	51.136
797.15	58.442
797.46	52.439
797.76	30.000
798.07	54.667
798.37	50.000
798.68	55.000
798.99	48.780
799.29	48.000
799.60	38.372
799.90	46.053
800.21	57.576
800.51	50.704
800.82	60.345
801.12	64.615
801.43	64.000
801.73	50.000
802.04	53.247
802.34	47.945
802.65	60.784
802.95	73.913
803.26	59.677
803.56	71.667
803.87	62.687
804.17	65.079
804.48	56.604
804.78	56.944
805.09	66.667
805.39	57.143
805.70	59.649
806.00	41.429
806.30	57.813
806.61	44.706
806.91	48.889
807.22	48.913
807.52	52.632
807.83	61.842
808.13	50.725
808.43	75.806
808.74	54.795
809.04	51.786
809.35	66.176
809.65	57.576
809.95	72.549
810.26	70.370
810.56	60.938
810.86	63.265
811.17	64.912
811.47	65.217
811.77	67.241
812.08	44.828
812.38	73.810
812.69	45.238
812.99	48.889
813.29	65.714
813.59	77.419
813.90	56.897
814.20	78.689
814.50	64.000
814.81	45.614
815.11	66.667
815.41	58.929
815.72	66.071
816.02	76.000
816.32	43.902
816.62	79.310
816.93	112.121
817.23	73.171
817.53	75.000
817.84	57.778
818.14	61.905
818.44	68.750
818.74	64.151
819.04	53.846
819.35	90.909
819.65	92.308
819.95	94.444
820.25	78.723
820.56	97.297
820.86	71.053
821.16	48.936
821.46	92.105
821.76	65.455
822.07	33.333
822.37	42.105
822.67	74.419
822.97	52.632
823.27	71.739
823.57	53.125
823.88	53.846
824.18	96.970
824.48	91.304
824.78	66.667
825.08	113.043
825.38	103.448
825.69	82.353
825.99	74.468
826.29	83.333
826.59	111.429
826.89	86.667
827.19	74.286
827.49	96.774
827.79	134.615
828.09	76.190
828.39	72.222
828.70	54.054
829.00	107.143
829.30	168.750
829.60	83.333
829.90	87.097
830.20	75.758
830.50	116.216
830.80	87.500
831.10	119.231
831.40	71.429
831.70	166.667
832.00	76.667
832.30	108.696
832.60	104.167
832.90	109.091
833.20	115.000
833.50	113.158
833.80	91.176
834.10	57.895
834.40	63.158
834.70	73.333
835.00	120.000
835.30	86.486
835.60	100.000
835.90	100.000
836.20	103.846
836.50	127.273
836.80	70.732
837.10	73.913
837.40	161.538
837.70	52.632
838.00	133.333
838.30	125.000
838.60	120.000
838.90	200.000
839.19	100.000
839.49	103.333
839.79	82.759
840.09	123.077
840.39	100.000
840.69	126.316
840.99	85.714
841.29	95.652
841.59	115.000
841.88	124.000
842.18	166.667
842.48	128.571
842.78	100.000
843.08	176.923
843.38	136.364
843.68	214.286
843.97	428.571
844.27	95.652
844.57	900.000
844.87	164.286
845.17	122.222
845.47	100.000
845.76	120.833
846.06	271.429
846.36	129.412
846.66	184.615
846.96	156.250
847.25	184.615
847.55	152.632
847.85	100.000
848.15	320.000
848.44	200.000
848.74	109.524
849.04	129.167
849.34	135.294
849.63	193.750
849.93	175.000
850.23	400.000
850.53	175.000
850.82	200.000
851.12	135.294
851.42	133.333
851.71	168.750
852.01	0.000
852.31	176.471
852.61	330.000
852.90	116.667
853.20	266.667
853.50	-1400.000
853.79	100.000
854.09	103.125
854.39	72.414
854.68	124.138
854.98	142.857
855.28	106.452
855.57	121.429
855.87	161.111
856.17	122.222
856.46	121.053
856.76	116.129
857.05	194.118
857.35	209.091
857.65	192.308
857.94	95.000
858.24	233.333
858.53	214.286
858.83	442.857
859.13	160.870
859.42	222.222
859.72	262.500
860.01	125.000
860.31	775.000
860.60	250.000
860.90	262.500
861.20	184.615
861.49	228.571
861.79	-2400.000
862.08	428.571
862.38	177.778
862.67	135.714
862.97	200.000
863.26	96.667
863.56	450.000
863.85	107.692
864.15	152.941
864.44	166.667
864.74	225.000
865.03	172.727
865.33	212.500
865.62	166.667
865.92	483.333
866.21	600.000
866.51	340.000
866.80	194.444
867.10	800.000
867.39	1800.000
867.69	360.000
867.98	700.000
868.27	161.905
868.57	226.667
868.86	675.000
869.16	123.810
869.45	2400.000
869.75	-133.333
870.04	325.000
870.33	440.000
870.63	200.000
870.92	211.765
871.22	625.000
871.51	357.143
871.80	158.333
872.10	323.077
>>>>>End Processed Spectral Data<<<<<
