SpectraSuite Data File
++++++++++++++++++++++++++++++++++++
Date: Tue May 12 15:29:09 PDT 2015
User: schluterlab
Dark Spectrum Present: Yes
Reference Spectrum Present: Yes
Number of Sampled Component Spectra: 1
Spectrometers: USB2E3373
Integration Time (usec): 3000 (USB2E3373)
Spectra Averaged: 3 (USB2E3373)
Boxcar Smoothing: 0 (USB2E3373)
Correct for Electrical Dark: No (USB2E3373)
Strobe/Lamp Enabled: No (USB2E3373)
Correct for Detector Non-linearity: No (USB2E3373)
Correct for Stray Light: No (USB2E3373)
Number of Pixels in Processed Spectrum: 2048
>>>>>Begin Processed Spectral Data<<<<<
178.53	0.000
178.91	-308.333
179.29	-875.000
179.67	-3800.000
180.04	-173.333
180.42	900.000
180.80	2050.000
181.18	0.000
181.56	-275.000
181.94	0.000
182.31	1233.333
182.69	-3100.000
183.07	628.571
183.45	-4200.000
183.83	-1600.000
184.20	330.000
184.58	571.429
184.96	-269.231
185.34	-325.000
185.72	1950.000
186.09	-1025.000
186.47	-3500.000
186.85	1166.667
187.23	680.000
187.61	2350.000
187.98	550.000
188.36	257.143
188.74	350.000
189.12	316.667
189.49	1075.000
189.87	0.000
190.25	462.500
190.63	2600.000
191.00	-216.667
191.38	-3200.000
191.76	-700.000
192.14	500.000
192.51	-2800.000
192.89	1750.000
193.27	1233.333
193.65	-1266.667
194.02	-880.000
194.40	557.143
194.78	-221.429
195.15	253.333
195.53	-4000.000
195.91	-540.000
196.29	3900.000
196.66	300.000
197.04	1050.000
197.42	-1500.000
197.79	550.000
198.17	291.667
198.55	0.000
198.92	557.143
199.30	1100.000
199.68	1900.000
200.05	800.000
200.43	-483.333
200.81	222.222
201.18	5100.000
201.56	300.000
201.94	-950.000
202.31	-312.500
202.69	-600.000
203.07	2900.000
203.44	-483.333
203.82	416.667
204.19	740.000
204.57	-1300.000
204.95	-800.000
205.32	-600.000
205.70	516.667
206.08	800.000
206.45	-933.333
206.83	355.556
207.20	210.526
207.58	350.000
207.96	700.000
208.33	0.000
208.71	557.143
209.08	760.000
209.46	-2600.000
209.84	-850.000
210.21	920.000
210.59	-480.000
210.96	316.667
211.34	-800.000
211.71	372.727
212.09	1050.000
212.46	2000.000
212.84	-466.667
213.22	488.889
213.59	-2900.000
213.97	370.000
214.34	1125.000
214.72	1333.333
215.09	1000.000
215.47	-3300.000
215.84	-380.000
216.22	-525.000
216.59	0.000
216.97	0.000
217.34	1750.000
217.72	-1700.000
218.09	1000.000
218.47	575.000
218.84	950.000
219.22	1033.333
219.59	1033.333
219.97	428.571
220.34	355.556
220.72	1700.000
221.09	3700.000
221.47	383.333
221.84	1400.000
222.22	350.000
222.59	266.667
222.97	257.143
223.34	206.250
223.72	-1350.000
224.09	1166.667
224.46	284.615
224.84	-1100.000
225.21	388.889
225.59	240.000
225.96	1400.000
226.34	-720.000
226.71	-650.000
227.08	-580.000
227.46	0.000
227.83	-683.333
228.21	-1600.000
228.58	375.000
228.95	825.000
229.33	411.111
229.70	1000.000
230.08	369.231
230.45	3200.000
230.82	-875.000
231.20	-866.667
231.57	-1066.667
231.95	540.000
232.32	325.000
232.69	600.000
233.07	316.667
233.44	-1650.000
233.81	313.333
234.19	166.667
234.56	287.500
234.93	170.588
235.31	215.000
235.68	237.500
236.05	175.000
236.43	125.926
236.80	242.857
237.17	148.276
237.55	103.125
237.92	107.500
238.29	121.212
238.67	112.500
239.04	75.610
239.41	77.083
239.79	67.500
240.16	70.833
240.53	55.738
240.91	59.420
241.28	61.017
241.65	68.182
242.02	61.972
242.40	58.571
242.77	46.154
243.14	45.570
243.51	43.434
243.89	36.449
244.26	35.514
244.63	35.644
245.00	37.615
245.38	24.576
245.75	43.939
246.12	31.852
246.49	26.950
246.87	25.410
247.24	32.000
247.61	28.125
247.98	25.850
248.36	23.030
248.73	30.612
249.10	14.881
249.47	20.000
249.84	26.368
250.22	19.459
250.59	22.000
250.96	21.097
251.33	20.000
251.70	19.643
252.08	20.168
252.45	16.733
252.82	14.829
253.19	18.972
253.56	14.615
253.94	19.203
254.31	15.891
254.68	13.589
255.05	19.310
255.42	15.693
255.79	16.287
256.16	15.593
256.54	16.558
256.91	12.092
257.28	14.716
257.65	13.793
258.02	11.799
258.39	15.186
258.76	15.072
259.14	13.143
259.51	14.869
259.88	11.854
260.25	8.242
260.62	14.247
260.99	9.091
261.36	11.699
261.73	10.904
262.10	12.827
262.47	11.000
262.85	9.867
263.22	12.853
263.59	11.765
263.96	12.030
264.33	13.827
264.70	12.285
265.07	14.146
265.44	12.385
265.81	12.028
266.18	12.357
266.55	8.983
266.92	10.738
267.29	12.500
267.66	10.538
268.03	8.969
268.40	9.725
268.77	9.692
269.14	8.894
269.51	11.359
269.88	13.265
270.25	5.832
270.62	9.657
270.99	12.982
271.36	12.195
271.73	11.111
272.10	8.889
272.47	7.937
272.84	9.581
273.21	9.298
273.58	12.551
273.95	7.392
274.32	10.700
274.69	9.843
275.06	10.929
275.43	9.195
275.80	8.679
276.17	10.294
276.54	9.907
276.91	10.634
277.28	9.854
277.65	9.410
278.02	11.581
278.39	9.892
278.76	9.310
279.13	9.431
279.50	11.273
279.87	8.752
280.23	8.656
280.60	8.394
280.97	9.310
281.34	9.406
281.71	9.565
282.08	10.085
282.45	9.291
282.82	8.863
283.19	9.062
283.56	9.421
283.92	6.189
284.29	9.651
284.66	8.739
285.03	8.458
285.40	8.926
285.77	7.407
286.14	9.752
286.51	9.509
286.87	7.753
287.24	5.556
287.61	7.599
287.98	8.806
288.35	9.185
288.72	7.739
289.08	8.559
289.45	8.689
289.82	8.125
290.19	8.785
290.56	9.316
290.93	9.065
291.29	8.840
291.66	8.898
292.03	8.135
292.40	7.995
292.77	8.774
293.13	8.417
293.50	6.478
293.87	6.775
294.24	9.930
294.60	9.690
294.97	8.392
295.34	8.101
295.71	8.541
296.08	8.267
296.44	7.497
296.81	7.816
297.18	7.351
297.55	8.374
297.91	7.389
298.28	8.937
298.65	8.589
299.02	9.409
299.38	7.914
299.75	7.561
300.12	8.601
300.48	9.016
300.85	8.224
301.22	8.721
301.59	6.722
301.95	8.051
302.32	7.916
302.69	8.371
303.05	9.428
303.42	7.960
303.79	8.776
304.15	7.151
304.52	7.611
304.89	8.955
305.25	7.675
305.62	8.955
305.99	7.065
306.35	7.684
306.72	7.804
307.09	8.075
307.45	7.286
307.82	7.716
308.19	8.454
308.55	8.200
308.92	8.832
309.29	8.974
309.65	8.523
310.02	7.606
310.38	7.777
310.75	7.232
311.12	7.663
311.48	9.363
311.85	8.397
312.22	8.023
312.58	8.163
312.95	8.738
313.31	8.801
313.68	8.068
314.05	9.249
314.41	7.821
314.78	8.239
315.14	7.488
315.51	8.515
315.87	7.847
316.24	8.777
316.61	7.968
316.97	8.073
317.34	8.985
317.70	8.165
318.07	9.520
318.43	8.875
318.80	9.370
319.16	9.615
319.53	7.965
319.89	8.065
320.26	8.845
320.62	8.883
320.99	8.961
321.35	8.998
321.72	9.393
322.08	9.141
322.45	9.628
322.81	9.698
323.18	10.480
323.54	10.976
323.91	9.791
324.27	9.991
324.64	9.516
325.00	10.259
325.37	9.865
325.73	10.793
326.10	10.771
326.46	11.230
326.83	10.160
327.19	12.771
327.56	11.581
327.92	13.033
328.29	13.011
328.65	13.185
329.01	13.003
329.38	13.283
329.74	12.553
330.11	14.248
330.47	13.896
330.84	13.632
331.20	14.129
331.56	15.889
331.93	14.371
332.29	14.541
332.66	15.731
333.02	15.464
333.38	15.532
333.75	16.764
334.11	15.604
334.48	16.325
334.84	16.554
335.20	16.852
335.57	17.296
335.93	17.494
336.29	16.667
336.66	18.268
337.02	15.997
337.38	17.885
337.75	17.230
338.11	17.468
338.47	17.951
338.84	17.358
339.20	16.190
339.56	17.157
339.93	18.478
340.29	16.303
340.65	17.687
341.02	17.940
341.38	17.406
341.74	18.522
342.11	16.528
342.47	18.294
342.83	18.704
343.20	17.785
343.56	17.395
343.92	17.424
344.28	17.943
344.65	18.419
345.01	17.778
345.37	16.907
345.73	17.222
346.10	17.131
346.46	17.863
346.82	16.590
347.19	17.929
347.55	17.018
347.91	18.429
348.27	16.809
348.63	17.880
349.00	17.517
349.36	16.654
349.72	18.272
350.08	19.022
350.45	17.441
350.81	18.272
351.17	17.411
351.53	17.090
351.89	17.327
352.26	17.611
352.62	17.798
352.98	18.252
353.34	18.336
353.70	16.972
354.07	17.385
354.43	17.972
354.79	16.932
355.15	17.611
355.51	17.749
355.87	17.922
356.24	17.552
356.60	17.123
356.96	16.376
357.32	17.257
357.68	18.135
358.04	18.085
358.40	17.616
358.77	16.679
359.13	17.042
359.49	17.791
359.85	17.498
360.21	17.905
360.57	17.810
360.93	17.388
361.29	17.605
361.66	18.419
362.02	17.330
362.38	17.605
362.74	17.481
363.10	16.690
363.46	16.644
363.82	17.742
364.18	17.710
364.54	17.525
364.90	17.604
365.26	17.141
365.62	16.920
365.98	16.930
366.35	16.621
366.71	16.933
367.07	16.655
367.43	17.327
367.79	16.423
368.15	16.079
368.51	17.161
368.87	16.780
369.23	16.286
369.59	16.588
369.95	16.923
370.31	16.222
370.67	16.933
371.03	17.927
371.39	17.175
371.75	17.167
372.11	17.743
372.47	17.397
372.83	16.723
373.19	17.615
373.55	16.770
373.91	16.436
374.27	17.394
374.63	17.288
374.99	16.914
375.35	17.204
375.71	17.216
376.07	16.180
376.42	15.985
376.78	17.598
377.14	17.431
377.50	17.291
377.86	16.208
378.22	16.210
378.58	18.220
378.94	16.657
379.30	16.131
379.66	16.978
380.02	17.537
380.38	16.101
380.74	17.070
381.09	16.881
381.45	16.416
381.81	16.371
382.17	16.361
382.53	16.557
382.89	16.322
383.25	16.459
383.61	16.138
383.97	16.557
384.32	15.973
384.68	17.291
385.04	16.706
385.40	16.370
385.76	16.618
386.12	16.574
386.48	16.413
386.83	16.626
387.19	15.548
387.55	16.196
387.91	16.859
388.27	16.776
388.62	16.373
388.98	16.443
389.34	15.051
389.70	15.979
390.06	16.524
390.42	16.039
390.77	15.602
391.13	15.872
391.49	15.789
391.85	17.292
392.20	15.971
392.56	16.428
392.92	15.722
393.28	15.751
393.64	15.596
393.99	15.886
394.35	15.597
394.71	15.440
395.07	16.119
395.42	15.574
395.78	16.101
396.14	16.446
396.50	16.125
396.85	15.610
397.21	15.403
397.57	15.481
397.92	15.598
398.28	15.389
398.64	16.172
399.00	14.591
399.35	15.727
399.71	15.673
400.07	15.696
400.42	15.284
400.78	15.601
401.14	15.796
401.49	15.495
401.85	15.759
402.21	15.641
402.57	15.859
402.92	16.242
403.28	14.857
403.63	14.832
403.99	15.018
404.35	16.120
404.70	15.239
405.06	15.048
405.42	15.021
405.77	15.105
406.13	14.751
406.49	14.383
406.84	14.608
407.20	14.612
407.55	15.138
407.91	15.571
408.27	15.585
408.62	14.902
408.98	15.316
409.34	14.436
409.69	14.561
410.05	14.132
410.40	13.840
410.76	14.196
411.11	13.922
411.47	14.012
411.83	14.177
412.18	14.191
412.54	14.234
412.89	14.690
413.25	13.911
413.60	14.603
413.96	14.722
414.31	14.168
414.67	14.649
415.03	14.368
415.38	14.574
415.74	14.908
416.09	15.053
416.45	15.708
416.80	15.074
417.16	14.322
417.51	15.732
417.87	14.456
418.22	13.852
418.58	14.713
418.93	14.277
419.29	13.986
419.64	14.173
420.00	14.737
420.35	14.344
420.71	14.586
421.06	14.126
421.42	13.990
421.77	14.492
422.12	13.837
422.48	14.381
422.83	14.621
423.19	14.201
423.54	14.043
423.90	14.553
424.25	14.199
424.61	14.103
424.96	14.399
425.31	14.559
425.67	14.422
426.02	13.853
426.38	14.236
426.73	14.286
427.09	14.413
427.44	14.181
427.79	13.779
428.15	14.968
428.50	14.857
428.85	14.874
429.21	14.857
429.56	14.506
429.92	14.620
430.27	14.175
430.62	14.146
430.98	14.571
431.33	13.810
431.68	13.926
432.04	14.589
432.39	14.435
432.74	14.930
433.10	14.729
433.45	14.647
433.80	15.885
434.16	14.766
434.51	15.015
434.86	15.406
435.22	15.127
435.57	15.116
435.92	16.050
436.28	15.150
436.63	15.829
436.98	15.146
437.34	15.925
437.69	15.398
438.04	15.538
438.39	15.762
438.75	15.924
439.10	16.028
439.45	16.337
439.81	15.963
440.16	15.850
440.51	15.541
440.86	16.809
441.22	15.963
441.57	15.696
441.92	15.745
442.27	15.670
442.63	15.346
442.98	15.463
443.33	17.140
443.68	15.996
444.03	16.211
444.39	16.855
444.74	16.460
445.09	16.377
445.44	17.109
445.79	16.569
446.15	16.684
446.50	16.245
446.85	17.281
447.20	16.368
447.55	16.803
447.91	17.901
448.26	17.891
448.61	17.081
448.96	18.410
449.31	17.272
449.66	18.605
450.02	17.018
450.37	17.546
450.72	18.678
451.07	18.499
451.42	18.198
451.77	17.869
452.12	18.945
452.47	18.530
452.83	18.197
453.18	18.979
453.53	18.650
453.88	19.086
454.23	18.594
454.58	19.056
454.93	18.761
455.28	19.461
455.63	18.676
455.98	19.402
456.34	18.602
456.69	19.939
457.04	19.033
457.39	18.743
457.74	20.101
458.09	18.417
458.44	19.277
458.79	18.780
459.14	18.876
459.49	19.536
459.84	19.565
460.19	19.322
460.54	20.342
460.89	19.350
461.24	19.359
461.59	19.274
461.94	19.622
462.29	20.080
462.64	20.038
462.99	19.642
463.34	20.933
463.69	20.327
464.04	20.092
464.39	20.435
464.74	19.226
465.09	19.791
465.44	19.423
465.79	19.597
466.14	19.131
466.49	19.588
466.84	19.231
467.19	19.742
467.54	19.760
467.89	20.657
468.24	19.224
468.59	20.238
468.94	20.411
469.29	20.098
469.64	20.386
469.99	21.208
470.34	19.734
470.68	21.241
471.03	21.214
471.38	20.728
471.73	20.771
472.08	21.526
472.43	20.608
472.78	21.063
473.13	20.088
473.48	20.782
473.83	21.555
474.17	20.426
474.52	21.031
474.87	19.557
475.22	20.902
475.57	20.409
475.92	20.235
476.27	20.511
476.61	19.732
476.96	20.585
477.31	20.925
477.66	20.290
478.01	20.165
478.36	20.855
478.70	20.695
479.05	20.241
479.40	20.833
479.75	21.102
480.10	20.474
480.45	20.308
480.79	20.968
481.14	20.542
481.49	20.174
481.84	20.361
482.19	21.266
482.53	20.114
482.88	20.878
483.23	21.065
483.58	21.140
483.92	21.572
484.27	20.634
484.62	21.138
484.97	20.686
485.31	20.126
485.66	19.926
486.01	19.829
486.36	19.170
486.70	18.987
487.05	19.371
487.40	19.991
487.75	20.280
488.09	20.227
488.44	20.618
488.79	20.965
489.13	21.277
489.48	21.774
489.83	20.809
490.17	20.727
490.52	21.447
490.87	21.983
491.22	22.119
491.56	22.222
491.91	21.237
492.26	22.494
492.60	22.415
492.95	22.066
493.30	22.111
493.64	21.608
493.99	22.451
494.34	21.649
494.68	22.089
495.03	22.137
495.37	22.062
495.72	22.331
496.07	22.327
496.41	21.677
496.76	22.161
497.11	23.136
497.45	22.052
497.80	22.892
498.14	22.469
498.49	22.423
498.84	23.645
499.18	21.892
499.53	22.692
499.87	22.642
500.22	22.708
500.56	22.331
500.91	23.516
501.26	22.370
501.60	22.769
501.95	22.222
502.29	22.400
502.64	22.364
502.98	22.454
503.33	22.539
503.67	22.958
504.02	22.078
504.36	22.941
504.71	23.368
505.06	23.135
505.40	23.397
505.75	23.386
506.09	24.078
506.44	23.402
506.78	23.440
507.13	22.976
507.47	22.902
507.82	23.455
508.16	24.645
508.51	23.430
508.85	23.314
509.19	23.691
509.54	24.365
509.88	24.416
510.23	23.627
510.57	23.456
510.92	24.026
511.26	22.490
511.61	23.191
511.95	23.494
512.30	24.500
512.64	24.195
512.98	23.578
513.33	23.822
513.67	25.065
514.02	24.260
514.36	24.195
514.70	24.000
515.05	24.720
515.39	25.055
515.74	24.276
516.08	24.129
516.42	25.574
516.77	24.427
517.11	24.587
517.46	24.946
517.80	24.741
518.14	25.014
518.49	24.587
518.83	24.780
519.17	25.236
519.52	25.451
519.86	25.450
520.20	26.027
520.55	25.721
520.89	25.287
521.23	26.694
521.58	25.129
521.92	25.539
522.26	25.711
522.61	25.906
522.95	26.426
523.29	25.614
523.64	24.682
523.98	26.115
524.32	25.433
524.66	26.493
525.01	25.444
525.35	25.103
525.69	26.972
526.04	26.234
526.38	25.839
526.72	26.193
527.06	25.843
527.41	26.965
527.75	27.389
528.09	25.768
528.43	25.991
528.78	26.357
529.12	26.911
529.46	26.534
529.80	25.993
530.15	26.576
530.49	25.511
530.83	26.204
531.17	25.953
531.51	27.590
531.86	26.087
532.20	26.267
532.54	26.930
532.88	26.796
533.22	27.849
533.57	26.419
533.91	26.515
534.25	26.428
534.59	26.667
534.93	26.451
535.27	26.181
535.62	26.138
535.96	26.359
536.30	28.275
536.64	25.963
536.98	26.872
537.32	27.375
537.66	26.849
538.01	27.802
538.35	27.261
538.69	27.306
539.03	26.617
539.37	27.002
539.71	27.284
540.05	27.200
540.39	28.302
540.73	28.291
541.07	26.913
541.42	27.612
541.76	27.189
542.10	26.202
542.44	27.182
542.78	27.627
543.12	26.503
543.46	27.882
543.80	27.444
544.14	27.616
544.48	27.311
544.82	27.278
545.16	26.837
545.50	28.396
545.84	27.652
546.18	29.259
546.52	28.328
546.86	28.046
547.20	27.713
547.54	27.549
547.88	28.285
548.22	27.019
548.56	28.344
548.90	27.817
549.24	28.869
549.58	28.093
549.92	28.946
550.26	28.330
550.60	28.942
550.94	29.037
551.28	29.724
551.62	30.483
551.96	28.784
552.30	28.016
552.64	29.126
552.98	27.899
553.32	27.657
553.66	27.818
554.00	28.829
554.34	29.294
554.68	28.696
555.02	29.328
555.36	29.189
555.69	28.665
556.03	29.427
556.37	28.681
556.71	29.531
557.05	28.506
557.39	30.000
557.73	29.380
558.07	29.913
558.41	29.198
558.75	30.848
559.08	30.379
559.42	30.780
559.76	30.221
560.10	29.800
560.44	30.392
560.78	30.371
561.12	30.006
561.45	29.287
561.79	29.276
562.13	29.311
562.47	29.461
562.81	30.514
563.15	29.541
563.48	29.627
563.82	31.004
564.16	30.659
564.50	28.813
564.84	29.179
565.17	29.352
565.51	30.234
565.85	30.228
566.19	29.821
566.52	30.084
566.86	31.290
567.20	30.337
567.54	30.186
567.88	30.151
568.21	28.957
568.55	30.447
568.89	29.653
569.23	27.783
569.56	28.954
569.90	28.279
570.24	28.859
570.57	28.164
570.91	27.769
571.25	27.758
571.59	27.073
571.92	27.072
572.26	27.089
572.60	27.853
572.93	28.321
573.27	27.542
573.61	27.748
573.95	27.067
574.28	28.236
574.62	27.014
574.96	26.695
575.29	26.873
575.63	26.549
575.97	27.386
576.30	27.335
576.64	27.536
576.98	27.653
577.31	27.884
577.65	27.218
577.98	27.227
578.32	26.769
578.66	27.177
578.99	27.418
579.33	27.988
579.67	27.925
580.00	27.494
580.34	27.895
580.67	27.718
581.01	28.374
581.35	27.867
581.68	27.342
582.02	27.693
582.35	27.823
582.69	27.529
583.02	27.486
583.36	28.623
583.70	28.315
584.03	29.232
584.37	29.480
584.70	29.087
585.04	28.551
585.37	28.472
585.71	29.685
586.04	29.143
586.38	28.753
586.72	29.550
587.05	28.821
587.39	29.608
587.72	29.275
588.06	28.880
588.39	29.759
588.73	29.692
589.06	30.231
589.40	30.485
589.73	30.613
590.07	31.091
590.40	30.836
590.73	32.024
591.07	31.879
591.40	31.098
591.74	32.143
592.07	31.364
592.41	31.295
592.74	31.088
593.08	30.664
593.41	29.803
593.75	30.249
594.08	30.982
594.41	30.694
594.75	31.062
595.08	31.722
595.42	31.402
595.75	31.556
596.09	32.047
596.42	32.338
596.75	32.652
597.09	32.934
597.42	32.653
597.75	32.657
598.09	31.924
598.42	32.273
598.76	32.035
599.09	32.218
599.42	31.696
599.76	31.377
600.09	31.932
600.42	32.217
600.76	32.087
601.09	32.516
601.42	31.855
601.76	32.474
602.09	33.149
602.42	32.717
602.76	32.638
603.09	32.164
603.42	32.147
603.76	32.646
604.09	32.537
604.42	33.183
604.76	33.821
605.09	33.510
605.42	33.685
605.75	33.439
606.09	32.862
606.42	32.394
606.75	33.579
607.09	32.649
607.42	32.945
607.75	33.041
608.08	32.778
608.42	34.144
608.75	33.333
609.08	33.260
609.41	34.773
609.75	34.341
610.08	34.128
610.41	34.739
610.74	33.939
611.07	35.152
611.41	34.384
611.74	34.799
612.07	34.778
612.40	35.478
612.73	34.798
613.07	35.530
613.40	34.887
613.73	35.097
614.06	34.700
614.39	35.556
614.72	35.510
615.06	34.322
615.39	35.545
615.72	34.656
616.05	35.711
616.38	35.312
616.71	34.346
617.05	34.926
617.38	35.787
617.71	36.727
618.04	36.231
618.37	36.576
618.70	35.566
619.03	36.447
619.36	36.809
619.69	37.269
620.03	38.030
620.36	37.572
620.69	37.484
621.02	37.976
621.35	37.894
621.68	38.053
622.01	38.745
622.34	38.820
622.67	38.834
623.00	38.121
623.33	37.045
623.66	37.525
623.99	39.041
624.32	38.211
624.65	37.261
624.99	37.728
625.32	37.876
625.65	37.793
625.98	38.354
626.31	40.356
626.64	39.332
626.97	38.256
627.30	39.053
627.63	39.874
627.96	38.185
628.29	40.759
628.62	39.521
628.95	41.223
629.28	41.805
629.61	41.916
629.94	40.709
630.26	40.035
630.59	41.755
630.92	40.090
631.25	40.345
631.58	42.334
631.91	42.245
632.24	40.428
632.57	41.847
632.90	43.996
633.23	45.435
633.56	43.203
633.89	42.444
634.22	44.026
634.55	44.731
634.88	44.907
635.20	44.283
635.53	46.806
635.86	44.631
636.19	42.649
636.52	42.703
636.85	41.532
637.18	43.662
637.51	44.022
637.83	42.677
638.16	45.252
638.49	45.150
638.82	44.718
639.15	44.183
639.48	45.853
639.81	44.689
640.13	45.399
640.46	45.891
640.79	46.034
641.12	44.094
641.45	46.572
641.77	45.971
642.10	44.177
642.43	47.368
642.76	46.023
643.09	47.983
643.41	47.686
643.74	47.770
644.07	48.083
644.40	47.781
644.73	47.447
645.05	49.183
645.38	49.617
645.71	49.165
646.04	48.244
646.36	46.948
646.69	47.200
647.02	50.720
647.35	47.087
647.67	50.405
648.00	49.837
648.33	49.925
648.66	48.939
648.98	46.377
649.31	44.804
649.64	44.260
649.96	47.226
650.29	48.429
650.62	46.686
650.94	47.590
651.27	50.239
651.60	47.887
651.92	48.848
652.25	49.134
652.58	46.383
652.90	47.904
653.23	47.415
653.56	48.071
653.88	46.549
654.21	46.774
654.54	48.902
654.86	47.640
655.19	46.834
655.52	39.523
655.84	30.830
656.17	36.052
656.49	51.324
656.82	59.111
657.15	47.510
657.47	36.062
657.80	26.778
658.13	21.427
658.45	29.145
658.78	35.966
659.10	36.261
659.43	38.119
659.75	40.359
660.08	43.296
660.41	45.191
660.73	48.808
661.06	47.898
661.38	52.470
661.71	52.158
662.03	52.852
662.36	49.905
662.68	49.907
663.01	53.333
663.33	48.113
663.66	51.282
663.98	53.968
664.31	50.746
664.63	51.916
664.96	52.720
665.28	48.964
665.61	51.321
665.93	52.453
666.26	53.458
666.58	52.477
666.91	51.544
667.23	51.205
667.56	52.567
667.88	52.697
668.21	53.893
668.53	55.242
668.86	56.513
669.18	53.971
669.50	50.620
669.83	52.361
670.15	53.638
670.48	49.219
670.80	50.199
671.13	54.183
671.45	50.701
671.77	50.649
672.10	49.192
672.42	49.507
672.75	49.051
673.07	48.013
673.39	48.722
673.72	50.173
674.04	48.925
674.37	52.087
674.69	50.186
675.01	48.507
675.34	49.612
675.66	48.633
675.98	51.874
676.31	52.800
676.63	50.895
676.95	50.794
677.28	50.913
677.60	52.716
677.92	46.825
678.25	50.194
678.57	49.162
678.89	50.633
679.22	51.471
679.54	49.288
679.86	50.087
680.18	50.088
680.51	48.259
680.83	48.142
681.15	49.393
681.48	50.868
681.80	50.963
682.12	49.481
682.44	48.468
682.77	48.754
683.09	53.204
683.41	54.898
683.73	51.969
684.06	49.405
684.38	51.550
684.70	47.482
685.02	49.479
685.34	50.352
685.67	48.232
685.99	46.798
686.31	46.841
686.63	46.992
686.96	49.510
687.28	48.322
687.60	48.123
687.92	46.399
688.24	51.379
688.56	50.000
688.89	48.375
689.21	50.867
689.53	49.802
689.85	53.862
690.17	51.456
690.49	51.815
690.82	52.941
691.14	53.535
691.46	52.977
691.78	51.267
692.10	50.191
692.42	46.098
692.74	50.581
693.06	49.225
693.39	48.024
693.71	52.652
694.03	53.649
694.35	56.426
694.67	49.084
694.99	52.550
695.31	54.054
695.63	53.394
695.95	50.679
696.27	54.646
696.59	54.893
696.91	57.468
697.23	53.394
697.56	46.473
697.88	49.501
698.20	49.245
698.52	49.805
698.84	50.924
699.16	53.518
699.48	52.966
699.80	54.248
700.12	53.349
700.44	54.673
700.76	54.177
701.08	57.180
701.40	56.364
701.72	57.754
702.04	60.163
702.36	58.065
702.68	55.585
703.00	53.383
703.32	52.109
703.64	54.912
703.96	57.031
704.28	57.672
704.60	58.873
704.91	54.622
705.23	57.386
705.55	55.786
705.87	59.683
706.19	59.248
706.51	63.950
706.83	57.522
707.15	54.813
707.47	52.300
707.79	50.805
708.11	52.154
708.43	49.888
708.74	50.452
709.06	50.698
709.38	54.342
709.70	52.861
710.02	52.717
710.34	53.039
710.66	54.167
710.98	52.732
711.29	54.318
711.61	59.889
711.93	58.359
712.25	59.639
712.57	55.627
712.89	55.152
713.20	59.105
713.52	55.140
713.84	57.402
714.16	54.203
714.48	50.432
714.80	54.201
715.11	52.660
715.43	55.307
715.75	53.521
716.07	53.179
716.39	54.857
716.70	55.452
717.02	57.912
717.34	62.590
717.66	60.764
717.97	67.803
718.29	60.915
718.61	53.378
718.93	58.824
719.24	54.698
719.56	56.897
719.88	51.274
720.20	58.387
720.51	52.941
720.83	57.191
721.15	58.163
721.46	58.562
721.78	62.718
722.10	59.028
722.42	59.197
722.73	55.596
723.05	60.702
723.37	57.951
723.68	60.156
724.00	60.227
724.32	58.175
724.63	57.308
724.95	58.824
725.27	58.736
725.58	59.559
725.90	54.577
726.22	56.507
726.53	57.191
726.85	55.375
727.16	61.745
727.48	49.502
727.80	61.871
728.11	56.429
728.43	57.609
728.74	63.986
729.06	56.631
729.38	58.947
729.69	60.000
730.01	58.224
730.32	53.020
730.64	56.146
730.96	54.354
731.27	50.153
731.59	48.563
731.90	49.304
732.22	52.286
732.53	50.997
732.85	52.632
733.16	54.217
733.48	54.232
733.80	50.725
734.11	55.521
734.43	54.971
734.74	52.547
735.06	50.000
735.37	48.711
735.69	46.667
736.00	57.492
736.32	50.606
736.63	46.372
736.95	51.863
737.26	52.134
737.58	52.761
737.89	48.795
738.21	54.636
738.52	55.184
738.83	57.143
739.15	54.007
739.46	52.414
739.78	54.422
740.09	49.563
740.41	55.215
740.72	55.873
741.04	55.245
741.35	57.812
741.66	58.893
741.98	64.807
742.29	58.796
742.61	58.407
742.92	55.508
743.23	54.400
743.55	53.962
743.86	54.118
744.18	55.932
744.49	59.091
744.80	63.594
745.12	58.929
745.43	63.084
745.74	61.778
746.06	60.526
746.37	58.140
746.68	60.619
747.00	58.296
747.31	59.244
747.62	54.098
747.94	60.086
748.25	56.809
748.56	61.017
748.88	64.732
749.19	62.791
749.50	59.817
749.82	62.140
750.13	60.870
750.44	50.000
750.75	50.671
751.07	53.618
751.38	48.185
751.69	52.525
752.01	51.049
752.32	52.159
752.63	56.040
752.94	54.895
753.26	60.156
753.57	58.755
753.88	54.682
754.19	59.928
754.51	53.488
754.82	52.013
755.13	50.000
755.44	55.185
755.75	55.326
756.07	53.425
756.38	52.941
756.69	52.500
757.00	54.303
757.31	52.676
757.63	46.832
757.94	48.404
758.25	47.343
758.56	46.911
758.87	49.624
759.18	52.035
759.50	48.936
759.81	53.412
760.12	48.596
760.43	50.420
760.74	49.114
761.05	48.541
761.36	43.490
761.67	46.361
761.99	50.704
762.30	53.698
762.61	48.264
762.92	52.273
763.23	55.849
763.54	53.077
763.85	56.031
764.16	51.042
764.47	50.338
764.78	50.814
765.10	47.866
765.41	45.739
765.72	45.856
766.03	51.360
766.34	49.826
766.65	55.894
766.96	56.680
767.27	65.888
767.58	59.901
767.89	68.508
768.20	76.220
768.51	60.714
768.82	55.702
769.13	51.765
769.44	53.008
769.75	47.566
770.06	56.303
770.37	51.754
770.68	54.222
770.99	58.898
771.30	54.812
771.61	53.462
771.92	52.290
772.23	51.613
772.54	58.222
772.85	56.931
773.16	62.500
773.47	60.556
773.78	56.931
774.09	66.477
774.39	65.455
774.70	61.176
775.01	59.211
775.32	67.081
775.63	66.438
775.94	74.074
776.25	73.793
776.56	70.992
776.87	77.099
777.18	74.242
777.48	80.315
777.79	73.846
778.10	68.939
778.41	71.642
778.72	66.917
779.03	62.821
779.34	72.973
779.65	63.354
779.95	62.112
780.26	61.310
780.57	77.551
780.88	69.504
781.19	71.667
781.50	68.639
781.80	60.109
782.11	56.085
782.42	64.368
782.73	63.277
783.04	63.871
783.34	65.116
783.65	63.265
783.96	63.226
784.27	64.901
784.57	60.526
784.88	65.217
785.19	69.167
785.50	81.897
785.81	68.992
786.11	68.889
786.42	58.268
786.73	71.171
787.04	82.075
787.34	65.854
787.65	67.424
787.96	62.121
788.26	67.717
788.57	73.723
788.88	68.310
789.19	63.359
789.49	60.811
789.80	64.063
790.11	65.289
790.41	69.444
790.72	66.667
791.03	76.923
791.33	81.818
791.64	80.000
791.95	71.579
792.25	75.000
792.56	74.000
792.87	85.366
793.17	90.909
793.48	83.529
793.79	79.310
794.09	80.682
794.40	75.862
794.70	65.873
795.01	65.385
795.32	60.305
795.62	73.504
795.93	78.151
796.23	72.358
796.54	85.714
796.85	85.227
797.15	101.299
797.46	91.463
797.76	75.000
798.07	98.667
798.37	75.000
798.68	96.250
798.99	82.927
799.29	74.667
799.60	79.070
799.90	94.737
800.21	84.848
800.51	88.732
800.82	100.000
801.12	110.769
801.43	105.333
801.73	98.276
802.04	81.818
802.34	78.082
802.65	137.255
802.95	108.696
803.26	119.355
803.56	118.333
803.87	119.403
804.17	114.286
804.48	103.774
804.78	88.889
805.09	96.970
805.39	111.111
805.70	107.018
806.00	81.429
806.30	95.312
806.61	85.882
806.91	82.222
807.22	63.043
807.52	75.000
807.83	111.842
808.13	98.551
808.43	101.613
808.74	93.151
809.04	108.929
809.35	102.941
809.65	98.485
809.95	105.882
810.26	122.222
810.56	106.250
810.86	118.367
811.17	96.491
811.47	102.174
811.77	105.172
812.08	91.379
812.38	114.286
812.69	123.810
812.99	120.000
813.29	125.714
813.59	164.516
813.90	100.000
814.20	104.918
814.50	116.000
814.81	98.246
815.11	120.370
815.41	112.500
815.72	116.071
816.02	136.000
816.32	129.268
816.62	106.897
816.93	184.848
817.23	141.463
817.53	110.714
817.84	137.778
818.14	126.190
818.44	122.917
818.74	107.547
819.04	123.077
819.35	142.424
819.65	98.077
819.95	137.037
820.25	142.553
820.56	172.973
820.86	128.947
821.16	91.489
821.46	152.632
821.76	120.000
822.07	116.667
822.37	121.053
822.67	146.512
822.97	102.632
823.27	110.870
823.57	140.625
823.88	125.641
824.18	142.424
824.48	221.739
824.78	133.333
825.08	217.391
825.38	189.655
825.69	120.588
825.99	110.638
826.29	111.111
826.59	168.571
826.89	146.667
827.19	142.857
827.49	151.613
827.79	192.308
828.09	121.429
828.39	113.889
828.70	116.216
829.00	171.429
829.30	268.750
829.60	161.111
829.90	154.839
830.20	157.576
830.50	164.865
830.80	170.833
831.10	157.692
831.40	190.476
831.70	216.667
832.00	146.667
832.30	221.739
832.60	225.000
832.90	139.394
833.20	230.000
833.50	134.211
833.80	152.941
834.10	131.579
834.40	231.579
834.70	133.333
835.00	192.000
835.30	116.216
835.60	162.500
835.90	118.919
836.20	200.000
836.50	181.818
836.80	129.268
837.10	173.913
837.40	353.846
837.70	189.474
838.00	170.000
838.30	216.667
838.60	212.000
838.90	370.000
839.19	256.250
839.49	143.333
839.79	158.621
840.09	196.154
840.39	246.667
840.69	257.895
840.99	204.762
841.29	182.609
841.59	255.000
841.88	208.000
842.18	388.889
842.48	164.286
842.78	207.407
843.08	230.769
843.38	168.182
843.68	250.000
843.97	485.714
844.27	182.609
844.57	2150.000
844.87	328.571
845.17	233.333
845.47	147.619
845.76	216.667
846.06	585.714
846.36	205.882
846.66	346.154
846.96	312.500
847.25	215.385
847.55	178.947
847.85	244.444
848.15	700.000
848.44	363.636
848.74	185.714
849.04	216.667
849.34	270.588
849.63	300.000
849.93	312.500
850.23	1000.000
850.53	525.000
850.82	336.364
851.12	223.529
851.42	229.167
851.71	275.000
852.01	0.000
852.31	282.353
852.61	360.000
852.90	170.833
853.20	433.333
853.50	-2600.000
853.79	136.000
854.09	134.375
854.39	148.276
854.68	172.414
854.98	228.571
855.28	154.839
855.57	314.286
855.87	200.000
856.17	140.741
856.46	247.368
856.76	141.935
857.05	305.882
857.35	254.545
857.65	315.385
857.94	260.000
858.24	466.667
858.53	321.429
858.83	600.000
859.13	195.652
859.42	344.444
859.72	400.000
860.01	333.333
860.31	900.000
860.60	480.000
860.90	462.500
861.20	300.000
861.49	485.714
861.79	-4700.000
862.08	528.571
862.38	422.222
862.67	350.000
862.97	430.000
863.26	166.667
863.56	850.000
863.85	353.846
864.15	288.235
864.44	222.222
864.74	341.667
865.03	354.545
865.33	462.500
865.62	260.000
865.92	700.000
866.21	850.000
866.51	660.000
866.80	261.111
867.10	1233.333
867.39	3900.000
867.69	720.000
867.98	950.000
868.27	223.810
868.57	313.333
868.86	1000.000
869.16	176.190
869.45	4100.000
869.75	-516.667
870.04	800.000
870.33	700.000
870.63	412.500
870.92	241.176
871.22	875.000
871.51	585.714
871.80	400.000
872.10	338.462
>>>>>End Processed Spectral Data<<<<<
