SpectraSuite Data File
++++++++++++++++++++++++++++++++++++
Date: Tue May 12 16:35:36 PDT 2015
User: schluterlab
Dark Spectrum Present: Yes
Reference Spectrum Present: Yes
Number of Sampled Component Spectra: 1
Spectrometers: USB2E3373
Integration Time (usec): 3000 (USB2E3373)
Spectra Averaged: 3 (USB2E3373)
Boxcar Smoothing: 0 (USB2E3373)
Correct for Electrical Dark: No (USB2E3373)
Strobe/Lamp Enabled: No (USB2E3373)
Correct for Detector Non-linearity: No (USB2E3373)
Correct for Stray Light: No (USB2E3373)
Number of Pixels in Processed Spectrum: 2048
>>>>>Begin Processed Spectral Data<<<<<
178.53	0.000
178.91	-225.000
179.29	-625.000
179.67	-3800.000
180.04	-180.000
180.42	700.000
180.80	1250.000
181.18	0.000
181.56	-312.500
181.94	0.000
182.31	1033.333
182.69	-2100.000
183.07	485.714
183.45	-3300.000
183.83	-1550.000
184.20	380.000
184.58	428.571
184.96	-261.538
185.34	-158.333
185.72	1650.000
186.09	-775.000
186.47	-2900.000
186.85	866.667
187.23	520.000
187.61	1650.000
187.98	575.000
188.36	221.429
188.74	316.667
189.12	333.333
189.49	775.000
189.87	0.000
190.25	400.000
190.63	1500.000
191.00	-191.667
191.38	-2800.000
191.76	-675.000
192.14	575.000
192.51	-2900.000
192.89	1950.000
193.27	1066.667
193.65	-900.000
194.02	-820.000
194.40	771.429
194.78	-185.714
195.15	260.000
195.53	-2500.000
195.91	-480.000
196.29	3600.000
196.66	212.500
197.04	975.000
197.42	-1250.000
197.79	700.000
198.17	241.667
198.55	0.000
198.92	542.857
199.30	833.333
199.68	2200.000
200.05	650.000
200.43	-550.000
200.81	188.889
201.18	3000.000
201.56	266.667
201.94	-550.000
202.31	-250.000
202.69	-540.000
203.07	2600.000
203.44	-383.333
203.82	291.667
204.19	520.000
204.57	-1250.000
204.95	-675.000
205.32	-540.000
205.70	600.000
206.08	825.000
206.45	-1000.000
206.83	366.667
207.20	152.632
207.58	250.000
207.96	820.000
208.33	0.000
208.71	385.714
209.08	660.000
209.46	-2600.000
209.84	-525.000
210.21	760.000
210.59	-600.000
210.96	200.000
211.34	-650.000
211.71	281.818
212.09	1050.000
212.46	1500.000
212.84	-433.333
213.22	466.667
213.59	-2000.000
213.97	270.000
214.34	725.000
214.72	1100.000
215.09	1066.667
215.47	-3100.000
215.84	-320.000
216.22	-400.000
216.59	0.000
216.97	0.000
217.34	1300.000
217.72	-1550.000
218.09	1333.333
218.47	450.000
218.84	750.000
219.22	1000.000
219.59	1000.000
219.97	542.857
220.34	400.000
220.72	1300.000
221.09	2700.000
221.47	291.667
221.84	833.333
222.22	280.000
222.59	227.778
222.97	185.714
223.34	168.750
223.72	-1500.000
224.09	1266.667
224.46	230.769
224.84	-525.000
225.21	400.000
225.59	220.000
225.96	866.667
226.34	-420.000
226.71	-750.000
227.08	-480.000
227.46	0.000
227.83	-483.333
228.21	-1600.000
228.58	416.667
228.95	725.000
229.33	344.444
229.70	1050.000
230.08	276.923
230.45	3600.000
230.82	-775.000
231.20	-1000.000
231.57	-733.333
231.95	500.000
232.32	308.333
232.69	566.667
233.07	300.000
233.44	-1650.000
233.81	220.000
234.19	140.741
234.56	200.000
234.93	188.235
235.31	130.000
235.68	262.500
236.05	135.714
236.43	129.630
236.80	264.286
237.17	168.966
237.55	121.875
237.92	105.000
238.29	127.273
238.67	106.250
239.04	129.268
239.41	89.583
239.79	92.500
240.16	91.667
240.53	62.295
240.91	73.913
241.28	88.136
241.65	78.788
242.02	76.056
242.40	71.429
242.77	71.429
243.14	68.354
243.51	76.768
243.89	46.729
244.26	63.551
244.63	63.366
245.00	54.128
245.38	44.068
245.75	50.000
246.12	62.222
246.49	51.064
246.87	45.902
247.24	51.333
247.61	57.500
247.98	57.143
248.36	47.273
248.73	55.102
249.10	50.000
249.47	49.500
249.84	45.274
250.22	50.811
250.59	45.000
250.96	46.414
251.33	47.442
251.70	48.214
252.08	42.437
252.45	42.629
252.82	39.163
253.19	38.735
253.56	43.077
253.94	40.217
254.31	42.248
254.68	45.296
255.05	43.448
255.42	44.161
255.79	42.671
256.16	43.051
256.54	42.532
256.91	43.464
257.28	40.134
257.65	34.796
258.02	37.758
258.39	44.413
258.76	42.609
259.14	38.000
259.51	39.650
259.88	41.641
260.25	35.440
260.62	39.452
260.99	39.945
261.36	37.883
261.73	40.957
262.10	40.576
262.47	39.750
262.85	39.200
263.22	37.532
263.59	39.130
263.96	39.599
264.33	37.284
264.70	37.101
265.07	35.366
265.44	37.615
265.81	38.915
266.18	36.156
266.55	37.589
266.92	38.031
267.29	38.816
267.66	36.996
268.03	37.668
268.40	34.884
268.77	38.106
269.14	37.744
269.51	38.085
269.88	37.959
270.25	36.069
270.62	36.266
270.99	37.525
271.36	39.634
271.73	38.155
272.10	36.364
272.47	35.317
272.84	34.731
273.21	35.124
273.58	37.045
273.95	36.345
274.32	35.992
274.69	35.827
275.06	36.612
275.43	36.973
275.80	35.849
276.17	33.640
276.54	35.701
276.91	36.754
277.28	34.672
277.65	35.240
278.02	36.397
278.39	35.252
278.76	35.690
279.13	34.875
279.50	34.727
279.87	33.147
280.23	34.991
280.60	33.942
280.97	34.310
281.34	36.304
281.71	34.609
282.08	35.897
282.45	32.095
282.82	32.776
283.19	32.750
283.56	32.893
283.92	36.645
284.29	34.276
284.66	34.118
285.03	33.997
285.40	33.058
285.77	33.642
286.14	32.972
286.51	32.669
286.87	33.544
287.24	29.429
287.61	32.675
287.98	31.045
288.35	32.444
288.72	29.439
289.08	32.583
289.45	32.774
289.82	30.938
290.19	30.015
290.56	34.207
290.93	31.079
291.29	31.492
291.66	30.932
292.03	30.295
292.40	29.404
292.77	29.248
293.13	28.959
293.50	29.825
293.87	28.862
294.24	29.650
294.60	28.668
294.97	27.972
295.34	27.756
295.71	27.464
296.08	28.400
296.44	28.971
296.81	26.675
297.18	26.236
297.55	26.847
297.91	26.232
298.28	28.623
298.65	26.626
299.02	24.487
299.38	26.739
299.75	25.366
300.12	26.491
300.48	26.464
300.85	25.626
301.22	24.419
301.59	24.410
301.95	24.271
302.32	25.495
302.69	26.357
303.05	26.824
303.42	23.543
303.79	26.111
304.15	23.212
304.52	24.736
304.89	23.987
305.25	25.250
305.62	24.520
305.99	24.022
306.35	23.053
306.72	25.286
307.09	23.706
307.45	23.654
307.82	23.457
308.19	24.536
308.55	23.900
308.92	23.454
309.29	25.049
309.65	23.092
310.02	24.645
310.38	23.230
310.75	22.951
311.12	23.946
311.48	23.745
311.85	24.046
312.22	23.496
312.58	22.643
312.95	22.621
313.31	23.315
313.68	22.983
314.05	23.810
314.41	23.091
314.78	22.254
315.14	22.559
315.51	24.219
315.87	22.719
316.24	23.623
316.61	23.008
316.97	23.119
317.34	23.720
317.70	23.354
318.07	24.377
318.43	23.902
318.80	23.205
319.16	23.601
319.53	21.327
319.89	21.505
320.26	24.581
320.62	23.535
320.99	23.165
321.35	22.542
321.72	23.435
322.08	22.438
322.45	23.887
322.81	22.781
323.18	23.446
323.54	23.606
323.91	23.844
324.27	22.281
324.64	22.059
325.00	23.966
325.37	22.850
325.73	22.007
326.10	24.524
326.46	22.130
326.83	21.680
327.19	23.454
327.56	20.687
327.92	23.279
328.29	23.568
328.65	23.716
329.01	22.156
329.38	23.604
329.74	22.289
330.11	23.110
330.47	22.677
330.84	22.778
331.20	21.997
331.56	22.884
331.93	22.840
332.29	22.364
332.66	22.959
333.02	22.165
333.38	22.339
333.75	21.435
334.11	23.154
334.48	21.795
334.84	21.875
335.20	21.386
335.57	21.662
335.93	22.456
336.29	21.973
336.66	23.585
337.02	20.787
337.38	20.378
337.75	23.311
338.11	22.616
338.47	21.169
338.84	22.269
339.20	21.126
339.56	22.288
339.93	22.575
340.29	20.840
340.65	22.632
341.02	21.963
341.38	22.085
341.74	21.512
342.11	20.868
342.47	21.903
342.83	22.477
343.20	22.555
343.56	19.380
343.92	20.892
344.28	22.249
344.65	21.190
345.01	20.794
345.37	19.952
345.73	20.317
346.10	21.195
346.46	21.053
346.82	20.293
347.19	21.175
347.55	20.453
347.91	20.015
348.27	20.682
348.63	20.886
349.00	21.554
349.36	21.012
349.72	20.948
350.08	21.351
350.45	21.097
350.81	21.330
351.17	19.646
351.53	20.400
351.89	20.435
352.26	20.559
352.62	19.683
352.98	21.089
353.34	21.263
353.70	19.113
354.07	20.538
354.43	21.121
354.79	19.666
355.15	20.368
355.51	20.166
355.87	20.783
356.24	20.708
356.60	20.700
356.96	20.091
357.32	20.196
357.68	20.705
358.04	20.517
358.40	20.690
358.77	19.985
359.13	20.420
359.49	20.163
359.85	20.030
360.21	19.539
360.57	19.416
360.93	20.202
361.29	19.481
361.66	19.761
362.02	19.034
362.38	20.635
362.74	20.241
363.10	20.547
363.46	19.475
363.82	19.565
364.18	19.488
364.54	20.029
364.90	20.482
365.26	20.194
365.62	19.682
365.98	19.064
366.35	19.862
366.71	19.292
367.07	18.976
367.43	20.148
367.79	19.681
368.15	19.199
368.51	19.986
368.87	19.158
369.23	19.265
369.59	20.634
369.95	19.021
370.31	19.849
370.67	19.223
371.03	20.798
371.39	19.875
371.75	18.702
372.11	19.035
372.47	20.890
372.83	20.054
373.19	19.808
373.55	19.175
373.91	18.232
374.27	19.378
374.63	19.051
374.99	19.542
375.35	19.758
375.71	19.723
376.07	19.032
376.42	19.501
376.78	19.846
377.14	19.856
377.50	19.663
377.86	18.834
378.22	19.805
378.58	20.036
378.94	20.036
379.30	19.284
379.66	19.627
380.02	19.648
380.38	18.560
380.74	19.723
381.09	19.334
381.45	19.133
381.81	18.440
382.17	18.681
382.53	19.136
382.89	18.805
383.25	19.183
383.61	19.251
383.97	18.056
384.32	20.675
384.68	20.380
385.04	18.875
385.40	19.514
385.76	18.958
386.12	19.666
386.48	19.878
386.83	19.499
387.19	19.317
387.55	18.905
387.91	19.053
388.27	18.977
388.62	18.662
388.98	18.834
389.34	18.263
389.70	18.691
390.06	19.451
390.42	18.939
390.77	19.472
391.13	19.312
391.49	18.633
391.85	19.692
392.20	19.130
392.56	19.235
392.92	18.529
393.28	19.170
393.64	18.234
393.99	19.324
394.35	18.540
394.71	18.396
395.07	18.674
395.42	18.326
395.78	20.419
396.14	20.000
396.50	19.434
396.85	19.146
397.21	18.953
397.57	19.426
397.92	17.851
398.28	19.084
398.64	18.732
399.00	18.653
399.35	19.002
399.71	18.377
400.07	18.607
400.42	18.806
400.78	19.413
401.14	18.790
401.49	19.009
401.85	19.235
402.21	18.864
402.57	18.851
402.92	18.848
403.28	18.377
403.63	18.481
403.99	19.300
404.35	18.406
404.70	19.492
405.06	18.080
405.42	18.791
405.77	19.074
406.13	19.306
406.49	18.192
406.84	18.387
407.20	19.235
407.55	19.138
407.91	19.336
408.27	19.891
408.62	18.983
408.98	19.219
409.34	19.053
409.69	19.851
410.05	18.247
410.40	17.903
410.76	17.287
411.11	18.602
411.47	18.148
411.83	18.571
412.18	18.357
412.54	18.138
412.89	17.994
413.25	18.358
413.60	18.633
413.96	18.253
414.31	18.831
414.67	19.367
415.03	18.455
415.38	18.675
415.74	18.951
416.09	18.801
416.45	18.293
416.80	19.564
417.16	18.014
417.51	19.682
417.87	18.711
418.22	19.016
418.58	19.490
418.93	18.739
419.29	17.868
419.64	19.200
420.00	19.332
420.35	18.409
420.71	18.611
421.06	18.246
421.42	19.113
421.77	18.656
422.12	17.861
422.48	18.028
422.83	18.806
423.19	19.384
423.54	18.815
423.90	19.026
424.25	17.777
424.61	19.095
424.96	18.408
425.31	18.008
425.67	18.462
426.02	18.452
426.38	18.261
426.73	18.450
427.09	18.565
427.44	17.952
427.79	18.239
428.15	18.621
428.50	19.200
428.85	19.400
429.21	18.314
429.56	18.295
429.92	18.399
430.27	17.997
430.62	18.355
430.98	17.914
431.33	18.095
431.68	17.778
432.04	18.210
432.39	19.319
432.74	19.087
433.10	18.328
433.45	18.495
433.80	18.753
434.16	18.024
434.51	18.266
434.86	18.291
435.22	17.288
435.57	18.020
435.92	19.010
436.28	19.412
436.63	18.747
436.98	19.257
437.34	18.265
437.69	17.917
438.04	17.849
438.39	19.440
438.75	18.931
439.10	18.834
439.45	18.146
439.81	19.028
440.16	17.997
440.51	18.806
440.86	19.316
441.22	17.587
441.57	18.793
441.92	18.164
442.27	18.196
442.63	17.785
442.98	18.588
443.33	17.836
443.68	18.863
444.03	18.332
444.39	18.032
444.74	18.375
445.09	18.273
445.44	18.172
445.79	18.226
446.15	18.158
446.50	18.882
446.85	18.875
447.20	17.363
447.55	17.836
447.91	18.594
448.26	18.051
448.61	18.795
448.96	18.083
449.31	18.757
449.66	19.380
450.02	17.828
450.37	18.379
450.72	19.229
451.07	18.848
451.42	19.265
451.77	19.187
452.12	18.832
452.47	18.773
452.83	19.662
453.18	19.399
453.53	19.183
453.88	18.457
454.23	19.465
454.58	18.648
454.93	19.497
455.28	19.706
455.63	18.617
455.98	17.992
456.34	19.088
456.69	18.110
457.04	19.093
457.39	18.971
457.74	19.538
458.09	19.147
458.44	18.839
458.79	18.992
459.14	18.494
459.49	19.762
459.84	18.967
460.19	18.757
460.54	19.829
460.89	18.763
461.24	17.927
461.59	18.764
461.94	18.144
462.29	19.165
462.64	19.912
462.99	19.194
463.34	19.443
463.69	20.085
464.04	19.113
464.39	19.118
464.74	17.995
465.09	18.398
465.44	19.423
465.79	17.801
466.14	18.177
466.49	19.045
466.84	18.673
467.19	19.391
467.54	19.159
467.89	19.425
468.24	19.224
468.59	18.333
468.94	19.263
469.29	19.853
469.64	20.129
469.99	19.280
470.34	19.418
470.68	18.414
471.03	19.546
471.38	19.669
471.73	18.681
472.08	19.765
472.43	19.491
472.78	19.334
473.13	18.899
473.48	18.949
473.83	19.552
474.17	19.331
474.52	19.491
474.87	19.102
475.22	18.675
475.57	18.888
475.92	18.702
476.27	18.118
476.61	18.552
476.96	19.175
477.31	19.332
477.66	19.431
478.01	19.134
478.36	18.744
478.70	18.660
479.05	18.305
479.40	19.097
479.75	19.017
480.10	18.925
480.45	18.721
480.79	17.972
481.14	18.212
481.49	17.566
481.84	18.250
482.19	18.428
482.53	18.489
482.88	18.862
483.23	17.997
483.58	18.582
483.92	19.333
484.27	17.723
484.62	18.973
484.97	18.387
485.31	17.649
485.66	17.343
486.01	17.001
486.36	16.887
486.70	16.784
487.05	17.056
487.40	17.545
487.75	17.376
488.09	17.926
488.44	18.005
488.79	17.876
489.13	18.664
489.48	18.138
489.83	18.432
490.17	18.043
490.52	18.260
490.87	18.664
491.22	18.883
491.56	18.401
491.91	18.324
492.26	18.486
492.60	18.907
492.95	18.487
493.30	18.926
493.64	18.553
493.99	18.694
494.34	17.974
494.68	18.371
495.03	18.904
495.37	19.271
495.72	18.555
496.07	17.610
496.41	18.115
496.76	18.024
497.11	18.466
497.45	17.931
497.80	18.721
498.14	18.678
498.49	19.034
498.84	18.505
499.18	18.144
499.53	17.823
499.87	17.835
500.22	18.102
500.56	18.524
500.91	18.785
501.26	19.109
501.60	18.443
501.95	18.056
502.29	18.489
502.64	17.865
502.98	18.097
503.33	18.085
503.67	18.896
504.02	17.465
504.36	18.507
504.71	18.732
505.06	18.442
505.40	17.829
505.75	18.382
506.09	19.179
506.44	18.327
506.78	17.958
507.13	18.808
507.47	18.923
507.82	19.416
508.16	18.569
508.51	18.406
508.85	18.661
509.19	18.257
509.54	19.385
509.88	19.244
510.23	18.529
510.57	17.954
510.92	19.231
511.26	18.976
511.61	18.661
511.95	18.716
512.30	18.950
512.64	18.484
512.98	18.760
513.33	17.982
513.67	18.643
514.02	19.584
514.36	19.003
514.70	18.507
515.05	18.647
515.39	19.408
515.74	19.191
516.08	18.682
516.42	19.563
516.77	19.253
517.11	19.093
517.46	19.881
517.80	18.569
518.14	19.042
518.49	18.798
518.83	19.121
519.17	19.301
519.52	19.880
519.86	18.965
520.20	19.726
520.55	18.598
520.89	19.828
521.23	19.334
521.58	19.220
521.92	18.659
522.26	18.720
522.61	19.311
522.95	18.979
523.29	19.708
523.64	19.422
523.98	19.542
524.32	19.262
524.66	19.072
525.01	19.349
525.35	19.623
525.69	19.868
526.04	19.631
526.38	19.129
526.72	18.735
527.06	18.924
527.41	18.924
527.75	19.963
528.09	19.446
528.43	19.097
528.78	18.843
529.12	20.590
529.46	18.878
529.80	19.509
530.15	19.446
530.49	18.652
530.83	18.769
531.17	19.188
531.51	19.375
531.86	19.082
532.20	18.974
532.54	18.707
532.88	18.364
533.22	19.927
533.57	19.463
533.91	18.065
534.25	17.830
534.59	19.006
534.93	18.146
535.27	18.668
535.62	18.378
535.96	18.735
536.30	19.561
536.64	19.317
536.98	18.943
537.32	19.562
537.66	19.005
538.01	18.452
538.35	18.902
538.69	19.114
539.03	18.035
539.37	18.871
539.71	19.568
540.05	18.646
540.39	18.931
540.73	19.241
541.07	18.130
541.42	19.030
541.76	19.236
542.10	18.557
542.44	19.638
542.78	17.747
543.12	19.202
543.46	18.922
543.80	19.048
544.14	19.257
544.48	18.674
544.82	19.083
545.16	18.579
545.50	18.992
545.84	19.571
546.18	20.611
546.52	19.541
546.86	19.729
547.20	19.186
547.54	18.556
547.88	18.917
548.22	19.308
548.56	18.621
548.90	18.921
549.24	19.078
549.58	18.041
549.92	19.974
550.26	18.999
550.60	17.831
550.94	19.403
551.28	19.241
551.62	19.517
551.96	18.378
552.30	18.523
552.64	20.129
552.98	17.977
553.32	18.886
553.66	18.371
554.00	18.082
554.34	19.174
554.68	19.220
555.02	18.737
555.36	18.750
555.69	19.306
556.03	18.217
556.37	18.037
556.71	19.622
557.05	18.152
557.39	19.133
557.73	19.340
558.07	19.852
558.41	18.780
558.75	19.699
559.08	19.514
559.42	20.043
559.76	20.100
560.10	19.133
560.44	19.044
560.78	18.926
561.12	19.008
561.45	18.023
561.79	18.664
562.13	17.751
562.47	18.365
562.81	18.933
563.15	19.005
563.48	18.696
563.82	19.214
564.16	19.092
564.50	17.842
564.84	18.419
565.17	18.598
565.51	18.842
565.85	19.432
566.19	18.095
566.52	17.990
566.86	18.155
567.20	18.596
567.54	18.286
567.88	18.153
568.21	17.174
568.55	17.267
568.89	17.609
569.23	17.127
569.56	17.532
569.90	16.780
570.24	16.763
570.57	17.099
570.91	16.630
571.25	16.548
571.59	16.074
571.92	16.442
572.26	16.388
572.60	16.718
572.93	16.878
573.27	16.686
573.61	16.378
573.95	16.484
574.28	16.190
574.62	16.069
574.96	15.981
575.29	16.006
575.63	15.948
575.97	16.188
576.30	16.452
576.64	16.857
576.98	16.020
577.31	16.282
577.65	16.410
577.98	15.836
578.32	15.806
578.66	15.921
578.99	16.572
579.33	16.464
579.67	16.594
580.00	16.166
580.34	16.384
580.67	15.794
581.01	16.151
581.35	15.643
581.68	15.642
582.02	15.655
582.35	15.794
582.69	16.037
583.02	15.957
583.36	15.988
583.70	16.647
584.03	16.679
584.37	16.305
584.70	16.173
585.04	16.131
585.37	15.893
585.71	16.449
586.04	16.188
586.38	15.633
586.72	16.036
587.05	16.418
587.39	16.106
587.72	16.101
588.06	16.290
588.39	16.351
588.73	16.344
589.06	16.195
589.40	16.964
589.73	16.912
590.07	17.193
590.40	17.387
590.73	17.224
591.07	18.027
591.40	17.285
591.74	17.248
592.07	16.597
592.41	17.026
592.74	16.075
593.08	16.146
593.41	16.098
593.75	16.369
594.08	16.538
594.41	16.422
594.75	16.644
595.08	17.147
595.42	16.886
595.75	16.453
596.09	16.545
596.42	16.679
596.75	17.548
597.09	17.375
597.42	16.980
597.75	17.282
598.09	16.988
598.42	16.687
598.76	16.345
599.09	17.065
599.42	16.436
599.76	16.825
600.09	16.068
600.42	16.920
600.76	16.553
601.09	16.845
601.42	16.543
601.76	17.007
602.09	17.182
602.42	16.488
602.76	16.584
603.09	16.968
603.42	17.284
603.76	16.052
604.09	16.106
604.42	16.347
604.76	16.239
605.09	16.816
605.42	16.822
605.75	16.581
606.09	17.215
606.42	16.573
606.75	16.595
607.09	16.542
607.42	16.472
607.75	16.879
608.08	16.978
608.42	16.611
608.75	16.988
609.08	16.454
609.41	17.591
609.75	17.308
610.08	17.221
610.41	16.469
610.74	16.840
611.07	16.735
611.41	17.146
611.74	17.400
612.07	17.197
612.40	17.154
612.73	17.873
613.07	17.739
613.40	17.093
613.73	17.024
614.06	16.650
614.39	17.121
614.72	17.328
615.06	17.211
615.39	17.030
615.72	16.747
616.05	16.775
616.38	16.794
616.71	17.092
617.05	17.628
617.38	17.416
617.71	17.829
618.04	17.891
618.37	17.232
618.70	17.206
619.03	16.728
619.36	17.462
619.69	17.480
620.03	18.787
620.36	18.433
620.69	18.455
621.02	19.158
621.35	17.264
621.68	17.552
622.01	18.967
622.34	17.480
622.67	18.539
623.00	17.563
623.33	18.151
623.66	18.031
623.99	18.973
624.32	17.547
624.65	17.907
624.99	18.120
625.32	18.771
625.65	17.655
625.98	17.643
626.31	18.546
626.64	18.831
626.97	18.516
627.30	17.547
627.63	18.760
627.96	17.449
628.29	16.832
628.62	18.563
628.95	18.440
629.28	19.281
629.61	18.278
629.94	19.706
630.26	19.497
630.59	19.947
630.92	18.296
631.25	19.674
631.58	19.479
631.91	19.696
632.24	19.534
632.57	19.155
632.90	18.427
633.23	19.517
633.56	20.548
633.89	19.721
634.22	19.376
634.55	19.032
634.88	20.372
635.20	20.291
635.53	19.861
635.86	19.239
636.19	20.202
636.52	17.405
636.85	18.123
637.18	20.802
637.51	18.324
637.83	19.680
638.16	20.868
638.49	19.641
638.82	20.657
639.15	19.389
639.48	21.445
639.81	19.048
640.13	19.632
640.46	21.239
640.79	19.636
641.12	20.735
641.45	21.604
641.77	19.551
642.10	19.813
642.43	20.484
642.76	19.318
643.09	21.758
643.41	21.178
643.74	22.878
644.07	20.059
644.40	21.450
644.73	22.372
645.05	21.100
645.38	20.521
645.71	19.272
646.04	20.763
646.36	20.344
646.69	20.160
647.02	21.600
647.35	20.787
647.67	21.394
648.00	20.033
648.33	21.353
648.66	20.303
648.98	20.435
649.31	20.378
649.64	17.981
649.96	18.634
650.29	20.286
650.62	23.564
650.94	21.988
651.27	22.807
651.60	21.596
651.92	23.195
652.25	22.205
652.58	20.709
652.90	20.210
653.23	19.941
653.56	21.217
653.88	20.264
654.21	20.528
654.54	19.619
654.86	20.059
655.19	21.108
655.52	18.910
655.84	13.809
656.17	16.108
656.49	23.345
656.82	26.301
657.15	21.176
657.47	15.940
657.80	11.815
658.13	9.645
658.45	13.098
658.78	16.013
659.10	16.124
659.43	16.441
659.75	17.046
660.08	17.105
660.41	17.514
660.73	21.581
661.06	22.673
661.38	23.509
661.71	21.583
662.03	23.004
662.36	21.714
662.68	20.112
663.01	22.523
663.33	22.075
663.66	23.077
663.98	20.635
664.31	22.575
664.63	21.264
664.96	26.079
665.28	19.586
665.61	22.075
665.93	22.642
666.26	23.364
666.58	23.486
666.91	20.463
667.23	21.285
667.56	24.230
667.88	22.822
668.21	20.697
668.53	22.177
668.86	25.251
669.18	24.644
669.50	22.521
669.83	23.409
670.15	21.206
670.48	22.070
670.80	21.912
671.13	21.315
671.45	25.852
671.77	23.191
672.10	22.083
672.42	21.546
672.75	21.519
673.07	20.191
673.39	20.447
673.72	20.761
674.04	20.430
674.37	21.597
674.69	21.933
675.01	23.507
675.34	20.543
675.66	23.047
675.98	22.485
676.31	22.000
676.63	21.471
676.95	22.619
677.28	22.110
677.60	24.145
677.92	22.421
678.25	22.093
678.57	21.415
678.89	21.881
679.22	22.794
679.54	20.819
679.86	21.291
680.18	22.847
680.51	19.403
680.83	21.115
681.15	23.744
681.48	21.007
681.80	20.841
682.12	20.934
682.44	19.099
682.77	21.886
683.09	23.883
683.41	22.245
683.73	23.031
684.06	20.833
684.38	22.481
684.70	23.561
685.02	21.354
685.34	22.007
685.67	20.900
685.99	19.376
686.31	20.493
686.63	21.138
686.96	21.242
687.28	19.128
687.60	20.819
687.92	22.613
688.24	22.414
688.56	22.954
688.89	19.120
689.21	20.617
689.53	22.530
689.85	22.967
690.17	23.107
690.49	22.581
690.82	21.008
691.14	23.030
691.46	24.230
691.78	22.222
692.10	20.992
692.42	19.782
692.74	21.705
693.06	21.512
693.39	20.356
693.71	21.611
694.03	23.471
694.35	24.699
694.67	22.403
694.99	21.951
695.31	22.973
695.63	24.208
695.95	23.756
696.27	24.779
696.59	22.673
696.91	22.278
697.23	24.661
697.56	19.710
697.88	18.762
698.20	21.698
698.52	19.261
698.84	19.713
699.16	24.094
699.48	24.788
699.80	25.490
700.12	24.249
700.44	22.664
700.76	21.241
701.08	24.543
701.40	23.117
701.72	25.936
702.04	24.661
702.36	26.613
702.68	24.468
703.00	24.311
703.32	24.318
703.64	25.945
703.96	22.656
704.28	24.868
704.60	23.662
704.91	23.810
705.23	25.852
705.55	25.519
705.87	24.127
706.19	25.078
706.51	28.527
706.83	24.484
707.15	26.738
707.47	21.065
707.79	23.448
708.11	20.181
708.43	23.146
708.74	22.851
709.06	22.326
709.38	23.821
709.70	22.888
710.02	22.826
710.34	23.757
710.66	24.444
710.98	25.137
711.29	27.019
711.61	27.577
711.93	23.404
712.25	23.494
712.57	24.437
712.89	26.970
713.20	23.962
713.52	22.430
713.84	26.586
714.16	22.319
714.48	21.902
714.80	23.306
715.11	26.330
715.43	23.184
715.75	23.944
716.07	23.410
716.39	21.429
716.70	23.676
717.02	25.589
717.34	30.216
717.66	28.125
717.97	25.758
718.29	25.000
718.61	27.027
718.93	27.682
719.24	26.846
719.56	24.828
719.88	23.567
720.20	27.097
720.51	27.451
720.83	24.749
721.15	26.190
721.46	26.027
721.78	26.132
722.10	27.431
722.42	29.097
722.73	27.798
723.05	28.421
723.37	29.329
723.68	21.484
724.00	28.788
724.32	30.038
724.63	29.615
724.95	23.529
725.27	27.509
725.58	29.412
725.90	23.944
726.22	23.973
726.53	25.418
726.85	26.059
727.16	25.503
727.48	21.595
727.80	27.698
728.11	27.143
728.43	24.275
728.74	22.727
729.06	22.939
729.38	29.123
729.69	28.333
730.01	27.303
730.32	27.852
730.64	24.917
730.96	26.727
731.27	21.101
731.59	20.402
731.90	25.070
732.22	25.429
732.53	22.507
732.85	27.193
733.16	23.193
733.48	24.138
733.80	26.377
734.11	29.448
734.43	24.561
734.74	23.324
735.06	25.397
735.37	25.258
735.69	24.058
736.00	27.829
736.32	21.818
736.63	19.874
736.95	21.739
737.26	27.744
737.58	23.313
737.89	22.289
738.21	22.185
738.52	23.746
738.83	30.037
739.15	26.481
739.46	28.276
739.78	23.810
740.09	26.822
740.41	25.767
740.72	30.159
741.04	31.119
741.35	23.828
741.66	24.901
741.98	29.614
742.29	29.630
742.61	26.991
742.92	26.271
743.23	27.600
743.55	29.057
743.86	25.882
744.18	27.119
744.49	27.686
744.80	32.719
745.12	29.464
745.43	29.439
745.74	26.667
746.06	28.509
746.37	30.233
746.68	31.858
747.00	27.803
747.31	30.252
747.62	26.230
747.94	25.322
748.25	27.237
748.56	30.932
748.88	30.357
749.19	26.977
749.50	27.397
749.82	27.984
750.13	29.644
750.44	25.667
750.75	25.839
751.07	23.026
751.38	20.132
751.69	27.273
752.01	27.972
752.32	24.252
752.63	25.168
752.94	29.720
753.26	24.609
753.57	24.514
753.88	20.599
754.19	25.632
754.51	24.585
754.82	23.490
755.13	22.635
755.44	21.852
755.75	25.773
756.07	24.315
756.38	25.817
756.69	20.313
757.00	28.487
757.31	25.352
757.63	20.386
757.94	23.138
758.25	23.671
758.56	23.341
758.87	21.303
759.18	25.872
759.50	24.924
759.81	24.629
760.12	22.753
760.43	24.090
760.74	23.797
761.05	24.138
761.36	19.271
761.67	22.911
761.99	26.761
762.30	24.759
762.61	23.958
762.92	29.924
763.23	27.170
763.54	26.154
763.85	23.346
764.16	30.556
764.47	28.041
764.78	22.476
765.10	26.829
765.41	23.580
765.72	21.271
766.03	22.659
766.34	27.178
766.65	26.616
766.96	25.911
767.27	30.841
767.58	32.178
767.89	34.807
768.20	38.415
768.51	33.673
768.82	32.456
769.13	30.980
769.44	27.820
769.75	27.715
770.06	29.832
770.37	26.316
770.68	27.556
770.99	31.356
771.30	28.870
771.61	30.385
771.92	27.863
772.23	25.000
772.54	28.444
772.85	33.168
773.16	30.435
773.47	29.444
773.78	30.693
774.09	28.977
774.39	36.970
774.70	31.176
775.01	36.184
775.32	29.193
775.63	40.411
775.94	40.123
776.25	35.862
776.56	38.931
776.87	44.275
777.18	28.788
777.48	44.094
777.79	43.846
778.10	43.182
778.41	38.806
778.72	34.586
779.03	32.051
779.34	31.757
779.65	33.540
779.95	36.646
780.26	32.738
780.57	41.497
780.88	39.007
781.19	38.333
781.50	32.544
781.80	38.251
782.11	33.333
782.42	31.034
782.73	36.723
783.04	34.839
783.34	24.806
783.65	30.612
783.96	30.968
784.27	36.424
784.57	28.947
784.88	41.304
785.19	34.167
785.50	45.690
785.81	44.186
786.11	40.000
786.42	36.220
786.73	44.144
787.04	40.566
787.34	38.211
787.65	50.000
787.96	35.606
788.26	43.307
788.57	42.336
788.88	44.366
789.19	32.824
789.49	36.486
789.80	39.062
790.11	41.322
790.41	47.222
790.72	38.889
791.03	46.154
791.33	47.475
791.64	35.789
791.95	44.211
792.25	46.875
792.56	35.000
792.87	40.244
793.17	50.000
793.48	38.824
793.79	48.276
794.09	48.864
794.40	53.448
794.70	40.476
795.01	38.462
795.32	35.115
795.62	35.043
795.93	41.176
796.23	42.276
796.54	50.000
796.85	43.182
797.15	57.143
797.46	59.756
797.76	55.000
798.07	60.000
798.37	51.250
798.68	63.750
798.99	58.537
799.29	54.667
799.60	45.349
799.90	64.474
800.21	54.545
800.51	54.930
800.82	55.172
801.12	70.769
801.43	69.333
801.73	63.793
802.04	57.143
802.34	71.233
802.65	72.549
802.95	65.217
803.26	66.129
803.56	93.333
803.87	71.642
804.17	66.667
804.48	69.811
804.78	48.611
805.09	78.788
805.39	71.429
805.70	57.895
806.00	48.571
806.30	60.937
806.61	55.294
806.91	53.333
807.22	40.217
807.52	46.053
807.83	90.789
808.13	63.768
808.43	61.290
808.74	69.863
809.04	67.857
809.35	61.765
809.65	75.758
809.95	66.667
810.26	72.222
810.56	65.625
810.86	77.551
811.17	63.158
811.47	73.913
811.77	58.621
812.08	70.690
812.38	66.667
812.69	71.429
812.99	91.111
813.29	82.857
813.59	93.548
813.90	74.138
814.20	75.410
814.50	74.000
814.81	61.404
815.11	75.926
815.41	57.143
815.72	83.929
816.02	102.000
816.32	97.561
816.62	75.862
816.93	90.909
817.23	102.439
817.53	80.357
817.84	86.667
818.14	80.952
818.44	91.667
818.74	73.585
819.04	92.308
819.35	78.788
819.65	76.923
819.95	101.852
820.25	85.106
820.56	97.297
820.86	105.263
821.16	76.596
821.46	126.316
821.76	83.636
822.07	76.190
822.37	86.842
822.67	86.047
822.97	73.684
823.27	91.304
823.57	103.125
823.88	105.128
824.18	75.758
824.48	126.087
824.78	97.222
825.08	121.739
825.38	131.034
825.69	111.765
825.99	80.851
826.29	69.444
826.59	122.857
826.89	116.667
827.19	97.143
827.49	116.129
827.79	134.615
828.09	73.810
828.39	108.333
828.70	78.378
829.00	150.000
829.30	150.000
829.60	100.000
829.90	103.226
830.20	87.879
830.50	113.514
830.80	125.000
831.10	150.000
831.40	133.333
831.70	154.167
832.00	116.667
832.30	178.261
832.60	183.333
832.90	118.182
833.20	175.000
833.50	115.789
833.80	100.000
834.10	89.474
834.40	136.842
834.70	86.667
835.00	128.000
835.30	102.703
835.60	118.750
835.90	127.027
836.20	100.000
836.50	136.364
836.80	97.561
837.10	130.435
837.40	284.615
837.70	89.474
838.00	116.667
838.30	162.500
838.60	140.000
838.90	270.000
839.19	181.250
839.49	133.333
839.79	110.345
840.09	150.000
840.39	246.667
840.69	226.316
840.99	133.333
841.29	139.130
841.59	145.000
841.88	156.000
842.18	311.111
842.48	135.714
842.78	125.926
843.08	230.769
843.38	118.182
843.68	200.000
843.97	414.286
844.27	130.435
844.57	1300.000
844.87	250.000
845.17	177.778
845.47	114.286
845.76	175.000
846.06	500.000
846.36	158.824
846.66	223.077
846.96	200.000
847.25	223.077
847.55	152.632
847.85	194.444
848.15	420.000
848.44	318.182
848.74	161.905
849.04	170.833
849.34	147.059
849.63	225.000
849.93	200.000
850.23	1000.000
850.53	362.500
850.82	236.364
851.12	200.000
851.42	187.500
851.71	243.750
852.01	0.000
852.31	211.765
852.61	420.000
852.90	179.167
853.20	344.444
853.50	-1800.000
853.79	136.000
854.09	146.875
854.39	131.034
854.68	134.483
854.98	190.476
855.28	122.581
855.57	264.286
855.87	155.556
856.17	125.926
856.46	152.632
856.76	119.355
857.05	217.647
857.35	254.545
857.65	292.308
857.94	90.000
858.24	377.778
858.53	228.571
858.83	471.429
859.13	160.870
859.42	311.111
859.72	387.500
860.01	258.333
860.31	750.000
860.60	310.000
860.90	350.000
861.20	330.769
861.49	485.714
861.79	-2600.000
862.08	500.000
862.38	533.333
862.67	192.857
862.97	340.000
863.26	133.333
863.56	700.000
863.85	269.231
864.15	229.412
864.44	233.333
864.74	275.000
865.03	290.909
865.33	350.000
865.62	226.667
865.92	600.000
866.21	850.000
866.51	640.000
866.80	244.444
867.10	1066.667
867.39	3800.000
867.69	680.000
867.98	775.000
868.27	190.476
868.57	260.000
868.86	575.000
869.16	171.429
869.45	2600.000
869.75	-533.333
870.04	700.000
870.33	520.000
870.63	400.000
870.92	182.353
871.22	550.000
871.51	414.286
871.80	275.000
872.10	315.385
>>>>>End Processed Spectral Data<<<<<
