SpectraSuite Data File
++++++++++++++++++++++++++++++++++++
Date: Tue May 12 16:03:24 PDT 2015
User: schluterlab
Dark Spectrum Present: Yes
Reference Spectrum Present: Yes
Number of Sampled Component Spectra: 1
Spectrometers: USB2E3373
Integration Time (usec): 3000 (USB2E3373)
Spectra Averaged: 3 (USB2E3373)
Boxcar Smoothing: 0 (USB2E3373)
Correct for Electrical Dark: No (USB2E3373)
Strobe/Lamp Enabled: No (USB2E3373)
Correct for Detector Non-linearity: No (USB2E3373)
Correct for Stray Light: No (USB2E3373)
Number of Pixels in Processed Spectrum: 2048
>>>>>Begin Processed Spectral Data<<<<<
178.53	0.000
178.91	-241.667
179.29	-625.000
179.67	-3900.000
180.04	-173.333
180.42	750.000
180.80	1650.000
181.18	0.000
181.56	-362.500
181.94	0.000
182.31	1066.667
182.69	-3500.000
183.07	600.000
183.45	-4000.000
183.83	-2000.000
184.20	260.000
184.58	514.286
184.96	-284.615
185.34	-241.667
185.72	2050.000
186.09	-850.000
186.47	-5000.000
186.85	1033.333
187.23	760.000
187.61	2200.000
187.98	537.500
188.36	264.286
188.74	358.333
189.12	458.333
189.49	925.000
189.87	0.000
190.25	625.000
190.63	3600.000
191.00	-241.667
191.38	-4200.000
191.76	-900.000
192.14	675.000
192.51	-3000.000
192.89	1650.000
193.27	1366.667
193.65	-1033.333
194.02	-740.000
194.40	557.143
194.78	-228.571
195.15	266.667
195.53	-2800.000
195.91	-560.000
196.29	3600.000
196.66	293.750
197.04	1075.000
197.42	-1950.000
197.79	600.000
198.17	383.333
198.55	0.000
198.92	628.571
199.30	1600.000
199.68	2300.000
200.05	683.333
200.43	-550.000
200.81	205.556
201.18	4800.000
201.56	208.333
201.94	-925.000
202.31	-375.000
202.69	-780.000
203.07	2800.000
203.44	-716.667
203.82	325.000
204.19	700.000
204.57	-1850.000
204.95	-875.000
205.32	-680.000
205.70	516.667
206.08	625.000
206.45	-1033.333
206.83	466.667
207.20	210.526
207.58	341.667
207.96	780.000
208.33	0.000
208.71	614.286
209.08	780.000
209.46	-3100.000
209.84	-800.000
210.21	700.000
210.59	-740.000
210.96	275.000
211.34	-850.000
211.71	409.091
212.09	1025.000
212.46	1700.000
212.84	-466.667
213.22	522.222
213.59	-4200.000
213.97	400.000
214.34	900.000
214.72	1166.667
215.09	966.667
215.47	-2900.000
215.84	-290.000
216.22	-425.000
216.59	0.000
216.97	0.000
217.34	1450.000
217.72	-2000.000
218.09	1333.333
218.47	500.000
218.84	950.000
219.22	1233.333
219.59	933.333
219.97	514.286
220.34	444.444
220.72	1800.000
221.09	3600.000
221.47	291.667
221.84	1500.000
222.22	380.000
222.59	266.667
222.97	271.429
223.34	268.750
223.72	-1500.000
224.09	1100.000
224.46	253.846
224.84	-700.000
225.21	455.556
225.59	340.000
225.96	1400.000
226.34	-700.000
226.71	-600.000
227.08	-640.000
227.46	0.000
227.83	-600.000
228.21	-1900.000
228.58	325.000
228.95	850.000
229.33	400.000
229.70	1175.000
230.08	353.846
230.45	2700.000
230.82	-975.000
231.20	-733.333
231.57	-1100.000
231.95	700.000
232.32	325.000
232.69	600.000
233.07	375.000
233.44	-1750.000
233.81	260.000
234.19	148.148
234.56	237.500
234.93	235.294
235.31	210.000
235.68	287.500
236.05	150.000
236.43	140.741
236.80	242.857
237.17	162.069
237.55	165.625
237.92	120.000
238.29	136.364
238.67	128.125
239.04	90.244
239.41	79.167
239.79	102.500
240.16	83.333
240.53	62.295
240.91	60.870
241.28	76.271
241.65	62.121
242.02	63.380
242.40	71.429
242.77	54.945
243.14	45.570
243.51	57.576
243.89	45.794
244.26	45.794
244.63	35.644
245.00	41.284
245.38	42.373
245.75	39.394
246.12	46.667
246.49	34.752
246.87	29.508
247.24	35.333
247.61	35.625
247.98	33.333
248.36	26.667
248.73	34.694
249.10	22.619
249.47	30.000
249.84	33.333
250.22	31.892
250.59	30.500
250.96	29.958
251.33	27.907
251.70	25.893
252.08	31.092
252.45	25.896
252.82	23.574
253.19	26.087
253.56	20.000
253.94	23.551
254.31	25.969
254.68	20.906
255.05	24.828
255.42	22.628
255.79	22.801
256.16	26.102
256.54	25.325
256.91	24.837
257.28	23.077
257.65	20.063
258.02	19.469
258.39	25.501
258.76	24.928
259.14	18.000
259.51	20.991
259.88	21.884
260.25	19.505
260.62	23.562
260.99	17.906
261.36	21.727
261.73	21.543
262.10	21.466
262.47	20.750
262.85	20.533
263.22	21.080
263.59	21.739
263.96	22.306
264.33	18.519
264.70	23.587
265.07	23.171
265.44	21.101
265.81	21.226
266.18	20.824
266.55	18.440
266.92	21.253
267.29	21.491
267.66	18.161
268.03	17.489
268.40	19.662
268.77	22.687
269.14	16.052
269.51	17.372
269.88	20.408
270.25	16.631
270.62	17.597
270.99	20.487
271.36	19.106
271.73	16.771
272.10	18.182
272.47	17.659
272.84	18.762
273.21	20.248
273.58	21.255
273.95	19.097
274.32	19.650
274.69	19.685
275.06	18.215
275.43	19.732
275.80	18.679
276.17	18.382
276.54	20.187
276.91	19.963
277.28	18.248
277.65	17.159
278.02	18.015
278.39	18.705
278.76	18.448
279.13	17.082
279.50	17.636
279.87	17.505
280.23	15.838
280.60	17.518
280.97	17.069
281.34	17.822
281.71	18.957
282.08	18.974
282.45	17.230
282.82	18.060
283.19	17.806
283.56	17.851
283.92	16.938
284.29	16.972
284.66	16.975
285.03	18.574
285.40	17.355
285.77	16.667
286.14	18.885
286.51	15.951
286.87	15.665
287.24	16.066
287.61	16.413
287.98	16.866
288.35	16.444
288.72	16.692
289.08	16.366
289.45	16.159
289.82	17.969
290.19	16.105
290.56	15.721
290.93	16.691
291.29	16.436
291.66	15.254
292.03	15.708
292.40	16.260
292.77	14.763
293.13	15.407
293.50	17.004
293.87	14.634
294.24	15.245
294.60	16.824
294.97	17.622
295.34	16.335
295.71	16.820
296.08	16.533
296.44	15.502
296.81	14.392
297.18	14.322
297.55	15.517
297.91	13.177
298.28	16.546
298.65	17.178
299.02	15.199
299.38	14.748
299.75	15.732
300.12	15.940
300.48	15.340
300.85	16.091
301.22	15.233
301.59	16.038
301.95	14.119
302.32	16.065
302.69	15.045
303.05	17.172
303.42	13.789
303.79	16.360
304.15	16.062
304.52	16.068
304.89	16.525
305.25	16.352
305.62	16.418
305.99	17.174
306.35	16.105
306.72	17.482
307.09	15.942
307.45	16.367
307.82	15.432
308.19	17.732
308.55	17.200
308.92	16.487
309.29	18.540
309.65	19.524
310.02	18.560
310.38	17.448
310.75	18.033
311.12	17.529
311.48	20.077
311.85	19.084
312.22	19.389
312.58	18.465
312.95	19.709
313.31	19.850
313.68	20.732
314.05	21.429
314.41	20.391
314.78	20.928
315.14	22.654
315.51	21.570
315.87	22.536
316.24	22.689
316.61	22.739
316.97	23.028
317.34	23.810
317.70	24.671
318.07	26.335
318.43	25.571
318.80	26.095
319.16	26.486
319.53	26.549
319.89	25.717
320.26	28.864
320.62	28.663
320.99	29.552
321.35	28.108
321.72	29.602
322.08	30.102
322.45	30.790
322.81	31.382
323.18	31.616
323.54	31.185
323.91	34.542
324.27	34.218
324.64	33.824
325.00	35.517
325.37	35.160
325.73	37.437
326.10	37.034
326.46	39.472
326.83	38.160
327.19	39.277
327.56	38.978
327.92	41.148
328.29	41.080
328.65	41.096
329.01	40.719
329.38	41.878
329.74	40.564
330.11	42.137
330.47	41.688
330.84	40.725
331.20	42.724
331.56	43.782
331.93	42.173
332.29	42.347
332.66	42.772
333.02	41.924
333.38	42.583
333.75	42.702
334.11	42.953
334.48	43.846
334.84	43.412
335.20	43.456
335.57	42.485
335.93	42.977
336.29	41.211
336.66	43.911
337.02	43.370
337.38	43.078
337.75	44.088
338.11	42.700
338.47	43.268
338.84	42.422
339.20	43.723
339.56	42.977
339.93	43.060
340.29	42.521
340.65	43.671
341.02	43.443
341.38	42.693
341.74	44.020
342.11	43.489
342.47	42.330
342.83	44.709
343.20	43.735
343.56	42.971
343.92	43.931
344.28	43.541
344.65	44.254
345.01	42.937
345.37	43.750
345.73	42.460
346.10	42.550
346.46	44.179
346.82	41.898
347.19	43.354
347.55	42.779
347.91	42.749
348.27	42.912
348.63	43.434
349.00	42.498
349.36	44.047
349.72	43.502
350.08	43.866
350.45	43.412
350.81	43.578
351.17	43.760
351.53	42.571
351.89	43.279
352.26	42.933
352.62	42.534
352.98	43.942
353.34	43.683
353.70	43.502
354.07	43.769
354.43	45.392
354.79	42.217
355.15	43.721
355.51	42.372
355.87	44.428
356.24	43.495
356.60	43.531
356.96	43.442
357.32	43.934
357.68	42.438
358.04	43.009
358.40	43.553
358.77	43.276
359.13	43.168
359.49	43.440
359.85	43.931
360.21	41.902
360.57	43.212
360.93	43.362
361.29	43.290
361.66	44.519
362.02	42.401
362.38	43.579
362.74	42.746
363.10	43.058
363.46	43.646
363.82	43.689
364.18	44.452
364.54	44.921
364.90	43.507
365.26	44.830
365.62	43.508
365.98	43.221
366.35	43.241
366.71	45.385
367.07	44.300
367.43	44.124
367.79	42.753
368.15	43.826
368.51	44.728
368.87	44.090
369.23	44.560
369.59	44.032
369.95	46.014
370.31	43.737
370.67	44.414
371.03	44.678
371.39	43.352
371.75	44.313
372.11	44.392
372.47	45.342
372.83	44.799
373.19	44.277
373.55	45.361
373.91	43.094
374.27	43.783
374.63	46.169
374.99	44.879
375.35	45.833
375.71	44.987
376.07	45.027
376.42	45.141
376.78	44.894
377.14	45.478
377.50	45.131
377.86	45.804
378.22	44.729
378.58	46.005
378.94	45.866
379.30	44.633
379.66	44.973
380.02	46.686
380.38	45.492
380.74	46.251
381.09	46.203
381.45	45.665
381.81	44.504
382.17	45.788
382.53	45.831
382.89	46.541
383.25	45.234
383.61	45.476
383.97	45.111
384.32	46.172
384.68	47.296
385.04	44.783
385.40	46.204
385.76	46.518
386.12	46.197
386.48	47.416
386.83	46.027
387.19	45.701
387.55	46.466
387.91	45.843
388.27	47.174
388.62	45.481
388.98	46.181
389.34	45.509
389.70	46.462
390.06	45.427
390.42	46.453
390.77	45.700
391.13	46.168
391.49	45.977
391.85	47.385
392.20	46.365
392.56	45.639
392.92	45.255
393.28	45.908
393.64	45.069
393.99	45.702
394.35	45.203
394.71	45.657
395.07	46.715
395.42	45.726
395.78	47.316
396.14	44.277
396.50	45.848
396.85	45.793
397.21	45.969
397.57	46.563
397.92	46.563
398.28	45.394
398.64	46.073
399.00	45.056
399.35	46.162
399.71	45.475
400.07	45.091
400.42	45.552
400.78	46.041
401.14	45.273
401.49	45.392
401.85	46.060
402.21	45.929
402.57	45.183
402.92	45.939
403.28	45.167
403.63	45.026
403.99	46.261
404.35	44.607
404.70	45.954
405.06	45.087
405.42	45.482
405.77	45.645
406.13	45.174
406.49	45.196
406.84	44.783
407.20	46.176
407.55	44.431
407.91	45.820
408.27	46.331
408.62	45.062
408.98	45.121
409.34	43.717
409.69	44.928
410.05	43.649
410.40	45.583
410.76	44.419
411.11	44.372
411.47	44.568
411.83	44.054
412.18	44.626
412.54	44.264
412.89	43.835
413.25	46.351
413.60	44.801
413.96	44.943
414.31	45.159
414.67	45.003
415.03	44.125
415.38	44.795
415.74	44.852
416.09	45.034
416.45	45.701
416.80	45.093
417.16	44.112
417.51	44.841
417.87	44.994
418.22	44.897
418.58	45.669
418.93	43.902
419.29	43.253
419.64	44.276
420.00	45.465
420.35	44.541
420.71	44.982
421.06	44.732
421.42	45.193
421.77	45.253
422.12	45.094
422.48	43.965
422.83	44.085
423.19	43.737
423.54	44.542
423.90	44.904
424.25	46.010
424.61	45.676
424.96	44.664
425.31	45.375
425.67	44.837
426.02	44.700
426.38	43.757
426.73	45.691
427.09	45.255
427.44	44.795
427.79	45.626
428.15	46.376
428.50	46.571
428.85	45.620
429.21	45.003
429.56	44.816
429.92	45.400
430.27	44.799
430.62	44.200
430.98	44.361
431.33	44.909
431.68	44.494
432.04	43.766
432.39	45.609
432.74	46.311
433.10	45.792
433.45	45.951
433.80	46.939
434.16	45.402
434.51	46.388
434.86	46.761
435.22	44.841
435.57	45.643
435.92	46.044
436.28	46.832
436.63	45.975
436.98	46.847
437.34	45.263
437.69	45.297
438.04	46.022
438.39	46.410
438.75	45.935
439.10	45.818
439.45	45.562
439.81	47.137
440.16	46.395
440.51	46.565
440.86	45.926
441.22	47.132
441.57	46.247
441.92	46.051
442.27	45.722
442.63	45.935
442.98	45.205
443.33	46.117
443.68	46.730
444.03	44.910
444.39	45.669
444.74	46.118
445.09	46.288
445.44	45.802
445.79	46.296
446.15	45.737
446.50	45.886
446.85	46.116
447.20	45.920
447.55	46.547
447.91	46.830
448.26	45.793
448.61	47.595
448.96	46.786
449.31	46.920
449.66	47.730
450.02	45.381
450.37	46.086
450.72	47.052
451.07	46.422
451.42	46.888
451.77	47.079
452.12	47.192
452.47	47.934
452.83	46.761
453.18	47.748
453.53	47.957
453.88	46.229
454.23	48.228
454.58	47.145
454.93	46.658
455.28	47.185
455.63	47.281
455.98	45.911
456.34	47.416
456.69	47.073
457.04	46.957
457.39	46.914
457.74	47.185
458.09	46.322
458.44	46.495
458.79	47.056
459.14	46.754
459.49	47.225
459.84	46.685
460.19	47.458
460.54	47.578
460.89	48.028
461.24	46.163
461.59	47.392
461.94	47.577
462.29	47.597
462.64	48.178
462.99	46.961
463.34	47.894
463.69	47.731
464.04	48.014
464.39	46.995
464.74	46.073
465.09	46.489
465.44	46.192
465.79	46.598
466.14	45.522
466.49	45.958
466.84	46.711
467.19	46.339
467.54	46.186
467.89	45.775
468.24	46.902
468.59	46.726
468.94	47.524
469.29	46.610
469.64	46.624
469.99	47.365
470.34	46.996
470.68	46.483
471.03	47.632
471.38	48.609
471.73	48.988
472.08	48.532
472.43	47.114
472.78	46.543
473.13	46.996
473.48	47.249
473.83	47.350
474.17	46.930
474.52	46.860
474.87	46.845
475.22	46.716
475.57	46.485
475.92	46.142
476.27	45.158
476.61	46.434
476.96	47.022
477.31	46.735
477.66	47.880
478.01	45.694
478.36	45.778
478.70	44.963
479.05	46.339
479.40	46.131
479.75	47.219
480.10	46.031
480.45	45.938
480.79	45.530
481.14	46.362
481.49	44.785
481.84	45.163
482.19	45.502
482.53	45.191
482.88	45.206
483.23	44.610
483.58	45.332
483.92	47.303
484.27	45.505
484.62	45.756
484.97	44.683
485.31	43.844
485.66	42.594
486.01	41.946
486.36	41.572
486.70	41.558
487.05	41.665
487.40	42.142
487.75	43.050
488.09	42.898
488.44	43.881
488.79	44.255
489.13	46.062
489.48	44.986
489.83	43.828
490.17	44.013
490.52	45.047
490.87	44.612
491.22	45.257
491.56	45.411
491.91	44.892
492.26	45.479
492.60	46.378
492.95	45.673
493.30	45.177
493.64	45.238
493.99	44.231
494.34	44.464
494.68	44.887
495.03	44.993
495.37	45.295
495.72	46.154
496.07	45.013
496.41	45.613
496.76	45.125
497.11	44.773
497.45	45.112
497.80	45.737
498.14	44.984
498.49	44.568
498.84	45.187
499.18	44.881
499.53	44.557
499.87	44.699
500.22	45.002
500.56	45.404
500.91	45.176
501.26	45.338
501.60	44.718
501.95	44.400
502.29	44.222
502.64	43.582
502.98	43.708
503.33	44.321
503.67	43.974
504.02	44.245
504.36	44.661
504.71	45.885
505.06	44.627
505.40	44.689
505.75	44.341
506.09	44.797
506.44	45.019
506.78	45.180
507.13	45.177
507.47	45.463
507.82	45.693
508.16	45.615
508.51	44.638
508.85	44.682
509.19	45.521
509.54	44.336
509.88	45.052
510.23	44.559
510.57	43.581
510.92	45.205
511.26	45.532
511.61	44.412
511.95	44.201
512.30	44.900
512.64	45.327
512.98	44.490
513.33	44.570
513.67	45.572
514.02	45.143
514.36	45.431
514.70	45.013
515.05	45.551
515.39	46.053
515.74	46.419
516.08	45.207
516.42	46.667
516.77	45.920
517.11	45.120
517.46	45.851
517.80	45.385
518.14	46.197
518.49	44.708
518.83	45.440
519.17	45.535
519.52	44.675
519.86	45.177
520.20	45.370
520.55	46.128
520.89	45.862
521.23	46.262
521.58	46.185
521.92	45.831
522.26	45.853
522.61	45.455
522.95	46.306
523.29	46.023
523.64	45.376
523.98	45.364
524.32	45.386
524.66	45.275
525.01	44.911
525.35	45.256
525.69	46.117
526.04	46.282
526.38	46.498
526.72	45.286
527.06	45.713
527.41	46.614
527.75	45.222
528.09	44.732
528.43	45.272
528.78	45.200
529.12	46.237
529.46	44.711
529.80	44.159
530.15	45.197
530.49	45.307
530.83	44.973
531.17	45.326
531.51	44.635
531.86	44.384
532.20	45.117
532.54	45.700
532.88	45.659
533.22	45.521
533.57	44.051
533.91	44.464
534.25	43.104
534.59	44.854
534.93	43.686
535.27	42.857
535.62	43.349
535.96	44.149
536.30	44.485
536.64	44.161
536.98	44.682
537.32	44.063
537.66	43.941
538.01	44.025
538.35	44.105
538.69	42.961
539.03	42.475
539.37	43.022
539.71	43.951
540.05	43.877
540.39	44.340
540.73	45.063
541.07	43.852
541.42	44.776
541.76	44.143
542.10	42.725
542.44	43.579
542.78	42.417
543.12	42.638
543.46	43.609
543.80	42.982
544.14	42.972
544.48	43.066
544.82	43.180
545.16	41.591
545.50	43.577
545.84	43.056
546.18	45.124
546.52	44.197
546.86	42.231
547.20	42.119
547.54	43.445
547.88	41.180
548.22	44.080
548.56	40.778
548.90	41.815
549.24	43.904
549.58	42.590
549.92	42.436
550.26	43.475
550.60	43.247
550.94	43.351
551.28	43.379
551.62	44.621
551.96	42.905
552.30	41.859
552.64	43.430
552.98	42.848
553.32	41.933
553.66	42.280
554.00	41.248
554.34	43.675
554.68	42.675
555.02	42.498
555.36	42.021
555.69	42.277
556.03	42.357
556.37	42.639
556.71	42.894
557.05	41.088
557.39	41.933
557.73	42.116
558.07	41.784
558.41	42.221
558.75	41.860
559.08	42.459
559.42	42.305
559.76	42.409
560.10	42.189
560.44	41.672
560.78	41.240
561.12	41.449
561.45	41.802
561.79	41.573
562.13	40.872
562.47	42.505
562.81	41.184
563.15	41.694
563.48	40.621
563.82	43.543
564.16	41.356
564.50	39.120
564.84	40.486
565.17	39.335
565.51	41.071
565.85	41.641
566.19	39.167
566.52	40.193
566.86	40.339
567.20	40.562
567.54	38.919
567.88	39.541
568.21	38.492
568.55	38.473
568.89	39.051
569.23	37.575
569.56	37.620
569.90	36.723
570.24	36.729
570.57	36.697
570.91	34.883
571.25	35.409
571.59	34.913
571.92	34.688
572.26	34.528
572.60	34.574
572.93	35.250
573.27	34.664
573.61	34.949
573.95	34.861
574.28	34.683
574.62	33.372
574.96	33.454
575.29	33.960
575.63	33.428
575.97	33.690
576.30	34.346
576.64	34.493
576.98	34.154
577.31	33.751
577.65	32.945
577.98	33.019
578.32	32.927
578.66	33.262
578.99	33.690
579.33	33.829
579.67	33.418
580.00	33.203
580.34	33.259
580.67	33.691
581.01	33.728
581.35	33.274
581.68	32.242
582.02	32.978
582.35	32.274
582.69	32.788
583.02	32.888
583.36	33.453
583.70	33.295
584.03	34.477
584.37	33.720
584.70	33.640
585.04	33.333
585.37	33.341
585.71	34.112
586.04	33.235
586.38	33.756
586.72	33.565
587.05	33.634
587.39	32.971
587.72	33.374
588.06	32.828
588.39	33.879
588.73	33.424
589.06	34.608
589.40	35.149
589.73	34.251
590.07	34.592
590.40	35.436
590.73	36.394
591.07	35.750
591.40	34.651
591.74	35.227
592.07	34.651
592.41	35.212
592.74	34.456
593.08	34.049
593.41	33.393
593.75	32.855
594.08	34.062
594.41	33.887
594.75	33.904
595.08	34.705
595.42	33.838
595.75	33.794
596.09	34.307
596.42	34.013
596.75	35.337
597.09	34.957
597.42	34.531
597.75	35.254
598.09	34.058
598.42	33.619
598.76	33.539
599.09	34.645
599.42	33.599
599.76	33.582
600.09	33.288
600.42	33.633
600.76	33.787
601.09	33.483
601.42	33.404
601.76	33.298
602.09	34.290
602.42	33.198
602.76	33.738
603.09	34.238
603.42	34.018
603.76	33.767
604.09	33.478
604.42	33.974
604.76	34.018
605.09	33.714
605.42	34.376
605.75	33.439
606.09	33.168
606.42	33.709
606.75	33.852
607.09	33.597
607.42	33.789
607.75	33.798
608.08	33.591
608.42	34.018
608.75	33.034
609.08	34.624
609.41	34.455
609.75	34.066
610.08	34.038
610.41	33.860
610.74	34.026
611.07	34.152
611.41	34.430
611.74	34.895
612.07	34.441
612.40	34.162
612.73	34.648
613.07	34.161
613.40	33.935
613.73	34.448
614.06	34.250
614.39	34.444
614.72	33.651
615.06	33.234
615.39	34.257
615.72	33.688
616.05	34.807
616.38	34.348
616.71	35.214
617.05	34.651
617.38	35.056
617.71	35.152
618.04	34.100
618.37	34.241
618.70	34.122
619.03	35.470
619.36	35.616
619.69	36.082
620.03	36.595
620.36	35.967
620.69	36.654
621.02	36.617
621.35	36.318
621.68	37.094
622.01	37.048
622.34	35.615
622.67	36.587
623.00	34.854
623.33	36.370
623.66	35.928
623.99	36.027
624.32	35.840
624.65	35.221
624.99	34.956
625.32	35.337
625.65	34.759
625.98	35.565
626.31	36.944
626.64	36.826
626.97	35.348
627.30	36.180
627.63	36.970
627.96	36.620
628.29	38.201
628.62	35.928
628.95	38.741
629.28	38.738
629.61	37.873
629.94	38.029
630.26	38.215
630.59	38.121
630.92	37.848
631.25	38.622
631.58	38.862
631.91	38.440
632.24	37.804
632.57	38.212
632.90	39.959
633.23	40.294
633.56	38.462
633.89	38.907
634.22	39.397
634.55	39.785
634.88	40.745
635.20	39.686
635.53	41.115
635.86	39.821
636.19	39.169
636.52	38.270
636.85	37.864
637.18	38.787
637.51	40.559
637.83	39.703
638.16	40.797
638.49	41.198
638.82	39.789
639.15	38.190
639.48	40.403
639.81	39.438
640.13	40.859
640.46	40.582
640.79	40.572
641.12	40.289
641.45	39.845
641.77	42.008
642.10	40.830
642.43	41.394
642.76	40.199
643.09	39.625
643.41	40.393
643.74	42.302
644.07	42.330
644.40	41.124
644.73	43.994
645.05	42.645
645.38	40.582
645.71	41.426
646.04	42.290
646.36	44.288
646.69	41.760
647.02	44.160
647.35	41.260
647.67	42.626
648.00	43.485
648.33	40.301
648.66	41.212
648.98	38.841
649.31	38.731
649.64	38.728
649.96	40.114
650.29	41.286
650.62	41.532
650.94	41.867
651.27	42.105
651.60	42.567
651.92	42.243
652.25	40.630
652.58	39.291
652.90	40.269
653.23	40.030
653.56	40.356
653.88	39.060
654.21	37.977
654.54	38.946
654.86	39.528
655.19	39.710
655.52	31.601
655.84	24.092
656.17	27.871
656.49	40.470
656.82	46.499
657.15	37.677
657.47	28.198
657.80	21.125
658.13	16.736
658.45	23.134
658.78	27.514
659.10	28.211
659.43	29.599
659.75	31.551
660.08	32.832
660.41	35.299
660.73	39.272
661.06	39.940
661.38	40.545
661.71	41.187
662.03	42.966
662.36	42.286
662.68	42.831
663.01	41.261
663.33	41.509
663.66	41.223
663.98	43.254
664.31	43.097
664.63	42.720
664.96	44.278
665.28	42.373
665.61	41.132
665.93	43.774
666.26	40.748
666.58	43.670
666.91	42.085
667.23	44.177
667.56	46.201
667.88	45.643
668.21	41.393
668.53	42.742
668.86	43.086
669.18	43.585
669.50	40.083
669.83	42.505
670.15	42.827
670.48	41.602
670.80	45.020
671.13	41.434
671.45	45.291
671.77	41.744
672.10	40.575
672.42	36.513
672.75	38.133
673.07	37.997
673.39	36.102
673.72	39.965
674.04	42.294
674.37	40.653
674.69	41.822
675.01	40.112
675.34	40.310
675.66	41.602
675.98	43.195
676.31	40.600
676.63	39.761
676.95	43.056
677.28	41.379
677.60	42.656
677.92	38.690
678.25	43.605
678.57	39.665
678.89	40.868
679.22	38.051
679.54	40.036
679.86	38.743
680.18	38.840
680.51	35.323
680.83	39.020
681.15	38.821
681.48	37.847
681.80	38.179
682.12	36.332
682.44	38.378
682.77	39.502
683.09	38.835
683.41	40.612
683.73	41.142
684.06	36.508
684.38	40.698
684.70	38.489
685.02	37.674
685.34	39.613
685.67	36.656
685.99	38.588
686.31	36.055
686.63	36.911
686.96	38.235
687.28	36.242
687.60	39.761
687.92	37.856
688.24	39.828
688.56	37.722
688.89	37.667
689.21	39.499
689.53	37.154
689.85	38.618
690.17	39.223
690.49	40.323
690.82	37.605
691.14	38.990
691.46	38.193
691.78	40.936
692.10	38.740
692.42	38.838
692.74	39.922
693.06	38.566
693.39	38.142
693.71	39.882
694.03	39.053
694.35	42.570
694.67	37.882
694.99	39.024
695.31	40.090
695.63	40.271
695.95	43.213
696.27	40.708
696.59	40.811
696.91	38.987
697.23	40.950
697.56	35.685
697.88	37.525
698.20	37.358
698.52	35.798
698.84	38.809
699.16	38.806
699.48	39.407
699.80	41.830
700.12	43.649
700.44	42.523
700.76	40.334
701.08	40.992
701.40	39.481
701.72	47.326
702.04	42.818
702.36	43.011
702.68	43.617
703.00	40.100
703.32	41.191
703.64	40.050
703.96	42.448
704.28	42.857
704.60	43.099
704.91	42.577
705.23	40.625
705.55	43.323
705.87	44.444
706.19	42.006
706.51	47.335
706.83	45.428
707.15	41.176
707.47	41.889
707.79	38.161
708.11	36.961
708.43	37.079
708.74	38.914
709.06	36.512
709.38	39.950
709.70	38.692
710.02	40.489
710.34	39.779
710.66	41.667
710.98	40.984
711.29	40.111
711.61	42.897
711.93	37.386
712.25	41.566
712.57	45.338
712.89	43.030
713.20	45.687
713.52	44.548
713.84	41.994
714.16	36.522
714.48	36.311
714.80	39.566
715.11	38.564
715.43	39.944
715.75	42.817
716.07	38.728
716.39	41.143
716.70	39.252
717.02	44.444
717.34	47.842
717.66	41.667
717.97	48.864
718.29	42.958
718.61	38.851
718.93	45.675
719.24	45.638
719.56	39.655
719.88	39.490
720.20	40.323
720.51	38.889
720.83	45.819
721.15	44.558
721.46	42.466
721.78	45.296
722.10	42.361
722.42	45.151
722.73	41.516
723.05	47.018
723.37	41.696
723.68	39.844
724.00	41.667
724.32	46.768
724.63	44.615
724.95	46.667
725.27	44.610
725.58	44.118
725.90	43.310
726.22	36.301
726.53	42.475
726.85	40.717
727.16	44.631
727.48	40.199
727.80	41.007
728.11	43.929
728.43	36.957
728.74	45.105
729.06	39.068
729.38	44.211
729.69	46.667
730.01	41.776
730.32	41.946
730.64	40.864
730.96	38.138
731.27	35.780
731.59	37.931
731.90	36.212
732.22	38.571
732.53	33.048
732.85	41.520
733.16	37.952
733.48	40.125
733.80	40.000
734.11	41.718
734.43	36.257
734.74	36.729
735.06	34.656
735.37	35.567
735.69	38.841
736.00	38.226
736.32	32.121
736.63	31.230
736.95	33.851
737.26	39.939
737.58	34.663
737.89	42.169
738.21	42.715
738.52	37.458
738.83	43.956
739.15	38.676
739.46	35.862
739.78	39.796
740.09	40.816
740.41	39.571
740.72	40.000
741.04	41.259
741.35	44.141
741.66	39.130
741.98	42.060
742.29	44.907
742.61	43.805
742.92	41.102
743.23	42.400
743.55	35.094
743.86	43.529
744.18	44.068
744.49	49.174
744.80	46.544
745.12	38.839
745.43	46.729
745.74	48.444
746.06	45.614
746.37	48.837
746.68	46.018
747.00	43.498
747.31	44.118
747.62	40.984
747.94	45.494
748.25	42.023
748.56	51.695
748.88	47.768
749.19	45.581
749.50	47.032
749.82	38.683
750.13	43.478
750.44	36.667
750.75	35.906
751.07	39.803
751.38	35.644
751.69	39.394
752.01	40.559
752.32	39.203
752.63	38.591
752.94	38.811
753.26	42.578
753.57	40.467
753.88	38.951
754.19	40.794
754.51	38.870
754.82	37.584
755.13	41.554
755.44	38.519
755.75	36.426
756.07	39.384
756.38	34.967
756.69	36.562
757.00	37.982
757.31	36.056
757.63	34.711
757.94	32.447
758.25	35.024
758.56	32.723
758.87	35.338
759.18	35.465
759.50	34.650
759.81	37.092
760.12	35.955
760.43	36.134
760.74	35.949
761.05	36.605
761.36	36.458
761.67	34.771
761.99	32.394
762.30	39.550
762.61	35.417
762.92	45.833
763.23	41.509
763.54	38.077
763.85	38.911
764.16	41.319
764.47	36.149
764.78	34.853
765.10	35.366
765.41	32.102
765.72	33.978
766.03	35.650
766.34	36.585
766.65	40.304
766.96	44.130
767.27	45.327
767.58	37.624
767.89	48.066
768.20	50.000
768.51	41.327
768.82	42.105
769.13	41.569
769.44	36.466
769.75	40.449
770.06	42.437
770.37	39.474
770.68	38.222
770.99	43.644
771.30	43.096
771.61	38.462
771.92	38.550
772.23	35.887
772.54	41.778
772.85	49.010
773.16	47.826
773.47	43.889
773.78	45.545
774.09	53.977
774.39	49.697
774.70	38.824
775.01	47.368
775.32	47.826
775.63	57.534
775.94	53.704
776.25	58.621
776.56	46.565
776.87	54.198
777.18	53.788
777.48	60.630
777.79	49.231
778.10	49.242
778.41	56.716
778.72	45.865
779.03	46.795
779.34	47.297
779.65	49.689
779.95	50.311
780.26	42.262
780.57	50.340
780.88	51.773
781.19	69.167
781.50	49.704
781.80	45.902
782.11	44.974
782.42	41.954
782.73	47.458
783.04	47.097
783.34	51.938
783.65	47.619
783.96	50.968
784.27	39.073
784.57	45.395
784.88	44.928
785.19	56.667
785.50	55.172
785.81	69.767
786.11	40.741
786.42	47.244
786.73	53.153
787.04	56.604
787.34	47.154
787.65	56.818
787.96	59.848
788.26	62.992
788.57	50.365
788.88	41.549
789.19	51.145
789.49	50.676
789.80	58.594
790.11	55.372
790.41	57.407
790.72	56.481
791.03	60.577
791.33	53.535
791.64	61.053
791.95	62.105
792.25	55.208
792.56	50.000
792.87	53.659
793.17	62.500
793.48	65.882
793.79	65.517
794.09	54.545
794.40	66.379
794.70	54.762
795.01	43.846
795.32	46.565
795.62	54.701
795.93	49.580
796.23	60.163
796.54	64.286
796.85	65.909
797.15	80.519
797.46	73.171
797.76	62.500
798.07	74.667
798.37	72.500
798.68	76.250
798.99	74.390
799.29	54.667
799.60	50.000
799.90	59.211
800.21	81.818
800.51	57.746
800.82	79.310
801.12	87.692
801.43	73.333
801.73	74.138
802.04	70.130
802.34	79.452
802.65	80.392
802.95	78.261
803.26	83.871
803.56	96.667
803.87	62.687
804.17	98.413
804.48	75.472
804.78	81.944
805.09	84.848
805.39	92.063
805.70	87.719
806.00	58.571
806.30	60.937
806.61	71.765
806.91	70.000
807.22	55.435
807.52	73.684
807.83	73.684
808.13	73.913
808.43	91.935
808.74	94.521
809.04	78.571
809.35	97.059
809.65	71.212
809.95	115.686
810.26	100.000
810.56	100.000
810.86	91.837
811.17	89.474
811.47	95.652
811.77	79.310
812.08	67.241
812.38	85.714
812.69	130.952
812.99	111.111
813.29	120.000
813.59	158.065
813.90	82.759
814.20	86.885
814.50	100.000
814.81	84.211
815.11	96.296
815.41	91.071
815.72	101.786
816.02	92.000
816.32	102.439
816.62	86.207
816.93	145.455
817.23	117.073
817.53	89.286
817.84	115.556
818.14	104.762
818.44	100.000
818.74	101.887
819.04	112.821
819.35	151.515
819.65	113.462
819.95	114.815
820.25	117.021
820.56	151.351
820.86	123.684
821.16	87.234
821.46	134.211
821.76	103.636
822.07	102.381
822.37	123.684
822.67	130.233
822.97	107.895
823.27	102.174
823.57	125.000
823.88	128.205
824.18	127.273
824.48	152.174
824.78	152.778
825.08	147.826
825.38	117.241
825.69	123.529
825.99	93.617
826.29	111.111
826.59	140.000
826.89	150.000
827.19	114.286
827.49	158.065
827.79	173.077
828.09	111.905
828.39	108.333
828.70	129.730
829.00	135.714
829.30	162.500
829.60	119.444
829.90	135.484
830.20	133.333
830.50	143.243
830.80	145.833
831.10	150.000
831.40	161.905
831.70	162.500
832.00	123.333
832.30	195.652
832.60	195.833
832.90	169.697
833.20	200.000
833.50	128.947
833.80	150.000
834.10	115.789
834.40	152.632
834.70	110.000
835.00	160.000
835.30	83.784
835.60	140.625
835.90	135.135
836.20	146.154
836.50	140.909
836.80	109.756
837.10	208.696
837.40	369.231
837.70	184.211
838.00	156.667
838.30	170.833
838.60	168.000
838.90	280.000
839.19	193.750
839.49	153.333
839.79	144.828
840.09	161.538
840.39	166.667
840.69	263.158
840.99	142.857
841.29	204.348
841.59	185.000
841.88	180.000
842.18	366.667
842.48	142.857
842.78	151.852
843.08	207.692
843.38	181.818
843.68	271.429
843.97	442.857
844.27	160.870
844.57	1700.000
844.87	307.143
845.17	211.111
845.47	171.429
845.76	208.333
846.06	585.714
846.36	217.647
846.66	300.000
846.96	281.250
847.25	300.000
847.55	205.263
847.85	222.222
848.15	740.000
848.44	300.000
848.74	190.476
849.04	170.833
849.34	194.118
849.63	281.250
849.93	237.500
850.23	1066.667
850.53	575.000
850.82	354.545
851.12	229.412
851.42	200.000
851.71	256.250
852.01	0.000
852.31	188.235
852.61	450.000
852.90	133.333
853.20	333.333
853.50	-2200.000
853.79	164.000
854.09	159.375
854.39	162.069
854.68	165.517
854.98	228.571
855.28	151.613
855.57	250.000
855.87	188.889
856.17	125.926
856.46	215.789
856.76	145.161
857.05	270.588
857.35	318.182
857.65	353.846
857.94	170.000
858.24	433.333
858.53	314.286
858.83	542.857
859.13	204.348
859.42	422.222
859.72	362.500
860.01	300.000
860.31	1300.000
860.60	380.000
860.90	450.000
861.20	307.692
861.49	528.571
861.79	-4000.000
862.08	514.286
862.38	433.333
862.67	264.286
862.97	380.000
863.26	163.333
863.56	700.000
863.85	338.462
864.15	270.588
864.44	205.556
864.74	416.667
865.03	345.455
865.33	337.500
865.62	240.000
865.92	733.333
866.21	1050.000
866.51	780.000
866.80	211.111
867.10	1200.000
867.39	2600.000
867.69	660.000
867.98	950.000
868.27	180.952
868.57	246.667
868.86	1225.000
869.16	190.476
869.45	4600.000
869.75	-516.667
870.04	800.000
870.33	880.000
870.63	400.000
870.92	241.176
871.22	950.000
871.51	471.429
871.80	366.667
872.10	353.846
>>>>>End Processed Spectral Data<<<<<
