SpectraSuite Data File
++++++++++++++++++++++++++++++++++++
Date: Tue May 12 15:22:44 PDT 2015
User: schluterlab
Dark Spectrum Present: Yes
Reference Spectrum Present: Yes
Number of Sampled Component Spectra: 1
Spectrometers: USB2E3373
Integration Time (usec): 3000 (USB2E3373)
Spectra Averaged: 3 (USB2E3373)
Boxcar Smoothing: 0 (USB2E3373)
Correct for Electrical Dark: No (USB2E3373)
Strobe/Lamp Enabled: No (USB2E3373)
Correct for Detector Non-linearity: No (USB2E3373)
Correct for Stray Light: No (USB2E3373)
Number of Pixels in Processed Spectrum: 2048
>>>>>Begin Processed Spectral Data<<<<<
178.53	0.000
178.91	-250.000
179.29	-675.000
179.67	-2800.000
180.04	-153.333
180.42	525.000
180.80	1550.000
181.18	0.000
181.56	-212.500
181.94	0.000
182.31	1133.333
182.69	-3200.000
183.07	614.286
183.45	-2800.000
183.83	-1700.000
184.20	370.000
184.58	500.000
184.96	-230.769
185.34	-266.667
185.72	1950.000
186.09	-825.000
186.47	-2700.000
186.85	966.667
187.23	820.000
187.61	1200.000
187.98	387.500
188.36	278.571
188.74	291.667
189.12	308.333
189.49	1000.000
189.87	0.000
190.25	462.500
190.63	2900.000
191.00	-200.000
191.38	-2800.000
191.76	-775.000
192.14	425.000
192.51	-2400.000
192.89	1700.000
193.27	1000.000
193.65	-1233.333
194.02	-760.000
194.40	500.000
194.78	-178.571
195.15	240.000
195.53	-2900.000
195.91	-500.000
196.29	3100.000
196.66	262.500
197.04	950.000
197.42	-1650.000
197.79	450.000
198.17	325.000
198.55	0.000
198.92	571.429
199.30	933.333
199.68	1850.000
200.05	666.667
200.43	-450.000
200.81	211.111
201.18	3000.000
201.56	291.667
201.94	-975.000
202.31	-287.500
202.69	-440.000
203.07	3000.000
203.44	-450.000
203.82	275.000
204.19	600.000
204.57	-1350.000
204.95	-700.000
205.32	-720.000
205.70	583.333
206.08	825.000
206.45	-500.000
206.83	377.778
207.20	178.947
207.58	233.333
207.96	700.000
208.33	0.000
208.71	585.714
209.08	640.000
209.46	-2900.000
209.84	-925.000
210.21	780.000
210.59	-520.000
210.96	333.333
211.34	-775.000
211.71	372.727
212.09	850.000
212.46	1600.000
212.84	-316.667
213.22	366.667
213.59	-2400.000
213.97	360.000
214.34	975.000
214.72	1100.000
215.09	800.000
215.47	-3700.000
215.84	-340.000
216.22	-275.000
216.59	0.000
216.97	0.000
217.34	1200.000
217.72	-1500.000
218.09	1133.333
218.47	512.500
218.84	950.000
219.22	933.333
219.59	1066.667
219.97	428.571
220.34	355.556
220.72	1350.000
221.09	3500.000
221.47	233.333
221.84	800.000
222.22	260.000
222.59	238.889
222.97	157.143
223.34	231.250
223.72	-1800.000
224.09	1133.333
224.46	276.923
224.84	-675.000
225.21	311.111
225.59	220.000
225.96	1133.333
226.34	-600.000
226.71	-825.000
227.08	-500.000
227.46	0.000
227.83	-516.667
228.21	-1400.000
228.58	383.333
228.95	775.000
229.33	355.556
229.70	1000.000
230.08	284.615
230.45	3200.000
230.82	-975.000
231.20	-1066.667
231.57	-833.333
231.95	700.000
232.32	216.667
232.69	500.000
233.07	325.000
233.44	-1550.000
233.81	253.333
234.19	140.741
234.56	200.000
234.93	217.647
235.31	145.000
235.68	206.250
236.05	157.143
236.43	122.222
236.80	221.429
237.17	106.897
237.55	84.375
237.92	110.000
238.29	112.121
238.67	103.125
239.04	70.732
239.41	62.500
239.79	45.000
240.16	75.000
240.53	57.377
240.91	53.623
241.28	42.373
241.65	37.879
242.02	54.930
242.40	50.000
242.77	39.560
243.14	32.911
243.51	41.414
243.89	42.991
244.26	37.383
244.63	28.713
245.00	25.688
245.38	24.576
245.75	30.303
246.12	28.889
246.49	23.404
246.87	14.754
247.24	22.667
247.61	25.625
247.98	26.531
248.36	11.515
248.73	23.469
249.10	14.286
249.47	21.000
249.84	16.418
250.22	22.703
250.59	18.000
250.96	18.987
251.33	13.488
251.70	18.750
252.08	17.647
252.45	10.757
252.82	19.011
253.19	15.810
253.56	11.538
253.94	15.217
254.31	14.341
254.68	13.240
255.05	17.241
255.42	11.679
255.79	14.332
256.16	15.932
256.54	15.584
256.91	12.092
257.28	9.699
257.65	10.345
258.02	9.145
258.39	14.327
258.76	15.942
259.14	9.429
259.51	9.621
259.88	10.942
260.25	11.264
260.62	12.329
260.99	8.815
261.36	12.256
261.73	11.436
262.10	9.686
262.47	9.750
262.85	9.867
263.22	9.769
263.59	10.486
263.96	11.529
264.33	9.630
264.70	11.057
265.07	8.293
265.44	11.239
265.81	9.670
266.18	9.611
266.55	9.693
266.92	8.501
267.29	8.991
267.66	7.175
268.03	9.417
268.40	9.937
268.77	6.828
269.14	6.725
269.51	10.022
269.88	10.408
270.25	6.048
270.62	6.867
270.99	11.562
271.36	11.789
271.73	8.386
272.10	8.283
272.47	8.333
272.84	7.186
273.21	6.405
273.58	7.490
273.95	7.598
274.32	8.171
274.69	8.858
275.06	10.018
275.43	8.046
275.80	6.981
276.17	8.456
276.54	9.907
276.91	8.955
277.28	6.752
277.65	7.749
278.02	8.640
278.39	7.014
278.76	9.655
279.13	7.295
279.50	7.636
279.87	8.752
280.23	8.287
280.60	8.029
280.97	9.310
281.34	8.581
281.71	9.739
282.08	10.598
282.45	7.095
282.82	8.194
283.19	8.744
283.56	5.289
283.92	6.026
284.29	6.656
284.66	6.723
285.03	7.794
285.40	7.438
285.77	6.327
286.14	8.978
286.51	7.362
286.87	6.487
287.24	6.156
287.61	5.167
287.98	8.507
288.35	8.148
288.72	6.980
289.08	7.207
289.45	7.165
289.82	7.500
290.19	5.124
290.56	7.132
290.93	6.906
291.29	6.768
291.66	7.203
292.03	7.013
292.40	6.640
292.77	6.964
293.13	7.418
293.50	6.073
293.87	5.420
294.24	6.294
294.60	8.210
294.97	5.874
295.34	7.437
295.71	6.439
296.08	7.200
296.44	7.497
296.81	6.948
297.18	4.943
297.55	6.650
297.91	5.049
298.28	6.039
298.65	6.626
299.02	5.790
299.38	6.835
299.75	7.073
300.12	6.881
300.48	5.855
300.85	6.317
301.22	5.930
301.59	6.486
301.95	6.068
302.32	6.636
302.69	5.204
303.05	7.295
303.42	6.054
303.79	5.850
304.15	5.501
304.52	5.391
304.89	7.463
305.25	6.229
305.62	7.676
305.99	5.761
306.35	5.789
306.72	6.556
307.09	6.729
307.45	5.385
307.82	6.584
308.19	7.216
308.55	6.000
308.92	7.655
309.29	7.002
309.65	6.640
310.02	6.795
310.38	7.178
310.75	6.268
311.12	5.939
311.48	7.143
311.85	6.489
312.22	6.208
312.58	7.289
312.95	7.670
313.31	8.240
313.68	7.317
314.05	8.425
314.41	6.890
314.78	6.818
315.14	7.962
315.51	8.988
315.87	8.120
316.24	8.123
316.61	8.863
316.97	8.440
317.34	9.164
317.70	9.131
318.07	9.875
318.43	10.369
318.80	9.632
319.16	9.441
319.53	9.469
319.89	10.036
320.26	11.639
320.62	11.355
320.99	10.867
321.35	11.503
321.72	12.619
322.08	11.819
322.45	12.897
322.81	12.351
323.18	12.433
323.54	14.373
323.91	15.322
324.27	14.147
324.64	12.370
325.00	15.259
325.37	15.093
325.73	15.767
326.10	16.239
326.46	16.185
326.83	14.720
327.19	17.028
327.56	15.655
327.92	18.197
328.29	18.085
328.65	18.579
329.01	18.563
329.38	16.328
329.74	18.275
330.11	19.548
330.47	19.949
330.84	18.033
331.20	19.966
331.56	20.725
331.93	20.017
332.29	18.197
332.66	19.473
333.02	19.416
333.38	19.023
333.75	20.851
334.11	20.721
334.48	20.085
334.84	20.946
335.20	20.787
335.57	20.823
335.93	20.101
336.29	19.652
336.66	21.098
337.02	21.300
337.38	19.948
337.75	20.946
338.11	20.591
338.47	21.846
338.84	22.185
339.20	20.087
339.56	20.437
339.93	21.739
340.29	20.672
340.65	21.375
341.02	20.837
341.38	20.936
341.74	21.262
342.11	21.035
342.47	20.345
342.83	21.821
343.20	22.070
343.56	19.142
343.92	20.479
344.28	21.531
344.65	20.945
345.01	20.952
345.37	20.753
345.73	21.508
346.10	22.550
346.46	22.807
346.82	21.065
347.19	21.638
347.55	22.014
347.91	21.148
348.27	21.146
348.63	21.994
349.00	21.935
349.36	22.023
349.72	22.936
350.08	22.826
350.45	22.163
350.81	22.248
351.17	22.111
351.53	22.094
351.89	21.911
352.26	22.373
352.62	22.624
352.98	22.699
353.34	22.419
353.70	20.872
354.07	21.923
354.43	22.197
354.79	22.703
355.15	22.129
355.51	22.281
355.87	22.590
356.24	23.557
356.60	21.766
356.96	22.669
357.32	22.532
357.68	22.834
358.04	23.480
358.40	22.864
358.77	23.065
359.13	22.748
359.49	23.573
359.85	23.678
360.21	23.551
360.57	23.796
360.93	23.593
361.29	23.737
361.66	24.459
362.02	23.082
362.38	23.377
362.74	23.779
363.10	23.913
363.46	23.757
363.82	23.422
364.18	23.755
364.54	24.177
364.90	23.695
365.26	24.080
365.62	23.273
365.98	23.606
366.35	23.586
366.71	24.358
367.07	23.754
367.43	23.707
367.79	24.601
368.15	23.948
368.51	24.190
368.87	24.185
369.23	24.186
369.59	24.545
369.95	24.056
370.31	24.298
370.67	24.913
371.03	24.160
371.39	24.584
371.75	24.983
372.11	24.269
372.47	25.068
372.83	24.201
373.19	25.428
373.55	24.880
373.91	23.826
374.27	23.876
374.63	24.068
374.99	24.865
375.35	25.134
375.71	25.132
376.07	24.271
376.42	23.977
376.78	25.498
377.14	25.164
377.50	24.657
377.86	24.536
378.22	23.888
378.58	24.576
378.94	24.864
379.30	24.196
379.66	24.443
380.02	24.516
380.38	23.829
380.74	24.740
381.09	24.474
381.45	23.815
381.81	24.764
382.17	24.115
382.53	24.115
382.89	24.305
383.25	23.564
383.61	24.438
383.97	23.815
384.32	23.749
384.68	24.896
385.04	23.916
385.40	23.665
385.76	23.523
386.12	24.552
386.48	24.073
386.83	23.716
387.19	23.852
387.55	22.674
387.91	23.383
388.27	23.676
388.62	23.533
388.98	22.566
389.34	22.368
389.70	22.642
390.06	22.561
390.42	22.702
390.77	22.727
391.13	22.692
391.49	22.686
391.85	22.708
392.20	22.467
392.56	21.625
392.92	21.954
393.28	21.917
393.64	22.190
393.99	21.992
394.35	21.307
394.71	20.326
395.07	21.655
395.42	21.311
395.78	21.407
396.14	22.651
396.50	20.878
396.85	21.159
397.21	20.638
397.57	20.622
397.92	19.815
398.28	20.463
398.64	20.128
399.00	20.363
399.35	19.914
399.71	19.923
400.07	19.920
400.42	19.284
400.78	20.117
401.14	19.730
401.49	18.952
401.85	19.409
402.21	19.566
402.57	18.671
402.92	18.727
403.28	17.780
403.63	18.835
403.99	18.697
404.35	18.992
404.70	18.724
405.06	18.810
405.42	18.253
405.77	18.798
406.13	17.408
406.49	17.965
406.84	17.315
407.20	18.436
407.55	18.215
407.91	18.124
408.27	18.253
408.62	17.800
408.98	17.682
409.34	16.832
409.69	17.548
410.05	16.816
410.40	16.608
410.76	16.543
411.11	17.062
411.47	17.099
411.83	16.520
412.18	16.969
412.54	16.637
412.89	16.401
413.25	17.332
413.60	16.881
413.96	17.115
414.31	16.588
414.67	17.815
415.03	16.794
415.38	17.161
415.74	18.067
416.09	17.801
416.45	17.518
416.80	19.051
417.16	17.759
417.51	17.643
417.87	17.209
418.22	17.618
418.58	16.879
418.93	18.084
419.29	18.053
419.64	18.292
420.00	18.377
420.35	18.467
420.71	18.261
421.06	17.893
421.42	19.401
421.77	18.878
422.12	18.578
422.48	18.747
422.83	20.815
423.19	18.952
423.54	19.035
423.90	20.272
424.25	20.969
424.61	20.894
424.96	20.384
425.31	20.690
425.67	21.324
426.02	21.144
426.38	20.945
426.73	21.400
427.09	21.708
427.44	21.609
427.79	22.070
428.15	22.157
428.50	22.171
428.85	22.810
429.21	22.853
429.56	22.881
429.92	22.675
430.27	22.787
430.62	22.956
430.98	23.503
431.33	22.530
431.68	22.716
432.04	23.332
432.39	24.424
432.74	24.883
433.10	25.083
433.45	24.698
433.80	25.483
434.16	24.488
434.51	25.748
434.86	26.075
435.22	25.932
435.57	26.319
435.92	27.092
436.28	26.959
436.63	26.580
436.98	28.716
437.34	28.253
437.69	26.204
438.04	28.333
438.39	28.255
438.75	28.062
439.10	27.901
439.45	28.038
439.81	28.398
440.16	29.554
440.51	28.491
440.86	29.630
441.22	29.545
441.57	30.341
441.92	29.911
442.27	30.515
442.63	30.234
442.98	30.388
443.33	30.316
443.68	32.042
444.03	31.527
444.39	32.392
444.74	31.263
445.09	32.912
445.44	32.731
445.79	32.115
446.15	32.684
446.50	33.333
446.85	33.865
447.20	32.289
447.55	34.638
447.91	34.363
448.26	34.026
448.61	34.549
448.96	34.967
449.31	35.039
449.66	35.548
450.02	35.116
450.37	35.591
450.72	35.813
451.07	35.718
451.42	36.159
451.77	36.483
452.12	35.735
452.47	35.723
452.83	36.732
453.18	37.237
453.53	37.241
453.88	36.914
454.23	36.897
454.58	36.713
454.93	37.094
455.28	38.433
455.63	36.879
455.98	37.281
456.34	39.271
456.69	38.049
457.04	38.723
457.39	37.829
457.74	39.358
458.09	37.619
458.44	37.842
458.79	37.719
459.14	37.425
459.49	39.128
459.84	39.076
460.19	38.983
460.54	38.291
460.89	39.392
461.24	38.832
461.59	38.379
461.94	38.712
462.29	39.073
462.64	39.196
462.99	38.964
463.34	39.404
463.69	40.714
464.04	39.321
464.39	39.954
464.74	38.159
465.09	39.176
465.44	39.119
465.79	39.467
466.14	39.587
466.49	39.989
466.84	39.409
467.19	39.543
467.54	39.099
467.89	40.434
468.24	40.996
468.59	39.226
468.94	40.519
469.29	39.462
469.64	39.421
469.99	40.296
470.34	40.607
470.68	39.931
471.03	40.827
471.38	39.536
471.73	39.713
472.08	41.422
472.43	40.720
472.78	40.333
473.13	39.487
473.48	40.342
473.83	40.165
474.17	40.608
474.52	40.877
474.87	40.591
475.22	40.891
475.57	40.399
475.92	39.295
476.27	39.227
476.61	40.054
476.96	40.282
477.31	41.028
477.66	40.741
478.01	40.382
478.36	40.525
478.70	39.603
479.05	40.795
479.40	40.923
479.75	41.807
480.10	40.755
480.45	40.523
480.79	39.954
481.14	39.515
481.49	39.936
481.84	40.018
482.19	40.873
482.53	40.711
482.88	40.412
483.23	40.550
483.58	40.305
483.92	40.814
484.27	40.582
484.62	39.601
484.97	40.047
485.31	40.146
485.66	40.327
486.01	39.025
486.36	39.024
486.70	38.501
487.05	38.315
487.40	39.459
487.75	39.471
488.09	39.687
488.44	39.834
488.79	40.264
489.13	39.866
489.48	40.392
489.83	39.658
490.17	38.604
490.52	40.698
490.87	39.526
491.22	41.401
491.56	41.151
491.91	39.785
492.26	40.178
492.60	41.002
492.95	39.828
493.30	40.127
493.64	40.162
493.99	40.429
494.34	40.879
494.68	39.708
495.03	40.413
495.37	40.342
495.72	40.233
496.07	39.578
496.41	41.442
496.76	39.426
497.11	41.045
497.45	39.588
497.80	40.222
498.14	40.222
498.49	40.251
498.84	40.421
499.18	39.717
499.53	40.239
499.87	40.162
500.22	41.363
500.56	41.179
500.91	41.048
501.26	42.352
501.60	41.120
501.95	40.009
502.29	40.222
502.64	39.965
502.98	38.862
503.33	40.624
503.67	40.353
504.02	39.543
504.36	40.000
504.71	40.587
505.06	39.418
505.40	40.103
505.75	40.739
506.09	40.317
506.44	40.226
506.78	41.115
507.13	40.766
507.47	40.320
507.82	40.389
508.16	41.205
508.51	39.517
508.85	40.171
509.19	39.892
509.54	39.648
509.88	39.533
510.23	40.147
510.57	39.141
510.92	41.059
511.26	40.462
511.61	39.439
511.95	39.423
512.30	39.750
512.64	40.135
512.98	39.518
513.33	40.318
513.67	40.031
514.02	40.052
514.36	39.720
514.70	39.627
515.05	39.265
515.39	41.009
515.74	40.022
516.08	40.305
516.42	41.858
516.77	39.893
517.11	39.787
517.46	41.056
517.80	39.869
518.14	40.113
518.49	38.975
518.83	39.066
519.17	40.211
519.52	40.251
519.86	39.292
520.20	40.110
520.55	39.570
520.89	39.425
521.23	39.720
521.58	39.530
521.92	39.825
522.26	38.389
522.61	39.869
522.95	40.360
523.29	38.421
523.64	38.960
523.98	39.495
524.32	38.639
524.66	38.725
525.01	39.053
525.35	38.362
525.69	38.651
526.04	39.084
526.38	38.317
526.72	37.828
527.06	37.788
527.41	38.694
527.75	38.344
528.09	37.989
528.43	38.316
528.78	37.686
529.12	39.253
529.46	36.762
529.80	38.493
530.15	37.183
530.49	37.365
530.83	38.269
531.17	37.023
531.51	36.603
531.86	35.688
532.20	36.156
532.54	37.163
532.88	38.413
533.22	37.599
533.57	37.523
533.91	35.723
534.25	35.834
534.59	36.023
534.93	35.381
535.27	34.775
535.62	35.589
535.96	36.111
536.30	37.112
536.64	35.217
536.98	36.690
537.32	36.188
537.66	35.140
538.01	35.913
538.35	36.369
538.69	35.922
539.03	35.759
539.37	34.102
539.71	35.679
540.05	34.831
540.39	35.094
540.73	34.620
541.07	35.069
541.42	35.386
541.76	35.018
542.10	35.758
542.44	35.349
542.78	36.564
543.12	34.785
543.46	34.336
543.80	35.777
544.14	36.904
544.48	35.401
544.82	35.352
545.16	34.062
545.50	35.526
545.84	35.101
546.18	36.151
546.52	36.262
546.86	35.139
547.20	35.465
547.54	36.162
547.88	35.280
548.22	35.641
548.56	34.473
548.90	35.113
549.24	35.818
549.58	36.534
549.92	36.149
550.26	36.714
550.60	36.793
550.94	36.771
551.28	36.069
551.62	36.345
551.96	36.622
552.30	35.069
552.64	36.375
552.98	35.631
553.32	35.531
553.66	36.221
554.00	35.135
554.34	38.083
554.68	35.954
555.02	36.117
555.36	36.170
555.69	37.500
556.03	37.134
556.37	36.902
556.71	36.050
557.05	35.845
557.39	36.733
557.73	37.062
558.07	36.284
558.41	37.423
558.75	36.936
559.08	37.312
559.42	37.652
559.76	36.565
560.10	37.233
560.44	36.894
560.78	37.468
561.12	36.427
561.45	35.920
561.79	36.454
562.13	36.892
562.47	36.665
562.81	37.020
563.15	36.910
563.48	34.410
563.82	36.369
564.16	36.505
564.50	36.227
564.84	35.562
565.17	35.532
565.51	37.746
565.85	37.569
566.19	36.845
566.52	35.620
566.86	35.844
567.20	35.843
567.54	35.590
567.88	36.463
568.21	35.347
568.55	35.117
568.89	34.900
569.23	34.297
569.56	34.984
569.90	34.064
570.24	34.651
570.57	34.199
570.91	33.385
571.25	33.333
571.59	32.487
571.92	33.019
572.26	32.102
572.60	32.602
572.93	33.410
573.27	33.113
573.61	32.269
573.95	32.644
574.28	32.647
574.62	32.254
574.96	31.668
575.29	31.673
575.63	32.203
575.97	31.694
576.30	31.612
576.64	31.866
576.98	31.321
577.31	32.385
577.65	31.466
577.98	31.614
578.32	31.688
578.66	31.765
578.99	32.033
579.33	32.567
579.67	31.895
580.00	32.561
580.34	32.052
580.67	31.902
581.01	32.675
581.35	33.055
581.68	32.224
582.02	32.294
582.35	32.625
582.69	32.718
583.02	33.212
583.36	33.601
583.70	34.079
584.03	34.651
584.37	34.149
584.70	34.113
585.04	33.690
585.37	34.310
585.71	35.124
586.04	33.981
586.38	34.714
586.72	34.852
587.05	35.332
587.39	35.398
587.72	35.789
588.06	35.336
588.39	35.926
588.73	35.549
589.06	36.533
589.40	36.244
589.73	36.480
590.07	37.612
590.40	37.944
590.73	38.377
591.07	38.027
591.40	37.046
591.74	37.459
592.07	37.521
592.41	38.289
592.74	37.349
593.08	37.305
593.41	37.283
593.75	36.779
594.08	37.358
594.41	37.569
594.75	38.082
595.08	37.620
595.42	37.887
595.75	38.105
596.09	38.929
596.42	37.800
596.75	39.143
597.09	39.166
597.42	37.633
597.75	38.580
598.09	38.367
598.42	38.229
598.76	38.551
599.09	38.286
599.42	37.405
599.76	38.128
600.09	37.593
600.42	38.398
600.76	38.885
601.09	38.385
601.42	38.296
601.76	38.883
602.09	38.190
602.42	37.967
602.76	38.558
603.09	39.027
603.42	38.606
603.76	38.322
604.09	38.292
604.42	38.305
604.76	39.510
605.09	39.061
605.42	39.293
605.75	38.689
606.09	39.021
606.42	38.707
606.75	38.710
607.09	39.005
607.42	38.168
607.75	39.172
608.08	38.424
608.42	39.471
608.75	38.639
609.08	39.155
609.41	39.636
609.75	39.011
610.08	40.198
610.41	39.701
610.74	39.177
611.07	39.382
611.41	38.971
611.74	40.392
612.07	38.776
612.40	39.961
612.73	40.689
613.07	39.838
613.40	39.348
613.73	39.591
614.06	39.050
614.39	40.657
614.72	38.774
615.06	38.378
615.39	38.911
615.72	39.400
616.05	39.930
616.38	39.269
616.71	40.098
617.05	40.253
617.38	39.719
617.71	39.708
618.04	39.933
618.37	39.689
618.70	40.762
619.03	40.415
619.36	41.018
619.69	40.831
620.03	42.074
620.36	40.334
620.69	42.273
621.02	41.440
621.35	41.046
621.68	41.888
622.01	41.919
622.34	41.005
622.67	40.239
623.00	39.959
623.33	40.486
623.66	39.787
623.99	41.849
624.32	40.989
624.65	40.553
624.99	40.906
625.32	41.750
625.65	41.034
625.98	40.377
626.31	42.359
626.64	41.078
626.97	40.627
627.30	42.780
627.63	41.758
627.96	42.254
628.29	41.584
628.62	41.916
628.95	43.174
629.28	44.084
629.61	40.861
629.94	42.437
630.26	41.681
630.59	42.465
630.92	42.601
631.25	42.883
631.58	43.587
631.91	42.436
632.24	42.566
632.57	42.043
632.90	43.996
633.23	43.966
633.56	44.152
633.89	44.159
634.22	44.779
634.55	41.505
634.88	44.031
635.20	45.291
635.53	45.180
635.86	44.183
636.19	44.669
636.52	42.919
636.85	43.797
637.18	43.012
637.51	43.240
637.83	41.304
638.16	44.549
638.49	42.754
638.82	43.897
639.15	44.536
639.48	43.602
639.81	45.055
640.13	44.785
640.46	45.891
640.79	44.603
641.12	43.832
641.45	42.950
641.77	45.575
642.10	44.712
642.43	48.222
642.76	44.744
643.09	44.957
643.41	43.198
643.74	44.460
644.07	47.198
644.40	45.710
644.73	46.847
645.05	46.360
645.38	45.023
645.71	45.979
646.04	45.954
646.36	47.261
646.69	46.880
647.02	47.200
647.35	45.039
647.67	47.650
648.00	46.091
648.33	45.263
648.66	45.000
648.98	44.638
649.31	44.265
649.64	45.367
649.96	44.666
650.29	45.429
650.62	45.066
650.94	46.687
651.27	47.209
651.60	45.540
651.92	45.622
652.25	47.402
652.58	45.106
652.90	44.611
653.23	46.086
653.56	45.994
653.88	42.291
654.21	43.842
654.54	43.192
654.86	45.280
655.19	44.987
655.52	39.182
655.84	35.217
656.17	41.933
656.49	60.226
656.82	68.667
657.15	53.754
657.47	40.770
657.80	30.657
658.13	24.430
658.45	33.240
658.78	39.865
659.10	39.858
659.43	41.180
659.75	42.156
660.08	44.486
660.41	45.372
660.73	45.671
661.06	47.748
661.38	47.700
661.71	44.784
662.03	46.388
662.36	47.810
662.68	46.182
663.01	47.748
663.33	46.981
663.66	48.126
663.98	49.405
664.31	48.507
664.63	47.318
664.96	46.904
665.28	46.704
665.61	46.604
665.93	47.925
666.26	47.103
666.58	46.789
666.91	47.876
667.23	46.988
667.56	48.460
667.88	48.755
668.21	48.156
668.53	46.573
668.86	50.701
669.18	48.269
669.50	45.041
669.83	52.156
670.15	46.985
670.48	43.555
670.80	49.203
671.13	46.215
671.45	48.297
671.77	47.681
672.10	47.397
672.42	43.750
672.75	44.462
673.07	46.582
673.39	44.728
673.72	45.848
674.04	47.670
674.37	46.461
674.69	46.468
675.01	44.590
675.34	45.155
675.66	46.875
675.98	46.351
676.31	46.400
676.63	45.328
676.95	47.619
677.28	46.653
677.60	47.686
677.92	45.040
678.25	47.674
678.57	46.741
678.89	48.644
679.22	47.243
679.54	45.730
679.86	45.375
680.18	47.100
680.51	45.771
680.83	45.777
681.15	47.487
681.48	47.396
681.80	43.608
682.12	45.675
682.44	43.784
682.77	44.662
683.09	46.602
683.41	45.918
683.73	48.622
684.06	49.603
684.38	47.287
684.70	44.604
685.02	44.097
685.34	46.655
685.67	47.588
685.99	47.291
686.31	44.068
686.63	46.992
686.96	48.693
687.28	46.644
687.60	45.904
687.92	45.059
688.24	48.103
688.56	47.331
688.89	43.021
689.21	46.821
689.53	48.617
689.85	46.748
690.17	45.049
690.49	48.790
690.82	47.059
691.14	48.283
691.46	49.487
691.78	48.343
692.10	46.565
692.42	45.009
692.74	47.287
693.06	47.287
693.39	46.047
693.71	45.972
694.03	49.310
694.35	50.000
694.67	47.862
694.99	48.115
695.31	47.748
695.63	48.416
695.95	48.416
696.27	46.681
696.59	48.926
696.91	47.848
697.23	48.416
697.56	45.643
697.88	44.711
698.20	47.170
698.52	43.774
698.84	49.076
699.16	49.680
699.48	44.492
699.80	49.891
700.12	48.961
700.44	47.897
700.76	48.210
701.08	52.219
701.40	45.714
701.72	53.476
702.04	53.659
702.36	48.118
702.68	52.128
703.00	47.368
703.32	49.876
703.64	51.889
703.96	45.833
704.28	51.058
704.60	55.211
704.91	49.860
705.23	46.307
705.55	55.490
705.87	51.746
706.19	51.411
706.51	52.351
706.83	50.442
707.15	52.674
707.47	46.489
707.79	48.046
708.11	46.485
708.43	43.371
708.74	45.475
709.06	47.907
709.38	49.876
709.70	48.774
710.02	45.924
710.34	50.276
710.66	48.056
710.98	50.273
711.29	52.368
711.61	52.089
711.93	53.495
712.25	51.807
712.57	50.482
712.89	49.091
713.20	51.757
713.52	51.090
713.84	52.266
714.16	48.116
714.48	46.110
714.80	47.967
715.11	45.745
715.43	48.045
715.75	49.859
716.07	50.289
716.39	47.429
716.70	50.156
717.02	54.209
717.34	50.719
717.66	54.167
717.97	54.924
718.29	54.225
718.61	50.338
718.93	50.173
719.24	50.671
719.56	51.034
719.88	49.045
720.20	50.000
720.51	50.000
720.83	48.829
721.15	52.721
721.46	55.822
721.78	53.310
722.10	51.042
722.42	53.846
722.73	51.264
723.05	51.579
723.37	56.890
723.68	57.031
724.00	53.409
724.32	51.711
724.63	56.154
724.95	53.333
725.27	54.647
725.58	54.044
725.90	49.296
726.22	50.000
726.53	49.498
726.85	52.117
727.16	52.685
727.48	49.502
727.80	53.957
728.11	50.000
728.43	53.261
728.74	51.748
729.06	49.462
729.38	55.088
729.69	51.000
730.01	52.632
730.32	48.658
730.64	53.821
730.96	49.249
731.27	41.284
731.59	47.126
731.90	49.025
732.22	49.429
732.53	43.875
732.85	51.754
733.16	46.084
733.48	51.097
733.80	49.855
734.11	55.215
734.43	46.784
734.74	45.308
735.06	51.058
735.37	50.258
735.69	51.014
736.00	51.988
736.32	47.879
736.63	45.426
736.95	49.689
737.26	49.085
737.58	50.920
737.89	46.386
738.21	45.033
738.52	50.167
738.83	52.381
739.15	48.432
739.46	50.690
739.78	53.061
740.09	47.522
740.41	49.693
740.72	53.651
741.04	53.497
741.35	52.734
741.66	51.779
741.98	52.790
742.29	56.019
742.61	47.788
742.92	50.424
743.23	53.600
743.55	47.170
743.86	50.980
744.18	55.508
744.49	54.545
744.80	56.682
745.12	54.018
745.43	54.673
745.74	50.222
746.06	50.439
746.37	57.674
746.68	57.965
747.00	52.018
747.31	60.924
747.62	50.000
747.94	59.657
748.25	50.195
748.56	52.966
748.88	54.911
749.19	51.628
749.50	62.557
749.82	52.263
750.13	52.569
750.44	50.000
750.75	52.013
751.07	53.947
751.38	48.185
751.69	50.168
752.01	51.049
752.32	52.159
752.63	52.349
752.94	54.545
753.26	50.781
753.57	50.195
753.88	51.311
754.19	49.097
754.51	51.495
754.82	50.000
755.13	49.324
755.44	54.815
755.75	56.014
756.07	53.082
756.38	49.346
756.69	46.563
757.00	51.039
757.31	48.169
757.63	44.353
757.94	45.479
758.25	45.169
758.56	44.851
758.87	49.123
759.18	50.000
759.50	49.240
759.81	47.478
760.12	46.910
760.43	49.300
760.74	48.608
761.05	46.684
761.36	46.354
761.67	47.439
761.99	46.761
762.30	45.981
762.61	46.528
762.92	48.485
763.23	51.698
763.54	49.615
763.85	48.638
764.16	51.736
764.47	46.622
764.78	48.534
765.10	47.561
765.41	47.727
765.72	45.856
766.03	47.734
766.34	49.826
766.65	53.232
766.96	50.607
767.27	57.477
767.58	59.406
767.89	58.011
768.20	66.463
768.51	52.551
768.82	57.456
769.13	49.020
769.44	45.489
769.75	50.187
770.06	53.361
770.37	44.737
770.68	48.444
770.99	51.695
771.30	53.138
771.61	51.154
771.92	47.328
772.23	47.581
772.54	55.111
772.85	62.871
773.16	56.522
773.47	53.333
773.78	51.980
774.09	56.818
774.39	66.667
774.70	51.176
775.01	54.605
775.32	52.174
775.63	67.808
775.94	59.259
776.25	60.000
776.56	67.176
776.87	63.359
777.18	59.848
777.48	77.953
777.79	61.538
778.10	62.121
778.41	71.642
778.72	60.902
779.03	52.564
779.34	62.162
779.65	60.870
779.95	59.627
780.26	58.333
780.57	67.347
780.88	58.865
781.19	63.333
781.50	64.497
781.80	58.470
782.11	53.968
782.42	57.471
782.73	53.672
783.04	58.065
783.34	64.341
783.65	57.823
783.96	62.581
784.27	58.940
784.57	55.263
784.88	58.696
785.19	64.167
785.50	68.966
785.81	64.341
786.11	61.481
786.42	60.630
786.73	65.766
787.04	71.698
787.34	59.350
787.65	59.848
787.96	64.394
788.26	67.717
788.57	68.613
788.88	60.563
789.19	64.885
789.49	58.108
789.80	64.063
790.11	66.116
790.41	69.444
790.72	48.148
791.03	73.077
791.33	63.636
791.64	62.105
791.95	61.053
792.25	62.500
792.56	71.000
792.87	75.610
793.17	77.273
793.48	80.000
793.79	64.368
794.09	64.773
794.40	77.586
794.70	61.905
795.01	63.846
795.32	66.412
795.62	54.701
795.93	66.387
796.23	62.602
796.54	76.531
796.85	76.136
797.15	83.117
797.46	82.927
797.76	72.500
798.07	89.333
798.37	75.000
798.68	80.000
798.99	87.805
799.29	82.667
799.60	63.953
799.90	68.421
800.21	74.242
800.51	69.014
800.82	100.000
801.12	90.769
801.43	85.333
801.73	94.828
802.04	84.416
802.34	86.301
802.65	101.961
802.95	93.478
803.26	91.935
803.56	105.000
803.87	83.582
804.17	80.952
804.48	77.358
804.78	65.278
805.09	84.848
805.39	85.714
805.70	89.474
806.00	92.857
806.30	96.875
806.61	74.118
806.91	90.000
807.22	63.043
807.52	73.684
807.83	84.211
808.13	82.609
808.43	91.935
808.74	87.671
809.04	98.214
809.35	92.647
809.65	90.909
809.95	125.490
810.26	116.667
810.56	92.188
810.86	97.959
811.17	100.000
811.47	110.870
811.77	81.034
812.08	94.828
812.38	73.810
812.69	123.810
812.99	117.778
813.29	94.286
813.59	116.129
813.90	93.103
814.20	91.803
814.50	82.000
814.81	94.737
815.11	101.852
815.41	92.857
815.72	98.214
816.02	96.000
816.32	134.146
816.62	84.483
816.93	139.394
817.23	119.512
817.53	92.857
817.84	95.556
818.14	104.762
818.44	89.583
818.74	105.660
819.04	107.692
819.35	136.364
819.65	115.385
819.95	114.815
820.25	104.255
820.56	116.216
820.86	97.368
821.16	72.340
821.46	126.316
821.76	92.727
822.07	85.714
822.37	131.579
822.67	120.930
822.97	121.053
823.27	123.913
823.57	121.875
823.88	130.769
824.18	133.333
824.48	186.957
824.78	127.778
825.08	147.826
825.38	148.276
825.69	108.824
825.99	82.979
826.29	102.778
826.59	131.429
826.89	160.000
827.19	117.143
827.49	174.194
827.79	180.769
828.09	102.381
828.39	130.556
828.70	127.027
829.00	210.714
829.30	250.000
829.60	111.111
829.90	148.387
830.20	109.091
830.50	135.135
830.80	183.333
831.10	192.308
831.40	166.667
831.70	191.667
832.00	133.333
832.30	195.652
832.60	183.333
832.90	142.424
833.20	240.000
833.50	128.947
833.80	123.529
834.10	97.368
834.40	178.947
834.70	130.000
835.00	144.000
835.30	108.108
835.60	162.500
835.90	121.622
836.20	188.462
836.50	131.818
836.80	107.317
837.10	165.217
837.40	384.615
837.70	121.053
838.00	140.000
838.30	166.667
838.60	164.000
838.90	380.000
839.19	200.000
839.49	120.000
839.79	141.379
840.09	161.538
840.39	253.333
840.69	205.263
840.99	100.000
841.29	169.565
841.59	200.000
841.88	180.000
842.18	355.556
842.48	157.143
842.78	177.778
843.08	284.615
843.38	177.273
843.68	278.571
843.97	357.143
844.27	134.783
844.57	1050.000
844.87	228.571
845.17	205.556
845.47	176.190
845.76	204.167
846.06	500.000
846.36	194.118
846.66	284.615
846.96	225.000
847.25	253.846
847.55	184.211
847.85	233.333
848.15	760.000
848.44	290.909
848.74	166.667
849.04	166.667
849.34	182.353
849.63	187.500
849.93	237.500
850.23	1000.000
850.53	562.500
850.82	345.455
851.12	170.588
851.42	175.000
851.71	256.250
852.01	0.000
852.31	188.235
852.61	350.000
852.90	170.833
853.20	388.889
853.50	-2300.000
853.79	148.000
854.09	146.875
854.39	124.138
854.68	158.621
854.98	171.429
855.28	138.710
855.57	257.143
855.87	200.000
856.17	103.704
856.46	189.474
856.76	109.677
857.05	194.118
857.35	245.455
857.65	292.308
857.94	185.000
858.24	355.556
858.53	228.571
858.83	628.571
859.13	169.565
859.42	288.889
859.72	325.000
860.01	350.000
860.31	1000.000
860.60	340.000
860.90	450.000
861.20	269.231
861.49	414.286
861.79	-4100.000
862.08	614.286
862.38	466.667
862.67	178.571
862.97	290.000
863.26	146.667
863.56	725.000
863.85	315.385
864.15	282.353
864.44	150.000
864.74	308.333
865.03	281.818
865.33	387.500
865.62	220.000
865.92	550.000
866.21	875.000
866.51	520.000
866.80	200.000
867.10	933.333
867.39	2500.000
867.69	720.000
867.98	825.000
868.27	176.190
868.57	233.333
868.86	875.000
869.16	133.333
869.45	3000.000
869.75	-550.000
870.04	600.000
870.33	880.000
870.63	375.000
870.92	217.647
871.22	650.000
871.51	471.429
871.80	275.000
872.10	323.077
>>>>>End Processed Spectral Data<<<<<
