SpectraSuite Data File
++++++++++++++++++++++++++++++++++++
Date: Tue May 12 16:06:02 PDT 2015
User: schluterlab
Dark Spectrum Present: Yes
Reference Spectrum Present: Yes
Number of Sampled Component Spectra: 1
Spectrometers: USB2E3373
Integration Time (usec): 3000 (USB2E3373)
Spectra Averaged: 3 (USB2E3373)
Boxcar Smoothing: 0 (USB2E3373)
Correct for Electrical Dark: No (USB2E3373)
Strobe/Lamp Enabled: No (USB2E3373)
Correct for Detector Non-linearity: No (USB2E3373)
Correct for Stray Light: No (USB2E3373)
Number of Pixels in Processed Spectrum: 2048
>>>>>Begin Processed Spectral Data<<<<<
178.53	0.000
178.91	-266.667
179.29	-725.000
179.67	-3900.000
180.04	-186.667
180.42	875.000
180.80	1550.000
181.18	0.000
181.56	-262.500
181.94	0.000
182.31	1166.667
182.69	-3300.000
183.07	628.571
183.45	-3900.000
183.83	-1700.000
184.20	410.000
184.58	557.143
184.96	-238.462
185.34	-233.333
185.72	1950.000
186.09	-875.000
186.47	-2400.000
186.85	1233.333
187.23	660.000
187.61	1850.000
187.98	362.500
188.36	328.571
188.74	341.667
189.12	366.667
189.49	850.000
189.87	0.000
190.25	487.500
190.63	2900.000
191.00	-241.667
191.38	-4600.000
191.76	-1000.000
192.14	637.500
192.51	-2000.000
192.89	2000.000
193.27	933.333
193.65	-1233.333
194.02	-740.000
194.40	571.429
194.78	-214.286
195.15	360.000
195.53	-2900.000
195.91	-700.000
196.29	4600.000
196.66	275.000
197.04	825.000
197.42	-800.000
197.79	525.000
198.17	341.667
198.55	0.000
198.92	500.000
199.30	1233.333
199.68	2000.000
200.05	633.333
200.43	-533.333
200.81	216.667
201.18	3900.000
201.56	333.333
201.94	-950.000
202.31	-262.500
202.69	-480.000
203.07	3800.000
203.44	-616.667
203.82	408.333
204.19	640.000
204.57	-1300.000
204.95	-825.000
205.32	-900.000
205.70	633.333
206.08	925.000
206.45	-933.333
206.83	444.444
207.20	215.789
207.58	341.667
207.96	820.000
208.33	0.000
208.71	585.714
209.08	780.000
209.46	-3700.000
209.84	-650.000
210.21	1000.000
210.59	-720.000
210.96	308.333
211.34	-1100.000
211.71	445.455
212.09	975.000
212.46	2200.000
212.84	-316.667
213.22	477.778
213.59	-2800.000
213.97	350.000
214.34	850.000
214.72	1300.000
215.09	1300.000
215.47	-3300.000
215.84	-290.000
216.22	-412.500
216.59	0.000
216.97	0.000
217.34	1900.000
217.72	-1500.000
218.09	1333.333
218.47	500.000
218.84	1025.000
219.22	1000.000
219.59	833.333
219.97	671.429
220.34	444.444
220.72	1700.000
221.09	3600.000
221.47	283.333
221.84	1100.000
222.22	370.000
222.59	238.889
222.97	292.857
223.34	262.500
223.72	-1950.000
224.09	1366.667
224.46	276.923
224.84	-800.000
225.21	400.000
225.59	333.333
225.96	1533.333
226.34	-1060.000
226.71	-650.000
227.08	-580.000
227.46	0.000
227.83	-500.000
228.21	-1800.000
228.58	416.667
228.95	1325.000
229.33	411.111
229.70	975.000
230.08	384.615
230.45	3900.000
230.82	-925.000
231.20	-1133.333
231.57	-1266.667
231.95	620.000
232.32	358.333
232.69	616.667
233.07	300.000
233.44	-1750.000
233.81	280.000
234.19	185.185
234.56	281.250
234.93	294.118
235.31	180.000
235.68	275.000
236.05	196.429
236.43	181.481
236.80	321.429
237.17	162.069
237.55	146.875
237.92	130.000
238.29	136.364
238.67	171.875
239.04	124.390
239.41	81.250
239.79	127.500
240.16	110.417
240.53	83.607
240.91	91.304
241.28	96.610
241.65	89.394
242.02	95.775
242.40	104.286
242.77	83.516
243.14	79.747
243.51	81.818
243.89	84.112
244.26	73.832
244.63	80.198
245.00	76.147
245.38	82.203
245.75	69.697
246.12	77.778
246.49	68.085
246.87	54.918
247.24	66.000
247.61	62.500
247.98	65.986
248.36	64.848
248.73	63.776
249.10	61.310
249.47	57.000
249.84	55.721
250.22	67.027
250.59	58.500
250.96	57.384
251.33	58.140
251.70	60.714
252.08	55.042
252.45	53.386
252.82	51.711
253.19	51.779
253.56	49.615
253.94	52.536
254.31	58.527
254.68	52.962
255.05	58.276
255.42	55.839
255.79	54.723
256.16	54.915
256.54	56.169
256.91	48.693
257.28	51.171
257.65	49.216
258.02	48.968
258.39	52.722
258.76	50.725
259.14	48.000
259.51	51.603
259.88	52.584
260.25	47.527
260.62	50.959
260.99	47.383
261.36	48.189
261.73	46.011
262.10	48.953
262.47	46.500
262.85	46.133
263.22	50.129
263.59	50.639
263.96	50.125
264.33	45.679
264.70	47.666
265.07	47.073
265.44	46.330
265.81	46.462
266.18	47.368
266.55	46.099
266.92	46.980
267.29	48.465
267.66	46.413
268.03	47.758
268.40	46.512
268.77	50.000
269.14	46.638
269.51	46.771
269.88	46.531
270.25	42.765
270.62	47.425
270.99	45.842
271.36	46.748
271.73	45.912
272.10	46.667
272.47	44.048
272.84	43.912
273.21	44.008
273.58	46.964
273.95	45.175
274.32	45.720
274.69	49.016
275.06	44.627
275.43	46.169
275.80	45.472
276.17	43.934
276.54	45.047
276.91	47.761
277.28	45.620
277.65	44.834
278.02	45.221
278.39	45.863
278.76	45.000
279.13	42.527
279.50	44.727
279.87	42.458
280.23	44.567
280.60	46.898
280.97	46.207
281.34	42.574
281.71	43.304
282.08	43.419
282.45	42.399
282.82	45.151
283.19	42.766
283.56	43.471
283.92	45.440
284.29	45.258
284.66	42.857
285.03	41.791
285.40	44.298
285.77	42.284
286.14	43.963
286.51	42.025
286.87	41.456
287.24	40.240
287.61	43.465
287.98	41.940
288.35	41.630
288.72	43.399
289.08	42.342
289.45	43.750
289.82	44.688
290.19	43.045
290.56	44.105
290.93	43.309
291.29	42.818
291.66	41.243
292.03	42.076
292.40	42.141
292.77	40.947
293.13	42.796
293.50	41.565
293.87	39.973
294.24	41.678
294.60	43.876
294.97	44.476
295.34	41.700
295.71	41.393
296.08	41.200
296.44	40.788
296.81	40.323
297.18	41.191
297.55	42.488
297.91	40.640
298.28	40.821
298.65	42.577
299.02	40.531
299.38	40.767
299.75	39.756
300.12	41.628
300.48	41.803
300.85	43.504
301.22	41.279
301.59	41.509
301.95	42.007
302.32	41.909
302.69	42.081
303.05	42.312
303.42	40.695
303.79	42.579
304.15	43.014
304.52	41.649
304.89	43.284
305.25	43.715
305.62	43.070
305.99	41.957
306.35	43.263
306.72	42.456
307.09	42.443
307.45	42.239
307.82	41.872
308.19	43.814
308.55	42.700
308.92	44.259
309.29	44.477
309.65	42.914
310.02	45.842
310.38	42.772
310.75	44.262
311.12	43.295
311.48	45.560
311.85	46.279
312.22	43.744
312.58	44.509
312.95	45.437
313.31	46.348
313.68	44.559
314.05	45.147
314.41	45.251
314.78	46.212
315.14	46.445
315.51	47.588
315.87	46.259
316.24	46.592
316.61	47.269
316.97	45.046
317.34	47.978
317.70	47.059
318.07	49.555
318.43	50.176
318.80	47.811
319.16	48.252
319.53	47.788
319.89	48.387
320.26	49.162
320.62	50.183
320.99	49.762
321.35	48.701
321.72	50.949
322.08	51.339
322.45	51.499
322.81	51.784
323.18	51.776
323.54	53.223
323.91	54.578
324.27	52.343
324.64	52.249
325.00	53.103
325.37	52.951
325.73	53.794
326.10	53.853
326.46	54.005
326.83	54.240
327.19	55.502
327.56	54.952
327.92	56.557
328.29	56.137
328.65	56.507
329.01	56.801
329.38	57.022
329.74	54.654
330.11	55.691
330.47	56.863
330.84	54.961
331.20	56.176
331.56	56.390
331.93	56.972
332.29	55.697
332.66	56.463
333.02	55.412
333.38	55.585
333.75	56.047
334.11	55.201
334.48	58.376
334.84	54.139
335.20	55.518
335.57	54.492
335.93	54.331
336.29	54.312
336.66	58.062
337.02	53.464
337.38	54.686
337.75	55.743
338.11	56.540
338.47	57.324
338.84	54.191
339.20	55.152
339.56	55.341
339.93	55.936
340.29	53.866
340.65	54.736
341.02	55.270
341.38	54.187
341.74	55.731
342.11	54.758
342.47	54.799
342.83	56.194
343.20	54.568
343.56	53.932
343.92	55.739
344.28	54.067
344.65	55.175
345.01	54.524
345.37	54.087
345.73	54.365
346.10	54.263
346.46	54.864
346.82	54.012
347.19	54.946
347.55	54.176
347.91	54.381
348.27	53.524
348.63	55.063
349.00	54.455
349.36	54.864
349.72	55.581
350.08	53.882
350.45	54.989
350.81	54.281
351.17	54.391
351.53	53.272
351.89	52.836
352.26	54.422
352.62	54.299
352.98	55.138
353.34	54.545
353.70	53.211
354.07	54.308
354.43	55.069
354.79	55.733
355.15	55.207
355.51	54.456
355.87	55.045
356.24	55.119
356.60	52.892
356.96	54.359
357.32	53.203
357.68	55.360
358.04	54.103
358.40	54.498
358.77	55.597
359.13	53.228
359.49	56.042
359.85	53.835
360.21	54.606
360.57	54.453
360.93	54.618
361.29	54.762
361.66	55.108
362.02	54.048
362.38	55.267
362.74	54.565
363.10	55.400
363.46	52.555
363.82	53.226
364.18	56.117
364.54	55.794
364.90	55.221
365.26	55.239
365.62	55.180
365.98	54.852
366.35	54.414
366.71	55.864
367.07	54.881
367.43	54.802
367.79	54.455
368.15	53.867
368.51	55.203
368.87	54.823
369.23	55.094
369.59	54.619
369.95	54.895
370.31	55.852
370.67	55.517
371.03	54.482
371.39	55.471
371.75	54.361
372.11	55.404
372.47	55.890
372.83	55.676
373.19	57.300
373.55	55.258
373.91	55.387
374.27	55.291
374.63	55.593
374.99	56.536
375.35	55.847
375.71	56.662
376.07	56.300
376.42	55.627
376.78	56.198
377.14	56.422
377.50	54.432
377.86	56.246
378.22	56.429
378.58	56.295
378.94	57.031
379.30	56.277
379.66	55.629
380.02	57.419
380.38	56.909
380.74	58.074
381.09	56.250
381.45	55.780
381.81	56.147
382.17	55.861
382.53	56.809
382.89	57.481
383.25	55.891
383.61	56.427
383.97	56.689
384.32	57.263
384.68	57.100
385.04	57.737
385.40	57.829
385.76	56.700
386.12	57.019
386.48	56.413
386.83	57.885
387.19	56.478
387.55	56.478
387.91	57.102
388.27	56.811
388.62	56.925
388.98	55.743
389.34	56.276
389.70	56.309
390.06	57.317
390.42	57.680
390.77	56.511
391.13	56.367
391.49	57.350
391.85	57.477
392.20	57.032
392.56	56.571
392.92	55.755
393.28	56.390
393.64	55.734
393.99	56.550
394.35	55.915
394.71	55.308
395.07	56.630
395.42	56.382
395.78	56.878
396.14	56.627
396.50	56.679
396.85	56.646
397.21	57.160
397.57	58.518
397.92	55.170
398.28	56.922
398.64	56.137
399.00	55.746
399.35	55.663
399.71	55.574
400.07	56.050
400.42	56.418
400.78	54.780
401.14	57.546
401.49	55.357
401.85	55.388
402.21	56.239
402.57	56.792
402.92	56.303
403.28	54.415
403.63	55.798
403.99	55.850
404.35	55.744
404.70	57.118
405.06	55.755
405.42	57.211
405.77	55.733
406.13	54.881
406.49	54.179
406.84	54.822
407.20	54.909
407.55	56.062
407.91	56.094
408.27	55.124
408.62	54.938
408.98	54.465
409.34	53.828
409.69	54.387
410.05	53.846
410.40	54.005
410.76	54.264
411.11	54.443
411.47	54.753
411.83	53.544
412.18	54.891
412.54	54.354
412.89	53.923
413.25	54.789
413.60	53.563
413.96	53.800
414.31	55.844
414.67	55.742
415.03	54.598
415.38	54.763
415.74	53.569
416.09	54.841
416.45	55.785
416.80	57.409
417.16	54.806
417.51	54.459
417.87	54.756
418.22	54.860
418.58	55.541
418.93	55.086
419.29	53.851
419.64	55.663
420.00	56.742
420.35	55.459
420.71	54.784
421.06	55.327
421.42	55.728
421.77	56.524
422.12	55.017
422.48	54.648
422.83	55.859
423.19	55.076
423.54	55.403
423.90	56.399
424.25	56.577
424.61	55.659
424.96	54.997
425.31	55.665
425.67	57.127
426.02	55.132
426.38	55.018
426.73	57.259
427.09	56.465
427.44	56.106
427.79	57.061
428.15	56.688
428.50	57.657
428.85	57.084
429.21	56.780
429.56	56.032
429.92	56.837
430.27	56.217
430.62	55.507
430.98	56.986
431.33	56.452
431.68	55.062
432.04	56.286
432.39	57.025
432.74	58.138
433.10	57.863
433.45	57.783
433.80	58.136
434.16	57.909
434.51	57.843
434.86	57.322
435.22	56.456
435.57	57.913
435.92	58.623
436.28	57.719
436.63	58.401
436.98	59.009
437.34	57.192
437.69	56.943
438.04	58.011
438.39	57.910
438.75	56.236
439.10	58.068
439.45	57.094
439.81	57.895
440.16	57.567
440.51	57.376
440.86	59.202
441.22	57.197
441.57	58.215
441.92	57.700
442.27	57.526
442.63	57.571
442.98	56.843
443.33	58.061
443.68	57.646
444.03	57.399
444.39	57.250
444.74	56.573
445.09	57.609
445.44	57.917
445.79	57.651
446.15	58.105
446.50	58.017
446.85	58.815
447.20	58.358
447.55	59.869
447.91	58.924
448.26	58.892
448.61	57.601
448.96	57.898
449.31	59.626
449.66	57.641
450.02	57.320
450.37	59.078
450.72	58.843
451.07	58.115
451.42	57.321
451.77	58.419
452.12	58.026
452.47	57.169
452.83	57.803
453.18	59.459
453.53	58.733
453.88	58.914
454.23	59.210
454.58	57.925
454.93	57.756
455.28	59.853
455.63	59.811
455.98	57.699
456.34	58.723
456.69	60.122
457.04	59.905
457.39	57.943
457.74	58.615
458.09	56.822
458.44	57.503
458.79	58.515
459.14	57.119
459.49	57.531
459.84	58.478
460.19	58.757
460.54	58.405
460.89	57.463
461.24	57.560
461.59	58.673
461.94	58.511
462.29	58.009
462.64	59.673
462.99	58.349
463.34	58.587
463.69	57.834
464.04	58.434
464.39	57.871
464.74	58.675
465.09	56.994
465.44	58.705
465.79	56.886
466.14	56.651
466.49	56.647
466.84	56.577
467.19	57.528
467.54	58.138
467.89	57.512
468.24	58.020
468.59	56.726
468.94	57.186
469.29	56.689
469.64	56.913
469.99	58.290
470.34	57.748
470.68	57.862
471.03	58.105
471.38	58.212
471.73	57.805
472.08	57.991
472.43	58.287
472.78	58.643
473.13	56.008
473.48	57.152
473.83	58.304
474.17	57.508
474.52	57.227
474.87	57.646
475.22	57.510
475.57	56.034
475.92	55.646
476.27	56.094
476.61	56.461
476.96	56.165
477.31	56.710
477.66	57.810
478.01	56.060
478.36	57.158
478.70	55.831
479.05	56.381
479.40	56.002
479.75	57.200
480.10	56.680
480.45	56.443
480.79	56.544
481.14	55.825
481.49	55.032
481.84	56.552
482.19	55.808
482.53	55.687
482.88	56.272
483.23	54.623
483.58	56.822
483.92	56.353
484.27	56.122
484.62	55.518
484.97	55.512
485.31	54.552
485.66	56.273
486.01	55.078
486.36	53.798
486.70	53.378
487.05	53.259
487.40	53.419
487.75	53.423
488.09	54.091
488.44	54.461
488.79	54.911
489.13	54.759
489.48	55.094
489.83	54.754
490.17	54.996
490.52	56.072
490.87	53.707
491.22	55.541
491.56	54.853
491.91	54.570
492.26	54.566
492.60	55.945
492.95	54.916
493.30	54.413
493.64	54.403
493.99	54.338
494.34	54.550
494.68	54.183
495.03	54.648
495.37	54.930
495.72	54.266
496.07	54.133
496.41	54.083
496.76	53.651
497.11	54.370
497.45	53.705
497.80	54.588
498.14	54.554
498.49	54.318
498.84	55.187
499.18	53.291
499.53	54.525
499.87	54.178
500.22	54.261
500.56	54.968
500.91	54.592
501.26	53.881
501.60	54.872
501.95	52.509
502.29	53.022
502.64	53.198
502.98	52.912
503.33	54.165
503.67	53.157
504.02	53.874
504.36	53.846
504.71	54.068
505.06	52.792
505.40	54.141
505.75	52.947
506.09	53.663
506.44	53.195
506.78	54.206
507.13	53.951
507.47	54.537
507.82	54.793
508.16	54.434
508.51	55.024
508.85	53.609
509.19	54.626
509.54	53.711
509.88	53.357
510.23	53.137
510.57	52.220
510.92	53.497
511.26	54.116
511.61	52.388
511.95	52.812
512.30	52.450
512.64	53.011
512.98	52.640
513.33	52.818
513.67	54.065
514.02	52.623
514.36	52.700
514.70	53.920
515.05	52.477
515.39	54.550
515.74	53.581
516.08	53.595
516.42	55.683
516.77	53.280
517.11	53.440
517.46	53.718
517.80	52.540
518.14	54.761
518.49	53.418
518.83	52.527
519.17	52.579
519.52	53.632
519.86	53.515
520.20	52.658
520.55	53.363
520.89	52.069
521.23	54.147
521.58	53.069
521.92	53.411
522.26	54.265
522.61	53.714
522.95	54.595
523.29	53.626
523.64	51.387
523.98	54.695
524.32	52.710
524.66	52.696
525.01	52.899
525.35	53.035
525.69	52.197
526.04	53.123
526.38	53.031
526.72	53.282
527.06	53.400
527.41	53.083
527.75	53.256
528.09	52.920
528.43	52.715
528.78	52.534
529.12	54.004
529.46	52.016
529.80	51.636
530.15	52.858
530.49	52.708
530.83	52.712
531.17	53.506
531.51	52.238
531.86	52.959
532.20	51.731
532.54	52.166
532.88	52.780
533.22	52.102
533.57	53.508
533.91	50.991
534.25	51.760
534.59	52.164
534.93	51.763
535.27	50.313
535.62	50.992
535.96	51.123
536.30	51.920
536.64	50.870
536.98	50.535
537.32	52.312
537.66	51.849
538.01	51.146
538.35	51.778
538.69	49.515
539.03	50.622
539.37	49.150
539.71	51.543
540.05	50.646
540.39	51.321
540.73	52.089
541.07	51.506
541.42	51.679
541.76	50.432
542.10	51.665
542.44	51.683
542.78	51.542
543.12	50.552
543.46	50.063
543.80	51.441
544.14	51.455
544.48	50.730
544.82	50.948
545.16	50.334
545.50	50.953
545.84	51.389
546.18	51.560
546.52	51.803
546.86	50.806
547.20	49.742
547.54	49.462
547.88	49.574
548.22	49.848
548.56	50.029
548.90	49.229
549.24	50.916
549.58	48.776
549.92	49.836
550.26	51.792
550.60	50.432
550.94	51.221
551.28	50.828
551.62	51.172
551.96	50.608
552.30	50.099
552.64	51.197
552.98	50.773
553.32	48.656
553.66	49.837
554.00	49.743
554.34	49.534
554.68	51.210
555.02	49.898
555.36	49.601
555.69	49.673
556.03	48.280
556.37	49.649
556.71	49.413
557.05	48.493
557.39	49.467
557.73	49.259
558.07	49.564
558.41	50.308
558.75	50.137
559.08	51.251
559.42	49.749
559.76	50.392
560.10	49.690
560.44	48.839
560.78	49.808
561.12	49.905
561.45	48.310
561.79	49.001
562.13	49.337
562.47	50.227
562.81	48.796
563.15	49.192
563.48	47.019
563.82	49.158
564.16	49.627
564.50	47.619
564.84	49.483
565.17	47.950
565.51	50.185
565.85	50.278
566.19	48.750
566.52	48.014
566.86	49.154
567.20	49.663
567.54	48.308
567.88	48.983
568.21	47.379
568.55	48.298
568.89	47.217
569.23	47.584
569.56	48.083
569.90	46.604
570.24	46.848
570.57	47.047
570.91	46.583
571.25	46.827
571.59	45.403
571.92	45.856
572.26	45.445
572.60	44.710
572.93	46.377
573.27	45.692
573.61	46.075
573.95	45.418
574.28	45.952
574.62	45.785
574.96	45.502
575.29	44.487
575.63	44.664
575.97	44.572
576.30	44.520
576.64	45.512
576.98	44.904
577.31	46.338
577.65	45.460
577.98	45.295
578.32	45.072
578.66	44.887
578.99	44.766
579.33	45.083
579.67	44.750
580.00	44.967
580.34	44.703
580.67	44.676
581.01	44.942
581.35	44.822
581.68	45.136
582.02	44.948
582.35	44.621
582.69	44.976
583.02	45.028
583.36	45.265
583.70	44.847
584.03	46.060
584.37	45.356
584.70	45.111
585.04	44.968
585.37	44.973
585.71	45.798
586.04	44.811
586.38	44.554
586.72	44.505
587.05	44.647
587.39	45.006
587.72	44.816
588.06	44.624
588.39	44.678
588.73	44.756
589.06	44.879
589.40	45.728
589.73	44.936
590.07	45.710
590.40	46.585
590.73	47.301
591.07	45.693
591.40	45.709
591.74	45.049
592.07	45.258
592.41	45.044
592.74	44.709
593.08	44.759
593.41	44.913
593.75	44.070
594.08	44.133
594.41	44.021
594.75	44.349
595.08	43.964
595.42	44.338
595.75	44.587
596.09	44.804
596.42	43.955
596.75	45.232
597.09	45.894
597.42	45.224
597.75	44.381
598.09	44.440
598.42	44.349
598.76	43.793
599.09	44.759
599.42	43.218
599.76	44.539
600.09	43.864
600.42	43.819
600.76	44.256
601.09	44.253
601.42	43.576
601.76	43.430
602.09	44.113
602.42	43.142
602.76	44.478
603.09	44.118
603.42	44.624
603.76	44.613
604.09	44.010
604.42	43.766
604.76	43.935
605.09	44.082
605.42	43.600
605.75	44.019
606.09	44.568
606.42	44.081
606.75	43.723
607.09	42.953
607.42	43.230
607.75	43.511
608.08	43.745
608.42	43.750
608.75	43.731
609.08	44.127
609.41	44.273
609.75	43.819
610.08	44.964
610.41	44.884
610.74	44.026
611.07	44.247
611.41	44.578
611.74	43.356
612.07	43.353
612.40	44.493
612.73	43.784
613.07	44.247
613.40	44.211
613.73	44.733
614.06	43.050
614.39	44.646
614.72	43.847
615.06	43.867
615.39	42.723
615.72	43.659
616.05	44.149
616.38	43.430
616.71	43.190
617.05	43.273
617.38	44.045
617.71	44.826
618.04	44.476
618.37	42.968
618.70	44.342
619.03	44.139
619.36	44.158
619.69	44.657
620.03	45.205
620.36	43.802
620.69	44.828
621.02	44.701
621.35	44.341
621.68	43.068
622.01	44.945
622.34	43.846
622.67	45.225
623.00	43.567
623.33	43.252
623.66	42.715
623.99	44.589
624.32	44.580
624.65	43.120
624.99	44.084
625.32	43.287
625.65	43.517
625.98	43.236
626.31	44.807
626.64	44.343
626.97	43.688
627.30	43.789
627.63	44.819
627.96	44.131
628.29	44.307
628.62	43.798
628.95	46.099
629.28	45.399
629.61	42.707
629.94	43.215
630.26	43.761
630.59	44.947
630.92	43.767
631.25	43.880
631.58	44.937
631.91	44.529
632.24	43.343
632.57	43.026
632.90	44.928
633.23	45.960
633.56	43.730
633.89	44.159
634.22	44.349
634.55	45.054
634.88	44.031
635.20	45.179
635.53	45.412
635.86	43.400
636.19	44.893
636.52	43.676
636.85	44.013
637.18	44.420
637.51	43.464
637.83	44.050
638.16	44.197
638.49	43.713
638.82	43.427
639.15	44.536
639.48	46.327
639.81	43.834
640.13	43.436
640.46	44.880
640.79	44.473
641.12	45.013
641.45	46.572
641.77	45.046
642.10	44.311
642.43	46.942
642.76	45.597
643.09	44.380
643.41	44.460
643.74	45.180
644.07	48.820
644.40	44.675
644.73	47.898
645.05	46.508
645.38	47.167
645.71	45.827
646.04	45.802
646.36	47.418
646.69	47.040
647.02	44.960
647.35	43.465
647.67	47.650
648.00	47.883
648.33	44.962
648.66	44.848
648.98	43.623
649.31	44.265
649.64	44.952
649.96	44.381
650.29	44.000
650.62	44.330
650.94	45.934
651.27	48.485
651.60	44.444
651.92	44.086
652.25	45.197
652.58	42.553
652.90	43.413
653.23	45.790
653.56	46.736
653.88	43.906
654.21	43.695
654.54	42.020
654.86	44.100
655.19	44.195
655.52	39.949
655.84	35.304
656.17	42.383
656.49	61.295
656.82	70.169
657.15	56.461
657.47	41.949
657.80	30.691
658.13	24.234
658.45	33.003
658.78	39.212
659.10	40.250
659.43	40.991
659.75	43.690
660.08	43.108
660.41	45.554
660.73	46.550
661.06	44.595
661.38	44.804
661.71	43.885
662.03	46.578
662.36	44.952
662.68	42.458
663.01	45.766
663.33	44.151
663.66	45.957
663.98	45.238
664.31	46.455
664.63	44.444
664.96	45.779
665.28	44.821
665.61	44.528
665.93	46.604
666.26	46.542
666.58	45.688
666.91	43.436
667.23	43.976
667.56	43.943
667.88	46.680
668.21	44.057
668.53	45.363
668.86	43.888
669.18	46.029
669.50	44.008
669.83	48.255
670.15	46.154
670.48	40.039
670.80	47.211
671.13	42.032
671.45	46.894
671.77	44.898
672.10	43.627
672.42	41.118
672.75	43.354
673.07	42.130
673.39	43.770
673.72	44.983
674.04	43.907
674.37	43.194
674.69	44.052
675.01	42.910
675.34	41.473
675.66	47.461
675.98	43.393
676.31	42.600
676.63	39.960
676.95	43.056
677.28	44.625
677.60	43.058
677.92	42.262
678.25	43.217
678.57	44.320
678.89	41.591
679.22	44.853
679.54	44.840
679.86	42.757
680.18	43.058
680.51	40.630
680.83	42.905
681.15	42.981
681.48	44.271
681.80	39.229
682.12	41.176
682.44	41.261
682.77	43.416
683.09	43.107
683.41	43.878
683.73	43.504
684.06	43.849
684.38	43.992
684.70	42.446
685.02	41.493
685.34	44.014
685.67	42.765
685.99	43.514
686.31	41.602
686.63	41.463
686.96	41.993
687.28	40.772
687.60	40.273
687.92	43.719
688.24	46.034
688.56	42.883
688.89	41.491
689.21	39.692
689.53	45.257
689.85	42.073
690.17	43.689
690.49	42.540
690.82	43.067
691.14	42.222
691.46	44.148
691.78	42.300
692.10	44.275
692.42	39.383
692.74	46.899
693.06	43.798
693.39	39.526
693.71	43.418
694.03	44.379
694.35	44.779
694.67	43.585
694.99	42.350
695.31	45.270
695.63	42.986
695.95	44.796
696.27	43.363
696.59	47.255
696.91	42.025
697.23	45.249
697.56	40.664
697.88	39.321
698.20	40.000
698.52	40.856
698.84	44.148
699.16	42.644
699.48	43.856
699.80	46.841
700.12	44.111
700.44	44.393
700.76	42.005
701.08	45.431
701.40	42.078
701.72	45.989
702.04	48.509
702.36	44.624
702.68	46.277
703.00	43.358
703.32	43.424
703.64	42.065
703.96	42.708
704.28	41.005
704.60	45.915
704.91	44.818
705.23	45.170
705.55	41.840
705.87	45.079
706.19	50.470
706.51	49.216
706.83	45.723
707.15	44.385
707.47	44.068
707.79	44.368
708.11	41.950
708.43	44.494
708.74	41.855
709.06	39.767
709.38	44.169
709.70	43.052
710.02	41.848
710.34	45.028
710.66	41.111
710.98	45.082
711.29	43.733
711.61	44.290
711.93	46.505
712.25	45.783
712.57	45.659
712.89	46.061
713.20	46.326
713.52	43.302
713.84	45.015
714.16	42.319
714.48	39.769
714.80	44.444
715.11	41.489
715.43	44.693
715.75	44.789
716.07	43.642
716.39	47.143
716.70	45.171
717.02	48.148
717.34	50.000
717.66	46.875
717.97	46.212
718.29	43.662
718.61	42.568
718.93	45.675
719.24	46.309
719.56	44.483
719.88	41.401
720.20	41.290
720.51	44.118
720.83	47.826
721.15	46.939
721.46	47.260
721.78	47.038
722.10	48.611
722.42	47.826
722.73	46.570
723.05	43.509
723.37	47.703
723.68	42.578
724.00	45.076
724.32	47.148
724.63	45.769
724.95	46.667
725.27	44.610
725.58	45.956
725.90	43.310
726.22	44.178
726.53	44.147
726.85	46.906
727.16	47.651
727.48	39.867
727.80	48.921
728.11	44.643
728.43	45.290
728.74	44.755
729.06	44.086
729.38	48.421
729.69	46.000
730.01	45.395
730.32	44.295
730.64	42.857
730.96	42.943
731.27	40.367
731.59	37.644
731.90	45.125
732.22	42.857
732.53	40.456
732.85	42.982
733.16	42.771
733.48	46.708
733.80	43.188
734.11	43.865
734.43	40.058
734.74	42.359
735.06	44.709
735.37	37.887
735.69	42.029
736.00	43.731
736.32	43.636
736.63	41.009
736.95	38.820
737.26	47.256
737.58	42.025
737.89	43.072
738.21	40.066
738.52	47.492
738.83	46.886
739.15	45.645
739.46	41.724
739.78	44.898
740.09	42.857
740.41	40.491
740.72	44.444
741.04	45.804
741.35	46.094
741.66	47.826
741.98	48.069
742.29	49.537
742.61	44.690
742.92	45.339
743.23	42.400
743.55	49.434
743.86	47.451
744.18	46.186
744.49	51.240
744.80	47.005
745.12	50.446
745.43	54.206
745.74	51.111
746.06	47.807
746.37	46.977
746.68	53.097
747.00	45.291
747.31	48.319
747.62	45.902
747.94	45.494
748.25	41.634
748.56	51.695
748.88	49.107
749.19	41.395
749.50	47.032
749.82	49.794
750.13	44.269
750.44	37.000
750.75	46.644
751.07	44.737
751.38	43.564
751.69	44.781
752.01	45.105
752.32	45.183
752.63	45.638
752.94	50.699
753.26	47.656
753.57	45.914
753.88	41.573
754.19	42.599
754.51	44.850
754.82	41.611
755.13	41.892
755.44	44.444
755.75	45.017
756.07	47.603
756.38	40.523
756.69	43.125
757.00	43.620
757.31	38.310
757.63	40.771
757.94	41.755
758.25	40.580
758.56	39.359
758.87	38.596
759.18	42.442
759.50	43.161
759.81	42.433
760.12	38.202
760.43	41.737
760.74	39.241
761.05	41.910
761.36	38.281
761.67	40.162
761.99	42.254
762.30	45.981
762.61	42.708
762.92	44.318
763.23	46.415
763.54	43.462
763.85	37.743
764.16	44.792
764.47	40.203
764.78	41.042
765.10	40.854
765.41	44.886
765.72	41.160
766.03	37.462
766.34	42.509
766.65	46.768
766.96	46.964
767.27	51.402
767.58	50.495
767.89	49.171
768.20	54.878
768.51	46.429
768.82	48.684
769.13	43.922
769.44	46.617
769.75	43.446
770.06	42.857
770.37	44.737
770.68	40.889
770.99	50.000
771.30	46.444
771.61	43.077
771.92	43.130
772.23	47.177
772.54	48.000
772.85	49.010
773.16	48.913
773.47	46.667
773.78	48.020
774.09	51.705
774.39	56.970
774.70	45.294
775.01	40.789
775.32	57.764
775.63	62.329
775.94	53.086
776.25	54.483
776.56	57.252
776.87	64.122
777.18	59.091
777.48	61.417
777.79	58.462
778.10	55.303
778.41	61.194
778.72	56.391
779.03	50.000
779.34	58.108
779.65	55.280
779.95	47.826
780.26	44.643
780.57	62.585
780.88	60.284
781.19	60.833
781.50	53.254
781.80	50.820
782.11	49.206
782.42	46.552
782.73	55.932
783.04	54.839
783.34	55.814
783.65	49.660
783.96	55.484
784.27	54.967
784.57	50.658
784.88	56.522
785.19	60.833
785.50	46.552
785.81	67.442
786.11	67.407
786.42	51.969
786.73	66.667
787.04	56.604
787.34	44.715
787.65	61.364
787.96	56.818
788.26	55.118
788.57	57.664
788.88	55.634
789.19	54.962
789.49	58.784
789.80	53.125
790.11	60.331
790.41	62.037
790.72	57.407
791.03	66.346
791.33	67.677
791.64	74.737
791.95	60.000
792.25	54.167
792.56	66.000
792.87	69.512
793.17	64.773
793.48	68.235
793.79	63.218
794.09	57.955
794.40	68.966
794.70	56.349
795.01	53.077
795.32	51.908
795.62	63.248
795.93	59.664
796.23	60.163
796.54	74.490
796.85	70.455
797.15	72.727
797.46	85.366
797.76	57.500
798.07	77.333
798.37	82.500
798.68	78.750
798.99	71.951
799.29	68.000
799.60	68.605
799.90	72.368
800.21	78.788
800.51	81.690
800.82	74.138
801.12	92.308
801.43	93.333
801.73	72.414
802.04	81.818
802.34	76.712
802.65	105.882
802.95	89.130
803.26	93.548
803.56	96.667
803.87	98.507
804.17	77.778
804.48	83.019
804.78	63.889
805.09	77.273
805.39	79.365
805.70	78.947
806.00	44.286
806.30	84.375
806.61	74.118
806.91	71.111
807.22	59.783
807.52	63.158
807.83	89.474
808.13	81.159
808.43	101.613
808.74	84.932
809.04	89.286
809.35	91.176
809.65	104.545
809.95	100.000
810.26	109.259
810.56	109.375
810.86	89.796
811.17	89.474
811.47	102.174
811.77	84.483
812.08	72.414
812.38	111.905
812.69	111.905
812.99	106.667
813.29	117.143
813.59	141.935
813.90	79.310
814.20	108.197
814.50	110.000
814.81	78.947
815.11	105.556
815.41	107.143
815.72	121.429
816.02	102.000
816.32	100.000
816.62	110.345
816.93	145.455
817.23	114.634
817.53	101.786
817.84	106.667
818.14	107.143
818.44	95.833
818.74	109.434
819.04	135.897
819.35	139.394
819.65	101.923
819.95	120.370
820.25	89.362
820.56	116.216
820.86	107.895
821.16	80.851
821.46	136.842
821.76	105.455
822.07	97.619
822.37	123.684
822.67	109.302
822.97	113.158
823.27	130.435
823.57	150.000
823.88	102.564
824.18	121.212
824.48	169.565
824.78	144.444
825.08	147.826
825.38	151.724
825.69	117.647
825.99	95.745
826.29	125.000
826.59	151.429
826.89	156.667
827.19	117.143
827.49	138.710
827.79	169.231
828.09	119.048
828.39	105.556
828.70	113.514
829.00	185.714
829.30	168.750
829.60	122.222
829.90	125.806
830.20	130.303
830.50	135.135
830.80	175.000
831.10	188.462
831.40	185.714
831.70	204.167
832.00	130.000
832.30	191.304
832.60	187.500
832.90	166.667
833.20	225.000
833.50	128.947
833.80	126.471
834.10	123.684
834.40	178.947
834.70	110.000
835.00	172.000
835.30	97.297
835.60	181.250
835.90	124.324
836.20	173.077
836.50	159.091
836.80	107.317
837.10	169.565
837.40	292.308
837.70	168.421
838.00	153.333
838.30	154.167
838.60	176.000
838.90	350.000
839.19	250.000
839.49	133.333
839.79	113.793
840.09	180.769
840.39	213.333
840.69	205.263
840.99	133.333
841.29	173.913
841.59	185.000
841.88	212.000
842.18	388.889
842.48	192.857
842.78	159.259
843.08	353.846
843.38	195.455
843.68	264.286
843.97	471.429
844.27	143.478
844.57	1450.000
844.87	328.571
845.17	250.000
845.47	185.714
845.76	229.167
846.06	628.571
846.36	211.765
846.66	292.308
846.96	250.000
847.25	238.462
847.55	252.632
847.85	227.778
848.15	660.000
848.44	363.636
848.74	185.714
849.04	166.667
849.34	135.294
849.63	306.250
849.93	250.000
850.23	1200.000
850.53	337.500
850.82	272.727
851.12	217.647
851.42	216.667
851.71	262.500
852.01	0.000
852.31	264.706
852.61	430.000
852.90	154.167
853.20	477.778
853.50	-2900.000
853.79	172.000
854.09	165.625
854.39	162.069
854.68	148.276
854.98	190.476
855.28	145.161
855.57	307.143
855.87	233.333
856.17	151.852
856.46	231.579
856.76	154.839
857.05	223.529
857.35	281.818
857.65	246.154
857.94	210.000
858.24	422.222
858.53	335.714
858.83	642.857
859.13	208.696
859.42	377.778
859.72	387.500
860.01	291.667
860.31	875.000
860.60	390.000
860.90	500.000
861.20	261.538
861.49	500.000
861.79	-3500.000
862.08	528.571
862.38	333.333
862.67	271.429
862.97	420.000
863.26	153.333
863.56	1000.000
863.85	261.538
864.15	329.412
864.44	172.222
864.74	341.667
865.03	363.636
865.33	375.000
865.62	193.333
865.92	616.667
866.21	625.000
866.51	640.000
866.80	205.556
867.10	1133.333
867.39	3900.000
867.69	920.000
867.98	725.000
868.27	176.190
868.57	280.000
868.86	1150.000
869.16	180.952
869.45	3200.000
869.75	-583.333
870.04	850.000
870.33	540.000
870.63	550.000
870.92	205.882
871.22	900.000
871.51	557.143
871.80	333.333
872.10	338.462
>>>>>End Processed Spectral Data<<<<<
