SpectraSuite Data File
++++++++++++++++++++++++++++++++++++
Date: Tue May 12 16:29:53 PDT 2015
User: schluterlab
Dark Spectrum Present: Yes
Reference Spectrum Present: Yes
Number of Sampled Component Spectra: 1
Spectrometers: USB2E3373
Integration Time (usec): 3000 (USB2E3373)
Spectra Averaged: 3 (USB2E3373)
Boxcar Smoothing: 0 (USB2E3373)
Correct for Electrical Dark: No (USB2E3373)
Strobe/Lamp Enabled: No (USB2E3373)
Correct for Detector Non-linearity: No (USB2E3373)
Correct for Stray Light: No (USB2E3373)
Number of Pixels in Processed Spectrum: 2048
>>>>>Begin Processed Spectral Data<<<<<
178.53	0.000
178.91	-225.000
179.29	-625.000
179.67	-3600.000
180.04	-153.333
180.42	700.000
180.80	1550.000
181.18	0.000
181.56	-337.500
181.94	0.000
182.31	933.333
182.69	-3800.000
183.07	600.000
183.45	-3300.000
183.83	-1650.000
184.20	400.000
184.58	471.429
184.96	-300.000
185.34	-191.667
185.72	1450.000
186.09	-775.000
186.47	-2300.000
186.85	933.333
187.23	740.000
187.61	1600.000
187.98	437.500
188.36	207.143
188.74	325.000
189.12	300.000
189.49	1225.000
189.87	0.000
190.25	437.500
190.63	3000.000
191.00	-183.333
191.38	-2600.000
191.76	-850.000
192.14	550.000
192.51	-2500.000
192.89	1600.000
193.27	966.667
193.65	-1066.667
194.02	-760.000
194.40	542.857
194.78	-171.429
195.15	226.667
195.53	-2700.000
195.91	-520.000
196.29	3800.000
196.66	206.250
197.04	950.000
197.42	-1300.000
197.79	700.000
198.17	341.667
198.55	0.000
198.92	485.714
199.30	1200.000
199.68	2250.000
200.05	683.333
200.43	-383.333
200.81	211.111
201.18	3000.000
201.56	300.000
201.94	-700.000
202.31	-287.500
202.69	-500.000
203.07	3600.000
203.44	-450.000
203.82	291.667
204.19	740.000
204.57	-1450.000
204.95	-825.000
205.32	-800.000
205.70	466.667
206.08	850.000
206.45	-900.000
206.83	400.000
207.20	194.737
207.58	283.333
207.96	780.000
208.33	0.000
208.71	442.857
209.08	580.000
209.46	-3600.000
209.84	-975.000
210.21	960.000
210.59	-540.000
210.96	258.333
211.34	-725.000
211.71	281.818
212.09	900.000
212.46	1400.000
212.84	-516.667
213.22	477.778
213.59	-3100.000
213.97	340.000
214.34	975.000
214.72	1333.333
215.09	1133.333
215.47	-2900.000
215.84	-370.000
216.22	-375.000
216.59	0.000
216.97	0.000
217.34	1500.000
217.72	-1850.000
218.09	1300.000
218.47	475.000
218.84	800.000
219.22	1333.333
219.59	1166.667
219.97	471.429
220.34	488.889
220.72	1250.000
221.09	2700.000
221.47	258.333
221.84	1000.000
222.22	310.000
222.59	288.889
222.97	178.571
223.34	243.750
223.72	-1050.000
224.09	633.333
224.46	292.308
224.84	-750.000
225.21	400.000
225.59	240.000
225.96	1333.333
226.34	-640.000
226.71	-650.000
227.08	-680.000
227.46	0.000
227.83	-633.333
228.21	-1300.000
228.58	333.333
228.95	825.000
229.33	411.111
229.70	1075.000
230.08	330.769
230.45	3700.000
230.82	-825.000
231.20	-900.000
231.57	-1300.000
231.95	720.000
232.32	275.000
232.69	500.000
233.07	375.000
233.44	-1950.000
233.81	260.000
234.19	192.593
234.56	256.250
234.93	188.235
235.31	235.000
235.68	281.250
236.05	157.143
236.43	151.852
236.80	250.000
237.17	131.034
237.55	93.750
237.92	132.500
238.29	160.606
238.67	143.750
239.04	109.756
239.41	95.833
239.79	112.500
240.16	108.333
240.53	80.328
240.91	69.565
241.28	101.695
241.65	87.879
242.02	84.507
242.40	81.429
242.77	72.527
243.14	75.949
243.51	79.798
243.89	60.748
244.26	67.290
244.63	56.436
245.00	72.477
245.38	54.237
245.75	55.303
246.12	59.259
246.49	60.284
246.87	53.279
247.24	58.000
247.61	53.125
247.98	59.864
248.36	48.485
248.73	52.551
249.10	50.000
249.47	52.000
249.84	51.741
250.22	54.595
250.59	50.500
250.96	47.679
251.33	48.372
251.70	48.661
252.08	47.899
252.45	44.622
252.82	43.726
253.19	44.664
253.56	45.000
253.94	44.203
254.31	48.062
254.68	46.690
255.05	45.517
255.42	47.810
255.79	45.603
256.16	46.780
256.54	46.753
256.91	43.791
257.28	47.826
257.65	41.693
258.02	41.298
258.39	46.705
258.76	42.029
259.14	40.857
259.51	42.566
259.88	46.505
260.25	39.286
260.62	43.288
260.99	39.394
261.36	43.175
261.73	40.957
262.10	43.979
262.47	41.250
262.85	42.933
263.22	43.445
263.59	42.455
263.96	41.103
264.33	43.704
264.70	42.260
265.07	42.439
265.44	40.596
265.81	41.274
266.18	38.902
266.55	42.317
266.92	41.611
267.29	42.763
267.66	43.049
268.03	40.359
268.40	40.169
268.77	44.714
269.14	41.215
269.51	39.644
269.88	40.204
270.25	36.717
270.62	40.987
270.99	43.408
271.36	38.618
271.73	40.461
272.10	40.000
272.47	39.286
272.84	39.122
273.21	39.463
273.58	41.498
273.95	38.398
274.32	41.245
274.69	41.732
275.06	38.616
275.43	40.038
275.80	36.981
276.17	38.235
276.54	36.822
276.91	37.313
277.28	38.139
277.65	40.406
278.02	37.500
278.39	37.230
278.76	37.931
279.13	37.722
279.50	38.182
279.87	37.244
280.23	37.753
280.60	38.869
280.97	36.207
281.34	36.634
281.71	37.913
282.08	37.265
282.45	37.838
282.82	37.458
283.19	36.566
283.56	36.033
283.92	38.599
284.29	37.438
284.66	35.630
285.03	39.967
285.40	37.686
285.77	35.340
286.14	35.759
286.51	37.270
286.87	34.968
287.24	34.835
287.61	35.866
287.98	34.627
288.35	34.370
288.72	34.446
289.08	33.033
289.45	35.213
289.82	35.781
290.19	34.407
290.56	36.245
290.93	33.669
291.29	33.011
291.66	32.768
292.03	32.258
292.40	31.436
292.77	31.337
293.13	32.668
293.50	33.333
293.87	30.488
294.24	32.448
294.60	31.763
294.97	32.308
295.34	31.208
295.71	32.457
296.08	32.000
296.44	31.766
296.81	30.645
297.18	28.771
297.55	30.665
297.91	29.187
298.28	30.193
298.65	28.344
299.02	30.277
299.38	30.576
299.75	29.512
300.12	30.505
300.48	29.742
300.85	29.797
301.22	28.837
301.59	27.948
301.95	27.538
302.32	29.569
302.69	26.357
303.05	29.630
303.42	27.691
303.79	29.252
304.15	29.593
304.52	28.964
304.89	28.891
305.25	29.032
305.62	27.079
305.99	27.500
306.35	28.632
306.72	29.969
307.09	29.607
307.45	28.300
307.82	27.572
308.19	27.423
308.55	26.900
308.92	28.656
309.29	28.994
309.65	28.444
310.02	29.108
310.38	27.916
310.75	29.508
311.12	29.406
311.48	29.537
311.85	29.198
312.22	31.041
312.58	31.293
312.95	30.485
313.31	30.524
313.68	30.582
314.05	32.418
314.41	29.888
314.78	31.534
315.14	32.986
315.51	33.018
315.87	32.208
316.24	34.827
316.61	32.587
316.97	33.761
317.34	34.951
317.70	36.260
318.07	35.498
318.43	37.258
318.80	38.529
319.16	36.976
319.53	37.080
319.89	38.082
320.26	41.155
320.62	41.941
320.99	41.277
321.35	41.187
321.72	42.030
322.08	42.475
322.45	43.506
322.81	42.726
323.18	45.027
323.54	44.861
323.91	47.960
324.27	46.508
324.64	48.270
325.00	49.655
325.37	48.735
325.73	51.265
326.10	51.616
326.46	51.528
326.83	53.360
327.19	54.538
327.56	54.952
327.92	56.475
328.29	56.219
328.65	57.791
329.01	56.459
329.38	56.684
329.74	58.155
330.11	57.515
330.47	58.994
330.84	58.067
331.20	59.729
331.56	60.017
331.93	59.367
332.29	58.588
332.66	59.609
333.02	61.254
333.38	61.780
333.75	59.883
334.11	60.570
334.48	62.479
334.84	59.544
335.20	63.302
335.57	62.133
335.93	61.312
336.29	61.526
336.66	63.465
337.02	60.736
337.38	62.167
337.75	64.358
338.11	63.797
338.47	62.828
338.84	62.828
339.20	63.896
339.56	62.742
339.93	62.542
340.29	61.933
340.65	62.699
341.02	62.108
341.38	64.943
341.74	65.365
342.11	63.105
342.47	63.905
342.83	64.643
343.20	63.056
343.56	62.669
343.92	63.997
344.28	63.477
344.65	65.363
345.01	64.365
345.37	64.984
345.73	65.476
346.10	63.347
346.46	65.710
346.82	64.043
347.19	64.606
347.55	64.715
347.91	65.408
348.27	64.369
348.63	66.218
349.00	63.442
349.36	64.981
349.72	66.055
350.08	65.217
350.45	65.727
350.81	66.208
351.17	63.790
351.53	66.205
351.89	64.336
352.26	66.062
352.62	65.385
352.98	65.951
353.34	66.564
353.70	65.520
354.07	67.923
354.43	65.591
354.79	64.085
355.15	66.845
355.51	67.069
355.87	67.093
356.24	67.821
356.60	66.743
356.96	68.385
357.32	65.938
357.68	67.695
358.04	66.945
358.40	67.241
358.77	68.144
359.13	67.793
359.49	66.568
359.85	67.759
360.21	66.568
360.57	68.394
360.93	66.955
361.29	68.254
361.66	70.246
362.02	67.401
362.38	69.913
362.74	68.861
363.10	69.004
363.46	67.680
363.82	68.864
364.18	69.346
364.54	69.886
364.90	69.946
365.26	70.437
365.62	68.992
365.98	70.475
366.35	69.379
366.71	71.270
367.07	68.259
367.43	69.778
367.79	69.880
368.15	69.403
368.51	69.745
368.87	69.429
369.23	72.626
369.59	69.454
369.95	71.958
370.31	70.773
370.67	70.437
371.03	70.448
371.39	70.845
371.75	71.877
372.11	70.700
372.47	71.027
372.83	72.672
373.19	72.104
373.55	72.027
373.91	71.547
374.27	69.577
374.63	70.712
374.99	72.170
375.35	72.849
375.71	72.098
376.07	72.016
376.42	71.228
376.78	73.732
377.14	73.263
377.50	71.723
377.86	73.671
378.22	73.248
378.58	73.971
378.94	72.480
379.30	73.802
379.66	73.390
380.02	72.610
380.38	72.307
380.74	72.780
381.09	74.065
381.45	72.486
381.81	72.045
382.17	72.772
382.53	73.125
382.89	74.157
383.25	72.883
383.61	73.890
383.97	73.485
384.32	74.081
384.68	74.510
385.04	73.564
385.40	74.021
385.76	73.844
386.12	74.273
386.48	73.252
386.83	74.756
387.19	75.206
387.55	73.675
387.91	74.480
388.27	75.669
388.62	74.296
388.98	73.411
389.34	73.171
389.70	74.057
390.06	75.122
390.42	73.411
390.77	73.157
391.13	74.532
391.49	73.382
391.85	75.077
392.20	74.434
392.56	73.357
392.92	73.217
393.28	73.487
393.64	73.567
393.99	73.977
394.35	74.220
394.71	72.859
395.07	74.939
395.42	75.000
395.78	74.954
396.14	74.518
396.50	75.872
396.85	74.756
397.21	73.947
397.57	74.118
397.92	72.444
398.28	73.194
398.64	74.171
399.00	71.673
399.35	73.484
399.71	73.841
400.07	73.402
400.42	73.493
400.78	73.783
401.14	74.046
401.49	73.502
401.85	73.117
402.21	74.634
402.57	75.524
402.92	73.879
403.28	73.866
403.63	73.043
403.99	72.859
404.35	73.564
404.70	74.660
405.06	72.824
405.42	73.489
405.77	72.326
406.13	72.289
406.49	72.769
406.84	72.194
407.20	73.573
407.55	72.615
407.91	72.814
408.27	74.227
408.62	73.802
408.98	70.787
409.34	72.531
409.69	71.998
410.05	72.451
410.40	71.790
410.76	71.380
411.11	71.505
411.47	70.864
411.83	70.767
412.18	72.101
412.54	72.733
412.89	71.268
413.25	72.463
413.60	71.086
413.96	71.873
414.31	72.314
414.67	73.060
415.03	73.116
415.38	72.050
415.74	72.963
416.09	72.517
416.45	72.010
416.80	72.418
417.16	71.929
417.51	72.739
417.87	72.778
418.22	71.993
418.58	73.312
418.93	71.148
419.29	70.240
419.64	71.169
420.00	71.480
420.35	72.358
420.71	71.354
421.06	70.277
421.42	70.812
421.77	72.349
422.12	72.657
422.48	70.159
422.83	71.875
423.19	69.924
423.54	71.092
423.90	70.328
424.25	71.106
424.61	71.909
424.96	71.937
425.31	71.976
425.67	72.559
426.02	71.397
426.38	71.354
426.73	72.412
427.09	71.530
427.44	71.244
427.79	71.870
428.15	72.893
428.50	72.286
428.85	71.899
429.21	71.097
429.56	69.990
429.92	70.711
430.27	70.343
430.62	70.191
430.98	70.359
431.33	70.262
431.68	70.469
432.04	70.409
432.39	71.405
432.74	71.546
433.10	72.425
433.45	71.798
433.80	72.421
434.16	71.308
434.51	71.723
434.86	72.020
435.22	71.529
435.57	72.792
435.92	72.738
436.28	72.120
436.63	70.719
436.98	72.973
437.34	71.461
437.69	72.116
438.04	71.774
438.39	72.154
438.75	72.884
439.10	72.207
439.45	71.057
439.81	73.569
440.16	72.812
440.51	71.959
440.86	73.675
441.22	71.807
441.57	72.021
441.92	72.458
442.27	72.629
442.63	71.494
442.98	70.797
443.33	71.023
443.68	71.781
444.03	71.819
444.39	71.940
444.74	71.325
445.09	72.512
445.44	71.413
445.79	71.686
446.15	72.211
446.50	72.574
446.85	71.763
447.20	72.289
447.55	73.573
447.91	71.497
448.26	71.832
448.61	73.908
448.96	73.747
449.31	73.212
449.66	71.761
450.02	70.989
450.37	72.959
450.72	72.948
451.07	71.902
451.42	71.903
451.77	72.680
452.12	72.320
452.47	73.451
452.83	73.577
453.18	71.772
453.53	72.291
453.88	73.543
454.23	73.388
454.58	71.154
454.93	72.103
455.28	72.889
455.63	71.749
455.98	71.066
456.34	72.401
456.69	73.415
457.04	71.241
457.39	73.371
457.74	73.029
458.09	71.421
458.44	70.591
458.79	71.353
459.14	71.740
459.49	71.404
459.84	72.065
460.19	71.073
460.54	71.396
460.89	72.175
461.24	70.160
461.59	71.995
461.94	71.099
462.29	72.654
462.64	72.864
462.99	71.273
463.34	72.132
463.69	72.777
464.04	72.309
464.39	71.666
464.74	70.399
465.09	71.039
465.44	70.892
465.79	70.768
466.14	69.157
466.49	70.591
466.84	70.959
467.19	70.299
467.54	69.850
467.89	71.244
468.24	71.801
468.59	70.179
468.94	71.316
469.29	70.250
469.64	71.318
469.99	70.308
470.34	71.157
470.68	70.966
471.03	73.716
471.38	70.728
471.73	70.934
472.08	72.146
472.43	71.074
472.78	70.743
473.13	70.025
473.48	71.027
473.83	70.436
474.17	71.550
474.52	70.616
474.87	68.846
475.22	69.846
475.57	69.360
475.92	69.852
476.27	68.335
476.61	69.544
476.96	68.861
477.31	70.694
477.66	71.122
478.01	69.469
478.36	69.464
478.70	66.898
479.05	70.293
479.40	69.048
479.75	69.762
480.10	69.700
480.45	68.721
480.79	68.664
481.14	68.664
481.49	68.527
481.84	68.602
482.19	69.039
482.53	68.731
482.88	67.159
483.23	68.742
483.58	69.479
483.92	69.287
484.27	67.937
484.62	67.997
484.97	67.121
485.31	67.248
485.66	65.235
486.01	63.560
486.36	63.352
486.70	63.127
487.05	63.046
487.40	64.364
487.75	64.886
488.09	65.114
488.44	65.264
488.79	65.915
489.13	67.339
489.48	67.040
489.83	67.640
490.17	65.731
490.52	66.925
490.87	66.940
491.22	66.489
491.56	66.798
491.91	67.339
492.26	67.216
492.60	69.066
492.95	66.787
493.30	67.470
493.64	68.464
493.99	66.592
494.34	66.024
494.68	66.622
495.03	66.637
495.37	66.997
495.72	66.573
496.07	66.891
496.41	65.508
496.76	65.935
497.11	65.596
497.45	65.147
497.80	66.589
498.14	66.158
498.49	65.831
498.84	67.196
499.18	66.088
499.53	66.605
499.87	65.499
500.22	64.993
500.56	66.388
500.91	66.141
501.26	66.330
501.60	65.801
501.95	65.681
502.29	65.378
502.64	65.108
502.98	64.251
503.33	64.989
503.67	64.283
504.02	64.487
504.36	65.249
504.71	64.664
505.06	65.134
505.40	65.512
505.75	64.874
506.09	64.629
506.44	65.414
506.78	65.406
507.13	65.584
507.47	67.103
507.82	65.693
508.16	66.291
508.51	65.749
508.85	65.622
509.19	65.884
509.54	64.746
509.88	65.341
510.23	64.755
510.57	63.417
510.92	66.034
511.26	66.968
511.61	63.811
511.95	64.709
512.30	63.700
512.64	64.434
512.98	65.095
513.33	65.164
513.67	65.821
514.02	65.506
514.36	63.448
514.70	65.813
515.05	65.317
515.39	66.173
515.74	66.812
516.08	65.468
516.42	66.612
516.77	65.013
517.11	65.333
517.46	65.571
517.80	65.210
518.14	66.085
518.49	64.829
518.83	63.187
519.17	66.167
519.52	65.156
519.86	65.831
520.20	65.534
520.55	65.122
520.89	64.195
521.23	65.888
521.58	64.831
521.92	64.781
522.26	65.995
522.61	66.607
522.95	66.967
523.29	64.971
523.64	64.393
523.98	68.427
524.32	65.571
524.66	64.232
525.01	65.030
525.35	64.702
525.69	65.563
526.04	65.199
526.38	64.979
526.72	64.499
527.06	63.690
527.41	65.296
527.75	65.125
528.09	64.419
528.43	65.589
528.78	65.236
529.12	66.887
529.46	63.589
529.80	63.318
530.15	62.935
530.49	64.501
530.83	64.168
531.17	63.899
531.51	64.316
531.86	63.466
532.20	63.350
532.54	63.653
532.88	64.585
533.22	64.290
533.57	63.697
533.91	64.044
534.25	62.262
534.59	64.678
534.93	61.092
535.27	61.468
535.62	62.602
535.96	62.175
536.30	63.559
536.64	62.733
536.98	63.121
537.32	61.812
537.66	62.628
538.01	61.548
538.35	63.631
538.69	60.922
539.03	60.634
539.37	61.104
539.71	63.210
540.05	60.985
540.39	63.082
540.73	62.152
541.07	61.292
541.42	62.500
541.76	61.714
542.10	61.159
542.44	62.095
542.78	61.863
543.12	61.779
543.46	60.714
543.80	60.464
544.14	61.672
544.48	60.706
544.82	61.835
545.16	59.806
545.50	60.725
545.84	60.795
546.18	62.549
546.52	61.508
546.86	60.606
547.20	60.013
547.54	59.088
547.88	59.428
548.22	59.381
548.56	58.574
548.90	60.380
549.24	60.139
549.58	59.407
549.92	60.118
550.26	60.784
550.60	60.546
550.94	60.787
551.28	61.793
551.62	61.448
551.96	59.324
552.30	58.734
552.64	60.647
552.98	60.052
553.32	58.131
553.66	60.065
554.00	58.752
554.34	60.120
554.68	59.610
555.02	60.081
555.36	58.311
555.69	58.966
556.03	57.580
556.37	58.827
556.71	59.583
557.05	58.060
557.39	57.800
557.73	59.973
558.07	59.423
558.41	59.836
558.75	59.850
559.08	59.900
559.42	60.415
559.76	59.373
560.10	58.362
560.44	58.261
560.78	59.079
561.12	58.360
561.45	58.385
561.79	58.302
562.13	56.854
562.47	58.533
562.81	59.141
563.15	57.854
563.48	55.652
563.82	59.014
564.16	57.152
564.50	55.998
564.84	56.900
565.17	56.447
565.51	58.990
565.85	58.297
566.19	57.202
566.52	55.235
566.86	57.968
567.20	56.685
567.54	55.622
567.88	56.077
568.21	53.620
568.55	54.037
568.89	53.741
569.23	52.761
569.56	52.796
569.90	50.880
570.24	51.959
570.57	52.012
570.91	51.201
571.25	50.178
571.59	49.549
571.92	49.166
572.26	48.491
572.60	49.347
572.93	49.281
573.27	49.856
573.61	48.646
573.95	49.353
574.28	49.370
574.62	49.115
574.96	47.310
575.29	47.747
575.63	47.727
575.97	47.468
576.30	46.748
576.64	48.115
576.98	47.667
577.31	48.779
577.65	47.730
577.98	48.008
578.32	47.025
578.66	46.753
578.99	47.220
579.33	47.835
579.67	47.357
580.00	47.122
580.34	46.670
580.67	46.957
581.01	47.553
581.35	47.207
581.68	46.112
582.02	46.149
582.35	46.545
582.69	46.021
583.02	46.707
583.36	46.973
583.70	47.521
584.03	48.322
584.37	47.527
584.70	47.350
585.04	46.491
585.37	46.416
585.71	47.348
586.04	46.484
586.38	46.421
586.72	47.362
587.05	47.247
587.39	47.105
587.72	46.938
588.06	46.660
588.39	47.083
588.73	47.235
589.06	48.001
589.40	48.670
589.73	48.181
590.07	49.314
590.40	48.711
590.73	49.210
591.07	49.374
591.40	49.062
591.74	48.539
592.07	48.544
592.41	48.721
592.74	47.199
593.08	47.005
593.41	47.038
593.75	46.149
594.08	46.843
594.41	47.181
594.75	47.466
595.08	47.634
595.42	47.136
595.75	47.022
596.09	48.001
596.42	48.143
596.75	48.918
597.09	49.278
597.42	48.122
597.75	47.667
598.09	47.312
598.42	47.205
598.76	46.646
599.09	47.444
599.42	46.401
599.76	46.845
600.09	45.220
600.42	46.029
600.76	45.615
601.09	45.806
601.42	46.005
601.76	46.294
602.09	46.762
602.42	45.508
602.76	47.097
603.09	46.870
603.42	46.826
603.76	46.312
604.09	46.616
604.42	46.365
604.76	47.096
605.09	46.531
605.42	46.648
605.75	46.546
606.09	46.863
606.42	46.298
606.75	46.016
607.09	45.085
607.42	46.284
607.75	45.621
608.08	45.491
608.42	47.190
608.75	46.384
609.08	46.546
609.41	46.773
609.75	47.299
610.08	47.977
610.41	46.509
610.74	46.753
611.07	47.340
611.41	47.590
611.74	46.128
612.07	47.110
612.40	47.856
612.73	47.778
613.07	47.491
613.40	47.469
613.73	47.828
614.06	46.300
614.39	48.333
614.72	47.363
615.06	45.697
615.39	46.683
615.72	46.467
616.05	47.313
616.38	46.322
616.71	46.826
617.05	47.611
617.38	46.742
617.71	47.525
618.04	47.224
618.37	47.916
618.70	47.633
619.03	48.230
619.36	48.241
619.69	48.285
620.03	50.228
620.36	49.133
620.69	50.511
621.02	50.136
621.35	48.639
621.68	50.295
622.01	49.815
622.34	49.235
622.67	49.298
623.00	48.536
623.33	49.460
623.66	49.102
623.99	49.589
624.32	48.306
624.65	48.782
624.99	49.425
625.32	48.631
625.65	48.345
625.98	48.466
626.31	50.593
626.64	47.456
626.97	48.279
627.30	50.155
627.63	50.942
627.96	48.748
628.29	50.330
628.62	51.155
628.95	50.798
629.28	51.709
629.61	50.088
629.94	49.870
630.26	51.040
630.59	52.305
630.92	51.390
631.25	50.861
631.58	53.230
631.91	51.951
632.24	50.826
632.57	51.375
632.90	53.313
633.23	52.151
633.56	53.109
633.89	51.983
634.22	53.068
634.55	52.581
634.88	54.984
635.20	54.260
635.53	54.704
635.86	54.251
636.19	52.862
636.52	52.216
636.85	52.319
637.18	52.004
637.51	53.520
637.83	53.661
638.16	53.224
638.49	54.371
638.82	54.695
639.15	52.526
639.48	54.147
639.81	52.869
640.13	53.006
640.46	54.867
640.79	55.787
641.12	52.493
641.45	55.239
641.77	52.312
642.10	56.493
642.43	54.623
642.76	55.114
643.09	54.899
643.41	53.576
643.74	54.964
644.07	56.195
644.40	54.290
644.73	56.306
645.05	54.829
645.38	54.058
645.71	55.083
646.04	54.809
646.36	58.216
646.69	54.560
647.02	59.520
647.35	53.386
647.67	54.133
648.00	55.375
648.33	54.135
648.66	56.212
648.98	53.623
649.31	50.607
649.64	51.867
649.96	53.343
650.29	52.429
650.62	54.345
650.94	53.765
651.27	56.619
651.60	52.895
651.92	52.688
652.25	55.748
652.58	51.489
652.90	51.796
653.23	53.028
653.56	54.303
653.88	52.276
654.21	53.372
654.54	50.659
654.86	52.212
655.19	51.055
655.52	44.293
655.84	35.182
656.17	40.949
656.49	58.079
656.82	66.401
657.15	52.855
657.47	39.880
657.80	29.621
658.13	23.395
658.45	31.954
658.78	38.124
659.10	38.414
659.43	38.845
659.75	42.244
660.08	43.108
660.41	45.735
660.73	52.070
661.06	51.051
661.38	55.026
661.71	53.058
662.03	56.084
662.36	55.048
662.68	53.631
663.01	54.234
663.33	54.528
663.66	57.396
663.98	55.159
664.31	56.343
664.63	55.364
664.96	56.660
665.28	53.107
665.61	56.415
665.93	55.094
666.26	53.458
666.58	55.046
666.91	55.985
667.23	54.418
667.56	56.468
667.88	53.734
668.21	55.738
668.53	53.629
668.86	57.916
669.18	55.804
669.50	54.752
669.83	56.674
670.15	55.094
670.48	54.102
670.80	57.171
671.13	53.187
671.45	55.110
671.77	54.545
672.10	53.680
672.42	51.809
672.75	51.266
673.07	50.238
673.39	51.118
673.72	50.692
674.04	53.226
674.37	51.543
674.69	55.204
675.01	52.425
675.34	53.488
675.66	55.273
675.98	54.635
676.31	54.000
676.63	53.280
676.95	54.365
677.28	54.767
677.60	52.918
677.92	53.770
678.25	54.264
678.57	53.445
678.89	52.080
679.22	49.081
679.54	52.313
679.86	51.309
680.18	53.427
680.51	50.083
680.83	46.622
681.15	50.780
681.48	50.347
681.80	48.161
682.12	48.789
682.44	50.450
682.77	50.534
683.09	53.010
683.41	53.878
683.73	50.197
684.06	47.817
684.38	51.938
684.70	49.820
685.02	48.437
685.34	50.704
685.67	49.035
685.99	50.082
686.31	46.533
686.63	47.642
686.96	49.346
687.28	49.161
687.60	47.270
687.92	47.236
688.24	50.690
688.56	50.178
688.89	47.419
689.21	48.748
689.53	50.791
689.85	48.984
690.17	50.874
690.49	53.024
690.82	52.311
691.14	52.121
691.46	52.977
691.78	53.411
692.10	51.336
692.42	46.461
692.74	51.357
693.06	48.643
693.39	49.802
693.71	50.098
694.03	50.690
694.35	53.614
694.67	49.695
694.99	53.215
695.31	54.730
695.63	51.131
695.95	50.000
696.27	51.770
696.59	53.699
696.91	52.152
697.23	50.452
697.56	48.340
697.88	46.108
698.20	46.792
698.52	46.693
698.84	49.897
699.16	52.239
699.48	47.669
699.80	51.634
700.12	51.963
700.44	53.972
700.76	51.313
701.08	52.480
701.40	53.506
701.72	55.348
702.04	53.659
702.36	55.914
702.68	56.117
703.00	50.627
703.32	55.087
703.64	52.897
703.96	53.906
704.28	53.968
704.60	56.338
704.91	54.342
705.23	52.273
705.55	52.819
705.87	58.413
706.19	59.248
706.51	63.950
706.83	54.867
707.15	54.545
707.47	50.121
707.79	51.954
708.11	46.485
708.43	48.764
708.74	48.643
709.06	47.907
709.38	50.620
709.70	53.951
710.02	54.076
710.34	51.105
710.66	53.889
710.98	50.820
711.29	52.089
711.61	55.153
711.93	57.751
712.25	54.217
712.57	55.627
712.89	52.727
713.20	57.508
713.52	57.009
713.84	50.755
714.16	49.275
714.48	46.110
714.80	50.678
715.11	48.138
715.43	46.648
715.75	52.113
716.07	52.601
716.39	48.857
716.70	51.402
717.02	53.535
717.34	58.273
717.66	57.639
717.97	62.121
718.29	58.451
718.61	53.378
718.93	56.747
719.24	52.685
719.56	54.828
719.88	49.682
720.20	52.903
720.51	49.346
720.83	56.522
721.15	53.741
721.46	51.370
721.78	57.143
722.10	57.986
722.42	53.846
722.73	55.596
723.05	54.035
723.37	56.184
723.68	50.391
724.00	53.030
724.32	57.795
724.63	52.308
724.95	55.686
725.27	58.736
725.58	54.779
725.90	45.070
726.22	50.000
726.53	52.843
726.85	52.117
727.16	52.685
727.48	51.495
727.80	57.554
728.11	53.214
728.43	54.710
728.74	50.350
729.06	50.896
729.38	54.386
729.69	54.667
730.01	54.934
730.32	50.000
730.64	52.159
730.96	48.348
731.27	49.541
731.59	44.828
731.90	46.518
732.22	48.571
732.53	45.299
732.85	52.924
733.16	50.602
733.48	48.276
733.80	46.667
734.11	53.988
734.43	44.737
734.74	43.164
735.06	48.148
735.37	44.072
735.69	52.754
736.00	53.823
736.32	48.182
736.63	46.057
736.95	50.000
737.26	50.915
737.58	48.773
737.89	49.398
738.21	52.649
738.52	43.144
738.83	56.044
739.15	52.962
739.46	52.414
739.78	50.680
740.09	46.356
740.41	50.920
740.72	49.524
741.04	52.448
741.35	54.687
741.66	54.150
741.98	56.652
742.29	56.944
742.61	51.770
742.92	53.390
743.23	57.200
743.55	50.189
743.86	50.588
744.18	51.695
744.49	52.479
744.80	57.604
745.12	54.911
745.43	59.346
745.74	55.556
746.06	53.509
746.37	54.884
746.68	60.619
747.00	57.848
747.31	53.361
747.62	51.230
747.94	53.219
748.25	46.304
748.56	52.966
748.88	55.357
749.19	54.884
749.50	61.644
749.82	54.321
750.13	50.988
750.44	47.000
750.75	50.336
751.07	50.000
751.38	48.515
751.69	47.475
752.01	47.902
752.32	47.508
752.63	47.315
752.94	51.399
753.26	57.422
753.57	50.973
753.88	47.940
754.19	49.819
754.51	47.176
754.82	48.322
755.13	48.986
755.44	51.852
755.75	52.921
756.07	49.315
756.38	46.732
756.69	48.438
757.00	46.588
757.31	48.451
757.63	44.904
757.94	42.819
758.25	44.203
758.56	42.792
758.87	46.366
759.18	47.384
759.50	46.505
759.81	49.258
760.12	46.067
760.43	42.577
760.74	44.304
761.05	47.215
761.36	43.490
761.67	44.474
761.99	47.887
762.30	46.624
762.61	45.139
762.92	52.273
763.23	52.453
763.54	47.308
763.85	53.307
764.16	49.306
764.47	50.000
764.78	46.906
765.10	41.463
765.41	39.773
765.72	45.028
766.03	40.785
766.34	44.599
766.65	47.529
766.96	51.822
767.27	57.009
767.58	56.436
767.89	50.829
768.20	60.366
768.51	51.020
768.82	53.070
769.13	47.059
769.44	48.120
769.75	44.569
770.06	47.899
770.37	51.316
770.68	45.778
770.99	47.881
771.30	52.301
771.61	51.538
771.92	51.145
772.23	47.984
772.54	51.111
772.85	55.446
773.16	58.152
773.47	55.556
773.78	49.010
774.09	62.500
774.39	62.424
774.70	50.000
775.01	58.553
775.32	58.385
775.63	65.068
775.94	64.815
776.25	64.138
776.56	66.412
776.87	70.992
777.18	59.091
777.48	68.504
777.79	70.000
778.10	59.848
778.41	64.179
778.72	56.391
779.03	50.641
779.34	54.730
779.65	52.795
779.95	55.901
780.26	53.571
780.57	63.946
780.88	63.121
781.19	64.167
781.50	62.130
781.80	56.284
782.11	52.910
782.42	49.425
782.73	54.802
783.04	59.355
783.34	51.938
783.65	60.544
783.96	50.323
784.27	61.589
784.57	53.947
784.88	57.971
785.19	60.833
785.50	66.379
785.81	68.992
786.11	57.778
786.42	65.354
786.73	69.369
787.04	74.528
787.34	50.407
787.65	56.061
787.96	59.091
788.26	66.142
788.57	66.423
788.88	65.493
789.19	62.595
789.49	56.081
789.80	61.719
790.11	61.983
790.41	65.741
790.72	68.519
791.03	69.231
791.33	64.646
791.64	66.316
791.95	68.421
792.25	68.750
792.56	63.000
792.87	82.927
793.17	70.455
793.48	80.000
793.79	60.920
794.09	70.455
794.40	69.828
794.70	63.492
795.01	55.385
795.32	58.779
795.62	56.410
795.93	63.025
796.23	61.789
796.54	62.245
796.85	67.045
797.15	106.494
797.46	84.146
797.76	78.750
798.07	86.667
798.37	78.750
798.68	93.750
798.99	85.366
799.29	77.333
799.60	62.791
799.90	69.737
800.21	92.424
800.51	80.282
800.82	81.034
801.12	103.077
801.43	80.000
801.73	98.276
802.04	75.325
802.34	83.562
802.65	86.275
802.95	106.522
803.26	93.548
803.56	106.667
803.87	92.537
804.17	87.302
804.48	100.000
804.78	72.222
805.09	93.939
805.39	79.365
805.70	85.965
806.00	72.857
806.30	92.187
806.61	77.647
806.91	67.778
807.22	78.261
807.52	82.895
807.83	78.947
808.13	82.609
808.43	96.774
808.74	82.192
809.04	89.286
809.35	89.706
809.65	90.909
809.95	92.157
810.26	101.852
810.56	104.688
810.86	97.959
811.17	94.737
811.47	95.652
811.77	91.379
812.08	101.724
812.38	97.619
812.69	107.143
812.99	111.111
813.29	125.714
813.59	148.387
813.90	91.379
814.20	90.164
814.50	108.000
814.81	87.719
815.11	114.815
815.41	105.357
815.72	94.643
816.02	100.000
816.32	100.000
816.62	103.448
816.93	103.030
817.23	109.756
817.53	110.714
817.84	95.556
818.14	100.000
818.44	85.417
818.74	103.774
819.04	97.436
819.35	136.364
819.65	113.462
819.95	122.222
820.25	138.298
820.56	140.541
820.86	134.211
821.16	91.489
821.46	139.474
821.76	105.455
822.07	83.333
822.37	97.368
822.67	106.977
822.97	89.474
823.27	108.696
823.57	121.875
823.88	123.077
824.18	103.030
824.48	165.217
824.78	136.111
825.08	165.217
825.38	175.862
825.69	158.824
825.99	91.489
826.29	105.556
826.59	122.857
826.89	123.333
827.19	122.857
827.49	129.032
827.79	146.154
828.09	114.286
828.39	102.778
828.70	113.514
829.00	160.714
829.30	193.750
829.60	130.556
829.90	135.484
830.20	124.242
830.50	132.432
830.80	175.000
831.10	196.154
831.40	171.429
831.70	179.167
832.00	133.333
832.30	130.435
832.60	183.333
832.90	151.515
833.20	220.000
833.50	144.737
833.80	135.294
834.10	110.526
834.40	147.368
834.70	110.000
835.00	172.000
835.30	108.108
835.60	140.625
835.90	137.838
836.20	173.077
836.50	145.455
836.80	102.439
837.10	134.783
837.40	292.308
837.70	136.842
838.00	123.333
838.30	195.833
838.60	160.000
838.90	320.000
839.19	218.750
839.49	113.333
839.79	144.828
840.09	184.615
840.39	260.000
840.69	231.579
840.99	185.714
841.29	186.957
841.59	210.000
841.88	180.000
842.18	411.111
842.48	142.857
842.78	155.556
843.08	215.385
843.38	163.636
843.68	214.286
843.97	485.714
844.27	191.304
844.57	1500.000
844.87	307.143
845.17	200.000
845.47	123.810
845.76	133.333
846.06	571.429
846.36	170.588
846.66	315.385
846.96	218.750
847.25	223.077
847.55	126.316
847.85	188.889
848.15	480.000
848.44	363.636
848.74	180.952
849.04	179.167
849.34	188.235
849.63	268.750
849.93	237.500
850.23	1200.000
850.53	475.000
850.82	290.909
851.12	252.941
851.42	220.833
851.71	243.750
852.01	0.000
852.31	211.765
852.61	400.000
852.90	179.167
853.20	422.222
853.50	-2100.000
853.79	148.000
854.09	162.500
854.39	100.000
854.68	186.207
854.98	204.762
855.28	141.935
855.57	214.286
855.87	227.778
856.17	125.926
856.46	205.263
856.76	138.710
857.05	247.059
857.35	327.273
857.65	284.615
857.94	180.000
858.24	388.889
858.53	228.571
858.83	557.143
859.13	173.913
859.42	344.444
859.72	450.000
860.01	283.333
860.31	800.000
860.60	370.000
860.90	337.500
861.20	292.308
861.49	500.000
861.79	-3200.000
862.08	414.286
862.38	422.222
862.67	214.286
862.97	410.000
863.26	126.667
863.56	650.000
863.85	369.231
864.15	282.353
864.44	238.889
864.74	375.000
865.03	345.455
865.33	387.500
865.62	186.667
865.92	500.000
866.21	1000.000
866.51	820.000
866.80	233.333
867.10	1200.000
867.39	3100.000
867.69	760.000
867.98	650.000
868.27	209.524
868.57	246.667
868.86	875.000
869.16	180.952
869.45	2800.000
869.75	-466.667
870.04	1025.000
870.33	680.000
870.63	375.000
870.92	217.647
871.22	800.000
871.51	528.571
871.80	300.000
872.10	276.923
>>>>>End Processed Spectral Data<<<<<
