SpectraSuite Data File
++++++++++++++++++++++++++++++++++++
Date: Tue May 12 16:26:20 PDT 2015
User: schluterlab
Dark Spectrum Present: Yes
Reference Spectrum Present: Yes
Number of Sampled Component Spectra: 1
Spectrometers: USB2E3373
Integration Time (usec): 3000 (USB2E3373)
Spectra Averaged: 3 (USB2E3373)
Boxcar Smoothing: 0 (USB2E3373)
Correct for Electrical Dark: No (USB2E3373)
Strobe/Lamp Enabled: No (USB2E3373)
Correct for Detector Non-linearity: No (USB2E3373)
Correct for Stray Light: No (USB2E3373)
Number of Pixels in Processed Spectrum: 2048
>>>>>Begin Processed Spectral Data<<<<<
178.53	0.000
178.91	-275.000
179.29	-800.000
179.67	-3900.000
180.04	-146.667
180.42	625.000
180.80	1800.000
181.18	0.000
181.56	-275.000
181.94	0.000
182.31	1266.667
182.69	-3200.000
183.07	700.000
183.45	-3400.000
183.83	-1650.000
184.20	400.000
184.58	500.000
184.96	-207.692
185.34	-216.667
185.72	1700.000
186.09	-825.000
186.47	-3100.000
186.85	1133.333
187.23	460.000
187.61	1500.000
187.98	437.500
188.36	235.714
188.74	316.667
189.12	400.000
189.49	900.000
189.87	0.000
190.25	475.000
190.63	2900.000
191.00	-258.333
191.38	-2700.000
191.76	-500.000
192.14	500.000
192.51	-2900.000
192.89	1550.000
193.27	833.333
193.65	-766.667
194.02	-820.000
194.40	557.143
194.78	-235.714
195.15	273.333
195.53	-3000.000
195.91	-580.000
196.29	3400.000
196.66	250.000
197.04	825.000
197.42	-1400.000
197.79	525.000
198.17	291.667
198.55	0.000
198.92	514.286
199.30	1300.000
199.68	1900.000
200.05	683.333
200.43	-350.000
200.81	222.222
201.18	2600.000
201.56	266.667
201.94	-750.000
202.31	-350.000
202.69	-380.000
203.07	3900.000
203.44	-516.667
203.82	266.667
204.19	880.000
204.57	-1750.000
204.95	-700.000
205.32	-740.000
205.70	533.333
206.08	1000.000
206.45	-500.000
206.83	411.111
207.20	215.789
207.58	300.000
207.96	660.000
208.33	0.000
208.71	585.714
209.08	640.000
209.46	-3200.000
209.84	-900.000
210.21	760.000
210.59	-660.000
210.96	358.333
211.34	-875.000
211.71	500.000
212.09	850.000
212.46	1500.000
212.84	-433.333
213.22	500.000
213.59	-2200.000
213.97	270.000
214.34	925.000
214.72	1333.333
215.09	1233.333
215.47	-2800.000
215.84	-430.000
216.22	-512.500
216.59	0.000
216.97	0.000
217.34	1650.000
217.72	-1800.000
218.09	1333.333
218.47	537.500
218.84	825.000
219.22	1066.667
219.59	900.000
219.97	457.143
220.34	333.333
220.72	1500.000
221.09	3500.000
221.47	300.000
221.84	1000.000
222.22	320.000
222.59	244.444
222.97	164.286
223.34	243.750
223.72	-1350.000
224.09	1133.333
224.46	253.846
224.84	-925.000
225.21	377.778
225.59	340.000
225.96	1566.667
226.34	-640.000
226.71	-825.000
227.08	-540.000
227.46	0.000
227.83	-533.333
228.21	-2000.000
228.58	383.333
228.95	1125.000
229.33	344.444
229.70	825.000
230.08	415.385
230.45	3800.000
230.82	-750.000
231.20	-766.667
231.57	-900.000
231.95	220.000
232.32	258.333
232.69	550.000
233.07	358.333
233.44	-1500.000
233.81	273.333
234.19	166.667
234.56	187.500
234.93	194.118
235.31	220.000
235.68	268.750
236.05	135.714
236.43	148.148
236.80	157.143
237.17	141.379
237.55	143.750
237.92	132.500
238.29	130.303
238.67	153.125
239.04	104.878
239.41	77.083
239.79	90.000
240.16	102.083
240.53	80.328
240.91	66.667
241.28	79.661
241.65	71.212
242.02	74.648
242.40	80.000
242.77	53.846
243.14	60.759
243.51	66.667
243.89	61.682
244.26	58.879
244.63	59.406
245.00	55.046
245.38	55.085
245.75	50.000
246.12	58.519
246.49	41.844
246.87	44.262
247.24	55.333
247.61	52.500
247.98	50.340
248.36	47.273
248.73	50.510
249.10	42.857
249.47	45.000
249.84	43.284
250.22	45.946
250.59	43.000
250.96	43.038
251.33	42.326
251.70	42.857
252.08	44.538
252.45	39.442
252.82	39.924
253.19	39.130
253.56	40.769
253.94	40.942
254.31	37.209
254.68	42.160
255.05	40.000
255.42	36.861
255.79	38.111
256.16	41.356
256.54	42.208
256.91	37.908
257.28	35.786
257.65	36.991
258.02	35.693
258.39	36.676
258.76	36.522
259.14	36.857
259.51	38.484
259.88	41.033
260.25	36.813
260.62	35.616
260.99	35.537
261.36	36.769
261.73	35.904
262.10	35.340
262.47	34.500
262.85	33.867
263.22	35.219
263.59	34.783
263.96	39.850
264.33	33.086
264.70	33.661
265.07	36.098
265.44	33.028
265.81	35.613
266.18	35.240
266.55	32.151
266.92	34.004
267.29	34.211
267.66	32.960
268.03	34.081
268.40	33.615
268.77	35.903
269.14	29.501
269.51	34.076
269.88	32.653
270.25	31.749
270.62	32.618
270.99	36.714
271.36	33.943
271.73	31.656
272.10	34.343
272.47	32.540
272.84	30.739
273.21	32.645
273.58	34.211
273.95	34.292
274.32	31.518
274.69	36.417
275.06	32.423
275.43	31.609
275.80	31.698
276.17	30.699
276.54	33.271
276.91	34.515
277.28	33.029
277.65	33.210
278.02	32.537
278.39	31.475
278.76	32.241
279.13	31.851
279.50	30.182
279.87	29.795
280.23	33.333
280.60	32.664
280.97	32.759
281.34	31.518
281.71	32.174
282.08	33.675
282.45	28.885
282.82	32.441
283.19	30.048
283.56	28.430
283.92	31.922
284.29	30.116
284.66	28.235
285.03	29.353
285.40	30.248
285.77	29.938
286.14	30.960
286.51	30.982
286.87	25.633
287.24	28.829
287.61	27.964
287.98	30.448
288.35	30.222
288.72	30.349
289.08	28.529
289.45	31.098
289.82	28.438
290.19	29.868
290.56	28.530
290.93	29.209
291.29	27.072
291.66	26.977
292.03	27.489
292.40	28.184
292.77	27.577
293.13	27.817
293.50	27.126
293.87	24.661
294.24	26.434
294.60	27.995
294.97	27.972
295.34	27.888
295.71	27.464
296.08	26.933
296.44	26.048
296.81	25.558
297.18	24.968
297.55	26.847
297.91	23.645
298.28	26.208
298.65	25.767
299.02	25.814
299.38	26.379
299.75	25.244
300.12	25.573
300.48	26.112
300.85	26.341
301.22	25.698
301.59	25.118
301.95	26.021
302.32	25.611
302.69	27.149
303.05	27.497
303.42	25.673
303.79	26.761
304.15	26.183
304.52	26.216
304.89	25.800
305.25	27.475
305.62	26.866
305.99	25.978
306.35	26.737
306.72	27.471
307.09	27.950
307.45	28.511
307.82	26.029
308.19	28.454
308.55	26.600
308.92	27.969
309.29	28.107
309.65	28.246
310.02	26.978
310.38	28.415
310.75	28.930
311.12	29.598
311.48	27.992
311.85	29.008
312.22	29.322
312.58	30.515
312.95	30.874
313.31	31.554
313.68	29.925
314.05	31.593
314.41	30.540
314.78	30.966
315.14	33.744
315.51	31.693
315.87	30.383
316.24	32.306
316.61	32.319
316.97	31.835
317.34	34.322
317.70	33.889
318.07	36.655
318.43	34.886
318.80	35.377
319.16	35.315
319.53	35.310
319.89	36.022
320.26	38.547
320.62	37.821
320.99	37.560
321.35	38.033
321.72	40.702
322.08	39.889
322.45	39.600
322.81	40.439
323.18	42.540
323.54	41.899
323.91	44.515
324.27	43.413
324.64	43.772
325.00	44.655
325.37	44.013
325.73	45.363
326.10	47.225
326.46	46.078
326.83	46.640
327.19	46.827
327.56	47.843
327.92	49.836
328.29	49.673
328.65	48.973
329.01	50.385
329.38	49.408
329.74	49.103
330.11	50.565
330.47	51.321
330.84	49.957
331.20	51.607
331.56	52.245
331.93	52.267
332.29	50.255
332.66	52.551
333.02	51.718
333.38	52.967
333.75	52.961
334.11	51.594
334.48	52.564
334.84	51.689
335.20	52.438
335.57	51.721
335.93	52.986
336.29	51.493
336.66	53.945
337.02	52.609
337.38	52.451
337.75	53.125
338.11	53.502
338.47	53.260
338.84	51.566
339.20	52.294
339.56	52.649
339.93	52.341
340.29	51.513
340.65	52.389
341.02	51.891
341.38	52.545
341.74	53.738
342.11	52.922
342.47	52.666
342.83	54.553
343.20	53.112
343.56	51.311
343.92	52.271
344.28	53.828
344.65	55.420
345.01	52.778
345.37	52.163
345.73	53.333
346.10	54.422
346.46	55.263
346.82	53.164
347.19	55.255
347.55	54.333
347.91	52.644
348.27	52.440
348.63	53.244
349.00	54.303
349.36	54.397
349.72	53.823
350.08	54.348
350.45	53.542
350.81	55.275
351.17	54.931
351.53	54.273
351.89	54.468
352.26	55.631
352.62	53.243
352.98	54.908
353.34	54.237
353.70	54.052
354.07	54.615
354.43	54.992
354.79	55.277
355.15	55.743
355.51	56.420
355.87	55.346
356.24	56.659
356.60	54.566
356.96	55.345
357.32	55.991
357.68	55.580
358.04	55.775
358.40	55.022
358.77	55.898
359.13	55.706
359.49	56.486
359.85	55.994
360.21	56.166
360.57	56.861
360.93	57.359
361.29	57.504
361.66	58.016
362.02	56.321
362.38	57.359
362.74	56.334
363.10	57.153
363.46	55.525
363.82	57.854
364.18	58.393
364.54	58.369
364.90	58.501
365.26	58.987
365.62	58.909
365.98	58.156
366.35	58.690
366.71	60.028
367.07	57.816
367.43	57.354
367.79	57.713
368.15	58.480
368.51	59.614
368.87	58.628
369.23	59.252
369.59	58.328
369.95	60.839
370.31	59.822
370.67	59.473
371.03	59.804
371.39	60.249
371.75	60.014
372.11	60.299
372.47	61.712
372.83	59.891
373.19	58.807
373.55	60.412
373.91	59.047
374.27	59.458
374.63	60.678
374.99	61.253
375.35	61.962
375.71	61.214
376.07	61.936
376.42	59.655
376.78	61.850
377.14	61.468
377.50	59.800
377.86	60.730
378.22	61.182
378.58	62.228
378.94	62.040
379.30	61.371
379.66	61.529
380.02	61.760
380.38	62.061
380.74	62.918
381.09	62.208
381.45	60.289
381.81	62.530
382.17	61.294
382.53	62.448
382.89	61.975
383.25	61.989
383.61	60.980
383.97	62.208
384.32	62.929
384.68	62.686
385.04	63.423
385.40	63.582
385.76	62.025
386.12	61.967
386.48	64.073
386.83	62.714
387.19	62.014
387.55	62.250
387.91	62.991
388.27	61.987
388.62	61.913
388.98	61.924
389.34	61.452
389.70	62.382
390.06	64.024
390.42	63.849
390.77	62.162
391.13	62.161
391.49	61.766
391.85	64.123
392.20	61.919
392.56	61.888
392.92	62.100
393.28	62.500
393.64	61.697
393.99	61.470
394.35	60.742
394.71	62.123
395.07	62.652
395.42	62.412
395.78	62.307
396.14	63.434
396.50	61.673
396.85	62.561
397.21	62.575
397.57	62.224
397.92	62.045
398.28	62.217
398.64	62.711
399.00	60.770
399.35	60.816
399.71	63.576
400.07	62.443
400.42	61.552
400.78	62.405
401.14	62.830
401.49	61.809
401.85	62.225
402.21	61.980
402.57	62.597
402.92	62.242
403.28	62.411
403.63	62.095
403.99	61.399
404.35	62.251
404.70	62.020
405.06	61.482
405.42	60.981
405.77	61.466
406.13	59.599
406.49	60.659
406.84	60.632
407.20	60.788
407.55	61.477
407.91	61.902
408.27	61.249
408.62	61.443
408.98	61.561
409.34	60.491
409.69	58.121
410.05	59.750
410.40	61.249
410.76	58.901
411.11	60.071
411.47	59.815
411.83	59.754
412.18	60.930
412.54	60.601
412.89	59.174
413.25	61.060
413.60	59.404
413.96	60.323
414.31	59.917
414.67	61.453
415.03	59.898
415.38	60.694
415.74	60.076
416.09	59.775
416.45	60.375
416.80	61.450
417.16	59.644
417.51	60.446
417.87	58.636
418.22	59.356
418.58	60.064
418.93	59.012
419.29	59.273
419.64	59.903
420.00	60.382
420.35	59.872
420.71	58.635
421.06	58.740
421.42	59.355
421.77	59.634
422.12	58.545
422.48	58.398
422.83	58.705
423.19	58.315
423.54	58.530
423.90	59.513
424.25	59.218
424.61	60.244
424.96	58.554
425.31	59.606
425.67	60.718
426.02	59.338
426.38	59.510
426.73	59.572
427.09	58.185
427.44	58.638
427.79	59.691
428.15	59.929
428.50	59.257
428.85	59.671
429.21	58.455
429.56	58.475
429.92	58.976
430.27	58.152
430.62	57.758
430.98	58.483
431.33	58.065
431.68	57.827
432.04	57.838
432.39	59.769
432.74	59.602
433.10	59.690
433.45	58.587
433.80	58.411
434.16	58.066
434.51	58.927
434.86	59.771
435.22	58.995
435.57	61.174
435.92	59.135
436.28	59.389
436.63	58.347
436.98	59.459
437.34	58.847
437.69	58.063
438.04	58.602
438.39	59.136
438.75	58.519
439.10	58.716
439.45	58.903
439.81	58.300
440.16	59.879
440.51	58.784
440.86	59.259
441.22	59.091
441.57	58.268
441.92	59.181
442.27	58.144
442.63	58.232
442.98	57.866
443.33	58.811
443.68	58.350
444.03	59.095
444.39	58.616
444.74	58.799
445.09	59.294
445.44	58.820
445.79	57.749
446.15	59.368
446.50	59.388
446.85	58.118
447.20	58.756
447.55	58.945
447.91	59.350
448.26	58.413
448.61	57.877
448.96	59.205
449.31	58.141
449.66	59.579
450.02	59.265
450.37	59.023
450.72	59.669
451.07	58.522
451.42	59.277
451.77	59.221
452.12	58.934
452.47	58.445
452.83	59.831
453.18	58.679
453.53	59.088
453.88	59.829
454.23	59.268
454.58	57.751
454.93	58.308
455.28	60.159
455.63	58.806
455.98	58.319
456.34	60.426
456.69	58.476
457.04	59.427
457.39	58.457
457.74	60.248
458.09	58.619
458.44	58.434
458.79	57.772
459.14	58.483
459.49	58.437
459.84	59.565
460.19	58.757
460.54	58.632
460.89	58.955
461.24	57.331
461.59	59.070
461.94	57.624
462.29	58.295
462.64	59.485
462.99	59.181
463.34	58.652
463.69	57.955
464.04	59.010
464.39	57.584
464.74	56.272
465.09	58.038
465.44	57.617
465.79	57.703
466.14	56.757
466.49	56.267
466.84	57.246
467.19	56.415
467.54	57.237
467.89	57.336
468.24	57.730
468.59	57.143
468.94	58.635
469.29	58.033
469.64	57.621
469.99	56.684
470.34	57.559
470.68	57.379
471.03	58.706
471.38	56.689
471.73	56.826
472.08	58.447
472.43	56.735
472.78	56.978
473.13	55.820
473.48	55.990
473.83	55.241
474.17	56.839
474.52	55.273
474.87	55.202
475.22	56.939
475.57	55.561
475.92	56.413
476.27	54.625
476.61	55.121
476.96	55.747
477.31	56.710
477.66	56.736
478.01	54.564
478.36	55.613
478.70	54.640
479.05	55.649
479.40	55.357
479.75	56.008
480.10	54.985
480.45	53.875
480.79	54.977
481.14	54.208
481.49	53.751
481.84	54.310
482.19	54.891
482.53	54.194
482.88	53.987
483.23	53.541
483.58	54.309
483.92	55.256
484.27	53.082
484.62	54.202
484.97	51.734
485.31	52.215
485.66	52.662
486.01	51.618
486.36	50.971
486.70	51.143
487.05	51.228
487.40	52.018
487.75	53.008
488.09	51.761
488.44	51.816
488.79	52.551
489.13	53.266
489.48	53.296
489.83	52.252
490.17	52.560
490.52	52.756
490.87	52.629
491.22	53.014
491.56	53.360
491.91	52.151
492.26	52.205
492.60	52.847
492.95	52.741
493.30	52.593
493.64	52.650
493.99	52.504
494.34	52.398
494.68	51.704
495.03	51.908
495.37	52.274
495.72	52.727
496.07	52.516
496.41	51.347
496.76	51.710
497.11	51.757
497.45	51.337
497.80	52.502
498.14	51.641
498.49	50.696
498.84	52.009
499.18	50.823
499.53	51.860
499.87	50.719
500.22	51.681
500.56	51.393
500.91	52.644
501.26	52.090
501.60	51.138
501.95	50.896
502.29	51.067
502.64	50.419
502.98	49.889
503.33	50.245
503.67	50.596
504.02	49.575
504.36	50.271
504.71	50.520
505.06	50.258
505.40	50.351
505.75	50.795
506.09	49.790
506.44	50.141
506.78	49.905
507.13	50.557
507.47	51.043
507.82	50.414
508.16	50.171
508.51	49.952
508.85	50.190
509.19	50.612
509.54	50.684
509.88	50.771
510.23	50.343
510.57	48.504
510.92	51.199
511.26	51.355
511.61	49.138
511.95	49.577
512.30	48.650
512.64	50.208
512.98	49.462
513.33	48.822
513.67	49.819
514.02	49.091
514.36	49.948
514.70	49.120
515.05	49.387
515.39	50.548
515.74	50.191
516.08	50.436
516.42	50.765
516.77	50.240
517.11	49.547
517.46	49.731
517.80	49.099
518.14	50.028
518.49	49.173
518.83	48.352
519.17	49.362
519.52	48.334
519.86	49.373
520.20	48.712
520.55	47.315
520.89	49.023
521.23	49.416
521.58	49.512
521.92	49.271
522.26	49.230
522.61	49.198
522.95	49.910
523.29	48.772
523.64	48.092
523.98	49.002
524.32	47.693
524.66	48.174
525.01	47.929
525.35	47.731
525.69	49.669
526.04	48.662
526.38	47.969
526.72	47.852
527.06	46.541
527.41	48.549
527.75	47.231
528.09	48.224
528.43	48.261
528.78	48.539
529.12	47.983
529.46	47.458
529.80	47.664
530.15	47.378
530.49	47.353
530.83	47.288
531.17	47.540
531.51	46.107
531.86	48.007
532.20	46.663
532.54	47.709
532.88	48.782
533.22	47.471
533.57	47.285
533.91	46.620
534.25	45.586
534.59	46.550
534.93	44.710
535.27	45.646
535.62	45.741
535.96	45.508
536.30	47.044
536.64	45.280
536.98	46.633
537.32	46.375
537.66	44.834
538.01	45.882
538.35	46.475
538.69	45.328
539.03	45.585
539.37	45.146
539.71	45.494
540.05	45.231
540.39	46.164
540.73	45.443
541.07	45.734
541.42	45.398
541.76	46.301
542.10	45.191
542.44	45.449
542.78	45.563
543.12	44.908
543.46	45.301
543.80	45.363
544.14	44.706
544.48	44.769
544.82	45.076
545.16	44.687
545.50	45.544
545.84	45.581
546.18	46.229
546.52	45.115
546.86	44.681
547.20	44.186
547.54	44.269
547.88	43.491
548.22	43.291
548.56	43.724
548.90	42.408
549.24	44.978
549.58	42.848
549.92	44.204
550.26	45.233
550.60	43.513
550.94	43.894
551.28	44.897
551.62	44.690
551.96	43.108
552.30	42.782
552.64	43.236
552.98	42.075
553.32	42.702
553.66	43.713
554.00	42.471
554.34	43.542
554.68	44.220
555.02	43.992
555.36	44.082
555.69	41.754
556.03	42.611
556.37	43.212
556.71	43.742
557.05	41.284
557.39	42.933
557.73	43.733
558.07	43.595
558.41	42.838
558.75	43.092
559.08	45.104
559.42	43.808
559.76	43.478
560.10	41.363
560.44	41.938
560.78	42.839
561.12	42.022
561.45	41.740
561.79	41.323
562.13	42.262
562.47	42.245
562.81	41.900
563.15	41.500
563.48	40.745
563.82	42.545
564.16	41.915
564.50	40.808
564.84	40.912
565.17	40.345
565.51	42.488
565.85	42.998
566.19	41.726
566.52	41.757
566.86	41.565
567.20	40.843
567.54	40.666
567.88	40.532
568.21	39.191
568.55	39.786
568.89	39.142
569.23	39.689
569.56	38.458
569.90	38.663
570.24	38.705
570.57	37.476
570.91	38.003
571.25	37.604
571.59	37.225
571.92	37.110
572.26	36.981
572.60	36.129
572.93	37.148
573.27	37.536
573.61	36.762
573.95	37.226
574.28	37.567
574.62	36.353
574.96	36.166
575.29	35.816
575.63	36.490
575.97	35.979
576.30	35.915
576.64	36.463
576.98	35.872
577.31	36.417
577.65	36.193
577.98	35.405
578.32	35.461
578.66	35.731
578.99	36.186
579.33	35.837
579.67	36.026
580.00	35.795
580.34	35.941
580.67	35.570
581.01	35.945
581.35	35.460
581.68	35.190
582.02	34.912
582.35	35.252
582.69	34.825
583.02	35.541
583.36	35.794
583.70	35.578
584.03	36.266
584.37	35.714
584.70	35.705
585.04	35.332
585.37	35.054
585.71	35.730
586.04	35.270
586.38	34.929
586.72	34.878
587.05	36.001
587.39	35.980
587.72	35.716
588.06	35.883
588.39	35.210
588.73	35.467
589.06	35.570
589.40	36.244
589.73	35.365
590.07	36.822
590.40	36.969
590.73	36.687
591.07	36.812
591.40	35.689
591.74	36.810
592.07	35.857
592.41	36.131
592.74	36.031
593.08	34.766
593.41	34.800
593.75	34.788
594.08	34.863
594.41	34.995
594.75	35.171
595.08	35.185
595.42	35.550
595.75	35.505
596.09	35.662
596.42	35.652
596.75	36.098
597.09	35.947
597.42	34.408
597.75	35.416
598.09	35.494
598.42	35.047
598.76	34.657
599.09	34.829
599.42	34.740
599.76	34.498
600.09	34.610
600.42	34.634
600.76	34.908
601.09	34.553
601.42	34.671
601.76	34.443
602.09	34.511
602.42	34.159
602.76	34.535
603.09	34.766
603.42	34.679
603.76	34.020
604.09	34.274
604.42	34.200
604.76	34.334
605.09	34.735
605.42	34.214
605.75	35.176
606.09	34.009
606.42	34.386
606.75	34.201
607.09	34.505
607.42	33.748
607.75	34.116
608.08	33.672
608.42	34.815
608.75	33.419
609.08	33.788
609.41	34.591
609.75	34.615
610.08	34.982
610.41	34.343
610.74	33.853
611.07	34.834
611.41	34.198
611.74	33.748
612.07	34.249
612.40	34.503
612.73	34.498
613.07	34.263
613.40	34.236
613.73	35.297
614.06	33.700
614.39	33.889
614.72	34.907
615.06	33.927
615.39	34.158
615.72	33.349
616.05	34.254
616.38	34.855
616.71	34.400
617.05	35.365
617.38	34.213
617.71	35.208
618.04	34.268
618.37	34.908
618.70	33.603
619.03	34.554
619.36	35.176
619.69	34.169
620.03	35.486
620.36	34.875
620.69	35.504
621.02	35.870
621.35	33.453
621.68	35.767
622.01	35.203
622.34	33.940
622.67	34.551
623.00	33.969
623.33	35.290
623.66	34.731
623.99	35.068
624.32	34.824
624.65	33.509
624.99	34.821
625.32	35.337
625.65	33.448
625.98	33.821
626.31	35.460
626.64	34.928
626.97	34.889
627.30	34.550
627.63	35.086
627.96	35.055
628.29	35.479
628.62	33.276
628.95	34.840
629.28	37.423
629.61	35.677
629.94	33.794
630.26	35.442
630.59	35.372
630.92	35.157
631.25	34.723
631.58	35.198
631.91	35.300
632.24	34.208
632.57	35.953
632.90	36.646
633.23	35.677
633.56	36.249
633.89	35.048
634.22	35.199
634.55	36.559
634.88	34.940
635.20	37.220
635.53	37.166
635.86	36.242
636.19	36.364
636.52	35.892
636.85	34.951
637.18	35.320
637.51	35.084
637.83	35.698
638.16	36.342
638.49	37.365
638.82	36.268
639.15	35.840
639.48	35.545
639.81	34.432
640.13	34.847
640.46	35.904
640.79	36.931
641.12	34.121
641.45	36.611
641.77	38.970
642.10	35.743
642.43	38.122
642.76	35.795
643.09	36.023
643.41	37.447
643.74	38.273
644.07	37.316
644.40	37.426
644.73	37.237
645.05	36.404
645.38	36.907
645.71	37.026
646.04	36.336
646.36	36.150
646.69	35.680
647.02	35.840
647.35	35.748
647.67	37.277
648.00	35.831
648.33	34.887
648.66	37.727
648.98	34.638
649.31	35.762
649.64	33.887
649.96	33.001
650.29	35.286
650.62	37.408
650.94	36.446
651.27	38.596
651.60	35.055
651.92	36.252
652.25	37.323
652.58	35.887
652.90	36.228
653.23	34.712
653.56	33.976
653.88	36.711
654.21	35.191
654.54	36.457
654.86	36.726
655.19	34.960
655.52	30.409
655.84	26.040
656.17	30.688
656.49	43.703
656.82	49.835
657.15	39.399
657.47	29.479
657.80	22.407
658.13	17.652
658.45	23.721
658.78	28.464
659.10	28.799
659.43	28.369
659.75	29.535
660.08	30.263
660.41	31.760
660.73	35.132
661.06	35.886
661.38	36.797
661.71	36.871
662.03	35.932
662.36	38.667
662.68	34.078
663.01	36.937
663.33	35.472
663.66	38.462
663.98	38.889
664.31	38.993
664.63	36.973
664.96	38.086
665.28	34.275
665.61	34.528
665.93	38.113
666.26	35.327
666.58	37.248
666.91	35.714
667.23	34.137
667.56	38.604
667.88	38.382
668.21	36.680
668.53	35.685
668.86	37.475
669.18	38.493
669.50	35.124
669.83	38.193
670.15	36.383
670.48	33.984
670.80	36.653
671.13	37.251
671.45	37.876
671.77	35.807
672.10	34.111
672.42	34.704
672.75	36.076
673.07	33.386
673.39	31.629
673.72	33.564
674.04	34.229
674.37	37.205
674.69	35.316
675.01	35.448
675.34	34.302
675.66	37.109
675.98	33.531
676.31	36.400
676.63	34.195
676.95	33.730
677.28	34.483
677.60	33.803
677.92	35.119
678.25	34.496
678.57	35.940
678.89	33.273
679.22	34.743
679.54	33.986
679.86	35.079
680.18	31.634
680.51	31.675
680.83	30.912
681.15	33.969
681.48	33.854
681.80	34.676
682.12	34.256
682.44	32.973
682.77	33.808
683.09	36.505
683.41	35.102
683.73	35.433
684.06	33.333
684.38	36.434
684.70	32.554
685.02	30.903
685.34	33.979
685.67	34.084
685.99	32.841
686.31	31.433
686.63	33.984
686.96	33.170
687.28	32.047
687.60	33.106
687.92	32.663
688.24	32.586
688.56	31.851
688.89	32.505
689.21	34.297
689.53	36.759
689.85	31.098
690.17	34.369
690.49	35.484
690.82	33.613
691.14	32.727
691.46	34.908
691.78	34.698
692.10	34.733
692.42	32.849
692.74	32.946
693.06	34.884
693.39	31.423
693.71	32.809
694.03	32.347
694.35	35.542
694.67	32.587
694.99	35.255
695.31	34.685
695.63	32.353
695.95	35.068
696.27	37.389
696.59	35.561
696.91	32.405
697.23	35.747
697.56	29.876
697.88	30.539
698.20	33.585
698.52	30.545
698.84	30.801
699.16	35.394
699.48	35.805
699.80	36.819
700.12	36.028
700.44	33.879
700.76	34.368
701.08	36.292
701.40	36.104
701.72	37.433
702.04	39.024
702.36	37.634
702.68	36.968
703.00	34.336
703.32	38.213
703.64	33.249
703.96	34.635
704.28	33.069
704.60	38.310
704.91	35.294
705.23	37.216
705.55	38.279
705.87	32.381
706.19	36.050
706.51	40.125
706.83	36.578
707.15	35.561
707.47	35.109
707.79	36.552
708.11	33.560
708.43	34.607
708.74	29.412
709.06	32.558
709.38	35.484
709.70	33.243
710.02	32.609
710.34	33.149
710.66	35.556
710.98	36.066
711.29	32.312
711.61	40.390
711.93	36.474
712.25	35.843
712.57	37.299
712.89	39.091
713.20	39.936
713.52	35.514
713.84	37.764
714.16	34.203
714.48	31.124
714.80	35.501
715.11	33.511
715.43	34.358
715.75	34.930
716.07	36.127
716.39	36.857
716.70	34.268
717.02	38.721
717.34	39.928
717.66	38.542
717.97	42.045
718.29	38.732
718.61	30.068
718.93	34.948
719.24	35.570
719.56	37.586
719.88	35.350
720.20	36.129
720.51	35.621
720.83	36.789
721.15	39.456
721.46	37.671
721.78	39.373
722.10	35.069
722.42	41.472
722.73	34.657
723.05	37.895
723.37	38.163
723.68	32.812
724.00	37.879
724.32	39.163
724.63	33.077
724.95	40.784
725.27	35.688
725.58	41.544
725.90	33.803
726.22	32.877
726.53	36.120
726.85	40.065
727.16	37.248
727.48	34.551
727.80	37.050
728.11	38.571
728.43	35.870
728.74	40.210
729.06	36.201
729.38	38.246
729.69	37.333
730.01	34.868
730.32	37.584
730.64	39.203
730.96	32.132
731.27	33.028
731.59	30.747
731.90	31.476
732.22	36.000
732.53	32.764
732.85	36.550
733.16	34.940
733.48	36.991
733.80	32.174
734.11	35.890
734.43	32.164
734.74	34.048
735.06	32.275
735.37	29.124
735.69	32.754
736.00	35.168
736.32	29.091
736.63	32.808
736.95	33.230
737.26	33.232
737.58	34.969
737.89	31.627
738.21	31.788
738.52	37.124
738.83	34.799
739.15	33.101
739.46	33.448
739.78	36.054
740.09	34.985
740.41	34.049
740.72	35.873
741.04	38.112
741.35	42.187
741.66	38.340
741.98	39.485
742.29	38.889
742.61	38.938
742.92	35.169
743.23	37.200
743.55	30.566
743.86	33.725
744.18	33.051
744.49	36.364
744.80	40.092
745.12	40.179
745.43	40.654
745.74	44.444
746.06	37.281
746.37	35.814
746.68	38.496
747.00	38.117
747.31	38.655
747.62	32.787
747.94	40.343
748.25	33.852
748.56	39.407
748.88	37.500
749.19	33.488
749.50	37.443
749.82	37.449
750.13	39.921
750.44	33.333
750.75	33.893
751.07	33.224
751.38	34.983
751.69	35.690
752.01	33.916
752.32	34.219
752.63	34.899
752.94	35.315
753.26	36.328
753.57	37.354
753.88	31.835
754.19	33.935
754.51	35.880
754.82	37.584
755.13	35.135
755.44	37.407
755.75	37.457
756.07	34.932
756.38	32.680
756.69	32.500
757.00	35.312
757.31	31.549
757.63	34.435
757.94	34.043
758.25	27.778
758.56	29.748
758.87	30.576
759.18	31.395
759.50	30.395
759.81	31.454
760.12	31.461
760.43	33.053
760.74	31.646
761.05	32.891
761.36	34.115
761.67	32.075
761.99	31.268
762.30	31.833
762.61	33.333
762.92	34.091
763.23	34.340
763.54	33.846
763.85	30.350
764.16	37.847
764.47	33.446
764.78	31.270
765.10	34.756
765.41	34.091
765.72	30.387
766.03	31.722
766.34	31.010
766.65	38.403
766.96	37.247
767.27	38.318
767.58	41.584
767.89	35.912
768.20	49.390
768.51	37.245
768.82	40.351
769.13	36.078
769.44	36.842
769.75	33.333
770.06	35.294
770.37	28.947
770.68	34.222
770.99	36.017
771.30	38.912
771.61	38.077
771.92	36.641
772.23	36.694
772.54	39.111
772.85	39.109
773.16	34.783
773.47	37.778
773.78	41.584
774.09	40.909
774.39	41.212
774.70	38.235
775.01	40.789
775.32	42.857
775.63	46.575
775.94	50.617
776.25	51.724
776.56	45.802
776.87	45.802
777.18	39.394
777.48	54.331
777.79	46.154
778.10	42.424
778.41	47.015
778.72	45.113
779.03	39.744
779.34	41.892
779.65	36.646
779.95	52.795
780.26	39.881
780.57	49.660
780.88	45.390
781.19	47.500
781.50	34.911
781.80	46.448
782.11	35.450
782.42	39.080
782.73	40.678
783.04	41.935
783.34	34.884
783.65	41.497
783.96	47.097
784.27	45.695
784.57	40.132
784.88	42.754
785.19	38.333
785.50	45.690
785.81	50.388
786.11	56.296
786.42	46.457
786.73	53.153
787.04	52.830
787.34	43.089
787.65	54.545
787.96	53.030
788.26	53.543
788.57	56.204
788.88	36.620
789.19	41.985
789.49	52.027
789.80	39.844
790.11	47.934
790.41	46.296
790.72	46.296
791.03	55.769
791.33	52.525
791.64	56.842
791.95	53.684
792.25	55.208
792.56	50.000
792.87	68.293
793.17	57.955
793.48	69.412
793.79	63.218
794.09	55.682
794.40	64.655
794.70	49.206
795.01	43.077
795.32	44.275
795.62	47.863
795.93	59.664
796.23	54.472
796.54	60.204
796.85	47.727
797.15	66.234
797.46	68.293
797.76	67.500
798.07	56.000
798.37	58.750
798.68	67.500
798.99	58.537
799.29	56.000
799.60	45.349
799.90	63.158
800.21	65.152
800.51	74.648
800.82	65.517
801.12	60.000
801.43	78.667
801.73	72.414
802.04	59.740
802.34	76.712
802.65	90.196
802.95	82.609
803.26	87.097
803.56	96.667
803.87	76.119
804.17	73.016
804.48	86.792
804.78	66.667
805.09	78.788
805.39	77.778
805.70	85.965
806.00	70.000
806.30	76.563
806.61	63.529
806.91	56.667
807.22	47.826
807.52	44.737
807.83	68.421
808.13	69.565
808.43	67.742
808.74	64.384
809.04	73.214
809.35	76.471
809.65	66.667
809.95	78.431
810.26	90.741
810.56	90.625
810.86	112.245
811.17	80.702
811.47	95.652
811.77	74.138
812.08	63.793
812.38	102.381
812.69	85.714
812.99	64.444
813.29	108.571
813.59	122.581
813.90	68.966
814.20	91.803
814.50	78.000
814.81	70.175
815.11	88.889
815.41	60.714
815.72	78.571
816.02	84.000
816.32	85.366
816.62	93.103
816.93	142.424
817.23	121.951
817.53	92.857
817.84	86.667
818.14	80.952
818.44	100.000
818.74	116.981
819.04	66.667
819.35	112.121
819.65	109.615
819.95	94.444
820.25	104.255
820.56	132.432
820.86	100.000
821.16	72.340
821.46	126.316
821.76	89.091
822.07	80.952
822.37	107.895
822.67	127.907
822.97	68.421
823.27	106.522
823.57	125.000
823.88	92.308
824.18	87.879
824.48	152.174
824.78	100.000
825.08	121.739
825.38	144.828
825.69	117.647
825.99	95.745
826.29	88.889
826.59	137.143
826.89	120.000
827.19	131.429
827.49	135.484
827.79	157.692
828.09	90.476
828.39	80.556
828.70	78.378
829.00	153.571
829.30	225.000
829.60	133.333
829.90	135.484
830.20	96.970
830.50	137.838
830.80	129.167
831.10	165.385
831.40	152.381
831.70	208.333
832.00	130.000
832.30	147.826
832.60	162.500
832.90	157.576
833.20	205.000
833.50	113.158
833.80	135.294
834.10	102.632
834.40	147.368
834.70	136.667
835.00	172.000
835.30	86.486
835.60	128.125
835.90	124.324
836.20	146.154
836.50	168.182
836.80	117.073
837.10	139.130
837.40	276.923
837.70	84.211
838.00	123.333
838.30	179.167
838.60	168.000
838.90	250.000
839.19	137.500
839.49	140.000
839.79	141.379
840.09	180.769
840.39	186.667
840.69	184.211
840.99	128.571
841.29	173.913
841.59	190.000
841.88	176.000
842.18	355.556
842.48	171.429
842.78	162.963
843.08	230.769
843.38	172.727
843.68	278.571
843.97	600.000
844.27	134.783
844.57	1350.000
844.87	321.429
845.17	216.667
845.47	190.476
845.76	170.833
846.06	571.429
846.36	211.765
846.66	253.846
846.96	218.750
847.25	223.077
847.55	173.684
847.85	172.222
848.15	580.000
848.44	236.364
848.74	138.095
849.04	154.167
849.34	217.647
849.63	168.750
849.93	231.250
850.23	833.333
850.53	350.000
850.82	300.000
851.12	235.294
851.42	191.667
851.71	218.750
852.01	0.000
852.31	158.824
852.61	430.000
852.90	166.667
853.20	311.111
853.50	-1900.000
853.79	160.000
854.09	146.875
854.39	113.793
854.68	168.966
854.98	185.714
855.28	103.226
855.57	300.000
855.87	183.333
856.17	137.037
856.46	168.421
856.76	129.032
857.05	188.235
857.35	363.636
857.65	315.385
857.94	180.000
858.24	355.556
858.53	264.286
858.83	557.143
859.13	182.609
859.42	255.556
859.72	312.500
860.01	283.333
860.31	925.000
860.60	330.000
860.90	387.500
861.20	230.769
861.49	400.000
861.79	-1900.000
862.08	500.000
862.38	388.889
862.67	235.714
862.97	290.000
863.26	153.333
863.56	725.000
863.85	284.615
864.15	223.529
864.44	200.000
864.74	275.000
865.03	300.000
865.33	275.000
865.62	240.000
865.92	733.333
866.21	750.000
866.51	540.000
866.80	255.556
867.10	1100.000
867.39	3100.000
867.69	700.000
867.98	850.000
868.27	180.952
868.57	213.333
868.86	875.000
869.16	180.952
869.45	3900.000
869.75	-516.667
870.04	800.000
870.33	560.000
870.63	400.000
870.92	217.647
871.22	825.000
871.51	357.143
871.80	316.667
872.10	338.462
>>>>>End Processed Spectral Data<<<<<
