SpectraSuite Data File
++++++++++++++++++++++++++++++++++++
Date: Tue May 12 15:23:11 PDT 2015
User: schluterlab
Dark Spectrum Present: Yes
Reference Spectrum Present: Yes
Number of Sampled Component Spectra: 1
Spectrometers: USB2E3373
Integration Time (usec): 3000 (USB2E3373)
Spectra Averaged: 3 (USB2E3373)
Boxcar Smoothing: 0 (USB2E3373)
Correct for Electrical Dark: No (USB2E3373)
Strobe/Lamp Enabled: No (USB2E3373)
Correct for Detector Non-linearity: No (USB2E3373)
Correct for Stray Light: No (USB2E3373)
Number of Pixels in Processed Spectrum: 2048
>>>>>Begin Processed Spectral Data<<<<<
178.53	0.000
178.91	-283.333
179.29	-675.000
179.67	-2800.000
180.04	-186.667
180.42	825.000
180.80	1700.000
181.18	0.000
181.56	-225.000
181.94	0.000
182.31	1200.000
182.69	-3200.000
183.07	542.857
183.45	-3400.000
183.83	-1650.000
184.20	380.000
184.58	485.714
184.96	-238.462
185.34	-216.667
185.72	1350.000
186.09	-800.000
186.47	-3100.000
186.85	966.667
187.23	620.000
187.61	1800.000
187.98	487.500
188.36	292.857
188.74	300.000
189.12	341.667
189.49	800.000
189.87	0.000
190.25	475.000
190.63	3100.000
191.00	-283.333
191.38	-3100.000
191.76	-625.000
192.14	550.000
192.51	-1900.000
192.89	1700.000
193.27	1066.667
193.65	-900.000
194.02	-660.000
194.40	542.857
194.78	-150.000
195.15	306.667
195.53	-2500.000
195.91	-520.000
196.29	4100.000
196.66	262.500
197.04	1000.000
197.42	-1700.000
197.79	525.000
198.17	375.000
198.55	0.000
198.92	514.286
199.30	900.000
199.68	1850.000
200.05	633.333
200.43	-433.333
200.81	200.000
201.18	2600.000
201.56	275.000
201.94	-675.000
202.31	-287.500
202.69	-460.000
203.07	3300.000
203.44	-450.000
203.82	275.000
204.19	720.000
204.57	-1150.000
204.95	-875.000
205.32	-660.000
205.70	516.667
206.08	725.000
206.45	-866.667
206.83	322.222
207.20	205.263
207.58	291.667
207.96	480.000
208.33	0.000
208.71	628.571
209.08	520.000
209.46	-2800.000
209.84	-625.000
210.21	820.000
210.59	-520.000
210.96	341.667
211.34	-825.000
211.71	363.636
212.09	975.000
212.46	1600.000
212.84	-450.000
213.22	388.889
213.59	-3000.000
213.97	320.000
214.34	900.000
214.72	1000.000
215.09	1066.667
215.47	-2700.000
215.84	-330.000
216.22	-425.000
216.59	0.000
216.97	0.000
217.34	1500.000
217.72	-1550.000
218.09	1066.667
218.47	362.500
218.84	950.000
219.22	900.000
219.59	1000.000
219.97	557.143
220.34	433.333
220.72	2000.000
221.09	3200.000
221.47	200.000
221.84	1400.000
222.22	300.000
222.59	261.111
222.97	250.000
223.34	212.500
223.72	-1500.000
224.09	1266.667
224.46	230.769
224.84	-625.000
225.21	344.444
225.59	240.000
225.96	1466.667
226.34	-620.000
226.71	-750.000
227.08	-420.000
227.46	0.000
227.83	-666.667
228.21	-1800.000
228.58	358.333
228.95	825.000
229.33	344.444
229.70	1050.000
230.08	323.077
230.45	3000.000
230.82	-975.000
231.20	-800.000
231.57	-1100.000
231.95	500.000
232.32	316.667
232.69	350.000
233.07	291.667
233.44	-1700.000
233.81	180.000
234.19	148.148
234.56	175.000
234.93	200.000
235.31	160.000
235.68	243.750
236.05	157.143
236.43	122.222
236.80	257.143
237.17	144.828
237.55	109.375
237.92	100.000
238.29	136.364
238.67	96.875
239.04	100.000
239.41	79.167
239.79	85.000
240.16	85.417
240.53	67.213
240.91	68.116
241.28	74.576
241.65	74.242
242.02	71.831
242.40	60.000
242.77	57.143
243.14	53.165
243.51	68.687
243.89	42.056
244.26	51.402
244.63	42.574
245.00	45.872
245.38	38.983
245.75	45.455
246.12	51.852
246.49	46.099
246.87	34.426
247.24	46.667
247.61	40.625
247.98	47.619
248.36	43.030
248.73	47.959
249.10	41.071
249.47	42.500
249.84	38.806
250.22	41.622
250.59	36.500
250.96	35.443
251.33	38.605
251.70	34.375
252.08	38.655
252.45	31.474
252.82	34.221
253.19	33.202
253.56	33.462
253.94	35.507
254.31	34.496
254.68	35.889
255.05	35.172
255.42	33.942
255.79	32.573
256.16	34.576
256.54	33.117
256.91	32.026
257.28	31.438
257.65	30.094
258.02	32.153
258.39	31.519
258.76	31.884
259.14	27.143
259.51	33.528
259.88	31.611
260.25	28.846
260.62	32.055
260.99	27.273
261.36	32.869
261.73	27.660
262.10	31.937
262.47	31.000
262.85	26.400
263.22	29.563
263.59	29.156
263.96	33.835
264.33	26.667
264.70	31.450
265.07	28.537
265.44	29.128
265.81	28.066
266.18	29.291
266.55	27.660
266.92	27.293
267.29	27.193
267.66	27.354
268.03	27.354
268.40	24.736
268.77	28.194
269.14	26.681
269.51	27.617
269.88	28.367
270.25	25.486
270.62	28.755
270.99	27.992
271.36	26.016
271.73	26.205
272.10	28.687
272.47	25.198
272.84	26.547
273.21	27.066
273.58	26.316
273.95	24.435
274.32	24.903
274.69	26.378
275.06	26.776
275.43	26.437
275.80	27.547
276.17	25.735
276.54	27.477
276.91	27.052
277.28	25.912
277.65	24.908
278.02	26.654
278.39	26.978
278.76	25.862
279.13	25.623
279.50	25.636
279.87	25.140
280.23	24.125
280.60	26.277
280.97	26.207
281.34	24.587
281.71	26.609
282.08	25.128
282.45	25.338
282.82	25.753
283.19	23.847
283.56	24.132
283.92	26.059
284.29	26.789
284.66	23.529
285.03	24.876
285.40	23.636
285.77	24.383
286.14	24.149
286.51	24.693
286.87	26.108
287.24	23.574
287.61	24.316
287.98	25.224
288.35	24.000
288.72	26.404
289.08	25.826
289.45	26.220
289.82	25.469
290.19	24.744
290.56	26.638
290.93	25.180
291.29	25.276
291.66	25.282
292.03	24.264
292.40	25.881
292.77	24.095
293.13	25.535
293.50	24.966
293.87	25.068
294.24	26.713
294.60	26.918
294.97	26.993
295.34	26.959
295.71	26.938
296.08	27.733
296.44	26.175
296.81	25.062
297.18	25.982
297.55	26.232
297.91	26.724
298.28	26.570
298.65	26.135
299.02	26.900
299.38	26.019
299.75	26.220
300.12	25.573
300.48	27.518
300.85	29.201
301.22	25.581
301.59	26.887
301.95	27.305
302.32	27.823
302.69	27.941
303.05	29.293
303.42	25.785
303.79	26.002
304.15	28.053
304.52	27.061
304.89	26.119
305.25	28.031
305.62	29.531
305.99	25.978
306.35	27.474
306.72	28.304
307.09	28.778
307.45	27.138
307.82	27.572
308.19	29.278
308.55	27.300
308.92	28.263
309.29	29.290
309.65	29.039
310.02	31.034
310.38	29.013
310.75	29.219
311.12	28.544
311.48	30.405
311.85	29.008
312.22	30.277
312.58	27.697
312.95	29.806
313.31	29.307
313.68	31.144
314.05	29.670
314.41	31.378
314.78	31.250
315.14	31.185
315.51	31.031
315.87	31.478
316.24	30.532
316.61	30.886
316.97	29.908
317.34	31.806
317.70	32.572
318.07	32.206
318.43	33.128
318.80	32.662
319.16	33.042
319.53	32.920
319.89	33.333
320.26	34.637
320.62	33.150
320.99	33.746
321.35	34.508
321.72	36.338
322.08	36.380
322.45	34.787
322.81	34.858
323.18	35.879
323.54	36.498
323.91	36.174
324.27	35.986
324.64	35.467
325.00	36.293
325.37	35.919
325.73	36.847
326.10	37.034
326.46	37.737
326.83	37.200
327.19	38.394
327.56	37.220
327.92	38.607
328.29	37.234
328.65	37.842
329.01	37.382
329.38	38.832
329.74	38.343
330.11	37.967
330.47	38.960
330.84	38.136
331.20	38.071
331.56	38.601
331.93	38.494
332.29	37.670
332.66	37.755
333.02	37.199
333.38	38.743
333.75	39.033
334.11	38.674
334.48	38.205
334.84	37.331
335.20	36.869
335.57	36.860
335.93	37.763
336.29	36.816
336.66	38.851
337.02	37.382
337.38	36.887
337.75	37.416
338.11	38.397
338.47	37.680
338.84	35.817
339.20	36.364
339.56	37.258
339.93	37.375
340.29	35.798
340.65	38.474
341.02	36.846
341.38	36.700
341.74	36.379
342.11	36.144
342.47	36.423
342.83	37.818
343.20	37.591
343.56	35.028
343.92	36.086
344.28	35.407
344.65	35.860
345.01	34.921
345.37	34.776
345.73	35.952
346.10	36.494
346.46	36.842
346.82	34.645
347.19	35.626
347.55	36.144
347.91	36.027
348.27	35.554
348.63	36.551
349.00	36.862
349.36	36.265
349.72	37.003
350.08	35.870
350.45	35.872
350.81	35.398
351.17	35.285
351.53	36.413
351.89	35.043
352.26	34.769
352.62	36.425
352.98	37.883
353.34	36.055
353.70	35.321
354.07	36.000
354.43	36.022
354.79	35.611
355.15	35.375
355.51	35.272
355.87	35.843
356.24	38.029
356.60	36.682
356.96	35.633
357.32	35.494
357.68	35.903
358.04	35.562
358.40	35.982
358.77	36.739
359.13	35.435
359.49	36.101
359.85	35.592
360.21	35.587
360.57	35.036
360.93	36.219
361.29	37.085
361.66	36.614
362.02	36.009
362.38	35.714
362.74	35.810
363.10	35.835
363.46	36.188
363.82	36.886
364.18	36.415
364.54	37.124
364.90	37.550
365.26	37.335
365.62	36.464
365.98	35.169
366.35	34.966
366.71	35.253
367.07	36.246
367.43	36.602
367.79	36.104
368.15	35.278
368.51	35.906
368.87	36.549
369.23	37.076
369.59	36.413
369.95	36.434
370.31	36.140
370.67	35.808
371.03	36.555
371.39	37.604
371.75	35.171
372.11	36.778
372.47	36.096
372.83	36.914
373.19	36.600
373.55	36.495
373.91	35.497
374.27	35.119
374.63	35.525
374.99	36.995
375.35	36.492
375.71	38.061
376.07	36.273
376.42	36.445
376.78	36.930
377.14	37.025
377.50	35.955
377.86	36.259
378.22	37.233
378.58	37.167
378.94	35.908
379.30	36.082
379.66	36.243
380.02	35.894
380.38	35.422
380.74	36.851
381.09	36.157
381.45	36.705
381.81	35.993
382.17	36.386
382.53	36.593
382.89	35.955
383.25	36.294
383.61	35.562
383.97	35.993
384.32	36.227
384.68	36.185
385.04	36.811
385.40	36.062
385.76	35.284
386.12	35.807
386.48	36.109
386.83	36.186
387.19	36.042
387.55	35.925
387.91	36.605
388.27	36.288
388.62	36.678
388.98	35.160
389.34	34.503
389.70	35.377
390.06	36.220
390.42	35.965
390.77	35.749
391.13	35.727
391.49	35.814
391.85	35.815
392.20	35.757
392.56	35.603
392.92	34.419
393.28	35.034
393.64	34.633
393.99	34.677
394.35	34.255
394.71	35.585
395.07	35.827
395.42	35.422
395.78	35.595
396.14	35.542
396.50	35.259
396.85	34.451
397.21	35.078
397.57	34.489
397.92	33.333
398.28	34.915
398.64	35.079
399.00	34.099
399.35	34.461
399.71	35.155
400.07	34.589
400.42	34.866
400.78	34.839
401.14	34.469
401.49	34.101
401.85	34.473
402.21	33.626
402.57	34.530
402.92	34.182
403.28	34.368
403.63	33.961
403.99	33.896
404.35	33.353
404.70	35.204
405.06	33.745
405.42	34.231
405.77	33.738
406.13	32.646
406.49	33.371
406.84	33.051
407.20	33.505
407.55	33.169
407.91	33.886
408.27	34.324
408.62	33.530
408.98	33.944
409.34	32.963
409.69	33.230
410.05	32.856
410.40	33.098
410.76	32.341
411.11	32.287
411.47	32.716
411.83	32.806
412.18	32.911
412.54	33.634
412.89	31.681
413.25	33.124
413.60	32.535
413.96	32.675
414.31	32.645
414.67	33.085
415.03	32.759
415.38	33.754
415.74	32.975
416.09	33.292
416.45	34.131
416.80	33.740
417.16	33.482
417.51	32.739
417.87	33.792
418.22	33.779
418.58	32.803
418.93	33.314
419.29	32.532
419.64	32.707
420.00	33.592
420.35	33.333
420.71	33.314
421.06	33.431
421.42	33.621
421.77	33.481
422.12	33.627
422.48	32.255
422.83	33.705
423.19	33.153
423.54	33.242
423.90	34.938
424.25	33.847
424.61	34.243
424.96	34.218
425.31	33.716
425.67	34.400
426.02	33.932
426.38	34.306
426.73	33.719
427.09	34.460
427.44	33.821
427.79	35.392
428.15	35.415
428.50	35.371
428.85	35.567
429.21	34.630
429.56	34.995
429.92	35.455
430.27	35.510
430.62	33.921
430.98	33.932
431.33	34.627
431.68	34.123
432.04	34.506
432.39	34.742
432.74	35.422
433.10	35.714
433.45	35.325
433.80	36.349
434.16	34.472
434.51	35.965
434.86	35.765
435.22	35.710
435.57	35.803
435.92	35.629
436.28	36.406
436.63	36.197
436.98	36.937
437.34	38.242
437.69	36.114
438.04	35.699
438.39	36.778
438.75	36.414
439.10	35.942
439.45	36.122
439.81	36.842
440.16	36.874
440.51	35.642
440.86	37.151
441.22	36.742
441.57	36.273
441.92	36.180
442.27	35.928
442.63	36.484
442.98	37.015
443.33	36.636
443.68	36.972
444.03	36.381
444.39	37.053
444.74	36.335
445.09	36.546
445.44	37.460
445.79	38.743
446.15	37.368
446.50	36.445
446.85	37.301
447.20	36.617
447.55	36.977
447.91	38.093
448.26	37.593
448.61	38.364
448.96	38.072
449.31	37.679
449.66	38.206
450.02	37.439
450.37	38.645
450.72	37.245
451.07	37.638
451.42	38.174
451.77	37.801
452.12	38.911
452.47	38.214
452.83	37.465
453.18	38.559
453.53	39.136
453.88	38.286
454.23	38.408
454.58	37.587
454.93	37.400
455.28	38.800
455.63	39.066
455.98	38.127
456.34	37.264
456.69	38.354
457.04	39.499
457.39	37.829
457.74	38.626
458.09	38.574
458.44	38.061
458.79	37.931
459.14	38.025
459.49	38.448
459.84	39.130
460.19	38.531
460.54	37.949
460.89	38.913
461.24	38.144
461.59	38.322
461.94	37.766
462.29	38.043
462.64	38.568
462.99	37.428
463.34	39.987
463.69	39.443
464.04	39.551
464.39	38.409
464.74	37.222
465.09	38.944
465.44	37.976
465.79	37.833
466.14	37.361
466.49	37.710
466.84	37.625
467.19	38.254
467.54	37.898
467.89	37.969
468.24	37.522
468.59	38.214
468.94	38.043
469.29	38.668
469.64	38.778
469.99	38.817
470.34	38.393
470.68	38.276
471.03	39.226
471.38	38.411
471.73	38.472
472.08	39.074
472.43	39.665
472.78	38.412
473.13	38.048
473.48	38.264
473.83	39.517
474.17	38.663
474.52	38.507
474.87	38.090
475.22	38.093
475.57	37.566
475.92	37.609
476.27	37.214
476.61	37.641
476.96	37.565
477.31	38.046
477.66	38.486
478.01	37.648
478.36	38.157
478.70	37.767
479.05	37.971
479.40	37.500
479.75	38.630
480.10	37.561
480.45	37.955
480.79	37.189
481.14	37.280
481.49	36.780
481.84	36.456
482.19	37.511
482.53	37.286
482.88	36.828
483.23	36.987
483.58	38.420
483.92	37.797
484.27	36.430
484.62	36.587
484.97	36.268
485.31	36.031
485.66	36.162
486.01	34.152
486.36	34.084
486.70	33.766
487.05	33.807
487.40	34.948
487.75	35.062
488.09	34.574
488.44	35.596
488.79	35.786
489.13	36.021
489.48	36.596
489.83	36.405
490.17	36.375
490.52	36.865
490.87	36.810
491.22	36.259
491.56	37.330
491.91	36.962
492.26	36.793
492.60	37.403
492.95	36.792
493.30	36.897
493.64	37.062
493.99	37.165
494.34	36.396
494.68	37.362
495.03	36.821
495.37	36.830
495.72	37.016
496.07	35.984
496.41	36.316
496.76	35.711
497.11	36.118
497.45	35.072
497.80	35.867
498.14	36.523
498.49	36.908
498.84	36.589
499.18	35.695
499.53	36.932
499.87	35.580
500.22	36.527
500.56	36.815
500.91	36.410
501.26	36.426
501.60	35.792
501.95	35.573
502.29	36.267
502.64	35.554
502.98	35.527
503.33	36.214
503.67	35.629
504.02	35.647
504.36	35.973
504.71	35.809
505.06	36.790
505.40	35.938
505.75	35.407
506.09	35.838
506.44	36.278
506.78	36.389
507.13	36.646
507.47	35.662
507.82	36.983
508.16	36.894
508.51	36.377
508.85	35.660
509.19	36.319
509.54	36.328
509.88	36.698
510.23	36.422
510.57	35.569
510.92	35.315
511.26	36.396
511.61	35.451
511.95	35.689
512.30	35.650
512.64	35.877
512.98	36.289
513.33	35.451
513.67	36.458
514.02	36.727
514.36	36.033
514.70	36.107
515.05	36.601
515.39	36.842
515.74	36.523
516.08	36.928
516.42	37.049
516.77	36.907
517.11	35.680
517.46	36.853
517.80	35.336
518.14	35.775
518.49	36.604
518.83	35.275
519.17	36.106
519.52	36.046
519.86	36.294
520.20	36.384
520.55	36.914
520.89	35.920
521.23	36.624
521.58	35.513
521.92	36.501
522.26	35.012
522.61	37.195
522.95	36.877
523.29	35.614
523.64	35.202
523.98	35.798
524.32	35.813
524.66	36.058
525.01	35.858
525.35	35.651
525.69	36.424
526.04	36.109
526.38	36.433
526.72	35.621
527.06	34.950
527.41	36.518
527.75	35.971
528.09	34.497
528.43	35.937
528.78	35.897
529.12	36.183
529.46	35.535
529.80	35.689
530.15	35.415
530.49	35.259
530.83	35.710
531.17	34.809
531.51	34.825
531.86	35.085
532.20	34.116
532.54	35.091
532.88	35.041
533.22	33.821
533.57	35.570
533.91	34.266
534.25	33.756
534.59	34.737
534.93	34.187
535.27	33.751
535.62	34.364
535.96	33.688
536.30	35.405
536.64	34.224
536.98	33.543
537.32	34.437
537.66	34.758
538.01	35.108
538.35	34.623
538.69	33.677
539.03	34.017
539.37	33.677
539.71	33.148
540.05	32.985
540.39	35.220
540.73	34.684
541.07	32.309
541.42	33.706
541.76	33.785
542.10	34.032
542.44	33.229
542.78	32.977
543.12	33.620
543.46	32.393
543.80	33.709
544.14	32.508
544.48	33.455
544.82	33.517
545.16	32.908
545.50	33.497
545.84	33.396
546.18	35.046
546.52	34.033
546.86	33.398
547.20	32.817
547.54	33.376
547.88	32.786
548.22	31.998
548.56	32.646
548.90	32.147
549.24	34.491
549.58	33.312
549.92	33.923
550.26	34.280
550.60	33.733
550.94	34.396
551.28	34.897
551.62	34.414
551.96	33.243
552.30	32.564
552.64	33.204
552.98	33.247
553.32	32.330
553.66	32.638
554.00	32.819
554.34	34.421
554.68	32.796
555.02	32.926
555.36	32.048
555.69	33.508
556.03	32.803
556.37	32.887
556.71	32.986
557.05	31.848
557.39	32.933
557.73	33.154
558.07	32.931
558.41	33.105
558.75	33.584
559.08	33.810
559.42	34.073
559.76	33.999
560.10	33.104
560.44	32.316
560.78	33.056
561.12	33.185
561.45	31.977
561.79	31.960
562.13	31.775
562.47	32.446
562.81	31.685
563.15	32.191
563.48	30.994
563.82	33.936
564.16	32.090
564.50	31.163
564.84	31.854
565.17	31.967
565.51	31.650
565.85	32.079
566.19	31.786
566.52	32.792
566.86	32.283
567.20	31.517
567.54	31.223
567.88	32.551
568.21	30.354
568.55	30.204
568.89	30.018
569.23	29.422
569.56	30.871
569.90	29.572
570.24	29.370
570.57	28.877
570.91	28.768
571.25	27.699
571.59	27.750
571.92	27.368
572.26	27.385
572.60	27.159
572.93	28.033
573.27	27.398
573.61	27.856
573.95	27.565
574.28	27.266
574.62	26.875
574.96	26.786
575.29	26.873
575.63	26.360
575.97	26.290
576.30	26.753
576.64	26.903
576.98	26.097
577.31	27.189
577.65	26.572
577.98	26.535
578.32	26.169
578.66	25.953
578.99	26.222
579.33	26.500
579.67	26.564
580.00	26.531
580.34	26.375
580.67	26.130
581.01	26.684
581.35	26.277
581.68	25.461
582.02	25.792
582.35	25.732
582.69	25.962
583.02	25.997
583.36	26.007
583.70	26.954
584.03	27.666
584.37	26.931
584.70	26.698
585.04	26.529
585.37	25.676
585.71	26.337
586.04	26.204
586.38	26.071
586.72	26.409
587.05	26.891
587.39	26.523
587.72	26.689
588.06	26.422
588.39	26.586
588.73	26.342
589.06	27.225
589.40	27.418
589.73	27.466
590.07	28.003
590.40	28.397
590.73	28.167
591.07	28.046
591.40	27.864
591.74	27.597
592.07	27.329
592.41	27.778
592.74	27.279
593.08	27.116
593.41	26.900
593.75	26.647
594.08	27.040
594.41	26.197
594.75	27.295
595.08	27.160
595.42	27.288
595.75	26.654
596.09	27.876
596.42	27.058
596.75	28.405
597.09	27.322
597.42	27.510
597.75	27.992
598.09	27.206
598.42	27.173
598.76	27.178
599.09	27.657
599.42	26.090
599.76	26.662
600.09	26.542
600.42	27.141
600.76	26.920
601.09	27.028
601.42	26.434
601.76	26.745
602.09	27.116
602.42	26.063
602.76	27.173
603.09	27.903
603.42	26.789
603.76	26.970
604.09	26.348
604.42	26.441
604.76	27.064
605.09	26.449
605.42	27.022
605.75	26.767
606.09	27.123
606.42	26.682
606.75	26.856
607.09	27.319
607.42	26.637
607.75	26.990
608.08	26.848
608.42	26.888
608.75	25.845
609.08	26.265
609.41	27.727
609.75	27.747
610.08	27.023
610.41	26.965
610.74	26.667
611.07	27.558
611.41	27.479
611.74	27.247
612.07	26.590
612.40	27.096
612.73	27.908
613.07	27.471
613.40	27.419
613.73	27.609
614.06	26.650
614.39	27.778
614.72	27.223
615.06	27.003
615.39	27.525
615.72	27.299
616.05	28.277
616.38	27.347
616.71	27.292
617.05	27.018
617.38	27.360
617.71	27.897
618.04	28.323
618.37	27.126
618.70	27.252
619.03	27.656
619.36	28.518
619.69	27.375
620.03	29.419
620.36	28.195
620.69	28.544
621.02	29.620
621.35	27.865
621.68	28.614
622.01	29.963
622.34	27.094
622.67	28.722
623.00	28.795
623.33	28.745
623.66	27.478
623.99	28.288
624.32	27.507
624.65	28.308
624.99	28.398
625.32	27.989
625.65	27.103
625.98	27.406
626.31	28.190
626.64	28.246
626.97	28.462
627.30	28.960
627.63	30.220
627.96	26.917
628.29	29.290
628.62	29.512
628.95	29.787
629.28	30.061
629.61	29.613
629.94	29.473
630.26	30.069
630.59	29.344
630.92	28.969
631.25	30.916
631.58	31.148
631.91	31.399
632.24	28.863
632.57	28.684
632.90	30.124
633.23	31.689
633.56	29.399
633.89	30.332
634.22	30.355
634.55	30.323
634.88	32.530
635.20	30.942
635.53	31.940
635.86	30.089
636.19	30.752
636.52	29.405
636.85	29.126
637.18	28.927
637.51	29.385
637.83	29.634
638.16	31.419
638.49	31.377
638.82	31.103
639.15	28.907
639.48	30.450
639.81	32.845
640.13	32.025
640.46	31.732
640.79	30.949
641.12	30.840
641.45	30.660
641.77	32.761
642.10	31.995
642.43	33.997
642.76	30.540
643.09	31.844
643.41	29.032
643.74	33.094
644.07	33.038
644.40	30.325
644.73	32.132
645.05	32.392
645.38	31.394
645.71	32.473
646.04	34.656
646.36	32.864
646.69	31.200
647.02	32.320
647.35	33.228
647.67	30.794
648.00	34.039
648.33	31.579
648.66	33.030
648.98	30.000
649.31	30.634
649.64	30.429
649.96	28.592
650.29	31.143
650.62	32.548
650.94	32.530
651.27	32.536
651.60	31.142
651.92	31.951
652.25	31.496
652.58	32.340
652.90	31.737
653.23	32.349
653.56	31.602
653.88	30.103
654.21	31.085
654.54	30.454
654.86	30.826
655.19	30.079
655.52	25.894
655.84	19.968
656.17	23.288
656.49	33.155
656.82	38.700
657.15	30.865
657.47	23.219
657.80	17.187
658.13	13.691
658.45	18.591
658.78	22.506
659.10	23.098
659.43	22.815
659.75	25.679
660.08	26.880
660.41	29.220
660.73	32.497
661.06	31.381
661.38	32.368
661.71	33.094
662.03	33.840
662.36	31.619
662.68	30.540
663.01	31.712
663.33	29.245
663.66	31.558
663.98	32.143
664.31	37.687
664.63	34.100
664.96	32.270
665.28	32.392
665.61	31.509
665.93	31.132
666.26	34.206
666.58	34.312
666.91	33.591
667.23	33.333
667.56	34.497
667.88	35.477
668.21	32.582
668.53	30.444
668.86	32.465
669.18	32.587
669.50	32.645
669.83	33.881
670.15	33.056
670.48	29.687
670.80	34.462
671.13	31.474
671.45	32.866
671.77	33.210
672.10	30.521
672.42	29.770
672.75	29.430
673.07	30.048
673.39	30.351
673.72	30.969
674.04	31.362
674.37	32.486
674.69	30.112
675.01	31.530
675.34	31.977
675.66	31.836
675.98	33.925
676.31	31.600
676.63	30.417
676.95	30.357
677.28	30.020
677.60	36.016
677.92	33.333
678.25	31.395
678.57	32.775
678.89	31.646
679.22	31.618
679.54	30.783
679.86	29.319
680.18	28.998
680.51	28.856
680.83	28.041
681.15	29.636
681.48	31.771
681.80	29.947
682.12	31.661
682.44	27.387
682.77	31.139
683.09	30.874
683.41	31.224
683.73	30.906
684.06	30.952
684.38	30.039
684.70	30.396
685.02	27.257
685.34	32.394
685.67	30.225
685.99	27.750
686.31	29.122
686.63	26.667
686.96	29.085
687.28	30.034
687.60	29.352
687.92	27.303
688.24	29.655
688.56	29.359
688.89	26.960
689.21	30.058
689.53	32.609
689.85	29.878
690.17	27.961
690.49	32.258
690.82	32.143
691.14	31.515
691.46	29.979
691.78	30.409
692.10	29.962
692.42	29.220
692.74	29.264
693.06	32.558
693.39	29.842
693.71	30.255
694.03	32.742
694.35	33.133
694.67	28.513
694.99	31.929
695.31	32.432
695.63	29.186
695.95	30.317
696.27	33.850
696.59	32.220
696.91	29.873
697.23	31.222
697.56	28.216
697.88	28.942
698.20	28.679
698.52	26.654
698.84	31.828
699.16	28.358
699.48	29.873
699.80	33.115
700.12	34.642
700.44	29.907
700.76	33.174
701.08	29.765
701.40	32.208
701.72	36.631
702.04	31.707
702.36	33.871
702.68	32.713
703.00	32.080
703.32	32.258
703.64	32.746
703.96	34.375
704.28	32.540
704.60	35.211
704.91	29.972
705.23	35.795
705.55	36.795
705.87	34.286
706.19	36.050
706.51	37.304
706.83	34.808
707.15	34.492
707.47	28.814
707.79	33.103
708.11	27.438
708.43	29.213
708.74	28.281
709.06	29.767
709.38	33.251
709.70	28.338
710.02	30.163
710.34	30.110
710.66	31.667
710.98	32.514
711.29	31.198
711.61	35.933
711.93	36.170
712.25	32.229
712.57	35.691
712.89	36.667
713.20	34.824
713.52	31.464
713.84	34.139
714.16	27.246
714.48	26.513
714.80	28.997
715.11	28.723
715.43	30.168
715.75	32.394
716.07	34.971
716.39	32.000
716.70	29.907
717.02	37.710
717.34	32.014
717.66	39.583
717.97	38.258
718.29	36.268
718.61	33.446
718.93	33.218
719.24	34.564
719.56	33.103
719.88	30.892
720.20	34.839
720.51	37.908
720.83	35.786
721.15	33.333
721.46	33.219
721.78	34.843
722.10	36.111
722.42	35.117
722.73	29.242
723.05	35.789
723.37	35.689
723.68	34.375
724.00	34.470
724.32	37.262
724.63	34.231
724.95	38.824
725.27	36.059
725.58	33.824
725.90	32.042
726.22	32.192
726.53	32.776
726.85	31.922
727.16	33.557
727.48	30.565
727.80	32.014
728.11	32.500
728.43	32.246
728.74	34.266
729.06	32.258
729.38	35.088
729.69	38.667
730.01	36.842
730.32	34.228
730.64	38.206
730.96	31.532
731.27	29.358
731.59	27.011
731.90	28.691
732.22	32.000
732.53	29.915
732.85	33.041
733.16	34.337
733.48	31.348
733.80	30.435
734.11	35.276
734.43	28.070
734.74	27.882
735.06	32.804
735.37	29.124
735.69	31.304
736.00	35.780
736.32	27.576
736.63	27.445
736.95	26.087
737.26	27.439
737.58	31.595
737.89	32.831
738.21	31.126
738.52	32.441
738.83	37.729
739.15	33.798
739.46	33.103
739.78	32.653
740.09	30.321
740.41	30.061
740.72	35.556
741.04	35.664
741.35	33.984
741.66	35.178
741.98	31.330
742.29	37.963
742.61	30.088
742.92	32.203
743.23	30.800
743.55	32.075
743.86	29.020
744.18	35.169
744.49	33.058
744.80	35.945
745.12	35.268
745.43	42.056
745.74	37.778
746.06	33.772
746.37	38.140
746.68	36.283
747.00	34.529
747.31	31.513
747.62	32.377
747.94	37.768
748.25	33.852
748.56	39.831
748.88	37.500
749.19	38.140
749.50	32.877
749.82	32.922
750.13	34.783
750.44	28.667
750.75	31.544
751.07	30.921
751.38	28.053
751.69	34.007
752.01	31.469
752.32	26.246
752.63	33.221
752.94	30.769
753.26	35.156
753.57	32.296
753.88	28.464
754.19	35.379
754.51	27.907
754.82	31.208
755.13	30.743
755.44	32.963
755.75	34.364
756.07	33.219
756.38	28.758
756.69	33.438
757.00	30.564
757.31	30.423
757.63	25.344
757.94	27.128
758.25	28.502
758.56	25.400
758.87	29.323
759.18	31.395
759.50	30.395
759.81	28.190
760.12	28.652
760.43	26.891
760.74	29.873
761.05	27.586
761.36	25.260
761.67	29.380
761.99	28.169
762.30	33.441
762.61	30.208
762.92	32.955
763.23	32.453
763.54	35.769
763.85	31.128
764.16	34.028
764.47	29.730
764.78	25.733
765.10	25.915
765.41	27.273
765.72	27.901
766.03	27.190
766.34	25.784
766.65	31.559
766.96	35.628
767.27	34.112
767.58	35.644
767.89	42.541
768.20	45.122
768.51	38.776
768.82	35.088
769.13	30.588
769.44	31.203
769.75	31.835
770.06	33.613
770.37	29.386
770.68	30.222
770.99	41.102
771.30	29.707
771.61	35.385
771.92	27.863
772.23	33.871
772.54	37.778
772.85	40.594
773.16	39.130
773.47	36.111
773.78	40.099
774.09	36.364
774.39	37.576
774.70	40.000
775.01	30.921
775.32	44.099
775.63	39.041
775.94	48.148
776.25	42.759
776.56	42.748
776.87	48.092
777.18	46.212
777.48	48.031
777.79	47.692
778.10	53.788
778.41	45.522
778.72	45.865
779.03	38.462
779.34	41.216
779.65	36.025
779.95	41.615
780.26	28.571
780.57	46.939
780.88	38.298
781.19	52.500
781.50	38.462
781.80	39.891
782.11	35.450
782.42	43.103
782.73	42.373
783.04	39.355
783.34	36.434
783.65	42.177
783.96	47.097
784.27	31.126
784.57	35.526
784.88	39.855
785.19	42.500
785.50	48.276
785.81	48.837
786.11	38.519
786.42	44.094
786.73	52.252
787.04	49.057
787.34	48.780
787.65	49.242
787.96	54.545
788.26	49.606
788.57	45.985
788.88	40.141
789.19	48.092
789.49	43.919
789.80	46.094
790.11	44.628
790.41	56.481
790.72	41.667
791.03	51.923
791.33	62.626
791.64	50.526
791.95	46.316
792.25	47.917
792.56	53.000
792.87	51.220
793.17	59.091
793.48	49.412
793.79	54.023
794.09	50.000
794.40	50.000
794.70	46.032
795.01	44.615
795.32	47.328
795.62	44.444
795.93	50.420
796.23	53.659
796.54	55.102
796.85	52.273
797.15	76.623
797.46	54.878
797.76	60.000
798.07	68.000
798.37	65.000
798.68	66.250
798.99	73.171
799.29	46.667
799.60	52.326
799.90	65.789
800.21	74.242
800.51	64.789
800.82	65.517
801.12	81.538
801.43	70.667
801.73	79.310
802.04	58.442
802.34	79.452
802.65	60.784
802.95	71.739
803.26	77.419
803.56	93.333
803.87	82.090
804.17	69.841
804.48	58.491
804.78	62.500
805.09	71.212
805.39	77.778
805.70	75.439
806.00	67.143
806.30	71.875
806.61	49.412
806.91	74.444
807.22	58.696
807.52	63.158
807.83	80.263
808.13	73.913
808.43	69.355
808.74	65.753
809.04	78.571
809.35	67.647
809.65	75.758
809.95	96.078
810.26	88.889
810.56	76.562
810.86	67.347
811.17	98.246
811.47	84.783
811.77	87.931
812.08	58.621
812.38	88.095
812.69	102.381
812.99	88.889
813.29	80.000
813.59	103.226
813.90	70.690
814.20	80.328
814.50	66.000
814.81	56.140
815.11	87.037
815.41	78.571
815.72	89.286
816.02	84.000
816.32	97.561
816.62	82.759
816.93	124.242
817.23	92.683
817.53	89.286
817.84	88.889
818.14	92.857
818.44	89.583
818.74	86.792
819.04	97.436
819.35	124.242
819.65	69.231
819.95	101.852
820.25	89.362
820.56	121.622
820.86	102.632
821.16	59.574
821.46	102.632
821.76	100.000
822.07	76.190
822.37	65.789
822.67	90.698
822.97	78.947
823.27	97.826
823.57	140.625
823.88	107.692
824.18	87.879
824.48	169.565
824.78	141.667
825.08	130.435
825.38	117.241
825.69	105.882
825.99	89.362
826.29	61.111
826.59	120.000
826.89	153.333
827.19	100.000
827.49	135.484
827.79	138.462
828.09	80.952
828.39	94.444
828.70	97.297
829.00	121.429
829.30	193.750
829.60	116.667
829.90	100.000
830.20	103.030
830.50	129.730
830.80	137.500
831.10	153.846
831.40	166.667
831.70	195.833
832.00	113.333
832.30	165.217
832.60	200.000
832.90	130.303
833.20	170.000
833.50	110.526
833.80	108.824
834.10	81.579
834.40	147.368
834.70	106.667
835.00	144.000
835.30	113.514
835.60	143.750
835.90	105.405
836.20	134.615
836.50	131.818
836.80	95.122
837.10	182.609
837.40	246.154
837.70	152.632
838.00	136.667
838.30	154.167
838.60	136.000
838.90	310.000
839.19	162.500
839.49	143.333
839.79	117.241
840.09	142.308
840.39	213.333
840.69	205.263
840.99	128.571
841.29	143.478
841.59	160.000
841.88	184.000
842.18	322.222
842.48	164.286
842.78	155.556
843.08	215.385
843.38	154.545
843.68	242.857
843.97	514.286
844.27	152.174
844.57	1800.000
844.87	257.143
845.17	244.444
845.47	185.714
845.76	220.833
846.06	414.286
846.36	170.588
846.66	284.615
846.96	212.500
847.25	207.692
847.55	210.526
847.85	216.667
848.15	560.000
848.44	327.273
848.74	185.714
849.04	166.667
849.34	200.000
849.63	300.000
849.93	281.250
850.23	933.333
850.53	387.500
850.82	372.727
851.12	170.588
851.42	154.167
851.71	225.000
852.01	0.000
852.31	241.176
852.61	350.000
852.90	212.500
853.20	288.889
853.50	-1500.000
853.79	164.000
854.09	96.875
854.39	127.586
854.68	158.621
854.98	171.429
855.28	135.484
855.57	257.143
855.87	177.778
856.17	100.000
856.46	178.947
856.76	93.548
857.05	211.765
857.35	309.091
857.65	192.308
857.94	135.000
858.24	433.333
858.53	235.714
858.83	485.714
859.13	200.000
859.42	311.111
859.72	412.500
860.01	316.667
860.31	700.000
860.60	280.000
860.90	375.000
861.20	284.615
861.49	400.000
861.79	-3500.000
862.08	471.429
862.38	377.778
862.67	200.000
862.97	400.000
863.26	113.333
863.56	875.000
863.85	323.077
864.15	264.706
864.44	200.000
864.74	275.000
865.03	390.909
865.33	362.500
865.62	180.000
865.92	516.667
866.21	725.000
866.51	760.000
866.80	205.556
867.10	866.667
867.39	3300.000
867.69	820.000
867.98	750.000
868.27	161.905
868.57	233.333
868.86	900.000
869.16	152.381
869.45	2200.000
869.75	-583.333
870.04	550.000
870.33	740.000
870.63	437.500
870.92	229.412
871.22	800.000
871.51	471.429
871.80	325.000
872.10	300.000
>>>>>End Processed Spectral Data<<<<<
