SpectraSuite Data File
++++++++++++++++++++++++++++++++++++
Date: Tue May 12 15:29:06 PDT 2015
User: schluterlab
Dark Spectrum Present: Yes
Reference Spectrum Present: Yes
Number of Sampled Component Spectra: 1
Spectrometers: USB2E3373
Integration Time (usec): 3000 (USB2E3373)
Spectra Averaged: 3 (USB2E3373)
Boxcar Smoothing: 0 (USB2E3373)
Correct for Electrical Dark: No (USB2E3373)
Strobe/Lamp Enabled: No (USB2E3373)
Correct for Detector Non-linearity: No (USB2E3373)
Correct for Stray Light: No (USB2E3373)
Number of Pixels in Processed Spectrum: 2048
>>>>>Begin Processed Spectral Data<<<<<
178.53	0.000
178.91	-266.667
179.29	-1100.000
179.67	-4300.000
180.04	-193.333
180.42	775.000
180.80	1600.000
181.18	0.000
181.56	-337.500
181.94	0.000
182.31	1300.000
182.69	-3500.000
183.07	671.429
183.45	-3700.000
183.83	-1650.000
184.20	510.000
184.58	757.143
184.96	-276.923
185.34	-266.667
185.72	1300.000
186.09	-725.000
186.47	-3000.000
186.85	1233.333
187.23	680.000
187.61	2200.000
187.98	637.500
188.36	271.429
188.74	366.667
189.12	391.667
189.49	1025.000
189.87	0.000
190.25	562.500
190.63	2800.000
191.00	-250.000
191.38	-3600.000
191.76	-675.000
192.14	562.500
192.51	-3200.000
192.89	1600.000
193.27	1033.333
193.65	-1133.333
194.02	-920.000
194.40	628.571
194.78	-221.429
195.15	213.333
195.53	-3300.000
195.91	-480.000
196.29	3700.000
196.66	218.750
197.04	950.000
197.42	-1600.000
197.79	825.000
198.17	350.000
198.55	0.000
198.92	528.571
199.30	1133.333
199.68	1700.000
200.05	650.000
200.43	-516.667
200.81	222.222
201.18	3500.000
201.56	291.667
201.94	-950.000
202.31	-362.500
202.69	-460.000
203.07	3500.000
203.44	-583.333
203.82	375.000
204.19	700.000
204.57	-1850.000
204.95	-875.000
205.32	-760.000
205.70	633.333
206.08	950.000
206.45	-766.667
206.83	466.667
207.20	189.474
207.58	291.667
207.96	660.000
208.33	0.000
208.71	557.143
209.08	940.000
209.46	-3100.000
209.84	-825.000
210.21	940.000
210.59	-620.000
210.96	308.333
211.34	-775.000
211.71	363.636
212.09	975.000
212.46	1950.000
212.84	-416.667
213.22	422.222
213.59	-3000.000
213.97	340.000
214.34	950.000
214.72	1333.333
215.09	1300.000
215.47	-3500.000
215.84	-330.000
216.22	-362.500
216.59	0.000
216.97	0.000
217.34	1250.000
217.72	-1350.000
218.09	1033.333
218.47	487.500
218.84	875.000
219.22	1100.000
219.59	1000.000
219.97	571.429
220.34	411.111
220.72	1300.000
221.09	4300.000
221.47	366.667
221.84	1200.000
222.22	410.000
222.59	216.667
222.97	257.143
223.34	200.000
223.72	-2000.000
224.09	966.667
224.46	307.692
224.84	-875.000
225.21	400.000
225.59	280.000
225.96	1833.333
226.34	-860.000
226.71	-625.000
227.08	-480.000
227.46	0.000
227.83	-550.000
228.21	-2200.000
228.58	366.667
228.95	1050.000
229.33	288.889
229.70	825.000
230.08	330.769
230.45	3000.000
230.82	-925.000
231.20	-766.667
231.57	-933.333
231.95	620.000
232.32	300.000
232.69	566.667
233.07	233.333
233.44	-1550.000
233.81	266.667
234.19	170.370
234.56	237.500
234.93	141.176
235.31	190.000
235.68	200.000
236.05	171.429
236.43	125.926
236.80	242.857
237.17	120.690
237.55	128.125
237.92	102.500
238.29	145.455
238.67	131.250
239.04	90.244
239.41	70.833
239.79	72.500
240.16	83.333
240.53	62.295
240.91	56.522
241.28	67.797
241.65	50.000
242.02	66.197
242.40	40.000
242.77	46.154
243.14	41.772
243.51	52.525
243.89	40.187
244.26	41.121
244.63	35.644
245.00	40.367
245.38	30.508
245.75	34.848
246.12	35.556
246.49	29.078
246.87	27.869
247.24	30.667
247.61	27.500
247.98	30.612
248.36	21.212
248.73	29.082
249.10	24.405
249.47	18.000
249.84	19.403
250.22	22.703
250.59	21.500
250.96	24.473
251.33	22.791
251.70	20.536
252.08	17.647
252.45	21.514
252.82	21.293
253.19	15.020
253.56	16.154
253.94	22.101
254.31	16.279
254.68	18.118
255.05	20.000
255.42	18.248
255.79	17.264
256.16	18.305
256.54	18.182
256.91	13.072
257.28	9.699
257.65	11.912
258.02	12.979
258.39	17.192
258.76	16.812
259.14	13.429
259.51	15.452
259.88	13.374
260.25	12.088
260.62	14.521
260.99	9.366
261.36	12.256
261.73	13.032
262.10	14.660
262.47	9.750
262.85	12.800
263.22	13.625
263.59	13.299
263.96	14.035
264.33	11.852
264.70	13.268
265.07	12.927
265.44	11.927
265.81	12.264
266.18	11.442
266.55	11.111
266.92	12.081
267.29	11.842
267.66	9.865
268.03	12.556
268.40	10.782
268.77	12.335
269.14	9.544
269.51	10.468
269.88	13.878
270.25	9.719
270.62	11.159
270.99	12.576
271.36	11.585
271.73	9.434
272.10	9.697
272.47	11.508
272.84	7.984
273.21	9.711
273.58	10.526
273.95	9.651
274.32	12.062
274.69	12.205
275.06	13.479
275.43	11.111
275.80	10.377
276.17	9.375
276.54	12.523
276.91	10.821
277.28	10.766
277.65	10.332
278.02	9.007
278.39	8.993
278.76	10.517
279.13	9.075
279.50	10.364
279.87	9.311
280.23	10.129
280.60	8.394
280.97	10.517
281.34	9.901
281.71	12.000
282.08	8.718
282.45	9.122
282.82	9.866
283.19	9.062
283.56	10.413
283.92	7.818
284.29	9.983
284.66	8.067
285.03	8.955
285.40	6.777
285.77	8.796
286.14	10.372
286.51	9.816
286.87	9.177
287.24	8.559
287.61	9.422
287.98	8.955
288.35	10.519
288.72	8.498
289.08	10.210
289.45	10.061
289.82	10.156
290.19	9.370
290.56	11.645
290.93	9.353
291.29	8.840
291.66	8.333
292.03	10.238
292.40	8.266
292.77	6.825
293.13	8.131
293.50	8.637
293.87	8.672
294.24	10.769
294.60	10.363
294.97	9.930
295.34	9.031
295.71	9.330
296.08	9.867
296.44	9.657
296.81	7.692
297.18	7.224
297.55	9.113
297.91	8.005
298.28	9.058
298.65	8.344
299.02	9.047
299.38	10.312
299.75	9.268
300.12	9.289
300.48	9.602
300.85	8.462
301.22	9.302
301.59	7.075
301.95	7.468
302.32	8.033
302.69	9.615
303.05	9.428
303.42	7.287
303.79	10.076
304.15	8.801
304.52	8.562
304.89	8.635
305.25	9.455
305.62	8.422
305.99	7.174
306.35	8.737
306.72	8.533
307.09	8.282
307.45	9.187
307.82	8.333
308.19	9.794
308.55	8.700
308.92	9.225
309.29	10.158
309.65	8.424
310.02	8.824
310.38	8.774
310.75	8.486
311.12	7.184
311.48	8.301
311.85	9.065
312.22	9.265
312.58	7.289
312.95	8.835
313.31	8.333
313.68	9.193
314.05	8.974
314.41	8.287
314.78	8.902
315.14	9.479
315.51	10.218
315.87	10.219
316.24	8.964
316.61	9.132
316.97	8.349
317.34	8.535
317.70	9.570
318.07	10.409
318.43	9.666
318.80	9.107
319.16	8.392
319.53	9.381
319.89	9.140
320.26	10.149
320.62	9.982
320.99	10.010
321.35	10.111
321.72	10.531
322.08	9.695
322.45	10.082
322.81	9.973
323.18	11.012
323.54	10.366
323.91	11.423
324.27	10.787
324.64	10.208
325.00	10.690
325.37	10.624
325.73	10.118
326.10	11.185
326.46	10.900
326.83	11.360
327.19	12.932
327.56	12.620
327.92	12.623
328.29	13.339
328.65	13.527
329.01	13.259
329.38	13.790
329.74	13.237
330.11	14.335
330.47	15.686
330.84	13.028
331.20	15.651
331.56	15.717
331.93	15.569
332.29	15.476
332.66	16.582
333.02	16.323
333.38	17.016
333.75	18.432
334.11	17.701
334.48	17.436
334.84	17.399
335.20	17.536
335.57	18.304
335.93	18.419
336.29	17.828
336.66	19.039
337.02	18.734
337.38	17.799
337.75	19.088
338.11	18.565
338.47	18.374
338.84	18.374
339.20	18.615
339.56	19.849
339.93	18.395
340.29	19.328
340.65	19.195
341.02	19.952
341.38	18.801
341.74	19.767
342.11	18.865
342.47	18.622
342.83	19.442
343.20	19.644
343.56	18.824
343.92	18.910
344.28	18.262
344.65	18.908
345.01	18.810
345.37	18.590
345.73	18.571
346.10	17.928
346.46	18.979
346.82	17.207
347.19	19.629
347.55	18.423
347.91	18.127
348.27	17.816
348.63	18.829
349.00	18.660
349.36	18.988
349.72	19.878
350.08	19.565
350.45	18.279
350.81	18.578
351.17	17.951
351.53	17.860
351.89	18.570
352.26	18.292
352.62	18.024
352.98	19.018
353.34	19.954
353.70	17.584
354.07	19.538
354.43	19.124
354.79	18.071
355.15	19.142
355.51	17.976
355.87	19.503
356.24	19.477
356.60	18.798
356.96	18.575
357.32	19.367
357.68	19.750
358.04	19.681
358.40	18.891
358.77	19.008
359.13	19.745
359.49	18.236
359.85	17.573
360.21	18.351
360.57	18.394
360.93	18.831
361.29	18.975
361.66	19.463
362.02	17.259
362.38	19.264
362.74	18.542
363.10	19.635
363.46	17.196
363.82	18.864
364.18	18.065
364.54	18.741
364.90	18.608
365.26	19.431
365.62	18.508
365.98	17.756
366.35	17.586
366.71	19.431
367.07	18.362
367.43	19.275
367.79	18.285
368.15	17.436
368.51	18.401
368.87	18.818
369.23	18.572
369.59	18.678
369.95	17.972
370.31	17.112
370.67	18.182
371.03	18.417
371.39	18.837
371.75	17.865
372.11	18.627
372.47	18.288
372.83	17.743
373.19	18.574
373.55	18.832
373.91	18.370
374.27	18.254
374.63	19.051
374.99	18.801
375.35	18.481
375.71	18.140
376.07	17.905
376.42	18.095
376.78	18.626
377.14	18.349
377.50	17.915
377.86	18.065
378.22	18.221
378.58	18.765
378.94	18.588
379.30	17.344
379.66	17.941
380.02	19.062
380.38	17.857
380.74	18.224
381.09	17.815
381.45	18.960
381.81	17.494
382.17	18.315
382.53	17.876
382.89	18.391
383.25	17.229
383.61	17.810
383.97	17.576
384.32	17.842
384.68	19.133
385.04	18.171
385.40	18.387
385.76	17.145
386.12	18.120
386.48	17.690
386.83	18.032
387.19	17.079
387.55	17.197
387.91	18.533
388.27	17.787
388.62	18.251
388.98	18.309
389.34	17.073
389.70	17.335
390.06	18.415
390.42	17.952
390.77	17.752
391.13	18.105
391.49	18.028
391.85	17.600
392.20	17.819
392.56	18.160
392.92	16.732
393.28	17.321
393.64	16.227
393.99	17.546
394.35	17.481
394.71	16.707
395.07	16.910
395.42	16.686
395.78	17.890
396.14	18.313
396.50	16.968
396.85	17.012
397.21	17.449
397.57	17.513
397.92	16.464
398.28	17.044
398.64	17.219
399.00	16.088
399.35	15.781
399.71	16.225
400.07	17.066
400.42	17.015
400.78	16.657
401.14	16.442
401.49	16.935
401.85	16.454
402.21	15.934
402.57	16.517
402.92	16.364
403.28	15.334
403.63	16.245
403.99	16.586
404.35	17.468
404.70	16.657
405.06	15.890
405.42	16.577
405.77	16.262
406.13	15.889
406.49	15.350
406.84	16.018
407.20	16.267
407.55	16.185
407.91	16.465
408.27	15.706
408.62	16.558
408.98	15.494
409.34	16.014
409.69	15.868
410.05	15.564
410.40	15.607
410.76	15.398
411.11	15.107
411.47	16.049
411.83	16.227
412.18	15.338
412.54	14.895
412.89	15.339
413.25	15.792
413.60	15.713
413.96	15.200
414.31	15.466
414.67	16.263
415.03	15.837
415.38	15.773
415.74	15.477
416.09	16.427
416.45	16.031
416.80	16.228
417.16	15.722
417.51	15.987
417.87	15.707
418.22	15.188
418.58	15.350
418.93	15.348
419.29	15.157
419.64	15.869
420.00	16.408
420.35	15.389
420.71	14.936
421.06	14.891
421.42	15.486
421.77	15.880
422.12	15.215
422.48	14.535
422.83	15.625
423.19	15.875
423.54	15.304
423.90	16.025
424.25	15.465
424.61	15.786
424.96	15.020
425.31	15.764
425.67	15.937
426.02	16.153
426.38	15.403
426.73	15.963
427.09	15.777
427.44	15.588
427.79	15.780
428.15	15.969
428.50	16.971
428.85	16.402
429.21	16.099
429.56	15.503
429.92	15.912
430.27	15.965
430.62	15.174
430.98	15.868
431.33	15.726
431.68	15.210
432.04	15.779
432.39	15.807
432.74	16.979
433.10	16.334
433.45	16.370
433.80	16.216
434.16	16.080
434.51	16.667
434.86	17.365
435.22	16.099
435.57	17.309
435.92	18.042
436.28	17.857
436.63	16.045
436.98	17.624
437.34	17.922
437.69	16.685
438.04	17.366
438.39	17.104
438.75	16.592
439.10	17.269
439.45	16.224
439.81	17.467
440.16	17.391
440.51	16.779
440.86	18.405
441.22	17.587
441.57	17.953
441.92	17.769
442.27	17.526
442.63	17.937
442.98	17.942
443.33	18.104
443.68	17.555
444.03	17.342
444.39	18.126
444.74	17.857
445.09	18.167
445.44	19.288
445.79	18.275
446.15	18.684
446.50	18.618
446.85	18.924
447.20	18.308
447.55	18.162
447.91	19.606
448.26	18.743
448.61	19.458
448.96	19.499
449.31	20.022
449.66	19.380
450.02	18.963
450.37	19.767
450.72	19.559
451.07	19.430
451.42	20.569
451.77	19.931
452.12	19.966
452.47	20.535
452.83	20.000
453.18	20.901
453.53	20.663
453.88	20.343
454.23	20.453
454.58	20.163
454.93	20.417
455.28	21.481
455.63	21.217
455.98	20.981
456.34	21.398
456.69	21.098
457.04	21.301
457.39	20.286
457.74	21.284
458.09	21.617
458.44	20.920
458.79	20.637
459.14	21.058
459.49	20.328
459.84	21.685
460.19	22.260
460.54	21.994
460.89	21.535
461.24	20.905
461.59	21.542
461.94	21.277
462.29	22.025
462.64	22.362
462.99	22.521
463.34	21.970
463.69	22.505
464.04	22.165
464.39	21.981
464.74	21.923
465.09	21.706
465.44	21.110
465.79	21.176
466.14	20.880
466.49	21.812
466.84	22.129
467.19	22.261
467.54	22.462
467.89	22.653
468.24	22.177
468.59	21.012
468.94	22.343
469.29	22.419
469.64	23.087
469.99	22.558
470.34	22.201
470.68	22.345
471.03	22.815
471.38	23.179
471.73	22.338
472.08	22.570
472.43	22.533
472.78	23.047
473.13	22.653
473.48	22.861
473.83	22.085
474.17	23.404
474.52	22.512
474.87	22.626
475.22	22.901
475.57	21.931
475.92	22.739
476.27	21.545
476.61	22.735
476.96	22.780
477.31	22.931
477.66	23.349
478.01	23.002
478.36	22.812
478.70	22.531
479.05	23.013
479.40	23.065
479.75	23.784
480.10	23.524
480.45	23.296
480.79	22.765
481.14	23.252
481.49	22.964
481.84	23.219
482.19	23.057
482.53	22.969
482.88	23.522
483.23	23.636
483.58	23.294
483.92	23.995
484.27	23.630
484.62	24.109
484.97	23.257
485.31	23.160
485.66	23.089
486.01	22.005
486.36	21.330
486.70	21.568
487.05	21.909
487.40	22.032
487.75	22.822
488.09	22.472
488.44	23.104
488.79	23.221
489.13	23.479
489.48	24.211
489.83	23.812
490.17	23.865
490.52	24.978
490.87	24.267
491.22	23.980
491.56	24.286
491.91	24.059
492.26	24.276
492.60	24.875
492.95	24.830
493.30	24.932
493.64	23.944
493.99	24.687
494.34	24.877
494.68	25.100
495.03	25.370
495.37	24.809
495.72	24.848
496.07	25.427
496.41	25.065
496.76	25.369
497.11	25.236
497.45	24.638
497.80	25.672
498.14	25.474
498.49	25.209
498.84	26.215
499.18	25.091
499.53	25.769
499.87	25.517
500.22	25.656
500.56	25.580
500.91	26.763
501.26	26.688
501.60	26.002
501.95	25.224
502.29	26.044
502.64	25.849
502.98	26.145
503.33	25.434
503.67	26.137
504.02	24.675
504.36	26.018
504.71	26.254
505.06	26.326
505.40	25.831
505.75	25.772
506.09	26.272
506.44	26.739
506.78	26.654
507.13	26.612
507.47	26.589
507.82	26.861
508.16	27.878
508.51	26.280
508.85	26.543
509.19	27.166
509.54	27.637
509.88	28.046
510.23	27.598
510.57	27.027
510.92	27.972
511.26	27.209
511.61	27.277
511.95	27.725
512.30	28.150
512.64	27.155
512.98	27.729
513.33	28.074
513.67	28.483
514.02	28.364
514.36	27.622
514.70	28.800
515.05	28.503
515.39	28.618
515.74	28.704
516.08	29.630
516.42	28.907
516.77	28.267
517.11	28.853
517.46	28.394
517.80	28.837
518.14	29.803
518.49	28.942
518.83	28.462
519.17	29.506
519.52	29.711
519.86	29.155
520.20	30.301
520.55	28.886
520.89	29.080
521.23	29.614
521.58	29.662
521.92	29.621
522.26	28.969
522.61	30.600
522.95	30.571
523.29	30.234
523.64	29.480
523.98	30.047
524.32	29.931
524.66	29.507
525.01	30.947
525.35	30.524
525.69	30.945
526.04	30.399
526.38	31.254
526.72	29.773
527.06	30.810
527.41	31.499
527.75	30.919
528.09	31.005
528.43	31.910
528.78	31.366
529.12	30.524
529.46	30.333
529.80	30.607
530.15	31.585
530.49	29.723
530.83	31.140
531.17	30.873
531.51	31.453
531.86	30.616
532.20	30.964
532.54	32.141
532.88	32.105
533.22	32.236
533.57	31.910
533.91	30.070
534.25	30.352
534.59	31.871
534.93	30.546
535.27	29.710
535.62	30.980
535.96	31.501
536.30	31.932
536.64	31.118
536.98	31.907
537.32	31.750
537.66	31.696
538.01	32.136
538.35	32.377
538.69	31.796
539.03	31.095
539.37	31.553
539.71	32.840
540.05	30.892
540.39	32.956
540.73	32.975
541.07	31.744
541.42	32.525
541.76	31.751
542.10	33.046
542.44	32.918
542.78	32.033
543.12	32.025
543.46	32.143
543.80	32.206
544.14	32.446
544.48	32.543
544.82	32.966
545.16	32.240
545.50	31.715
545.84	32.828
546.18	34.915
546.52	32.787
546.86	33.011
547.20	33.269
547.54	33.312
547.88	33.698
548.22	32.787
548.56	33.058
548.90	32.444
549.24	33.797
549.58	33.634
549.92	34.447
550.26	34.280
550.60	33.267
550.94	35.007
551.28	35.241
551.62	35.379
551.96	33.716
552.30	33.553
552.64	35.405
552.98	34.343
553.32	33.739
553.66	34.332
554.00	33.655
554.34	34.554
554.68	35.081
555.02	34.895
555.36	34.574
555.69	35.144
556.03	34.713
556.37	34.544
556.71	35.789
557.05	34.207
557.39	36.200
557.73	35.782
558.07	35.882
558.41	35.778
558.75	36.662
559.08	35.954
559.42	36.220
559.76	35.424
560.10	36.752
560.44	35.302
560.78	35.358
561.12	35.410
561.45	35.419
561.79	35.393
562.13	35.565
562.47	35.756
562.81	36.109
563.15	36.134
563.48	35.404
563.82	36.307
564.16	35.883
564.50	35.322
564.84	36.474
565.17	35.829
565.51	37.192
565.85	36.952
566.19	35.298
566.52	35.740
566.86	36.252
567.20	35.730
567.54	35.590
567.88	35.316
568.21	34.598
568.55	35.798
568.89	35.995
569.23	34.513
569.56	34.904
569.90	34.172
570.24	34.140
570.57	33.160
570.91	33.167
571.25	32.918
571.59	32.572
571.92	32.670
572.26	32.507
572.60	32.769
572.93	33.007
573.27	33.372
573.61	33.054
573.95	32.669
574.28	32.816
574.62	32.767
574.96	32.098
575.29	31.945
575.63	31.943
575.97	32.035
576.30	32.169
576.64	32.595
576.98	32.853
577.31	33.259
577.65	33.215
577.98	32.557
578.32	32.589
578.66	32.582
578.99	32.746
579.33	33.040
579.67	33.072
580.00	32.951
580.34	33.192
580.67	33.378
581.01	33.816
581.35	32.995
581.68	33.345
582.02	32.844
582.35	32.909
582.69	33.397
583.02	33.575
583.36	34.233
583.70	34.494
584.03	34.775
584.37	35.058
584.70	34.735
585.04	34.237
585.37	34.040
585.71	34.517
586.04	34.411
586.38	34.977
586.72	34.775
587.05	35.100
587.39	35.626
587.72	35.082
588.06	34.989
588.39	35.261
588.73	36.148
589.06	36.096
589.40	37.089
589.73	36.447
590.07	37.303
590.40	37.247
590.73	38.193
591.07	38.368
591.40	37.884
591.74	37.378
592.07	38.062
592.41	37.730
592.74	36.983
593.08	36.621
593.41	36.595
593.75	36.340
594.08	36.341
594.41	37.406
594.75	37.432
595.08	37.689
595.42	38.150
595.75	37.940
596.09	38.130
596.42	37.473
596.75	39.503
597.09	39.455
597.42	39.061
597.75	38.661
598.09	38.941
598.42	38.882
598.76	37.934
599.09	38.801
599.42	37.474
599.76	37.788
600.09	37.695
600.42	39.192
600.76	37.967
601.09	38.108
601.42	38.472
601.76	38.632
602.09	39.625
602.42	38.817
602.76	39.658
603.09	40.008
603.42	39.413
603.76	38.829
604.09	39.305
604.42	39.623
604.76	40.577
605.09	39.633
605.42	41.040
605.75	40.071
606.09	40.130
606.42	39.684
606.75	39.448
607.09	39.518
607.42	40.378
607.75	40.326
608.08	39.968
608.42	40.772
608.75	39.752
609.08	41.091
609.41	41.409
609.75	41.621
610.08	41.906
610.41	41.370
610.74	41.558
611.07	41.110
611.41	42.030
611.74	42.161
612.07	41.667
612.40	41.715
612.73	43.984
613.07	42.930
613.40	42.556
613.73	42.436
614.06	41.400
614.39	42.576
614.72	41.838
615.06	41.444
615.39	42.228
615.72	42.449
616.05	42.391
616.38	42.567
616.71	43.625
617.05	43.053
617.38	43.034
617.71	44.207
618.04	43.130
618.37	42.968
618.70	43.360
619.03	44.505
619.36	45.415
619.69	45.449
620.03	45.988
620.36	44.958
620.69	46.807
621.02	46.807
621.35	46.920
621.68	46.091
622.01	49.299
622.34	45.739
622.67	46.138
623.00	46.358
623.33	46.964
623.66	46.906
623.99	46.027
624.32	47.019
624.65	45.885
624.99	46.924
625.32	47.495
625.65	46.345
625.98	46.862
626.31	47.478
626.64	46.621
626.97	47.590
627.30	48.525
627.63	48.901
627.96	47.340
628.29	49.175
628.62	50.128
628.95	50.621
629.28	50.657
629.61	50.351
629.94	49.525
630.26	49.393
630.59	50.709
630.92	50.135
631.25	49.773
631.58	52.555
631.91	51.665
632.24	51.118
632.57	50.786
632.90	53.934
633.23	54.040
633.56	52.055
633.89	54.877
634.22	53.929
634.55	52.043
634.88	54.436
635.20	54.260
635.53	56.214
635.86	54.251
636.19	54.321
636.52	53.081
636.85	55.016
637.18	53.954
637.51	52.737
637.83	51.144
638.16	54.748
638.49	53.653
638.82	53.169
639.15	52.996
639.48	56.398
639.81	55.556
640.13	55.092
640.46	55.373
640.79	55.787
641.12	56.693
641.45	56.533
641.77	56.275
642.10	55.823
642.43	56.757
642.76	54.403
643.09	59.942
643.41	58.906
643.74	58.849
644.07	59.735
644.40	58.580
644.73	62.613
645.05	60.921
645.38	58.959
645.71	59.636
646.04	60.763
646.36	61.033
646.69	59.360
647.02	60.640
647.35	59.528
647.67	59.643
648.00	64.169
648.33	58.947
648.66	58.182
648.98	56.957
649.31	56.140
649.64	55.740
649.96	56.330
650.29	57.429
650.62	57.879
650.94	59.639
651.27	62.041
651.60	60.720
651.92	60.215
652.25	61.732
652.58	57.589
652.90	58.533
653.23	59.380
653.56	58.605
653.88	58.443
654.21	57.038
654.54	58.272
654.86	57.522
655.19	57.388
655.52	48.978
655.84	38.077
656.17	43.800
656.49	62.483
656.82	71.493
657.15	58.157
657.47	43.756
657.80	32.881
658.13	26.135
658.45	35.924
658.78	43.884
659.10	44.605
659.43	46.482
659.75	50.657
660.08	52.632
660.41	55.989
660.73	59.849
661.06	61.862
661.38	63.373
661.71	66.367
662.03	64.259
662.36	63.429
662.68	62.011
663.01	64.685
663.33	63.019
663.66	67.653
663.98	64.683
664.31	64.179
664.63	62.644
664.96	64.916
665.28	63.842
665.61	63.019
665.93	63.396
666.26	60.748
666.58	64.771
666.91	62.934
667.23	65.863
667.56	65.503
667.88	67.220
668.21	65.779
668.53	63.911
668.86	66.533
669.18	66.191
669.50	63.636
669.83	66.119
670.15	64.865
670.48	64.063
670.80	64.143
671.13	63.546
671.45	68.337
671.77	63.265
672.10	61.041
672.42	59.046
672.75	60.601
673.07	61.208
673.39	59.744
673.72	64.360
674.04	63.978
674.37	62.613
674.69	62.082
675.01	61.754
675.34	62.791
675.66	65.625
675.98	62.919
676.31	66.200
676.63	61.233
676.95	66.270
677.28	61.460
677.60	63.380
677.92	63.294
678.25	63.953
678.57	63.873
678.89	65.280
679.22	62.316
679.54	60.142
679.86	62.478
680.18	62.742
680.51	59.038
680.83	58.784
681.15	59.965
681.48	62.674
681.80	60.771
682.12	62.803
682.44	59.279
682.77	59.253
683.09	61.942
683.41	64.898
683.73	62.992
684.06	63.492
684.38	63.372
684.70	62.590
685.02	58.160
685.34	62.500
685.67	59.807
685.99	60.591
686.31	58.860
686.63	59.512
686.96	58.007
687.28	60.067
687.60	59.727
687.92	58.626
688.24	61.897
688.56	59.609
688.89	60.612
689.21	60.308
689.53	67.589
689.85	65.041
690.17	61.748
690.49	60.887
690.82	63.235
691.14	65.051
691.46	64.887
691.78	61.404
692.10	61.641
692.42	59.710
692.74	63.178
693.06	62.984
693.39	61.660
693.71	61.690
694.03	61.341
694.35	66.466
694.67	60.489
694.99	66.962
695.31	67.793
695.63	65.837
695.95	63.575
696.27	66.372
696.59	65.632
696.91	66.329
697.23	64.480
697.56	62.863
697.88	61.277
698.20	60.377
698.52	60.506
698.84	63.655
699.16	64.392
699.48	65.890
699.80	63.617
700.12	67.667
700.44	65.187
700.76	65.394
701.08	70.496
701.40	63.636
701.72	69.519
702.04	69.377
702.36	71.237
702.68	68.883
703.00	63.910
703.32	68.238
703.64	69.018
703.96	66.927
704.28	66.667
704.60	70.704
704.91	69.468
705.23	71.875
705.55	78.338
705.87	71.429
706.19	73.041
706.51	79.624
706.83	69.322
707.15	66.578
707.47	67.554
707.79	64.138
708.11	63.039
708.43	61.798
708.74	63.122
709.06	59.767
709.38	65.509
709.70	65.940
710.02	66.848
710.34	66.575
710.66	70.556
710.98	68.579
711.29	67.688
711.61	70.752
711.93	72.036
712.25	65.361
712.57	76.206
712.89	68.182
713.20	70.288
713.52	65.732
713.84	70.695
714.16	64.928
714.48	66.282
714.80	62.331
715.11	62.500
715.43	66.480
715.75	67.606
716.07	65.318
716.39	65.714
716.70	65.421
717.02	71.717
717.34	73.741
717.66	73.264
717.97	79.167
718.29	72.887
718.61	68.243
718.93	73.010
719.24	70.134
719.56	68.276
719.88	71.975
720.20	75.161
720.51	68.954
720.83	66.890
721.15	67.347
721.46	69.863
721.78	70.732
722.10	71.875
722.42	71.572
722.73	75.812
723.05	68.772
723.37	71.025
723.68	74.219
724.00	72.727
724.32	71.103
724.63	74.231
724.95	73.333
725.27	71.004
725.58	64.338
725.90	69.718
726.22	68.836
726.53	69.565
726.85	71.987
727.16	70.805
727.48	66.777
727.80	70.144
728.11	69.286
728.43	71.014
728.74	69.580
729.06	66.667
729.38	70.877
729.69	68.333
730.01	64.803
730.32	69.128
730.64	72.425
730.96	65.165
731.27	59.021
731.59	61.782
731.90	62.953
732.22	64.286
732.53	63.248
732.85	65.205
733.16	65.964
733.48	68.339
733.80	66.377
734.11	68.405
734.43	63.158
734.74	62.735
735.06	61.905
735.37	59.278
735.69	60.290
736.00	64.526
736.32	60.000
736.63	63.407
736.95	61.801
737.26	63.720
737.58	64.417
737.89	63.855
738.21	67.219
738.52	63.211
738.83	71.429
739.15	62.718
739.46	66.207
739.78	65.646
740.09	67.347
740.41	67.485
740.72	66.984
741.04	67.483
741.35	73.828
741.66	70.356
741.98	72.961
742.29	74.537
742.61	69.469
742.92	77.119
743.23	68.000
743.55	72.075
743.86	68.235
744.18	68.644
744.49	72.727
744.80	71.429
745.12	76.339
745.43	80.841
745.74	79.111
746.06	69.298
746.37	72.558
746.68	80.088
747.00	75.336
747.31	71.429
747.62	68.443
747.94	73.391
748.25	64.981
748.56	74.153
748.88	73.214
749.19	73.488
749.50	76.256
749.82	73.251
750.13	73.518
750.44	62.000
750.75	66.779
751.07	62.829
751.38	65.677
751.69	67.340
752.01	60.490
752.32	62.458
752.63	68.456
752.94	67.483
753.26	73.438
753.57	72.763
753.88	64.794
754.19	68.592
754.51	62.458
754.82	59.060
755.13	61.824
755.44	69.630
755.75	70.103
756.07	65.753
756.38	64.379
756.69	61.250
757.00	63.205
757.31	58.873
757.63	62.534
757.94	60.904
758.25	59.903
758.56	55.606
758.87	56.892
759.18	60.756
759.50	62.310
759.81	62.018
760.12	62.360
760.43	63.866
760.74	60.253
761.05	59.416
761.36	57.031
761.67	61.456
761.99	62.254
762.30	63.023
762.61	61.111
762.92	66.288
763.23	66.038
763.54	68.846
763.85	66.537
764.16	62.847
764.47	58.784
764.78	58.306
765.10	64.024
765.41	58.239
765.72	55.525
766.03	58.912
766.34	64.460
766.65	70.342
766.96	69.231
767.27	77.570
767.58	74.257
767.89	79.558
768.20	90.244
768.51	69.388
768.82	63.158
769.13	60.000
769.44	63.534
769.75	57.678
770.06	65.126
770.37	63.596
770.68	66.667
770.99	68.220
771.30	68.201
771.61	61.154
771.92	57.252
772.23	60.484
772.54	69.778
772.85	77.723
773.16	75.000
773.47	72.222
773.78	76.238
774.09	73.295
774.39	83.030
774.70	69.412
775.01	84.211
775.32	80.124
775.63	82.877
775.94	78.395
776.25	82.069
776.56	87.023
776.87	92.366
777.18	72.727
777.48	90.551
777.79	73.846
778.10	78.030
778.41	88.060
778.72	78.947
779.03	79.487
779.34	85.135
779.65	77.019
779.95	77.019
780.26	74.405
780.57	81.633
780.88	89.362
781.19	90.833
781.50	76.923
781.80	74.317
782.11	64.021
782.42	70.690
782.73	68.362
783.04	78.065
783.34	75.194
783.65	76.190
783.96	78.710
784.27	74.172
784.57	69.737
784.88	85.507
785.19	84.167
785.50	85.345
785.81	85.271
786.11	71.852
786.42	85.039
786.73	90.991
787.04	82.075
787.34	77.236
787.65	86.364
787.96	86.364
788.26	84.252
788.57	81.022
788.88	80.986
789.19	77.863
789.49	83.784
789.80	76.562
790.11	87.603
790.41	92.593
790.72	92.593
791.03	99.038
791.33	89.899
791.64	105.263
791.95	88.421
792.25	71.875
792.56	92.000
792.87	100.000
793.17	93.182
793.48	91.765
793.79	88.506
794.09	94.318
794.40	92.241
794.70	80.159
795.01	74.615
795.32	77.863
795.62	82.051
795.93	84.034
796.23	78.862
796.54	93.878
796.85	96.591
797.15	103.896
797.46	107.317
797.76	91.250
798.07	105.333
798.37	91.250
798.68	108.750
798.99	107.317
799.29	96.000
799.60	97.674
799.90	102.632
800.21	113.636
800.51	101.408
800.82	118.966
801.12	126.154
801.43	110.667
801.73	115.517
802.04	100.000
802.34	108.219
802.65	139.216
802.95	141.304
803.26	114.516
803.56	138.333
803.87	123.881
804.17	120.635
804.48	109.434
804.78	100.000
805.09	110.606
805.39	120.635
805.70	115.789
806.00	94.286
806.30	125.000
806.61	100.000
806.91	83.333
807.22	81.522
807.52	92.105
807.83	106.579
808.13	86.957
808.43	130.645
808.74	104.110
809.04	117.857
809.35	114.706
809.65	112.121
809.95	135.294
810.26	131.481
810.56	121.875
810.86	128.571
811.17	124.561
811.47	134.783
811.77	113.793
812.08	110.345
812.38	142.857
812.69	154.762
812.99	122.222
813.29	145.714
813.59	161.290
813.90	112.069
814.20	119.672
814.50	120.000
814.81	121.053
815.11	146.296
815.41	121.429
815.72	137.500
816.02	120.000
816.32	146.341
816.62	117.241
816.93	172.727
817.23	160.976
817.53	132.143
817.84	122.222
818.14	159.524
818.44	143.750
818.74	116.981
819.04	133.333
819.35	157.576
819.65	125.000
819.95	137.037
820.25	144.681
820.56	140.541
820.86	189.474
821.16	114.894
821.46	144.737
821.76	118.182
822.07	111.905
822.37	121.053
822.67	162.791
822.97	139.474
823.27	126.087
823.57	184.375
823.88	143.590
824.18	139.394
824.48	200.000
824.78	166.667
825.08	230.435
825.38	196.552
825.69	152.941
825.99	110.638
826.29	161.111
826.59	157.143
826.89	173.333
827.19	157.143
827.49	167.742
827.79	226.923
828.09	138.095
828.39	158.333
828.70	127.027
829.00	175.000
829.30	287.500
829.60	136.111
829.90	190.323
830.20	124.242
830.50	151.351
830.80	212.500
831.10	192.308
831.40	247.619
831.70	216.667
832.00	186.667
832.30	239.130
832.60	212.500
832.90	190.909
833.20	300.000
833.50	147.368
833.80	158.824
834.10	144.737
834.40	215.789
834.70	153.333
835.00	248.000
835.30	145.946
835.60	187.500
835.90	159.459
836.20	176.923
836.50	200.000
836.80	131.707
837.10	173.913
837.40	469.231
837.70	268.421
838.00	193.333
838.30	220.833
838.60	180.000
838.90	460.000
839.19	243.750
839.49	160.000
839.79	200.000
840.09	184.615
840.39	280.000
840.69	247.368
840.99	176.190
841.29	208.696
841.59	270.000
841.88	236.000
842.18	377.778
842.48	153.571
842.78	185.185
843.08	269.231
843.38	272.727
843.68	314.286
843.97	514.286
844.27	169.565
844.57	1600.000
844.87	364.286
845.17	283.333
845.47	200.000
845.76	233.333
846.06	614.286
846.36	182.353
846.66	384.615
846.96	300.000
847.25	261.538
847.55	194.737
847.85	233.333
848.15	820.000
848.44	454.545
848.74	185.714
849.04	220.833
849.34	182.353
849.63	300.000
849.93	300.000
850.23	1333.333
850.53	462.500
850.82	427.273
851.12	264.706
851.42	212.500
851.71	306.250
852.01	0.000
852.31	252.941
852.61	470.000
852.90	220.833
853.20	377.778
853.50	-2800.000
853.79	204.000
854.09	165.625
854.39	148.276
854.68	172.414
854.98	233.333
855.28	161.290
855.57	307.143
855.87	155.556
856.17	159.259
856.46	242.105
856.76	164.516
857.05	288.235
857.35	472.727
857.65	353.846
857.94	240.000
858.24	500.000
858.53	357.143
858.83	714.286
859.13	191.304
859.42	488.889
859.72	500.000
860.01	333.333
860.31	825.000
860.60	460.000
860.90	562.500
861.20	323.077
861.49	585.714
861.79	-4300.000
862.08	585.714
862.38	422.222
862.67	271.429
862.97	470.000
863.26	163.333
863.56	750.000
863.85	330.769
864.15	311.765
864.44	227.778
864.74	325.000
865.03	318.182
865.33	475.000
865.62	280.000
865.92	783.333
866.21	1100.000
866.51	720.000
866.80	266.667
867.10	1366.667
867.39	4100.000
867.69	900.000
867.98	1000.000
868.27	204.762
868.57	313.333
868.86	1050.000
869.16	228.571
869.45	4800.000
869.75	-516.667
870.04	900.000
870.33	740.000
870.63	437.500
870.92	270.588
871.22	950.000
871.51	500.000
871.80	375.000
872.10	392.308
>>>>>End Processed Spectral Data<<<<<
