SpectraSuite Data File
++++++++++++++++++++++++++++++++++++
Date: Tue May 12 16:26:11 PDT 2015
User: schluterlab
Dark Spectrum Present: Yes
Reference Spectrum Present: Yes
Number of Sampled Component Spectra: 1
Spectrometers: USB2E3373
Integration Time (usec): 3000 (USB2E3373)
Spectra Averaged: 3 (USB2E3373)
Boxcar Smoothing: 0 (USB2E3373)
Correct for Electrical Dark: No (USB2E3373)
Strobe/Lamp Enabled: No (USB2E3373)
Correct for Detector Non-linearity: No (USB2E3373)
Correct for Stray Light: No (USB2E3373)
Number of Pixels in Processed Spectrum: 2048
>>>>>Begin Processed Spectral Data<<<<<
178.53	0.000
178.91	-166.667
179.29	-650.000
179.67	-3200.000
180.04	-120.000
180.42	575.000
180.80	1200.000
181.18	0.000
181.56	-375.000
181.94	0.000
182.31	1066.667
182.69	-2800.000
183.07	528.571
183.45	-3700.000
183.83	-1300.000
184.20	430.000
184.58	500.000
184.96	-200.000
185.34	-233.333
185.72	1250.000
186.09	-750.000
186.47	-2500.000
186.85	900.000
187.23	540.000
187.61	1500.000
187.98	462.500
188.36	242.857
188.74	275.000
189.12	366.667
189.49	800.000
189.87	0.000
190.25	525.000
190.63	2900.000
191.00	-158.333
191.38	-3400.000
191.76	-350.000
192.14	537.500
192.51	-2700.000
192.89	1750.000
193.27	1200.000
193.65	-1133.333
194.02	-820.000
194.40	585.714
194.78	-185.714
195.15	260.000
195.53	-2700.000
195.91	-560.000
196.29	3000.000
196.66	262.500
197.04	525.000
197.42	-1750.000
197.79	625.000
198.17	266.667
198.55	0.000
198.92	557.143
199.30	1233.333
199.68	1700.000
200.05	633.333
200.43	-583.333
200.81	188.889
201.18	2900.000
201.56	316.667
201.94	-800.000
202.31	-300.000
202.69	-620.000
203.07	2700.000
203.44	-283.333
203.82	408.333
204.19	720.000
204.57	-1450.000
204.95	-750.000
205.32	-720.000
205.70	633.333
206.08	775.000
206.45	-733.333
206.83	422.222
207.20	178.947
207.58	333.333
207.96	580.000
208.33	0.000
208.71	614.286
209.08	680.000
209.46	-3100.000
209.84	-700.000
210.21	1060.000
210.59	-540.000
210.96	216.667
211.34	-775.000
211.71	372.727
212.09	875.000
212.46	1850.000
212.84	-350.000
213.22	433.333
213.59	-3500.000
213.97	340.000
214.34	1000.000
214.72	1333.333
215.09	766.667
215.47	-2100.000
215.84	-320.000
216.22	-475.000
216.59	0.000
216.97	0.000
217.34	1550.000
217.72	-1750.000
218.09	1233.333
218.47	425.000
218.84	875.000
219.22	1166.667
219.59	1033.333
219.97	614.286
220.34	400.000
220.72	2000.000
221.09	3400.000
221.47	283.333
221.84	1066.667
222.22	320.000
222.59	211.111
222.97	250.000
223.34	225.000
223.72	-1900.000
224.09	866.667
224.46	269.231
224.84	-650.000
225.21	388.889
225.59	280.000
225.96	1100.000
226.34	-700.000
226.71	-800.000
227.08	-480.000
227.46	0.000
227.83	-550.000
228.21	-1700.000
228.58	391.667
228.95	875.000
229.33	455.556
229.70	1125.000
230.08	292.308
230.45	3100.000
230.82	-725.000
231.20	-666.667
231.57	-1200.000
231.95	500.000
232.32	300.000
232.69	616.667
233.07	325.000
233.44	-1450.000
233.81	293.333
234.19	185.185
234.56	243.750
234.93	200.000
235.31	200.000
235.68	275.000
236.05	175.000
236.43	103.704
236.80	250.000
237.17	175.862
237.55	165.625
237.92	152.500
238.29	190.909
238.67	165.625
239.04	139.024
239.41	93.750
239.79	125.000
240.16	108.333
240.53	95.082
240.91	75.362
241.28	105.085
241.65	90.909
242.02	104.225
242.40	102.857
242.77	82.418
243.14	72.152
243.51	86.869
243.89	71.963
244.26	60.748
244.63	79.208
245.00	72.477
245.38	66.102
245.75	67.424
246.12	69.630
246.49	64.539
246.87	66.393
247.24	67.333
247.61	62.500
247.98	66.667
248.36	61.818
248.73	68.367
249.10	64.286
249.47	62.500
249.84	59.204
250.22	63.243
250.59	60.000
250.96	55.274
251.33	59.070
251.70	60.714
252.08	62.185
252.45	57.769
252.82	54.753
253.19	56.917
253.56	57.308
253.94	53.623
254.31	57.364
254.68	59.233
255.05	58.276
255.42	55.839
255.79	52.769
256.16	51.525
256.54	56.818
256.91	51.961
257.28	54.849
257.65	50.470
258.02	52.507
258.39	53.009
258.76	53.623
259.14	50.286
259.51	55.685
259.88	55.015
260.25	52.473
260.62	50.959
260.99	49.862
261.36	53.203
261.73	50.000
262.10	55.497
262.47	52.500
262.85	51.467
263.22	52.699
263.59	51.151
263.96	52.381
264.33	50.864
264.70	53.563
265.07	50.732
265.44	51.376
265.81	50.472
266.18	48.970
266.55	51.064
266.92	51.007
267.29	52.632
267.66	49.776
268.03	50.224
268.40	49.471
268.77	47.797
269.14	47.939
269.51	48.107
269.88	50.000
270.25	46.004
270.62	50.000
270.99	48.884
271.36	51.626
271.73	49.266
272.10	47.475
272.47	51.190
272.84	48.503
273.21	49.380
273.58	47.368
273.95	48.460
274.32	50.000
274.69	54.724
275.06	48.634
275.43	50.383
275.80	47.358
276.17	48.346
276.54	48.972
276.91	48.134
277.28	46.533
277.65	46.863
278.02	45.404
278.39	45.504
278.76	47.414
279.13	47.687
279.50	46.000
279.87	46.555
280.23	45.488
280.60	46.350
280.97	43.966
281.34	46.700
281.71	44.870
282.08	47.009
282.45	44.932
282.82	46.656
283.19	45.469
283.56	44.463
283.92	45.603
284.29	45.092
284.66	43.361
285.03	44.444
285.40	42.314
285.77	43.210
286.14	43.808
286.51	45.399
286.87	42.247
287.24	41.441
287.61	41.337
287.98	42.537
288.35	42.667
288.72	40.971
289.08	41.441
289.45	43.140
289.82	42.500
290.19	41.728
290.56	41.339
290.93	38.705
291.29	39.503
291.66	41.243
292.03	39.271
292.40	40.379
292.77	39.415
293.13	39.515
293.50	38.866
293.87	37.127
294.24	38.741
294.60	39.435
294.97	40.140
295.34	37.450
295.71	38.108
296.08	38.267
296.44	37.992
296.81	34.739
297.18	36.122
297.55	37.315
297.91	35.099
298.28	35.507
298.65	35.583
299.02	35.826
299.38	35.971
299.75	36.098
300.12	36.468
300.48	37.237
300.85	36.472
301.22	35.349
301.59	35.849
301.95	36.056
302.32	36.088
302.69	36.991
303.05	36.925
303.42	32.623
303.79	35.753
304.15	35.314
304.52	35.095
304.89	34.115
305.25	35.150
305.62	34.328
305.99	33.804
306.35	35.684
306.72	35.588
307.09	36.957
307.45	34.424
307.82	34.465
308.19	35.979
308.55	33.500
308.92	36.212
309.29	35.602
309.65	35.976
310.02	36.714
310.38	35.294
310.75	34.137
311.12	35.345
311.48	37.355
311.85	37.786
312.22	36.390
312.58	35.666
312.95	35.922
313.31	37.079
313.68	35.366
314.05	37.454
314.41	37.151
314.78	37.405
315.14	39.242
315.51	37.370
315.87	37.135
316.24	38.469
316.61	38.496
316.97	37.248
317.34	38.634
317.70	39.596
318.07	40.302
318.43	39.895
318.80	40.806
319.16	40.385
319.53	40.973
319.89	41.219
320.26	42.644
320.62	41.667
320.99	42.612
321.35	41.929
321.72	42.410
322.08	42.290
322.45	41.599
322.81	43.733
323.18	42.629
323.54	44.425
323.91	45.331
324.27	45.447
324.64	45.156
325.00	46.379
325.37	47.723
325.73	47.302
326.10	48.633
326.46	46.243
326.83	46.240
327.19	47.711
327.56	48.003
327.92	49.180
328.29	48.773
328.65	48.630
329.01	48.246
329.38	49.323
329.74	47.395
330.11	50.565
330.47	49.787
330.84	48.663
331.20	50.592
331.56	50.691
331.93	50.813
332.29	49.830
332.66	49.915
333.02	50.601
333.38	50.873
333.75	50.792
334.11	51.174
334.48	50.940
334.84	50.929
335.20	51.240
335.57	50.714
335.93	50.715
336.29	49.171
336.66	52.316
337.02	51.155
337.38	51.075
337.75	51.943
338.11	50.717
338.47	50.127
338.84	50.804
339.20	50.563
339.56	50.547
339.93	50.836
340.29	51.765
340.65	53.479
341.02	51.810
341.38	51.642
341.74	50.831
342.11	51.503
342.47	50.451
342.83	52.748
343.20	53.274
343.56	50.040
343.92	53.179
344.28	53.589
344.65	52.323
345.01	51.587
345.37	51.122
345.73	51.825
346.10	51.793
346.46	53.190
346.82	51.389
347.19	52.473
347.55	52.381
347.91	52.719
348.27	50.891
348.63	51.187
349.00	51.104
349.36	53.074
349.72	53.058
350.08	54.425
350.45	53.161
350.81	52.752
351.17	51.541
351.53	51.732
351.89	51.748
352.26	52.532
352.62	53.620
352.98	52.837
353.34	52.157
353.70	51.529
354.07	53.615
354.43	52.304
354.79	51.025
355.15	52.757
355.51	51.888
355.87	52.033
356.24	53.041
356.60	52.055
356.96	51.933
357.32	53.052
357.68	52.056
358.04	53.875
358.40	53.673
358.77	53.569
359.13	53.904
359.49	52.335
359.85	53.462
360.21	53.120
360.57	53.066
360.93	53.102
361.29	52.742
361.66	53.542
362.02	51.349
362.38	53.752
362.74	53.503
363.10	53.226
363.46	52.555
363.82	53.226
364.18	53.343
364.54	54.006
364.90	53.012
365.26	55.586
365.62	52.831
365.98	52.168
366.35	52.483
366.71	53.574
367.07	52.901
367.43	52.854
367.79	53.524
368.15	51.696
368.51	54.376
368.87	52.038
369.23	54.539
369.59	53.068
369.95	54.196
370.31	52.635
370.67	52.394
371.03	52.591
371.39	53.047
371.75	53.315
372.11	52.821
372.47	53.425
372.83	53.841
373.19	54.284
373.55	53.402
373.91	52.348
374.27	52.579
374.63	52.678
374.99	53.976
375.35	52.957
375.71	53.100
376.07	51.989
376.42	52.110
376.78	53.886
377.14	55.046
377.50	52.247
377.86	52.851
378.22	53.748
378.58	54.903
378.94	52.746
379.30	52.456
379.66	52.980
380.02	52.317
380.38	51.991
380.74	54.095
381.09	52.629
381.45	51.908
381.81	53.073
382.17	53.480
382.53	51.170
382.89	52.927
383.25	52.339
383.61	52.450
383.97	51.290
384.32	53.104
384.68	54.070
385.04	53.283
385.40	51.305
385.76	51.726
386.12	53.185
386.48	52.584
386.83	53.117
387.19	52.179
387.55	51.708
387.91	52.367
388.27	52.409
388.62	52.876
388.98	51.370
389.34	50.684
389.70	51.002
390.06	52.439
390.42	51.943
390.77	51.843
391.13	50.634
391.49	51.785
391.85	51.508
392.20	51.430
392.56	51.374
392.92	50.253
393.28	50.729
393.64	49.713
393.99	50.089
394.35	50.677
394.71	49.879
395.07	50.243
395.42	50.351
395.78	51.635
396.14	50.964
396.50	50.421
396.85	49.573
397.21	50.181
397.57	49.313
397.92	48.816
398.28	50.469
398.64	49.971
399.00	49.492
399.35	49.114
399.71	49.834
400.07	49.144
400.42	49.552
400.78	49.384
401.14	50.440
401.49	48.963
401.85	49.305
402.21	48.916
402.57	50.030
402.92	48.424
403.28	48.926
403.63	47.322
403.99	49.156
404.35	50.410
404.70	50.856
405.06	47.445
405.42	48.953
405.77	48.512
406.13	48.644
406.49	48.607
406.84	47.772
407.20	48.231
407.55	48.123
407.91	48.437
408.27	47.665
408.62	47.842
408.98	48.137
409.34	47.633
409.69	47.106
410.05	48.479
410.40	48.174
410.76	47.224
411.11	47.571
411.47	46.914
411.83	47.803
412.18	47.283
412.54	46.907
412.89	46.608
413.25	47.948
413.60	47.488
413.96	46.978
414.31	46.753
414.67	47.424
415.03	45.785
415.38	47.382
415.74	48.073
416.09	46.221
416.45	47.188
416.80	47.723
417.16	46.340
417.51	45.924
417.87	47.247
418.22	47.084
418.58	46.369
418.93	44.795
419.29	46.642
419.64	46.154
420.00	46.002
420.35	46.109
420.71	45.799
421.06	46.439
421.42	45.078
421.77	46.308
422.12	45.369
422.48	45.198
422.83	45.647
423.19	45.410
423.54	44.652
423.90	46.036
424.25	46.890
424.61	46.082
424.96	45.398
425.31	45.539
425.67	46.016
426.02	45.990
426.38	44.282
426.73	46.154
427.09	45.552
427.44	44.851
427.79	44.654
428.15	46.494
428.50	45.829
428.85	45.679
429.21	44.516
429.56	44.816
429.92	45.052
430.27	44.267
430.62	42.829
430.98	44.461
431.33	43.397
431.68	42.469
432.04	44.439
432.39	45.445
432.74	44.965
433.10	45.404
433.45	44.630
433.80	45.505
434.16	44.877
434.51	44.582
434.86	43.876
435.22	44.462
435.57	44.517
435.92	44.166
436.28	44.240
436.63	43.814
436.98	45.495
437.34	44.463
437.69	44.121
438.04	43.710
438.39	45.009
438.75	44.098
439.10	44.630
439.45	44.093
439.81	44.477
440.16	43.808
440.51	43.919
440.86	44.843
441.22	44.102
441.57	43.937
441.92	42.942
442.27	43.814
442.63	43.750
442.98	42.672
443.33	44.135
443.68	43.461
444.03	42.931
444.39	43.597
444.74	43.478
445.09	43.971
445.44	43.518
445.79	43.470
446.15	43.684
446.50	43.460
446.85	42.878
447.20	42.886
447.55	43.774
447.91	44.752
448.26	43.557
448.61	44.279
448.96	43.519
449.31	43.674
449.66	43.411
450.02	43.004
450.37	43.809
450.72	44.132
451.07	43.746
451.42	42.739
451.77	44.444
452.12	42.711
452.47	43.013
452.83	43.831
453.18	44.264
453.53	44.642
453.88	42.971
454.23	43.289
454.58	42.774
454.93	42.918
455.28	44.982
455.63	43.440
455.98	42.583
456.34	44.134
456.69	43.171
457.04	43.019
457.39	42.914
457.74	44.651
458.09	41.662
458.44	43.045
458.79	43.183
459.14	42.662
459.49	43.035
459.84	42.826
460.19	42.316
460.54	42.051
460.89	43.443
461.24	42.211
461.59	43.027
461.94	43.262
462.29	42.620
462.64	43.844
462.99	43.698
463.34	43.357
463.69	42.952
464.04	42.545
464.39	42.473
464.74	42.028
465.09	42.136
465.44	42.329
465.79	42.188
466.14	41.017
466.49	41.183
466.84	41.527
467.19	41.711
467.54	42.462
467.89	42.195
468.24	41.633
468.59	41.845
468.94	41.908
469.29	41.234
469.64	41.929
469.99	42.416
470.34	41.113
470.68	42.000
471.03	41.961
471.38	41.854
471.73	41.346
472.08	42.205
472.43	42.520
472.78	42.702
473.13	40.801
473.48	41.993
473.83	41.814
474.17	41.702
474.52	41.410
474.87	40.080
475.22	41.519
475.57	41.973
475.92	40.879
476.27	39.935
476.61	41.501
476.96	41.275
477.31	41.594
477.66	42.136
478.01	40.640
478.36	40.886
478.70	39.107
479.05	40.010
479.40	40.427
479.75	41.311
480.10	40.416
480.45	39.216
480.79	39.171
481.14	40.228
481.49	39.616
481.84	40.413
482.19	39.782
482.53	40.097
482.88	39.875
483.23	39.332
483.58	39.946
483.92	40.631
484.27	38.570
484.62	40.577
484.97	38.333
485.31	38.054
485.66	37.243
486.01	36.347
486.36	36.275
486.70	36.101
487.05	37.117
487.40	37.583
487.75	37.630
488.09	37.756
488.44	38.305
488.79	38.355
489.13	37.850
489.48	38.993
489.83	38.866
490.17	36.788
490.52	39.276
490.87	38.922
491.22	40.293
491.56	38.999
491.91	39.247
492.26	39.065
492.60	39.317
492.95	39.239
493.30	38.899
493.64	39.488
493.99	38.685
494.34	38.368
494.68	39.088
495.03	39.246
495.37	38.946
495.72	38.834
496.07	38.544
496.41	38.662
496.76	38.033
497.11	38.346
497.45	38.492
497.80	39.713
498.14	39.390
498.49	38.022
498.84	39.766
499.18	37.477
499.53	39.274
499.87	38.500
500.22	39.060
500.56	38.394
500.91	39.100
501.26	39.090
501.60	38.251
501.95	37.993
502.29	38.533
502.64	37.450
502.98	38.328
503.33	38.218
503.67	37.351
504.02	36.453
504.36	38.009
504.71	37.796
505.06	38.667
505.40	38.980
505.75	38.120
506.09	38.451
506.44	37.688
506.78	38.138
507.13	38.051
507.47	38.379
507.82	38.102
508.16	38.364
508.51	37.923
508.85	36.847
509.19	38.424
509.54	37.646
509.88	38.787
510.23	37.794
510.57	37.162
510.92	38.212
511.26	37.651
511.61	37.666
511.95	38.825
512.30	38.000
512.64	37.799
512.98	38.339
513.33	38.217
513.67	37.752
514.02	38.545
514.36	37.124
514.70	37.547
515.05	38.359
515.39	38.322
515.74	40.405
516.08	38.072
516.42	39.781
516.77	37.707
517.11	37.120
517.46	38.470
517.80	37.575
518.14	38.873
518.49	37.376
518.83	37.363
519.17	37.826
519.52	38.940
519.86	38.692
520.20	38.082
520.55	38.666
520.89	38.966
521.23	39.544
521.58	38.267
521.92	37.609
522.26	37.263
522.61	38.978
522.95	38.438
523.29	39.006
523.64	37.919
523.98	38.028
524.32	38.293
524.66	37.681
525.01	37.041
525.35	37.596
525.69	39.193
526.04	37.656
526.38	38.081
526.72	38.246
527.06	37.315
527.41	38.029
527.75	38.344
528.09	37.086
528.43	38.621
528.78	37.806
529.12	37.869
529.46	36.470
529.80	37.266
530.15	37.301
530.49	36.763
530.83	37.172
531.17	38.561
531.51	37.830
531.86	37.500
532.20	36.527
532.54	36.660
532.88	38.039
533.22	37.355
533.57	37.523
533.91	35.606
534.25	34.391
534.59	36.199
534.93	36.974
535.27	36.483
535.62	36.698
535.96	35.638
536.30	37.294
536.64	36.957
536.98	36.249
537.32	36.438
537.66	36.416
538.01	37.090
538.35	37.367
538.69	35.558
539.03	36.194
539.37	35.801
539.71	36.543
540.05	36.615
540.39	37.044
540.73	36.519
541.07	36.700
541.42	36.132
541.76	35.943
542.10	36.005
542.44	35.973
542.78	35.746
543.12	35.521
543.46	35.150
543.80	35.464
544.14	36.037
544.48	35.036
544.82	35.535
545.16	35.762
545.50	36.509
545.84	36.111
546.18	36.671
546.52	36.066
546.86	36.170
547.20	35.401
547.54	35.212
547.88	35.158
548.22	35.094
548.56	33.883
548.90	35.053
549.24	34.365
549.58	34.214
549.92	36.673
550.26	36.849
550.60	36.727
550.94	36.160
551.28	35.862
551.62	36.483
551.96	34.865
552.30	35.135
552.64	35.663
552.98	34.472
553.32	34.443
553.66	35.179
554.00	35.586
554.34	36.418
554.68	34.946
555.02	36.049
555.36	34.109
555.69	34.490
556.03	34.013
556.37	35.182
556.71	34.681
557.05	33.683
557.39	34.933
557.73	35.647
558.07	35.345
558.41	36.189
558.75	35.841
559.08	35.311
559.42	35.648
559.76	35.495
560.10	34.343
560.44	34.904
560.78	35.294
561.12	34.838
561.45	35.232
561.79	33.583
562.13	33.039
562.47	34.718
562.81	34.548
563.15	34.518
563.48	32.671
563.82	34.435
564.16	33.582
564.50	33.213
564.84	33.860
565.17	33.868
565.51	34.667
565.85	33.991
566.19	34.643
566.52	33.153
566.86	33.859
567.20	33.652
567.54	33.461
567.88	33.490
568.21	31.952
568.55	33.123
568.89	32.573
569.23	30.846
569.56	31.789
569.90	30.722
570.24	30.528
570.57	30.013
570.91	29.766
571.25	29.923
571.59	28.990
571.92	28.471
572.26	29.353
572.60	29.047
572.93	29.212
573.27	29.954
573.61	28.776
573.95	29.133
574.28	29.278
574.62	28.621
574.96	28.006
575.29	28.322
575.63	28.575
575.97	28.311
576.30	28.524
576.64	28.582
576.98	28.372
577.31	28.757
577.65	28.322
577.98	27.978
578.32	27.276
578.66	27.819
578.99	28.026
579.33	28.439
579.67	28.248
580.00	28.021
580.34	28.319
580.67	27.584
581.01	28.045
581.35	27.907
581.68	27.251
582.02	27.526
582.35	27.355
582.69	27.808
583.02	27.658
583.36	28.116
583.70	28.199
584.03	28.834
584.37	28.799
584.70	28.539
585.04	27.909
585.37	27.728
585.71	28.000
586.04	28.284
586.38	27.819
586.72	28.443
587.05	28.487
587.39	28.142
587.72	28.275
588.06	27.986
588.39	28.173
588.73	27.813
589.06	29.034
589.40	29.609
589.73	28.974
590.07	29.101
590.40	29.756
590.73	29.820
591.07	30.436
591.40	29.461
591.74	29.667
592.07	30.408
592.41	29.416
592.74	29.037
593.08	28.255
593.41	28.007
593.75	28.316
594.08	28.981
594.41	28.413
594.75	29.178
595.08	29.218
595.42	29.164
595.75	28.595
596.09	28.398
596.42	28.696
596.75	29.487
597.09	29.922
597.42	29.469
597.75	29.006
598.09	29.545
598.42	29.294
598.76	28.489
599.09	28.908
599.42	28.339
599.76	28.155
600.09	28.305
600.42	28.419
600.76	28.314
601.09	28.236
601.42	28.828
601.76	29.144
602.09	29.470
602.42	29.020
602.76	28.767
603.09	29.261
603.42	28.917
603.76	28.706
604.09	27.796
604.42	28.663
604.76	29.119
605.09	28.980
605.42	28.403
605.75	28.464
606.09	28.921
606.42	29.425
606.75	28.527
607.09	28.583
607.42	28.686
607.75	28.543
608.08	29.204
608.42	29.153
608.75	29.012
609.08	29.388
609.41	29.045
609.75	29.579
610.08	29.047
610.41	28.546
610.74	28.874
611.07	29.468
611.41	29.518
611.74	29.015
612.07	29.239
612.40	29.045
612.73	30.205
613.07	29.448
613.40	29.724
613.73	30.055
614.06	28.900
614.39	29.394
614.72	29.181
615.06	28.882
615.39	29.208
615.72	28.703
616.05	30.035
616.38	29.731
616.71	29.680
617.05	30.038
617.38	29.719
617.71	29.190
618.04	31.071
618.37	29.238
618.70	29.677
619.03	30.342
619.36	30.842
619.69	31.332
620.03	31.572
620.36	30.572
620.69	32.375
621.02	31.046
621.35	31.017
621.68	31.416
622.01	31.365
622.34	30.954
622.67	32.093
623.00	30.701
623.33	30.567
623.66	31.537
623.99	31.644
624.32	31.233
624.65	31.336
624.99	31.440
625.32	31.463
625.65	30.414
625.98	29.428
626.31	31.973
626.64	31.283
626.97	30.604
627.30	31.832
627.63	30.848
627.96	31.142
628.29	32.343
628.62	32.335
628.95	34.043
629.28	34.181
629.61	31.898
629.94	31.634
630.26	31.802
630.59	32.535
630.92	32.556
631.25	32.638
631.58	32.015
631.91	33.302
632.24	32.653
632.57	31.336
632.90	34.369
633.23	33.578
633.56	33.404
633.89	34.084
634.22	33.800
634.55	33.333
634.88	34.173
635.20	34.417
635.53	35.308
635.86	34.004
636.19	33.446
636.52	34.054
636.85	33.118
637.18	33.261
637.51	32.849
637.83	33.410
638.16	35.170
638.49	34.611
638.82	36.033
639.15	33.725
639.48	34.716
639.81	34.676
640.13	34.847
640.46	34.893
640.79	34.070
641.12	34.908
641.45	34.282
641.77	36.196
642.10	34.940
642.43	34.139
642.76	34.517
643.09	36.455
643.41	35.764
643.74	34.101
644.07	37.463
644.40	34.911
644.73	36.186
645.05	36.999
645.38	37.060
645.71	37.633
646.04	38.321
646.36	37.246
646.69	36.160
647.02	36.000
647.35	35.591
647.67	35.818
648.00	38.274
648.33	34.286
648.66	36.364
648.98	32.174
649.31	35.088
649.64	34.163
649.96	34.139
650.29	33.857
650.62	37.113
650.94	34.789
651.27	37.002
651.60	35.994
651.92	35.023
652.25	37.008
652.58	34.043
652.90	33.533
653.23	33.087
653.56	35.163
653.88	35.242
654.21	34.311
654.54	32.796
654.86	33.776
655.19	33.641
655.52	28.365
655.84	22.846
656.17	26.207
656.49	37.364
656.82	41.848
657.15	33.265
657.47	25.204
657.80	19.233
658.13	15.455
658.45	21.457
658.78	25.297
659.10	25.911
659.43	25.876
659.75	27.125
660.08	28.258
660.41	30.944
660.73	33.752
661.06	34.234
661.38	36.627
661.71	35.612
662.03	37.452
662.36	35.619
662.68	35.009
663.01	38.559
663.33	36.792
663.66	37.870
663.98	38.095
664.31	38.619
664.63	39.272
664.96	37.148
665.28	35.970
665.61	34.340
665.93	36.226
666.26	36.822
666.58	35.780
666.91	36.873
667.23	36.747
667.56	36.756
667.88	36.307
668.21	36.270
668.53	37.097
668.86	38.677
669.18	38.900
669.50	35.331
669.83	40.041
670.15	35.967
670.48	34.766
670.80	37.251
671.13	35.657
671.45	38.277
671.77	35.807
672.10	35.727
672.42	33.717
672.75	32.120
673.07	34.181
673.39	32.109
673.72	34.429
674.04	35.663
674.37	36.479
674.69	34.015
675.01	36.194
675.34	32.946
675.66	36.914
675.98	35.897
676.31	36.600
676.63	33.797
676.95	37.500
677.28	34.280
677.60	34.406
677.92	35.119
678.25	35.853
678.57	34.078
678.89	36.166
679.22	33.640
679.54	35.409
679.86	32.635
680.18	33.919
680.51	34.992
680.83	31.419
681.15	33.449
681.48	34.375
681.80	32.750
682.12	32.872
682.44	31.712
682.77	35.943
683.09	36.505
683.41	38.367
683.73	37.598
684.06	33.135
684.38	35.271
684.70	35.252
685.02	32.986
685.34	33.451
685.67	31.833
685.99	33.826
686.31	31.433
686.63	31.382
686.96	32.843
687.28	32.550
687.60	32.082
687.92	31.323
688.24	33.621
688.56	35.765
688.89	34.226
689.21	35.067
689.53	35.968
689.85	35.569
690.17	34.757
690.49	36.492
690.82	35.504
691.14	38.586
691.46	36.550
691.78	35.478
692.10	32.443
692.42	35.209
692.74	33.721
693.06	34.302
693.39	32.609
693.71	34.381
694.03	33.728
694.35	37.751
694.67	32.383
694.99	35.698
695.31	36.261
695.63	36.652
695.95	36.878
696.27	35.619
696.59	35.800
696.91	33.165
697.23	37.104
697.56	31.743
697.88	32.934
698.20	32.830
698.52	31.907
698.84	33.881
699.16	39.232
699.48	33.475
699.80	34.423
700.12	37.413
700.44	37.383
700.76	37.709
701.08	37.076
701.40	37.403
701.72	40.374
702.04	35.501
702.36	36.290
702.68	40.957
703.00	34.837
703.32	36.476
703.64	35.516
703.96	34.635
704.28	39.683
704.60	37.183
704.91	37.535
705.23	39.205
705.55	39.466
705.87	38.095
706.19	37.304
706.51	39.185
706.83	35.693
707.15	35.561
707.47	34.867
707.79	35.402
708.11	32.200
708.43	35.056
708.74	32.579
709.06	32.791
709.38	34.739
709.70	32.970
710.02	38.587
710.34	36.188
710.66	36.944
710.98	37.432
711.29	36.212
711.61	38.997
711.93	36.778
712.25	37.048
712.57	38.585
712.89	38.788
713.20	39.297
713.52	36.449
713.84	39.879
714.16	31.884
714.48	36.311
714.80	37.940
715.11	35.372
715.43	32.961
715.75	33.521
716.07	34.971
716.39	38.000
716.70	34.891
717.02	36.700
717.34	41.727
717.66	40.972
717.97	46.212
718.29	41.901
718.61	34.797
718.93	39.792
719.24	38.926
719.56	35.862
719.88	35.032
720.20	37.097
720.51	34.967
720.83	39.799
721.15	37.415
721.46	36.301
721.78	39.024
722.10	36.111
722.42	42.475
722.73	36.823
723.05	38.947
723.37	37.456
723.68	38.672
724.00	42.424
724.32	35.361
724.63	39.615
724.95	42.745
725.27	35.688
725.58	34.926
725.90	33.099
726.22	36.986
726.53	41.806
726.85	39.088
727.16	39.933
727.48	36.545
727.80	41.007
728.11	34.643
728.43	35.145
728.74	37.762
729.06	33.692
729.38	36.140
729.69	38.667
730.01	40.461
730.32	35.235
730.64	33.887
730.96	35.135
731.27	31.498
731.59	31.322
731.90	37.604
732.22	35.429
732.53	28.775
732.85	40.351
733.16	33.735
733.48	34.483
733.80	35.652
734.11	39.571
734.43	34.211
734.74	32.172
735.06	35.979
735.37	31.701
735.69	32.754
736.00	36.697
736.32	34.242
736.63	31.546
736.95	34.161
737.26	36.585
737.58	36.503
737.89	31.928
738.21	32.450
738.52	35.117
738.83	38.828
739.15	36.934
739.46	35.172
739.78	40.476
740.09	36.443
740.41	34.969
740.72	40.000
741.04	37.063
741.35	38.672
741.66	39.526
741.98	39.914
742.29	39.815
742.61	35.841
742.92	36.441
743.23	35.600
743.55	33.962
743.86	34.510
744.18	41.102
744.49	37.603
744.80	45.161
745.12	37.946
745.43	36.449
745.74	41.333
746.06	42.982
746.37	41.860
746.68	44.690
747.00	40.359
747.31	40.756
747.62	38.115
747.94	40.773
748.25	36.187
748.56	40.678
748.88	38.839
749.19	40.000
749.50	40.183
749.82	42.387
750.13	41.502
750.44	30.333
750.75	36.242
751.07	33.224
751.38	34.653
751.69	36.027
752.01	32.168
752.32	34.551
752.63	37.248
752.94	35.315
753.26	42.578
753.57	43.969
753.88	38.202
754.19	35.379
754.51	34.219
754.82	36.242
755.13	35.811
755.44	38.148
755.75	39.175
756.07	34.589
756.38	32.353
756.69	33.125
757.00	35.608
757.31	33.803
757.63	29.477
757.94	30.319
758.25	30.918
758.56	27.689
758.87	31.830
759.18	35.465
759.50	32.827
759.81	30.564
760.12	31.461
760.43	32.213
760.74	31.899
761.05	31.565
761.36	28.646
761.67	31.267
761.99	32.113
762.30	37.299
762.61	35.069
762.92	32.197
763.23	34.717
763.54	42.308
763.85	35.019
764.16	39.583
764.47	35.473
764.78	31.596
765.10	32.012
765.41	30.398
765.72	30.387
766.03	32.931
766.34	34.146
766.65	34.601
766.96	42.915
767.27	43.458
767.58	43.069
767.89	39.779
768.20	46.341
768.51	44.388
768.82	35.526
769.13	38.824
769.44	32.331
769.75	36.330
770.06	39.076
770.37	37.281
770.68	30.667
770.99	39.831
771.30	41.423
771.61	41.154
771.92	39.313
772.23	36.290
772.54	37.333
772.85	46.535
773.16	44.565
773.47	43.889
773.78	41.584
774.09	44.318
774.39	44.848
774.70	40.588
775.01	41.447
775.32	47.826
775.63	40.411
775.94	53.086
776.25	48.276
776.56	44.275
776.87	49.618
777.18	43.939
777.48	59.055
777.79	51.538
778.10	50.000
778.41	52.239
778.72	53.383
779.03	42.949
779.34	39.189
779.65	40.994
779.95	45.342
780.26	36.905
780.57	51.701
780.88	53.191
781.19	55.833
781.50	47.337
781.80	42.077
782.11	42.857
782.42	39.655
782.73	45.763
783.04	39.355
783.34	43.411
783.65	46.939
783.96	45.806
784.27	44.371
784.57	38.158
784.88	52.174
785.19	43.333
785.50	52.586
785.81	55.039
786.11	47.407
786.42	46.457
786.73	53.153
787.04	52.830
787.34	47.154
787.65	56.061
787.96	54.545
788.26	55.906
788.57	55.474
788.88	40.845
789.19	38.168
789.49	48.649
789.80	45.313
790.11	50.413
790.41	55.556
790.72	38.889
791.03	45.192
791.33	50.505
791.64	56.842
791.95	51.579
792.25	56.250
792.56	56.000
792.87	64.634
793.17	57.955
793.48	65.882
793.79	58.621
794.09	60.227
794.40	58.621
794.70	50.000
795.01	43.077
795.32	41.985
795.62	30.769
795.93	57.983
796.23	52.846
796.54	60.204
796.85	57.955
797.15	66.234
797.46	62.195
797.76	61.250
798.07	70.667
798.37	67.500
798.68	70.000
798.99	70.732
799.29	70.667
799.60	43.023
799.90	61.842
800.21	71.212
800.51	76.056
800.82	79.310
801.12	81.538
801.43	70.667
801.73	75.862
802.04	67.532
802.34	56.164
802.65	76.471
802.95	86.957
803.26	88.710
803.56	85.000
803.87	65.672
804.17	60.317
804.48	81.132
804.78	70.833
805.09	68.182
805.39	87.302
805.70	85.965
806.00	62.857
806.30	60.937
806.61	58.824
806.91	58.889
807.22	60.870
807.52	55.263
807.83	61.842
808.13	75.362
808.43	79.032
808.74	78.082
809.04	85.714
809.35	64.706
809.65	86.364
809.95	96.078
810.26	92.593
810.56	84.375
810.86	106.122
811.17	85.965
811.47	106.522
811.77	82.759
812.08	70.690
812.38	88.095
812.69	97.619
812.99	73.333
813.29	137.143
813.59	148.387
813.90	75.862
814.20	70.492
814.50	78.000
814.81	77.193
815.11	59.259
815.41	85.714
815.72	91.071
816.02	94.000
816.32	104.878
816.62	100.000
816.93	133.333
817.23	85.366
817.53	87.500
817.84	91.111
818.14	102.381
818.44	95.833
818.74	88.679
819.04	87.179
819.35	133.333
819.65	105.769
819.95	100.000
820.25	106.383
820.56	110.811
820.86	115.789
821.16	91.489
821.46	113.158
821.76	89.091
822.07	73.810
822.37	107.895
822.67	102.326
822.97	94.737
823.27	82.609
823.57	90.625
823.88	141.026
824.18	121.212
824.48	169.565
824.78	119.444
825.08	173.913
825.38	110.345
825.69	129.412
825.99	102.128
826.29	80.556
826.59	122.857
826.89	143.333
827.19	94.286
827.49	122.581
827.79	173.077
828.09	66.667
828.39	63.889
828.70	75.676
829.00	178.571
829.30	162.500
829.60	111.111
829.90	112.903
830.20	90.909
830.50	108.108
830.80	175.000
831.10	180.769
831.40	200.000
831.70	179.167
832.00	136.667
832.30	186.957
832.60	179.167
832.90	169.697
833.20	140.000
833.50	121.053
833.80	117.647
834.10	105.263
834.40	189.474
834.70	96.667
835.00	140.000
835.30	113.514
835.60	134.375
835.90	127.027
836.20	111.538
836.50	109.091
836.80	112.195
837.10	191.304
837.40	338.462
837.70	157.895
838.00	153.333
838.30	141.667
838.60	140.000
838.90	380.000
839.19	143.750
839.49	150.000
839.79	131.034
840.09	134.615
840.39	186.667
840.69	221.053
840.99	100.000
841.29	173.913
841.59	190.000
841.88	160.000
842.18	288.889
842.48	135.714
842.78	144.444
843.08	238.462
843.38	163.636
843.68	242.857
843.97	514.286
844.27	139.130
844.57	1550.000
844.87	357.143
845.17	238.889
845.47	157.143
845.76	187.500
846.06	485.714
846.36	176.471
846.66	253.846
846.96	256.250
847.25	200.000
847.55	152.632
847.85	216.667
848.15	560.000
848.44	309.091
848.74	190.476
849.04	183.333
849.34	164.706
849.63	212.500
849.93	268.750
850.23	900.000
850.53	462.500
850.82	227.273
851.12	176.471
851.42	166.667
851.71	243.750
852.01	0.000
852.31	182.353
852.61	480.000
852.90	158.333
853.20	377.778
853.50	-2100.000
853.79	204.000
854.09	128.125
854.39	110.345
854.68	151.724
854.98	190.476
855.28	151.613
855.57	250.000
855.87	172.222
856.17	155.556
856.46	163.158
856.76	109.677
857.05	276.471
857.35	254.545
857.65	276.923
857.94	150.000
858.24	444.444
858.53	314.286
858.83	614.286
859.13	182.609
859.42	288.889
859.72	375.000
860.01	291.667
860.31	775.000
860.60	400.000
860.90	387.500
861.20	284.615
861.49	414.286
861.79	-3000.000
862.08	385.714
862.38	388.889
862.67	250.000
862.97	320.000
863.26	146.667
863.56	925.000
863.85	207.692
864.15	252.941
864.44	127.778
864.74	275.000
865.03	290.909
865.33	350.000
865.62	213.333
865.92	500.000
866.21	1075.000
866.51	380.000
866.80	266.667
867.10	1000.000
867.39	3100.000
867.69	560.000
867.98	1000.000
868.27	204.762
868.57	246.667
868.86	825.000
869.16	166.667
869.45	3200.000
869.75	-583.333
870.04	750.000
870.33	600.000
870.63	450.000
870.92	200.000
871.22	625.000
871.51	385.714
871.80	283.333
872.10	261.538
>>>>>End Processed Spectral Data<<<<<
