SpectraSuite Data File
++++++++++++++++++++++++++++++++++++
Date: Tue May 12 16:35:43 PDT 2015
User: schluterlab
Dark Spectrum Present: Yes
Reference Spectrum Present: Yes
Number of Sampled Component Spectra: 1
Spectrometers: USB2E3373
Integration Time (usec): 3000 (USB2E3373)
Spectra Averaged: 3 (USB2E3373)
Boxcar Smoothing: 0 (USB2E3373)
Correct for Electrical Dark: No (USB2E3373)
Strobe/Lamp Enabled: No (USB2E3373)
Correct for Detector Non-linearity: No (USB2E3373)
Correct for Stray Light: No (USB2E3373)
Number of Pixels in Processed Spectrum: 2048
>>>>>Begin Processed Spectral Data<<<<<
178.53	0.000
178.91	-200.000
179.29	-800.000
179.67	-3000.000
180.04	-140.000
180.42	675.000
180.80	1500.000
181.18	0.000
181.56	-350.000
181.94	0.000
182.31	833.333
182.69	-2600.000
183.07	600.000
183.45	-3900.000
183.83	-1200.000
184.20	290.000
184.58	542.857
184.96	-230.769
185.34	-166.667
185.72	1850.000
186.09	-750.000
186.47	-3200.000
186.85	1000.000
187.23	540.000
187.61	1450.000
187.98	412.500
188.36	300.000
188.74	383.333
189.12	375.000
189.49	750.000
189.87	0.000
190.25	350.000
190.63	2100.000
191.00	-150.000
191.38	-2400.000
191.76	-750.000
192.14	525.000
192.51	-2100.000
192.89	1750.000
193.27	1200.000
193.65	-1200.000
194.02	-600.000
194.40	628.571
194.78	-171.429
195.15	173.333
195.53	-3000.000
195.91	-400.000
196.29	3700.000
196.66	212.500
197.04	775.000
197.42	-1400.000
197.79	750.000
198.17	275.000
198.55	0.000
198.92	285.714
199.30	1033.333
199.68	1450.000
200.05	650.000
200.43	-250.000
200.81	161.111
201.18	3700.000
201.56	275.000
201.94	-675.000
202.31	-312.500
202.69	-740.000
203.07	3200.000
203.44	-416.667
203.82	391.667
204.19	620.000
204.57	-1350.000
204.95	-675.000
205.32	-860.000
205.70	483.333
206.08	775.000
206.45	-933.333
206.83	433.333
207.20	168.421
207.58	241.667
207.96	740.000
208.33	0.000
208.71	557.143
209.08	440.000
209.46	-2300.000
209.84	-600.000
210.21	880.000
210.59	-560.000
210.96	325.000
211.34	-700.000
211.71	427.273
212.09	800.000
212.46	1700.000
212.84	-566.667
213.22	433.333
213.59	-1400.000
213.97	300.000
214.34	1050.000
214.72	1166.667
215.09	900.000
215.47	-2300.000
215.84	-290.000
216.22	-312.500
216.59	0.000
216.97	0.000
217.34	1150.000
217.72	-1100.000
218.09	1266.667
218.47	450.000
218.84	400.000
219.22	1266.667
219.59	1033.333
219.97	442.857
220.34	433.333
220.72	1300.000
221.09	2200.000
221.47	250.000
221.84	733.333
222.22	310.000
222.59	211.111
222.97	285.714
223.34	212.500
223.72	-1500.000
224.09	966.667
224.46	284.615
224.84	-900.000
225.21	288.889
225.59	206.667
225.96	1233.333
226.34	-620.000
226.71	-800.000
227.08	-420.000
227.46	0.000
227.83	-333.333
228.21	-1300.000
228.58	308.333
228.95	850.000
229.33	388.889
229.70	1075.000
230.08	261.538
230.45	2500.000
230.82	-725.000
231.20	-766.667
231.57	-633.333
231.95	540.000
232.32	308.333
232.69	683.333
233.07	350.000
233.44	-1100.000
233.81	180.000
234.19	129.630
234.56	225.000
234.93	176.471
235.31	170.000
235.68	206.250
236.05	146.429
236.43	140.741
236.80	242.857
237.17	134.483
237.55	125.000
237.92	112.500
238.29	118.182
238.67	112.500
239.04	102.439
239.41	68.750
239.79	97.500
240.16	87.500
240.53	55.738
240.91	50.725
241.28	47.458
241.65	43.939
242.02	56.338
242.40	68.571
242.77	56.044
243.14	35.443
243.51	50.505
243.89	44.860
244.26	26.168
244.63	46.535
245.00	34.862
245.38	30.508
245.75	34.848
246.12	31.111
246.49	37.589
246.87	33.607
247.24	34.000
247.61	37.500
247.98	35.374
248.36	24.848
248.73	36.224
249.10	27.976
249.47	33.000
249.84	26.368
250.22	28.649
250.59	29.500
250.96	26.582
251.33	26.047
251.70	29.018
252.08	26.471
252.45	23.904
252.82	25.475
253.19	26.087
253.56	21.923
253.94	24.275
254.31	20.543
254.68	22.648
255.05	25.862
255.42	23.723
255.79	24.430
256.16	21.356
256.54	21.104
256.91	20.261
257.28	23.411
257.65	19.122
258.02	18.584
258.39	23.782
258.76	22.319
259.14	20.571
259.51	24.490
259.88	23.100
260.25	19.780
260.62	21.644
260.99	17.906
261.36	17.270
261.73	20.213
262.10	19.110
262.47	20.250
262.85	19.733
263.22	18.252
263.59	24.041
263.96	20.301
264.33	18.519
264.70	20.147
265.07	18.780
265.44	21.330
265.81	20.283
266.18	19.451
266.55	17.258
266.92	19.016
267.29	17.763
267.66	18.386
268.03	18.386
268.40	19.027
268.77	19.824
269.14	17.787
269.51	17.817
269.88	18.163
270.25	14.687
270.62	17.382
270.99	19.878
271.36	15.041
271.73	16.352
272.10	18.990
272.47	17.857
272.84	15.170
273.21	17.562
273.58	19.028
273.95	20.329
274.32	17.704
274.69	18.701
275.06	18.033
275.43	17.433
275.80	15.660
276.17	18.382
276.54	18.505
276.91	19.403
277.28	17.153
277.65	16.052
278.02	17.096
278.39	18.705
278.76	16.552
279.13	16.904
279.50	15.818
279.87	16.574
280.23	17.311
280.60	16.241
280.97	16.034
281.34	15.182
281.71	19.130
282.08	15.726
282.45	15.541
282.82	16.890
283.19	15.103
283.56	14.380
283.92	17.915
284.29	16.639
284.66	15.630
285.03	15.589
285.40	15.041
285.77	14.198
286.14	17.183
286.51	15.337
286.87	15.665
287.24	13.964
287.61	15.046
287.98	14.030
288.35	15.556
288.72	14.112
289.08	16.216
289.45	14.787
289.82	15.313
290.19	15.813
290.56	17.031
290.93	14.532
291.29	13.122
291.66	13.701
292.03	15.147
292.40	15.447
292.77	14.067
293.13	16.405
293.50	14.035
293.87	13.144
294.24	14.126
294.60	15.478
294.97	14.545
295.34	14.077
295.71	14.717
296.08	14.000
296.44	14.740
296.81	13.275
297.18	13.054
297.55	13.547
297.91	12.315
298.28	13.406
298.65	13.006
299.02	12.666
299.38	13.909
299.75	12.683
300.12	13.073
300.48	13.934
300.85	13.826
301.22	13.605
301.59	11.203
301.95	12.019
302.32	12.806
302.69	13.575
303.05	13.131
303.42	13.117
303.79	13.868
304.15	12.321
304.52	13.002
304.89	14.072
305.25	13.014
305.62	11.940
305.99	11.957
306.35	11.895
306.72	11.342
307.09	12.319
307.45	12.672
307.82	11.111
308.19	12.577
308.55	11.700
308.92	13.346
309.29	13.116
309.65	12.289
310.02	13.489
310.38	11.665
310.75	12.825
311.12	12.356
311.48	12.838
311.85	13.359
312.22	12.703
312.58	12.731
312.95	12.816
313.31	13.483
313.68	12.852
314.05	13.828
314.41	13.128
314.78	11.648
315.14	13.555
315.51	13.529
315.87	12.956
316.24	14.846
316.61	12.355
316.97	12.752
317.34	13.657
317.70	12.994
318.07	14.235
318.43	13.620
318.80	14.098
319.16	13.811
319.53	14.248
319.89	13.172
320.26	14.618
320.62	16.026
320.99	15.348
321.35	16.419
321.72	16.224
322.08	15.974
322.45	16.440
322.81	14.456
323.18	15.719
323.54	17.422
323.91	16.591
324.27	15.385
324.64	15.311
325.00	16.724
325.37	18.212
325.73	17.116
326.10	17.730
326.46	17.836
326.83	16.320
327.19	17.510
327.56	16.853
327.92	18.033
328.29	19.067
328.65	18.579
329.01	17.622
329.38	18.528
329.74	17.336
330.11	18.071
330.47	17.562
330.84	16.739
331.20	18.866
331.56	19.085
331.93	19.333
332.29	17.687
332.66	18.707
333.02	17.698
333.38	17.976
333.75	19.933
334.11	18.708
334.48	17.607
334.84	18.074
335.20	19.675
335.57	18.052
335.93	17.746
336.29	17.910
336.66	18.868
337.02	17.707
337.38	18.057
337.75	18.834
338.11	18.143
338.47	17.443
338.84	17.866
339.20	17.576
339.56	18.335
339.93	18.478
340.29	17.311
340.65	19.195
341.02	18.986
341.38	18.227
341.74	19.020
342.11	18.280
342.47	17.637
342.83	17.801
343.20	18.432
343.56	17.156
343.92	18.084
344.28	18.900
344.65	17.604
345.01	18.413
345.37	17.628
345.73	17.460
346.10	17.689
346.46	18.660
346.82	18.210
347.19	18.547
347.55	17.564
347.91	17.749
348.27	17.583
348.63	17.563
349.00	18.355
349.36	17.198
349.72	18.731
350.08	18.556
350.45	19.040
350.81	18.731
351.17	16.333
351.53	17.398
351.89	18.493
352.26	16.704
352.62	18.627
352.98	17.561
353.34	18.336
353.70	15.826
354.07	18.615
354.43	18.049
354.79	17.388
355.15	18.070
355.51	17.749
355.87	18.223
356.24	17.398
356.60	17.047
356.96	17.210
357.32	17.182
357.68	17.988
358.04	16.869
358.40	18.741
358.77	18.032
359.13	17.793
359.49	17.569
359.85	17.647
360.21	17.608
360.57	18.686
360.93	16.955
361.29	17.965
361.66	17.897
362.02	16.406
362.38	17.965
362.74	18.117
363.10	18.093
363.46	16.989
363.82	18.022
364.18	17.212
364.54	18.169
364.90	18.005
365.26	17.488
365.62	17.610
365.98	16.999
366.35	16.759
366.71	17.349
367.07	17.133
367.43	17.864
367.79	17.021
368.15	16.621
368.51	17.781
368.87	16.101
369.23	17.186
369.59	17.869
369.95	18.601
370.31	17.043
370.67	17.280
371.03	18.137
371.39	16.967
371.75	17.097
372.11	17.539
372.47	17.397
372.83	17.811
373.19	17.958
373.55	17.663
373.91	16.367
374.27	17.857
374.63	17.559
374.99	17.655
375.35	17.137
375.71	17.216
376.07	17.706
376.42	16.688
376.78	17.983
377.14	17.890
377.50	17.478
377.86	17.809
378.22	17.367
378.58	17.797
378.94	18.407
379.30	17.041
379.66	17.821
380.02	18.240
380.38	17.272
380.74	18.166
381.09	18.400
381.45	17.746
381.81	17.435
382.17	17.766
382.53	17.936
382.89	17.504
383.25	17.348
383.61	17.867
383.97	17.337
384.32	17.480
384.68	18.479
385.04	18.171
385.40	17.200
385.76	17.554
386.12	18.120
386.48	17.082
386.83	17.726
387.19	17.727
387.55	17.786
387.91	17.667
388.27	17.728
388.62	18.016
388.98	16.968
389.34	16.597
389.70	16.981
390.06	17.378
390.42	17.212
390.77	17.752
391.13	17.984
391.49	17.907
391.85	17.415
392.20	17.938
392.56	18.399
392.92	17.181
393.28	17.545
393.64	17.431
393.99	17.546
394.35	17.599
394.71	16.707
395.07	16.727
395.42	17.213
395.78	17.890
396.14	17.892
396.50	16.847
396.85	17.683
397.21	17.208
397.57	17.992
397.92	17.042
398.28	16.878
398.64	18.092
399.00	16.462
399.35	16.694
399.71	17.329
400.07	17.009
400.42	17.015
400.78	16.891
401.14	16.853
401.49	16.359
401.85	17.092
402.21	16.813
402.57	17.654
402.92	17.152
403.28	17.243
403.63	16.833
403.99	17.672
404.35	17.526
404.70	17.484
405.06	16.395
405.42	16.457
405.77	16.097
406.13	16.757
406.49	16.543
406.84	16.187
407.20	16.267
407.55	17.600
407.91	17.167
408.27	17.101
408.62	16.617
408.98	17.268
409.34	16.832
409.69	17.050
410.05	15.742
410.40	16.843
410.76	16.256
411.11	16.114
411.47	16.975
411.83	15.173
412.18	15.580
412.54	16.396
412.89	16.460
413.25	16.705
413.60	16.472
413.96	17.475
414.31	15.939
414.67	17.753
415.03	17.178
415.38	16.088
415.74	16.298
416.09	16.240
416.45	18.100
416.80	17.383
417.16	16.741
417.51	16.369
417.87	15.707
418.22	17.193
418.58	16.369
418.93	15.883
419.29	16.143
419.64	16.475
420.00	17.422
420.35	15.912
420.71	16.453
421.06	16.480
421.42	16.350
421.77	16.269
422.12	16.262
422.48	16.538
422.83	16.629
423.19	16.631
423.54	16.840
423.90	16.591
424.25	16.236
424.61	17.063
424.96	16.431
425.31	16.858
425.67	16.891
426.02	16.601
426.38	16.336
426.73	17.004
427.09	17.497
427.44	16.995
427.79	16.409
428.15	17.148
428.50	16.971
428.85	16.931
429.21	16.153
429.56	16.600
429.92	16.857
430.27	16.207
430.62	16.642
430.98	16.218
431.33	17.087
431.68	16.247
432.04	16.813
432.39	17.234
432.74	17.506
433.10	16.611
433.45	17.231
433.80	17.540
434.16	16.448
434.51	17.492
434.86	17.910
435.22	16.478
435.57	17.190
435.92	17.814
436.28	18.260
436.63	17.234
436.98	17.849
437.34	17.066
437.69	16.685
438.04	17.742
438.39	17.513
438.75	16.871
439.10	16.838
439.45	17.694
439.81	17.929
440.16	17.116
440.51	16.779
440.86	17.721
441.22	17.478
441.57	17.480
441.92	17.177
442.27	16.392
442.63	16.768
442.98	16.810
443.33	16.979
443.68	17.103
444.03	17.059
444.39	17.750
444.74	17.288
445.09	17.167
445.44	17.216
445.79	16.715
446.15	17.000
446.50	17.563
446.85	17.580
447.20	16.816
447.55	17.129
447.91	18.380
448.26	17.412
448.61	17.966
448.96	17.484
449.31	17.547
449.66	17.497
450.02	16.586
450.37	16.269
450.72	17.631
451.07	17.743
451.42	17.487
451.77	17.640
452.12	17.811
452.47	17.740
452.83	17.746
453.18	16.997
453.53	17.821
453.88	18.057
454.23	17.664
454.58	17.657
454.93	17.535
455.28	18.543
455.63	17.612
455.98	17.992
456.34	17.933
456.69	17.561
457.04	17.601
457.39	17.371
457.74	18.468
458.09	17.687
458.44	17.744
458.79	17.719
459.14	17.567
459.49	18.007
459.84	18.098
460.19	17.684
460.54	17.721
460.89	17.164
461.24	17.698
461.59	18.424
461.94	17.553
462.29	17.849
462.64	18.656
462.99	18.298
463.34	18.730
463.69	18.330
464.04	18.077
464.39	18.432
464.74	17.409
465.09	18.224
465.44	17.247
465.79	17.039
466.14	17.329
466.49	16.983
466.84	17.781
467.19	18.161
467.54	17.718
467.89	17.899
468.24	18.066
468.59	17.679
468.94	17.935
469.29	18.326
469.64	18.264
469.99	17.609
470.34	17.774
470.68	18.621
471.03	18.212
471.38	18.079
471.73	17.636
472.08	19.374
472.43	17.877
472.78	18.630
473.13	18.210
473.48	18.154
473.83	18.080
474.17	18.055
474.52	18.306
474.87	18.192
475.22	17.590
475.57	18.206
475.92	17.578
476.27	17.737
476.61	17.265
476.96	17.555
477.31	18.046
477.66	18.143
478.01	17.999
478.36	17.302
478.70	16.625
479.05	17.207
479.40	17.560
479.75	17.875
480.10	17.183
480.45	17.554
480.79	17.880
481.14	17.594
481.49	17.521
481.84	17.414
482.19	17.860
482.53	17.962
482.88	17.697
483.23	17.095
483.58	17.190
483.92	18.236
484.27	16.866
484.62	17.317
484.97	16.985
485.31	16.672
485.66	16.315
486.01	15.383
486.36	15.504
486.70	15.453
487.05	15.695
487.40	16.406
487.75	16.260
488.09	16.477
488.44	16.699
488.79	16.418
489.13	17.357
489.48	16.940
489.83	17.598
490.17	17.052
490.52	17.399
490.87	17.845
491.22	17.332
491.56	18.226
491.91	17.742
492.26	17.996
492.60	18.132
492.95	18.124
493.30	18.016
493.64	17.385
493.99	17.487
494.34	17.078
494.68	17.486
495.03	18.051
495.37	18.505
495.72	17.855
496.07	17.385
496.41	17.376
496.76	16.969
497.11	17.352
497.45	17.887
497.80	17.563
498.14	18.031
498.49	18.013
498.84	18.271
499.18	17.093
499.53	17.869
499.87	17.296
500.22	17.457
500.56	17.084
500.91	18.646
501.26	18.006
501.60	17.942
501.95	17.339
502.29	17.511
502.64	17.292
502.98	16.630
503.33	17.595
503.67	17.307
504.02	17.510
504.36	18.054
504.71	17.975
505.06	17.738
505.40	17.642
505.75	17.680
506.09	18.105
506.44	17.434
506.78	17.769
507.13	17.547
507.47	17.855
507.82	18.248
508.16	18.079
508.51	18.116
508.85	18.376
509.19	17.670
509.54	18.115
509.88	18.399
510.23	17.696
510.57	17.471
510.92	18.581
511.26	17.520
511.61	17.725
511.95	18.118
512.30	17.600
512.64	17.757
512.98	17.940
513.33	18.340
513.67	18.488
514.02	17.974
514.36	17.965
514.70	17.867
515.05	17.315
515.39	17.928
515.74	18.535
516.08	18.246
516.42	18.798
516.77	18.613
517.11	18.187
517.46	18.319
517.80	17.859
518.14	19.099
518.49	18.026
518.83	18.352
519.17	18.525
519.52	18.733
519.86	17.548
520.20	18.575
520.55	18.768
520.89	18.506
521.23	18.224
521.58	18.703
521.92	18.426
522.26	18.780
522.61	18.598
522.95	18.498
523.29	19.474
523.64	17.861
523.98	19.190
524.32	18.570
524.66	18.609
525.01	17.988
525.35	18.680
525.69	19.506
526.04	19.274
526.38	18.717
526.72	17.900
527.06	18.391
527.41	19.468
527.75	18.381
528.09	18.122
528.43	18.426
528.78	18.843
529.12	19.205
529.46	18.936
529.80	18.049
530.15	18.150
530.49	17.990
530.83	18.891
531.17	18.758
531.51	19.436
531.86	18.297
532.20	17.553
532.54	18.895
532.88	18.988
533.22	18.586
533.57	19.097
533.91	17.133
534.25	17.657
534.59	18.772
534.93	18.373
535.27	17.245
535.62	17.911
535.96	17.849
536.30	18.830
536.64	18.199
536.98	18.565
537.32	18.375
537.66	18.304
538.01	18.824
538.35	18.715
538.69	17.658
539.03	17.537
539.37	18.204
539.71	18.457
540.05	18.400
540.39	19.308
540.73	18.797
541.07	17.378
541.42	17.724
541.76	18.927
542.10	18.557
542.44	19.264
542.78	17.684
543.12	17.853
543.46	18.672
543.80	18.421
544.14	18.762
544.48	17.944
544.82	19.205
545.16	16.697
545.50	18.623
545.84	18.687
546.18	19.051
546.52	19.213
546.86	18.053
547.20	17.700
547.54	18.936
547.88	17.822
548.22	18.458
548.56	18.562
548.90	17.734
549.24	18.762
549.58	18.686
549.92	18.533
550.26	18.323
550.60	18.297
550.94	17.775
551.28	19.379
551.62	19.517
551.96	17.703
552.30	17.732
552.64	19.029
552.98	18.363
553.32	18.118
553.66	18.567
554.00	18.468
554.34	19.174
554.68	18.481
555.02	18.398
555.36	18.285
555.69	18.783
556.03	18.917
556.37	18.356
556.71	18.709
557.05	17.693
557.39	18.733
557.73	19.542
558.07	18.578
558.41	18.369
558.75	19.220
559.08	18.370
559.42	19.112
559.76	19.173
560.10	18.307
560.44	18.115
560.78	19.246
561.12	19.326
561.45	18.711
561.79	18.664
562.13	17.941
562.47	17.716
562.81	18.738
563.15	17.841
563.48	17.019
563.82	18.840
564.16	17.848
564.50	18.746
564.84	18.359
565.17	18.360
565.51	18.411
565.85	18.939
566.19	18.631
566.52	17.208
566.86	18.097
567.20	17.697
567.54	17.740
567.88	17.684
568.21	16.925
568.55	17.121
568.89	17.153
569.23	17.688
569.56	16.933
569.90	16.349
570.24	16.525
570.57	16.450
570.91	16.131
571.25	15.777
571.59	15.877
571.92	15.178
572.26	15.283
572.60	15.357
572.93	15.699
573.27	15.049
573.61	15.512
573.95	15.637
574.28	15.487
574.62	15.184
574.96	15.212
575.29	14.716
575.63	14.912
575.97	15.019
576.30	14.933
576.64	14.887
576.98	14.883
577.31	15.633
577.65	15.015
577.98	14.682
578.32	14.530
578.66	14.794
578.99	14.663
579.33	14.953
579.67	14.909
580.00	14.859
580.34	14.819
580.67	15.101
581.01	15.317
581.35	14.868
581.68	14.647
582.02	14.555
582.35	14.690
582.69	14.627
583.02	14.888
583.36	14.934
583.70	15.103
584.03	15.188
584.37	15.295
584.70	15.302
585.04	15.299
585.37	14.540
585.71	15.371
586.04	15.261
586.38	14.891
586.72	15.573
587.05	15.440
587.39	15.499
587.72	15.248
588.06	14.974
588.39	15.507
588.73	15.364
589.06	15.524
589.40	15.336
589.73	15.339
590.07	16.369
590.40	16.272
590.73	16.379
591.07	16.395
591.40	15.848
591.74	15.828
592.07	15.433
592.41	16.427
592.74	15.233
593.08	15.462
593.41	15.171
593.75	15.256
594.08	15.830
594.41	15.314
594.75	15.411
595.08	15.844
595.42	15.866
595.75	15.597
596.09	15.885
596.42	15.368
596.75	16.506
597.09	16.467
597.42	15.796
597.75	15.700
598.09	15.962
598.42	16.524
598.76	15.960
599.09	16.182
599.42	15.433
599.76	15.943
600.09	15.831
600.42	15.504
600.76	15.092
601.09	15.568
601.42	15.769
601.76	15.288
602.09	15.820
602.42	15.601
602.76	15.750
603.09	15.988
603.42	15.817
603.76	16.197
604.09	15.671
604.42	15.631
604.76	16.120
605.09	16.082
605.42	15.969
605.75	15.989
606.09	15.761
606.42	15.596
606.75	15.585
607.09	15.792
607.42	15.830
607.75	16.003
608.08	15.719
608.42	16.275
608.75	15.233
609.08	16.102
609.41	16.091
609.75	16.438
610.08	16.862
610.41	15.810
610.74	16.061
611.07	16.462
611.41	16.728
611.74	16.300
612.07	15.848
612.40	16.277
612.73	16.475
613.07	16.878
613.40	16.341
613.73	16.276
614.06	15.850
614.39	16.465
614.72	16.675
615.06	16.271
615.39	16.782
615.72	15.102
616.05	16.424
616.38	16.591
616.71	16.983
617.05	16.529
617.38	16.573
617.71	17.042
618.04	17.050
618.37	16.454
618.70	15.647
619.03	16.422
619.36	17.337
619.69	16.689
620.03	18.395
620.36	17.277
620.69	18.008
621.02	17.527
621.35	17.622
621.68	17.699
622.01	18.450
622.34	17.844
622.67	17.697
623.00	17.699
623.33	17.679
623.66	17.099
623.99	16.712
624.32	17.954
624.65	17.709
624.99	17.715
625.32	17.435
625.65	17.172
625.98	17.573
626.31	17.433
626.64	16.325
626.97	18.057
627.30	17.780
627.63	18.289
627.96	18.310
628.29	17.904
628.62	17.879
628.95	19.681
629.28	20.508
629.61	17.575
629.94	18.669
630.26	18.804
630.59	18.794
630.92	18.834
631.25	19.583
631.58	21.601
631.91	19.791
632.24	18.465
632.57	18.173
632.90	20.186
633.23	20.881
633.56	19.494
633.89	19.293
634.22	19.806
634.55	19.570
634.88	19.387
635.20	21.188
635.53	20.325
635.86	20.358
636.19	20.426
636.52	19.351
636.85	18.339
637.18	19.285
637.51	19.330
637.83	19.336
638.16	21.219
638.49	20.120
638.82	20.657
639.15	19.624
639.48	22.512
639.81	20.391
640.13	20.859
640.46	21.997
640.79	20.676
641.12	20.341
641.45	20.440
641.77	19.683
642.10	20.750
642.43	21.906
642.76	18.608
643.09	20.749
643.41	21.459
643.74	21.151
644.07	20.501
644.40	22.041
644.73	20.871
645.05	22.288
645.38	22.818
645.71	19.879
646.04	20.916
646.36	21.596
646.69	21.760
647.02	24.800
647.35	21.260
647.67	21.718
648.00	22.150
648.33	21.955
648.66	24.091
648.98	20.000
649.31	19.838
649.64	21.162
649.96	20.484
650.29	19.429
650.62	21.060
650.94	22.590
651.27	20.893
651.60	20.188
651.92	21.045
652.25	21.575
652.58	20.567
652.90	19.461
653.23	21.713
653.56	21.513
653.88	20.999
654.21	20.381
654.54	20.644
654.86	21.829
655.19	19.657
655.52	16.951
655.84	12.581
656.17	13.935
656.49	20.256
656.82	23.415
657.15	19.046
657.47	14.379
657.80	10.745
658.13	8.203
658.45	11.113
658.78	13.915
659.10	14.093
659.43	14.484
659.75	15.118
660.08	16.416
660.41	17.877
660.73	20.326
661.06	20.120
661.38	23.169
661.71	21.942
662.03	23.004
662.36	22.476
662.68	20.298
663.01	24.144
663.33	23.962
663.66	23.471
663.98	25.992
664.31	22.948
664.63	25.670
664.96	24.390
665.28	22.976
665.61	22.075
665.93	22.264
666.26	22.617
666.58	24.954
666.91	22.973
667.23	22.289
667.56	25.051
667.88	24.689
668.21	23.770
668.53	23.992
668.86	23.647
669.18	24.236
669.50	20.868
669.83	21.766
670.15	23.493
670.48	22.266
670.80	24.104
671.13	25.498
671.45	25.852
671.77	23.933
672.10	20.108
672.42	20.888
672.75	21.519
673.07	21.463
673.39	20.128
673.72	22.145
674.04	19.713
674.37	22.868
674.69	22.677
675.01	20.149
675.34	19.380
675.66	23.828
675.98	25.444
676.31	22.800
676.63	22.068
676.95	21.825
677.28	21.704
677.60	22.133
677.92	21.825
678.25	22.868
678.57	21.974
678.89	22.785
679.22	22.610
679.54	23.310
679.86	22.688
680.18	19.684
680.51	18.076
680.83	19.257
681.15	22.010
681.48	22.743
681.80	20.665
682.12	19.723
682.44	21.622
682.77	21.530
683.09	23.689
683.41	22.041
683.73	21.457
684.06	22.421
684.38	23.450
684.70	21.223
685.02	20.660
685.34	20.775
685.67	20.579
685.99	20.854
686.31	19.723
686.63	19.837
686.96	20.752
687.28	19.631
687.60	21.843
687.92	22.446
688.24	21.724
688.56	21.708
688.89	18.929
689.21	21.965
689.53	21.542
689.85	21.748
690.17	22.524
690.49	20.363
690.82	20.798
691.14	22.020
691.46	22.177
691.78	24.366
692.10	20.420
692.42	21.416
692.74	20.543
693.06	22.868
693.39	19.960
693.71	21.022
694.03	24.655
694.35	23.092
694.67	23.218
694.99	22.616
695.31	22.072
695.63	21.041
695.95	20.362
696.27	21.903
696.59	22.196
696.91	19.241
697.23	23.982
697.56	19.917
697.88	17.365
698.20	21.321
698.52	20.623
698.84	21.766
699.16	23.028
699.48	22.881
699.80	22.440
700.12	23.326
700.44	22.664
700.76	24.821
701.08	22.977
701.40	22.597
701.72	24.064
702.04	27.642
702.36	26.613
702.68	22.340
703.00	23.058
703.32	24.318
703.64	25.189
703.96	23.958
704.28	22.222
704.60	24.507
704.91	21.289
705.23	23.864
705.55	27.596
705.87	27.302
706.19	28.213
706.51	29.467
706.83	27.139
707.15	22.727
707.47	24.939
707.79	23.218
708.11	21.315
708.43	22.697
708.74	22.624
709.06	22.558
709.38	23.325
709.70	23.433
710.02	22.826
710.34	22.928
710.66	27.222
710.98	25.683
711.29	22.563
711.61	26.741
711.93	24.012
712.25	23.494
712.57	25.402
712.89	27.879
713.20	29.393
713.52	25.857
713.84	25.076
714.16	20.000
714.48	21.614
714.80	21.951
715.11	22.074
715.43	22.067
715.75	23.380
716.07	25.145
716.39	22.857
716.70	24.299
717.02	25.589
717.34	29.496
717.66	26.042
717.97	29.545
718.29	28.521
718.61	24.662
718.93	30.450
719.24	25.168
719.56	24.828
719.88	23.248
720.20	27.742
720.51	24.837
720.83	23.411
721.15	26.531
721.46	25.342
721.78	29.617
722.10	27.431
722.42	25.084
722.73	22.744
723.05	27.719
723.37	30.035
723.68	28.516
724.00	28.030
724.32	27.376
724.63	28.077
724.95	27.451
725.27	26.766
725.58	22.794
725.90	23.944
726.22	24.315
726.53	24.749
726.85	26.059
727.16	25.839
727.48	24.252
727.80	28.417
728.11	26.071
728.43	27.899
728.74	25.874
729.06	20.430
729.38	28.070
729.69	27.667
730.01	25.658
730.32	24.161
730.64	26.578
730.96	23.724
731.27	19.572
731.59	20.115
731.90	22.563
732.22	22.286
732.53	17.379
732.85	24.561
733.16	25.301
733.48	25.392
733.80	24.928
734.11	28.528
734.43	20.468
734.74	21.716
735.06	23.016
735.37	20.361
735.69	20.870
736.00	27.217
736.32	20.000
736.63	18.927
736.95	22.981
737.26	26.524
737.58	23.926
737.89	22.289
738.21	23.510
738.52	26.756
738.83	33.333
739.15	24.739
739.46	24.483
739.78	27.211
740.09	24.490
740.41	20.859
740.72	28.254
741.04	27.273
741.35	23.047
741.66	28.854
741.98	25.322
742.29	33.333
742.61	24.779
742.92	27.966
743.23	26.400
743.55	24.528
743.86	27.451
744.18	32.627
744.49	30.165
744.80	27.189
745.12	27.679
745.43	33.645
745.74	28.000
746.06	27.632
746.37	30.698
746.68	35.841
747.00	26.457
747.31	28.571
747.62	25.410
747.94	29.614
748.25	24.514
748.56	30.508
748.88	29.018
749.19	26.047
749.50	24.658
749.82	27.984
750.13	25.296
750.44	25.333
750.75	23.490
751.07	24.342
751.38	25.413
751.69	28.956
752.01	26.573
752.32	23.256
752.63	25.503
752.94	29.720
753.26	29.688
753.57	27.626
753.88	25.468
754.19	28.520
754.51	24.585
754.82	25.503
755.13	27.365
755.44	24.074
755.75	29.897
756.07	22.603
756.38	22.549
756.69	24.688
757.00	27.300
757.31	25.070
757.63	22.865
757.94	21.543
758.25	20.531
758.56	23.799
758.87	23.308
759.18	25.291
759.50	21.884
759.81	23.739
760.12	25.000
760.43	17.647
760.74	24.557
761.05	19.894
761.36	19.010
761.67	21.294
761.99	22.817
762.30	18.328
762.61	22.222
762.92	26.894
763.23	26.792
763.54	26.154
763.85	22.957
764.16	23.264
764.47	26.689
764.78	22.150
765.10	22.256
765.41	19.034
765.72	20.994
766.03	19.637
766.34	24.390
766.65	26.236
766.96	24.291
767.27	32.243
767.58	35.644
767.89	33.149
768.20	34.756
768.51	28.571
768.82	25.439
769.13	30.588
769.44	20.301
769.75	22.846
770.06	24.790
770.37	25.439
770.68	24.000
770.99	25.847
771.30	27.615
771.61	27.692
771.92	29.008
772.23	27.823
772.54	26.222
772.85	31.683
773.16	35.326
773.47	27.778
773.78	32.178
774.09	30.682
774.39	39.394
774.70	22.353
775.01	32.237
775.32	36.646
775.63	38.356
775.94	40.741
776.25	37.241
776.56	44.275
776.87	45.802
777.18	37.121
777.48	50.394
777.79	36.923
778.10	38.636
778.41	43.284
778.72	38.346
779.03	32.051
779.34	35.135
779.65	40.373
779.95	36.646
780.26	30.952
780.57	41.497
780.88	36.170
781.19	44.167
781.50	35.503
781.80	34.973
782.11	31.746
782.42	29.885
782.73	31.073
783.04	34.194
783.34	33.333
783.65	39.456
783.96	28.387
784.27	29.801
784.57	30.263
784.88	34.783
785.19	37.500
785.50	43.103
785.81	44.961
786.11	38.519
786.42	33.858
786.73	40.541
787.04	45.283
787.34	31.707
787.65	43.939
787.96	43.939
788.26	39.370
788.57	34.307
788.88	41.549
789.19	28.244
789.49	40.541
789.80	39.062
790.11	41.322
790.41	48.148
790.72	34.259
791.03	36.538
791.33	49.495
791.64	48.421
791.95	44.211
792.25	39.583
792.56	41.000
792.87	46.341
793.17	34.091
793.48	44.706
793.79	44.828
794.09	40.909
794.40	46.552
794.70	44.444
795.01	36.154
795.32	35.115
795.62	32.479
795.93	39.496
796.23	41.463
796.54	45.918
796.85	45.455
797.15	54.545
797.46	46.341
797.76	41.250
798.07	52.000
798.37	63.750
798.68	51.250
798.99	65.854
799.29	54.667
799.60	45.349
799.90	52.632
800.21	71.212
800.51	57.746
800.82	53.448
801.12	70.769
801.43	76.000
801.73	60.345
802.04	62.338
802.34	58.904
802.65	76.471
802.95	43.478
803.26	75.806
803.56	81.667
803.87	59.701
804.17	65.079
804.48	69.811
804.78	45.833
805.09	69.697
805.39	76.190
805.70	61.404
806.00	50.000
806.30	62.500
806.61	55.294
806.91	61.111
807.22	44.565
807.52	50.000
807.83	56.579
808.13	66.667
808.43	64.516
808.74	58.904
809.04	51.786
809.35	69.118
809.65	60.606
809.95	64.706
810.26	100.000
810.56	62.500
810.86	59.184
811.17	98.246
811.47	76.087
811.77	67.241
812.08	70.690
812.38	80.952
812.69	92.857
812.99	66.667
813.29	100.000
813.59	112.903
813.90	53.448
814.20	83.607
814.50	52.000
814.81	61.404
815.11	87.037
815.41	67.857
815.72	89.286
816.02	94.000
816.32	109.756
816.62	70.690
816.93	112.121
817.23	104.878
817.53	76.786
817.84	80.000
818.14	83.333
818.44	81.250
818.74	66.038
819.04	97.436
819.35	96.970
819.65	92.308
819.95	101.852
820.25	102.128
820.56	113.514
820.86	89.474
821.16	72.340
821.46	84.211
821.76	67.273
822.07	64.286
822.37	86.842
822.67	106.977
822.97	78.947
823.27	82.609
823.57	103.125
823.88	82.051
824.18	84.848
824.48	156.522
824.78	125.000
825.08	108.696
825.38	93.103
825.69	100.000
825.99	87.234
826.29	83.333
826.59	97.143
826.89	86.667
827.19	77.143
827.49	129.032
827.79	146.154
828.09	111.905
828.39	83.333
828.70	64.865
829.00	150.000
829.30	156.250
829.60	91.667
829.90	112.903
830.20	96.970
830.50	118.919
830.80	145.833
831.10	150.000
831.40	195.238
831.70	183.333
832.00	103.333
832.30	169.565
832.60	158.333
832.90	127.273
833.20	200.000
833.50	128.947
833.80	102.941
834.10	102.632
834.40	157.895
834.70	113.333
835.00	120.000
835.30	78.378
835.60	128.125
835.90	102.703
836.20	134.615
836.50	145.455
836.80	85.366
837.10	126.087
837.40	276.923
837.70	168.421
838.00	126.667
838.30	154.167
838.60	92.000
838.90	340.000
839.19	206.250
839.49	133.333
839.79	103.448
840.09	115.385
840.39	220.000
840.69	194.737
840.99	119.048
841.29	165.217
841.59	155.000
841.88	184.000
842.18	388.889
842.48	132.143
842.78	144.444
843.08	246.154
843.38	150.000
843.68	235.714
843.97	357.143
844.27	143.478
844.57	1100.000
844.87	314.286
845.17	222.222
845.47	138.095
845.76	158.333
846.06	485.714
846.36	176.471
846.66	246.154
846.96	237.500
847.25	230.769
847.55	121.053
847.85	200.000
848.15	440.000
848.44	254.545
848.74	119.048
849.04	191.667
849.34	223.529
849.63	256.250
849.93	193.750
850.23	1066.667
850.53	425.000
850.82	281.818
851.12	194.118
851.42	158.333
851.71	131.250
852.01	0.000
852.31	229.412
852.61	390.000
852.90	154.167
853.20	433.333
853.50	-1900.000
853.79	104.000
854.09	134.375
854.39	131.034
854.68	165.517
854.98	195.238
855.28	122.581
855.57	250.000
855.87	183.333
856.17	144.444
856.46	136.842
856.76	103.226
857.05	182.353
857.35	300.000
857.65	200.000
857.94	140.000
858.24	388.889
858.53	285.714
858.83	600.000
859.13	191.304
859.42	322.222
859.72	250.000
860.01	250.000
860.31	1050.000
860.60	380.000
860.90	462.500
861.20	223.077
861.49	342.857
861.79	-3600.000
862.08	400.000
862.38	388.889
862.67	185.714
862.97	320.000
863.26	116.667
863.56	875.000
863.85	230.769
864.15	241.176
864.44	161.111
864.74	291.667
865.03	290.909
865.33	325.000
865.62	240.000
865.92	633.333
866.21	825.000
866.51	600.000
866.80	272.222
867.10	1100.000
867.39	2400.000
867.69	500.000
867.98	700.000
868.27	200.000
868.57	260.000
868.86	550.000
869.16	176.190
869.45	2800.000
869.75	-466.667
870.04	850.000
870.33	620.000
870.63	337.500
870.92	205.882
871.22	875.000
871.51	442.857
871.80	233.333
872.10	276.923
>>>>>End Processed Spectral Data<<<<<
