SpectraSuite Data File
++++++++++++++++++++++++++++++++++++
Date: Tue May 12 16:35:56 PDT 2015
User: schluterlab
Dark Spectrum Present: Yes
Reference Spectrum Present: Yes
Number of Sampled Component Spectra: 1
Spectrometers: USB2E3373
Integration Time (usec): 3000 (USB2E3373)
Spectra Averaged: 3 (USB2E3373)
Boxcar Smoothing: 0 (USB2E3373)
Correct for Electrical Dark: No (USB2E3373)
Strobe/Lamp Enabled: No (USB2E3373)
Correct for Detector Non-linearity: No (USB2E3373)
Correct for Stray Light: No (USB2E3373)
Number of Pixels in Processed Spectrum: 2048
>>>>>Begin Processed Spectral Data<<<<<
178.53	0.000
178.91	-225.000
179.29	-800.000
179.67	-3300.000
180.04	-80.000
180.42	850.000
180.80	1600.000
181.18	0.000
181.56	-287.500
181.94	0.000
182.31	1033.333
182.69	-1900.000
183.07	557.143
183.45	-3100.000
183.83	-1800.000
184.20	410.000
184.58	471.429
184.96	-223.077
185.34	-241.667
185.72	1350.000
186.09	-725.000
186.47	-2400.000
186.85	1333.333
187.23	560.000
187.61	2000.000
187.98	450.000
188.36	264.286
188.74	316.667
189.12	358.333
189.49	775.000
189.87	0.000
190.25	500.000
190.63	2300.000
191.00	-275.000
191.38	-2700.000
191.76	-650.000
192.14	462.500
192.51	-2800.000
192.89	1200.000
193.27	933.333
193.65	-1133.333
194.02	-900.000
194.40	642.857
194.78	-228.571
195.15	240.000
195.53	-2700.000
195.91	-580.000
196.29	4200.000
196.66	243.750
197.04	775.000
197.42	-1350.000
197.79	900.000
198.17	366.667
198.55	0.000
198.92	414.286
199.30	1233.333
199.68	1900.000
200.05	583.333
200.43	-516.667
200.81	194.444
201.18	3600.000
201.56	183.333
201.94	-700.000
202.31	-350.000
202.69	-520.000
203.07	3400.000
203.44	-433.333
203.82	350.000
204.19	600.000
204.57	-1150.000
204.95	-775.000
205.32	-620.000
205.70	400.000
206.08	725.000
206.45	-733.333
206.83	377.778
207.20	252.632
207.58	208.333
207.96	580.000
208.33	0.000
208.71	514.286
209.08	660.000
209.46	-2600.000
209.84	-525.000
210.21	560.000
210.59	-420.000
210.96	266.667
211.34	-800.000
211.71	281.818
212.09	800.000
212.46	1600.000
212.84	-450.000
213.22	411.111
213.59	-2300.000
213.97	380.000
214.34	875.000
214.72	966.667
215.09	1000.000
215.47	-2600.000
215.84	-340.000
216.22	-350.000
216.59	0.000
216.97	0.000
217.34	1800.000
217.72	-950.000
218.09	1333.333
218.47	275.000
218.84	875.000
219.22	1033.333
219.59	966.667
219.97	457.143
220.34	322.222
220.72	1700.000
221.09	3700.000
221.47	275.000
221.84	700.000
222.22	290.000
222.59	194.444
222.97	221.429
223.34	225.000
223.72	-1700.000
224.09	1200.000
224.46	246.154
224.84	-650.000
225.21	300.000
225.59	333.333
225.96	1133.333
226.34	-740.000
226.71	-700.000
227.08	-600.000
227.46	0.000
227.83	-566.667
228.21	-1500.000
228.58	350.000
228.95	800.000
229.33	322.222
229.70	1025.000
230.08	261.538
230.45	2000.000
230.82	-800.000
231.20	-766.667
231.57	-1000.000
231.95	660.000
232.32	241.667
232.69	516.667
233.07	283.333
233.44	-1100.000
233.81	233.333
234.19	151.852
234.56	200.000
234.93	188.235
235.31	180.000
235.68	262.500
236.05	167.857
236.43	144.444
236.80	278.571
237.17	137.931
237.55	100.000
237.92	122.500
238.29	154.545
238.67	128.125
239.04	102.439
239.41	72.917
239.79	92.500
240.16	112.500
240.53	83.607
240.91	66.667
241.28	74.576
241.65	54.545
242.02	74.648
242.40	71.429
242.77	59.341
243.14	48.101
243.51	60.606
243.89	54.206
244.26	54.206
244.63	54.455
245.00	42.202
245.38	40.678
245.75	41.667
246.12	52.593
246.49	41.844
246.87	35.246
247.24	40.667
247.61	44.375
247.98	46.939
248.36	44.242
248.73	43.367
249.10	41.071
249.47	40.500
249.84	36.816
250.22	43.243
250.59	32.500
250.96	37.975
251.33	37.674
251.70	35.268
252.08	39.076
252.45	33.068
252.82	33.080
253.19	33.202
253.56	30.385
253.94	34.783
254.31	33.333
254.68	38.676
255.05	37.241
255.42	32.847
255.79	35.505
256.16	34.915
256.54	34.740
256.91	35.294
257.28	34.448
257.65	30.408
258.02	29.794
258.39	37.249
258.76	35.072
259.14	27.143
259.51	34.694
259.88	32.219
260.25	27.473
260.62	30.959
260.99	30.303
261.36	31.755
261.73	31.649
262.10	35.864
262.47	30.750
262.85	30.933
263.22	33.162
263.59	29.668
263.96	31.328
264.33	27.901
264.70	34.644
265.07	31.220
265.44	31.881
265.81	31.132
266.18	31.808
266.55	31.442
266.92	30.425
267.29	32.018
267.66	30.045
268.03	30.942
268.40	29.810
268.77	32.379
269.14	27.332
269.51	30.290
269.88	30.408
270.25	26.566
270.62	31.116
270.99	30.223
271.36	30.285
271.73	30.608
272.10	29.899
272.47	27.976
272.84	29.741
273.21	28.926
273.58	30.162
273.95	29.158
274.32	29.183
274.69	31.102
275.06	31.330
275.43	28.352
275.80	27.925
276.17	30.699
276.54	28.411
276.91	30.970
277.28	27.372
277.65	29.705
278.02	29.963
278.39	29.317
278.76	28.966
279.13	27.224
279.50	27.091
279.87	27.188
280.23	26.335
280.60	27.737
280.97	30.862
281.34	27.723
281.71	29.565
282.08	29.744
282.45	27.027
282.82	28.261
283.19	29.094
283.56	25.785
283.92	28.339
284.29	29.451
284.66	27.899
285.03	28.856
285.40	26.116
285.77	27.932
286.14	26.316
286.51	29.294
286.87	25.000
287.24	25.526
287.61	26.292
287.98	25.821
288.35	24.741
288.72	27.162
289.08	26.426
289.45	25.610
289.82	27.500
290.19	25.769
290.56	26.638
290.93	24.748
291.29	25.414
291.66	24.294
292.03	24.965
292.40	24.661
292.77	22.702
293.13	25.535
293.50	24.022
293.87	23.848
294.24	23.077
294.60	25.572
294.97	24.615
295.34	23.373
295.71	23.127
296.08	24.400
296.44	25.286
296.81	23.697
297.18	23.828
297.55	24.754
297.91	22.783
298.28	24.155
298.65	22.945
299.02	25.090
299.38	24.221
299.75	22.927
300.12	24.427
300.48	24.590
300.85	25.745
301.22	25.000
301.59	23.113
301.95	23.571
302.32	25.146
302.69	23.416
303.05	24.355
303.42	24.215
303.79	26.002
304.15	24.202
304.52	24.524
304.89	24.200
305.25	25.584
305.62	23.667
305.99	23.913
306.35	24.000
306.72	24.350
307.09	24.017
307.45	23.970
307.82	23.765
308.19	24.639
308.55	24.400
308.92	24.239
309.29	25.937
309.65	26.660
310.02	25.659
310.38	25.424
310.75	24.494
311.12	25.096
311.48	26.737
311.85	26.336
312.22	26.648
312.58	26.045
312.95	26.117
313.31	26.779
313.68	25.328
314.05	26.740
314.41	26.443
314.78	27.557
315.14	28.436
315.51	28.571
315.87	27.737
316.24	28.198
316.61	26.679
316.97	26.789
317.34	27.942
317.70	30.378
318.07	29.093
318.43	29.877
318.80	29.510
319.16	29.633
319.53	29.469
319.89	28.405
320.26	30.540
320.62	30.037
320.99	30.601
321.35	29.128
321.72	32.543
322.08	31.856
322.45	31.426
322.81	32.113
323.18	33.304
323.54	32.753
323.91	33.273
324.27	33.775
324.64	33.045
325.00	35.000
325.37	35.497
325.73	35.835
326.10	36.454
326.46	35.095
326.83	35.520
327.19	36.627
327.56	36.262
327.92	38.689
328.29	38.052
328.65	38.613
329.01	38.666
329.38	38.494
329.74	36.892
330.11	39.444
330.47	38.704
330.84	37.705
331.20	37.563
331.56	39.637
331.93	39.949
332.29	38.350
332.66	38.265
333.02	38.402
333.38	38.743
333.75	39.450
334.11	38.674
334.48	39.402
334.84	39.189
335.20	39.435
335.57	39.127
335.93	39.950
336.29	37.562
336.66	40.823
337.02	38.751
337.38	38.349
337.75	38.176
338.11	38.481
338.47	39.797
338.84	38.188
339.20	38.442
339.56	39.108
339.93	37.876
340.29	38.235
340.65	39.145
341.02	38.134
341.38	38.259
341.74	38.123
342.11	38.564
342.47	37.408
342.83	39.048
343.20	38.804
343.56	36.934
343.92	37.242
344.28	37.959
344.65	38.142
345.01	37.937
345.37	37.500
345.73	38.333
346.10	37.052
346.46	37.879
346.82	36.728
347.19	38.331
347.55	37.627
347.91	37.311
348.27	36.328
348.63	37.816
349.00	37.243
349.36	38.210
349.72	37.385
350.08	38.975
350.45	37.167
350.81	37.768
351.17	36.210
351.53	36.644
351.89	37.218
352.26	37.037
352.62	36.576
352.98	36.350
353.34	37.904
353.70	35.703
354.07	37.615
354.43	37.250
354.79	36.295
355.15	37.366
355.51	35.423
355.87	37.575
356.24	38.260
356.60	35.693
356.96	36.619
357.32	37.378
357.68	37.298
358.04	37.766
358.40	36.582
358.77	37.340
359.13	38.288
359.49	36.916
359.85	37.230
360.21	37.073
360.57	37.226
360.93	35.786
361.29	37.085
361.66	36.614
362.02	36.151
362.38	36.797
362.74	36.164
363.10	36.957
363.46	36.533
363.82	37.237
364.18	35.349
364.54	36.910
364.90	36.747
365.26	37.058
365.62	36.326
365.98	35.650
366.35	36.552
366.71	36.780
367.07	35.085
367.43	36.333
367.79	35.838
368.15	34.803
368.51	37.078
368.87	37.228
369.23	35.759
369.59	35.671
369.95	37.413
370.31	35.044
370.67	35.808
371.03	36.695
371.39	36.496
371.75	37.125
372.11	35.554
372.47	36.575
372.83	36.438
373.19	37.354
373.55	35.533
373.91	35.359
374.27	35.913
374.63	36.339
374.99	37.062
375.35	36.358
375.71	36.082
376.07	36.870
376.42	34.974
376.78	37.058
377.14	36.828
377.50	35.643
377.86	37.156
378.22	36.380
378.58	37.288
378.94	35.848
379.30	35.840
379.66	35.942
380.02	36.188
380.38	36.007
380.74	35.582
381.09	36.507
381.45	36.474
381.81	34.929
382.17	35.958
382.53	35.693
382.89	35.600
383.25	35.110
383.61	35.562
383.97	35.393
384.32	35.805
384.68	36.542
385.04	35.404
385.40	35.528
385.76	35.225
386.12	36.549
386.48	35.684
386.83	35.452
387.19	35.866
387.55	35.689
387.91	35.335
388.27	36.585
388.62	36.150
388.98	35.918
389.34	34.087
389.70	35.318
390.06	35.366
390.42	35.780
390.77	35.688
391.13	35.546
391.49	34.967
391.85	36.615
392.20	35.578
392.56	35.544
392.92	35.598
393.28	35.146
393.64	35.034
393.99	35.270
394.35	35.433
394.71	35.042
395.07	35.584
395.42	35.246
395.78	36.706
396.14	36.325
396.50	34.477
396.85	35.610
397.21	35.680
397.57	35.505
397.92	34.720
398.28	35.632
398.64	35.020
399.00	33.939
399.35	34.514
399.71	34.713
400.07	34.189
400.42	35.104
400.78	35.015
401.14	35.291
401.49	34.159
401.85	34.415
402.21	35.501
402.57	35.548
402.92	34.667
403.28	35.263
403.63	33.961
403.99	34.801
404.35	34.584
404.70	35.499
405.06	33.801
405.42	35.308
405.77	34.509
406.13	34.761
406.49	34.508
406.84	33.728
407.20	34.703
407.55	35.077
407.91	35.354
408.27	35.597
408.62	34.713
408.98	34.772
409.34	34.424
409.69	34.723
410.05	33.572
410.40	33.039
410.76	34.058
411.11	35.664
411.47	35.000
411.83	33.685
412.18	34.783
412.54	33.874
412.89	34.808
413.25	34.949
413.60	35.222
413.96	34.411
414.31	33.589
414.67	34.575
415.03	35.057
415.38	35.205
415.74	34.555
416.09	35.540
416.45	34.131
416.80	35.471
417.16	33.864
417.51	34.268
417.87	34.168
418.22	34.083
418.58	34.140
418.93	34.622
419.29	34.627
419.64	33.919
420.00	35.263
420.35	33.798
420.71	33.956
421.06	34.726
421.42	34.139
421.77	34.370
422.12	34.509
422.48	34.155
422.83	34.487
423.19	33.693
423.54	33.681
423.90	34.598
424.25	35.333
424.61	34.533
424.96	33.936
425.31	34.264
425.67	34.848
426.02	34.829
426.38	33.956
426.73	35.165
427.09	34.401
427.44	34.271
427.79	34.763
428.15	35.828
428.50	35.600
428.85	35.567
429.21	33.549
429.56	34.197
429.92	34.162
430.27	34.253
430.62	33.774
430.98	33.633
431.33	32.964
431.68	32.889
432.04	34.506
432.39	34.248
432.74	34.778
433.10	34.994
433.45	35.095
433.80	34.970
434.16	34.419
434.51	35.449
434.86	35.003
435.22	34.684
435.57	34.914
435.92	35.572
436.28	34.850
436.63	34.900
436.98	34.910
437.34	35.445
437.69	33.707
438.04	35.269
438.39	34.793
438.75	34.410
439.10	35.186
439.45	34.426
439.81	34.644
440.16	35.333
440.51	35.304
440.86	34.986
441.22	34.470
441.57	34.751
441.92	34.995
442.27	33.918
442.63	34.451
442.98	34.591
443.33	34.172
443.68	34.256
444.03	33.977
444.39	35.075
444.74	33.747
445.09	34.597
445.44	34.644
445.79	35.234
446.15	34.316
446.50	34.863
446.85	34.811
447.20	34.478
447.55	34.856
447.91	34.523
448.26	35.570
448.61	35.655
448.96	35.240
449.31	35.314
449.66	35.936
450.02	33.712
450.37	35.203
450.72	35.647
451.07	35.660
451.42	34.855
451.77	36.655
452.12	34.714
452.47	34.933
452.83	35.662
453.18	36.396
453.53	36.945
453.88	35.143
454.23	35.909
454.58	35.664
454.93	35.438
455.28	35.251
455.63	35.520
455.98	35.307
456.34	36.413
456.69	35.366
457.04	35.561
457.39	35.657
457.74	36.036
458.09	34.531
458.44	35.323
458.79	34.960
459.14	35.079
459.49	34.598
459.84	35.652
460.19	35.028
460.54	36.182
460.89	35.501
461.24	35.510
461.59	35.374
461.94	35.284
462.29	35.698
462.64	36.558
462.99	36.084
463.34	35.839
463.69	36.056
464.04	35.636
464.39	35.432
464.74	34.877
465.09	35.287
465.44	34.929
465.79	35.438
466.14	35.453
466.49	34.780
466.84	33.946
467.19	36.262
467.54	34.715
467.89	34.918
468.24	35.206
468.59	35.714
468.94	36.232
469.29	36.408
469.64	35.820
469.99	35.026
470.34	36.622
470.68	35.724
471.03	35.957
471.38	36.424
471.73	36.120
472.08	36.725
472.43	36.561
472.78	36.428
473.13	35.732
473.48	35.941
473.83	36.455
474.17	35.745
474.52	35.012
474.87	35.077
475.22	35.465
475.57	34.942
475.92	35.309
476.27	34.548
476.61	35.174
476.96	35.528
477.31	35.938
477.66	35.695
478.01	36.153
478.36	36.045
478.70	34.988
479.05	34.990
479.40	35.962
479.75	35.501
480.10	36.157
480.45	34.594
480.79	35.346
481.14	35.663
481.49	34.584
481.84	35.268
482.19	35.284
482.53	34.387
482.88	34.633
483.23	34.687
483.58	35.099
483.92	36.106
484.27	34.803
484.62	35.654
484.97	34.905
485.31	34.147
485.66	32.630
486.01	31.101
486.36	30.915
486.70	30.281
487.05	31.574
487.40	32.312
487.75	32.287
488.09	32.670
488.44	33.588
488.79	33.391
489.13	34.378
489.48	35.318
489.83	34.987
490.17	34.765
490.52	35.444
490.87	35.603
491.22	34.707
491.56	35.749
491.91	35.484
492.26	34.610
492.60	35.444
492.95	35.750
493.30	34.850
493.64	34.951
493.99	35.376
494.34	34.648
494.68	35.635
495.03	35.159
495.37	36.605
495.72	35.664
496.07	35.580
496.41	34.970
496.76	35.120
497.11	35.219
497.45	34.634
497.80	35.496
498.14	35.599
498.49	35.747
498.84	36.121
499.18	34.506
499.53	35.416
499.87	35.130
500.22	35.145
500.56	35.097
500.91	35.575
501.26	35.370
501.60	35.064
501.95	35.349
502.29	35.289
502.64	34.671
502.98	34.993
503.33	35.100
503.67	34.702
504.02	34.707
504.36	34.932
504.71	36.093
505.06	34.538
505.40	35.470
505.75	35.126
506.09	35.838
506.44	35.902
506.78	36.059
507.13	35.725
507.47	35.468
507.82	35.766
508.16	36.453
508.51	34.396
508.85	36.182
509.19	36.270
509.54	35.205
509.88	36.201
510.23	35.637
510.57	34.073
510.92	35.714
511.26	36.596
511.61	35.204
511.95	36.784
512.30	35.600
512.64	35.202
512.98	36.289
513.33	35.963
513.67	36.613
514.02	35.636
514.36	35.306
514.70	36.907
515.05	35.802
515.39	37.281
515.74	37.288
516.08	36.275
516.42	37.158
516.77	36.427
517.11	36.213
517.46	36.961
517.80	36.865
518.14	38.254
518.49	36.714
518.83	36.484
519.17	36.495
519.52	36.701
519.86	37.439
520.20	37.260
520.55	37.705
520.89	37.184
521.23	36.565
521.58	37.120
521.92	37.201
522.26	36.671
522.61	36.720
522.95	37.778
523.29	36.784
523.64	37.168
523.98	36.444
524.32	37.197
524.66	37.333
525.01	36.627
525.35	36.240
525.69	37.146
526.04	37.597
526.38	38.081
526.72	37.053
527.06	36.783
527.41	38.029
527.75	36.823
528.09	36.725
528.43	36.852
528.78	37.209
529.12	37.327
529.46	35.944
529.80	36.098
530.15	36.653
530.49	35.560
530.83	37.416
531.17	36.285
531.51	36.297
531.86	35.870
532.20	35.600
532.54	37.414
532.88	36.977
533.22	36.076
533.57	36.791
533.91	35.490
534.25	35.199
534.59	36.082
534.93	35.495
535.27	34.548
535.62	35.881
535.96	35.461
536.30	36.319
536.64	35.776
536.98	35.494
537.32	36.438
537.66	35.459
538.01	37.090
538.35	36.307
538.69	35.133
539.03	35.697
539.37	34.830
539.71	36.543
540.05	35.569
540.39	36.541
540.73	35.443
541.07	34.630
541.42	35.075
541.76	34.525
542.10	33.909
542.44	35.037
542.78	35.053
543.12	35.031
543.46	35.276
543.80	34.900
544.14	35.356
544.48	35.097
544.82	34.434
545.16	34.912
545.50	34.788
545.84	35.795
546.18	36.671
546.52	36.262
546.86	35.525
547.20	34.755
547.54	34.579
547.88	34.915
548.22	34.608
548.56	33.883
548.90	34.757
549.24	35.186
549.58	34.343
549.92	36.084
550.26	36.173
550.60	35.595
550.94	36.024
551.28	36.207
551.62	37.655
551.96	35.338
552.30	35.069
552.64	35.858
552.98	34.472
553.32	35.083
553.66	35.244
554.00	34.492
554.34	35.686
554.68	35.820
555.02	36.320
555.36	35.372
555.69	34.817
556.03	34.777
556.37	35.373
556.71	34.941
557.05	32.438
557.39	35.067
557.73	35.580
558.07	35.882
558.41	34.681
558.75	36.047
559.08	35.740
559.42	35.218
559.76	35.210
560.10	34.618
560.44	34.970
560.78	34.655
561.12	33.884
561.45	34.481
561.79	33.708
562.13	34.681
562.47	34.783
562.81	34.027
563.15	33.872
563.48	33.975
563.82	34.810
564.16	34.453
564.50	33.816
564.84	34.529
565.17	33.512
565.51	33.990
565.85	34.608
566.19	33.929
566.52	33.153
566.86	33.684
567.20	33.146
567.54	32.478
567.88	32.812
568.21	32.501
568.55	32.053
568.89	31.204
569.23	31.277
569.56	30.631
569.90	30.147
570.24	29.676
570.57	29.040
570.91	28.518
571.25	28.114
571.59	28.173
571.92	27.960
572.26	27.358
572.60	27.964
572.93	28.666
573.27	28.059
573.61	28.127
573.95	27.615
574.28	27.751
574.62	27.410
574.96	26.650
575.29	27.100
575.63	26.572
575.97	26.509
576.30	26.474
576.64	26.855
576.98	26.933
577.31	26.831
577.65	26.593
577.98	26.169
578.32	25.981
578.66	26.439
578.99	26.600
579.33	27.131
579.67	26.794
580.00	26.462
580.34	26.710
580.67	26.309
581.01	26.838
581.35	26.456
581.68	25.642
582.02	25.942
582.35	26.217
582.69	25.979
583.02	25.921
583.36	26.534
583.70	26.724
584.03	27.691
584.37	26.981
584.70	26.723
585.04	26.196
585.37	26.398
585.71	26.180
586.04	26.362
586.38	26.718
586.72	26.950
587.05	27.380
587.39	27.231
587.72	26.519
588.06	26.297
588.39	26.791
588.73	26.805
589.06	27.575
589.40	27.731
589.73	27.499
590.07	28.209
590.40	28.258
590.73	29.379
591.07	28.121
591.40	28.503
591.74	28.531
592.07	28.869
592.41	28.377
592.74	27.792
593.08	27.018
593.41	26.750
593.75	26.501
594.08	27.164
594.41	27.142
594.75	27.603
595.08	27.298
595.42	27.288
595.75	27.443
596.09	27.807
596.42	27.531
596.75	28.486
597.09	29.137
597.42	27.755
597.75	27.221
598.09	27.452
598.42	28.519
598.76	27.487
599.09	28.062
599.42	27.197
599.76	27.239
600.09	27.051
600.42	26.796
600.76	26.207
601.09	26.959
601.42	26.927
601.76	26.960
602.09	28.477
602.42	27.209
602.76	27.249
603.09	27.489
603.42	27.486
603.76	27.477
604.09	27.217
604.42	26.817
604.76	27.539
605.09	28.163
605.42	27.428
605.75	27.319
606.09	27.200
606.42	27.095
606.75	27.011
607.09	26.806
607.42	27.561
607.75	26.712
608.08	27.579
608.42	27.894
608.75	27.942
609.08	26.881
609.41	27.727
609.75	28.526
610.08	28.103
610.41	27.624
610.74	27.662
611.07	28.422
611.41	27.757
611.74	28.298
612.07	27.794
612.40	28.363
612.73	27.958
613.07	28.637
613.40	28.672
613.73	27.908
614.06	27.900
614.39	28.889
614.72	28.277
615.06	27.003
615.39	27.970
615.72	27.348
616.05	28.579
616.38	28.716
616.71	28.595
617.05	27.952
617.38	28.764
617.71	29.246
618.04	29.164
618.37	28.460
618.70	29.215
619.03	28.999
619.36	30.905
619.69	30.211
620.03	30.594
620.36	29.416
620.69	30.077
621.02	30.774
621.35	31.160
621.68	31.342
622.01	31.734
622.34	30.808
622.67	30.758
623.00	29.135
623.33	29.960
623.66	29.341
623.99	30.890
624.32	29.878
624.65	29.493
624.99	29.682
625.32	29.993
625.65	30.069
625.98	29.498
626.31	31.157
626.64	30.144
626.97	30.987
627.30	30.357
627.63	31.868
627.96	31.690
628.29	32.261
628.62	31.651
628.95	33.422
629.28	31.902
629.61	32.953
629.94	33.103
630.26	31.976
630.59	33.688
630.92	33.094
631.25	32.729
631.58	34.426
631.91	33.397
632.24	31.973
632.57	31.925
632.90	35.818
633.23	34.418
633.56	34.352
633.89	34.405
634.22	34.661
634.55	33.978
634.88	34.611
635.20	33.296
635.53	34.959
635.86	34.564
636.19	34.231
636.52	33.297
636.85	33.441
637.18	34.345
637.51	33.296
637.83	34.897
638.16	34.936
638.49	34.251
638.82	35.681
639.15	35.253
639.48	36.019
639.81	35.775
640.13	34.601
640.46	35.904
640.79	35.371
641.12	36.220
641.45	37.257
641.77	36.196
642.10	36.145
642.43	37.269
642.76	35.795
643.09	35.447
643.41	36.045
643.74	38.705
644.07	37.316
644.40	36.095
644.73	37.087
645.05	35.067
645.38	36.447
645.71	36.267
646.04	37.252
646.36	38.498
646.69	38.080
647.02	38.400
647.35	34.803
647.67	36.467
648.00	36.645
648.33	38.346
648.66	34.394
648.98	36.667
649.31	34.548
649.64	33.887
649.96	33.855
650.29	34.714
650.62	36.966
650.94	35.994
651.27	40.510
651.60	36.620
651.92	37.634
652.25	39.685
652.58	34.468
652.90	33.683
653.23	34.121
653.56	35.312
653.88	34.214
654.21	34.311
654.54	34.700
654.86	34.366
655.19	32.718
655.52	27.087
655.84	20.319
656.17	22.677
656.49	32.604
656.82	37.486
657.15	30.254
657.47	22.879
657.80	17.179
658.13	13.419
658.45	18.311
658.78	22.011
659.10	22.902
659.43	22.815
659.75	25.241
660.08	26.817
660.41	29.946
660.73	33.877
661.06	36.036
661.38	40.034
661.71	36.691
662.03	36.692
662.36	37.905
662.68	35.754
663.01	38.378
663.33	37.736
663.66	39.842
663.98	37.698
664.31	39.739
664.63	38.123
664.96	38.462
665.28	37.100
665.61	35.849
665.93	37.736
666.26	37.009
666.58	39.266
666.91	38.417
667.23	40.562
667.56	39.014
667.88	40.664
668.21	37.500
668.53	37.702
668.86	40.281
669.18	40.326
669.50	37.397
669.83	40.862
670.15	38.046
670.48	35.742
670.80	40.040
671.13	39.243
671.45	38.477
671.77	37.291
672.10	36.266
672.42	33.717
672.75	34.652
673.07	34.181
673.39	35.304
673.72	36.505
674.04	36.201
674.37	35.390
674.69	37.175
675.01	38.246
675.34	34.690
675.66	36.719
675.98	38.856
676.31	37.400
676.63	34.195
676.95	38.889
677.28	36.308
677.60	37.827
677.92	36.508
678.25	36.822
678.57	36.313
678.89	37.613
679.22	36.397
679.54	34.698
679.86	34.555
680.18	35.677
680.51	32.338
680.83	33.953
681.15	33.449
681.48	35.069
681.80	35.552
682.12	34.083
682.44	32.793
682.77	33.630
683.09	33.204
683.41	38.367
683.73	36.614
684.06	34.524
684.38	35.465
684.70	32.734
685.02	34.722
685.34	36.092
685.67	32.797
685.99	34.647
686.31	32.666
686.63	31.870
686.96	31.863
687.28	32.383
687.60	32.935
687.92	34.171
688.24	34.138
688.56	35.587
688.89	31.358
689.21	34.875
689.53	35.178
689.85	33.740
690.17	32.816
690.49	35.282
690.82	37.395
691.14	34.747
691.46	34.497
691.78	35.867
692.10	33.015
692.42	32.849
692.74	35.078
693.06	34.302
693.39	34.190
693.71	34.185
694.03	34.911
694.35	34.337
694.67	34.012
694.99	34.812
695.31	34.009
695.63	37.330
695.95	34.615
696.27	35.619
696.59	36.516
696.91	35.949
697.23	35.520
697.56	30.913
697.88	32.735
698.20	33.396
698.52	35.214
698.84	32.238
699.16	33.902
699.48	33.686
699.80	35.294
700.12	35.797
700.44	36.682
700.76	33.652
701.08	37.859
701.40	37.922
701.72	43.316
702.04	38.482
702.36	36.828
702.68	40.160
703.00	34.085
703.32	37.717
703.64	36.524
703.96	38.021
704.28	35.185
704.60	38.028
704.91	35.854
705.23	39.489
705.55	40.653
705.87	36.190
706.19	40.439
706.51	42.633
706.83	39.233
707.15	40.909
707.47	36.077
707.79	34.943
708.11	32.426
708.43	33.258
708.74	32.353
709.06	34.651
709.38	36.228
709.70	34.605
710.02	36.685
710.34	40.608
710.66	36.944
710.98	38.525
711.29	34.819
711.61	36.490
711.93	34.043
712.25	39.157
712.57	37.299
712.89	37.879
713.20	43.770
713.52	38.941
713.84	37.764
714.16	32.464
714.48	31.700
714.80	36.856
715.11	33.777
715.43	33.240
715.75	36.338
716.07	36.705
716.39	36.000
716.70	34.891
717.02	38.384
717.34	45.324
717.66	44.097
717.97	42.424
718.29	40.845
718.61	36.149
718.93	38.408
719.24	39.933
719.56	34.138
719.88	39.172
720.20	35.806
720.51	35.294
720.83	36.120
721.15	39.796
721.46	38.699
721.78	40.767
722.10	36.806
722.42	36.455
722.73	35.018
723.05	41.754
723.37	42.403
723.68	41.797
724.00	40.152
724.32	39.163
724.63	36.538
724.95	42.745
725.27	36.803
725.58	37.500
725.90	35.563
726.22	36.644
726.53	35.786
726.85	42.020
727.16	40.940
727.48	39.535
727.80	38.129
728.11	38.214
728.43	37.319
728.74	38.462
729.06	34.050
729.38	39.298
729.69	37.333
730.01	39.474
730.32	36.913
730.64	38.538
730.96	38.739
731.27	31.193
731.59	32.471
731.90	31.476
732.22	33.143
732.53	30.484
732.85	38.596
733.16	33.735
733.48	36.364
733.80	36.232
734.11	37.423
734.43	33.918
734.74	32.172
735.06	35.450
735.37	29.639
735.69	35.072
736.00	36.086
736.32	30.606
736.63	34.385
736.95	31.988
737.26	33.537
737.58	35.276
737.89	33.133
738.21	32.781
738.52	36.455
738.83	34.799
739.15	36.585
739.46	35.172
739.78	34.354
740.09	35.860
740.41	33.436
740.72	34.286
741.04	38.112
741.35	35.937
741.66	37.945
741.98	42.489
742.29	37.037
742.61	37.611
742.92	38.559
743.23	37.200
743.55	33.962
743.86	36.471
744.18	39.407
744.49	41.736
744.80	39.631
745.12	42.411
745.43	44.860
745.74	38.667
746.06	41.667
746.37	42.791
746.68	43.805
747.00	34.978
747.31	38.235
747.62	36.475
747.94	42.060
748.25	38.132
748.56	40.678
748.88	38.839
749.19	45.581
749.50	41.553
749.82	41.564
750.13	36.759
750.44	31.333
750.75	30.872
751.07	32.566
751.38	35.644
751.69	31.313
752.01	32.517
752.32	32.226
752.63	36.577
752.94	37.063
753.26	36.719
753.57	38.132
753.88	34.082
754.19	36.823
754.51	35.216
754.82	32.886
755.13	35.473
755.44	37.037
755.75	34.021
756.07	39.041
756.38	31.046
756.69	28.750
757.00	32.047
757.31	34.648
757.63	29.201
757.94	30.851
758.25	30.918
758.56	28.604
758.87	31.328
759.18	32.267
759.50	34.043
759.81	33.531
760.12	30.899
760.43	29.132
760.74	31.139
761.05	29.443
761.36	27.604
761.67	32.345
761.99	30.986
762.30	30.547
762.61	32.986
762.92	35.227
763.23	37.736
763.54	33.462
763.85	34.630
764.16	34.375
764.47	34.459
764.78	32.573
765.10	28.963
765.41	30.398
765.72	28.177
766.03	31.420
766.34	32.056
766.65	35.361
766.96	31.579
767.27	37.383
767.58	40.594
767.89	38.674
768.20	46.951
768.51	40.816
768.82	40.351
769.13	35.686
769.44	33.459
769.75	29.588
770.06	36.555
770.37	27.632
770.68	31.556
770.99	36.441
771.30	34.310
771.61	31.923
771.92	32.061
772.23	34.677
772.54	37.778
772.85	42.079
773.16	36.413
773.47	41.667
773.78	38.119
774.09	46.023
774.39	41.212
774.70	41.765
775.01	34.868
775.32	44.099
775.63	47.945
775.94	51.235
776.25	49.655
776.56	51.145
776.87	42.748
777.18	47.727
777.48	49.606
777.79	52.308
778.10	47.727
778.41	46.269
778.72	50.376
779.03	41.667
779.34	45.946
779.65	50.932
779.95	40.373
780.26	44.048
780.57	48.980
780.88	50.355
781.19	50.000
781.50	47.929
781.80	38.798
782.11	37.037
782.42	38.506
782.73	34.463
783.04	39.355
783.34	42.636
783.65	40.136
783.96	41.935
784.27	47.682
784.57	40.789
784.88	47.826
785.19	44.167
785.50	55.172
785.81	52.713
786.11	42.963
786.42	45.669
786.73	54.955
787.04	45.283
787.34	43.089
787.65	44.697
787.96	49.242
788.26	42.520
788.57	47.445
788.88	40.845
789.19	44.275
789.49	43.243
789.80	43.750
790.11	54.545
790.41	50.926
790.72	42.593
791.03	48.077
791.33	55.556
791.64	54.737
791.95	56.842
792.25	55.208
792.56	49.000
792.87	56.098
793.17	63.636
793.48	44.706
793.79	63.218
794.09	50.000
794.40	58.621
794.70	43.651
795.01	47.692
795.32	39.695
795.62	43.590
795.93	52.101
796.23	49.593
796.54	54.082
796.85	61.364
797.15	74.026
797.46	69.512
797.76	71.250
798.07	70.667
798.37	57.500
798.68	67.500
798.99	62.195
799.29	56.000
799.60	40.698
799.90	56.579
800.21	53.030
800.51	70.423
800.82	72.414
801.12	92.308
801.43	69.333
801.73	77.586
802.04	54.545
802.34	63.014
802.65	98.039
802.95	82.609
803.26	88.710
803.56	78.333
803.87	77.612
804.17	68.254
804.48	84.906
804.78	54.167
805.09	74.242
805.39	66.667
805.70	85.965
806.00	60.000
806.30	54.687
806.61	55.294
806.91	70.000
807.22	57.609
807.52	59.211
807.83	71.053
808.13	65.217
808.43	64.516
808.74	72.603
809.04	60.714
809.35	76.471
809.65	78.788
809.95	66.667
810.26	107.407
810.56	82.813
810.86	85.714
811.17	84.211
811.47	76.087
811.77	79.310
812.08	65.517
812.38	76.190
812.69	92.857
812.99	66.667
813.29	94.286
813.59	151.613
813.90	81.034
814.20	86.885
814.50	86.000
814.81	63.158
815.11	92.593
815.41	83.929
815.72	98.214
816.02	74.000
816.32	95.122
816.62	82.759
816.93	115.152
817.23	107.317
817.53	87.500
817.84	91.111
818.14	92.857
818.44	81.250
818.74	107.547
819.04	100.000
819.35	118.182
819.65	107.692
819.95	118.519
820.25	110.638
820.56	110.811
820.86	115.789
821.16	68.085
821.46	105.263
821.76	85.455
822.07	71.429
822.37	121.053
822.67	100.000
822.97	63.158
823.27	97.826
823.57	121.875
823.88	141.026
824.18	115.152
824.48	195.652
824.78	108.333
825.08	160.870
825.38	120.690
825.69	102.941
825.99	74.468
826.29	75.000
826.59	74.286
826.89	130.000
827.19	82.857
827.49	138.710
827.79	76.923
828.09	97.619
828.39	127.778
828.70	100.000
829.00	146.429
829.30	168.750
829.60	116.667
829.90	119.355
830.20	112.121
830.50	129.730
830.80	187.500
831.10	165.385
831.40	166.667
831.70	170.833
832.00	113.333
832.30	169.565
832.60	179.167
832.90	145.455
833.20	215.000
833.50	113.158
833.80	117.647
834.10	89.474
834.40	94.737
834.70	100.000
835.00	160.000
835.30	121.622
835.60	131.250
835.90	121.622
836.20	126.923
836.50	163.636
836.80	104.878
837.10	165.217
837.40	307.692
837.70	142.105
838.00	160.000
838.30	162.500
838.60	172.000
838.90	340.000
839.19	237.500
839.49	140.000
839.79	113.793
840.09	165.385
840.39	240.000
840.69	215.789
840.99	157.143
841.29	178.261
841.59	180.000
841.88	136.000
842.18	377.778
842.48	157.143
842.78	133.333
843.08	215.385
843.38	200.000
843.68	264.286
843.97	471.429
844.27	208.696
844.57	1850.000
844.87	285.714
845.17	177.778
845.47	100.000
845.76	195.833
846.06	471.429
846.36	200.000
846.66	230.769
846.96	250.000
847.25	253.846
847.55	126.316
847.85	188.889
848.15	560.000
848.44	318.182
848.74	171.429
849.04	137.500
849.34	176.471
849.63	175.000
849.93	187.500
850.23	1166.667
850.53	362.500
850.82	290.909
851.12	211.765
851.42	170.833
851.71	237.500
852.01	0.000
852.31	188.235
852.61	320.000
852.90	170.833
853.20	455.556
853.50	-2100.000
853.79	168.000
854.09	150.000
854.39	106.897
854.68	131.034
854.98	219.048
855.28	116.129
855.57	207.143
855.87	166.667
856.17	137.037
856.46	178.947
856.76	154.839
857.05	200.000
857.35	200.000
857.65	253.846
857.94	190.000
858.24	411.111
858.53	271.429
858.83	428.571
859.13	195.652
859.42	344.444
859.72	337.500
860.01	225.000
860.31	975.000
860.60	430.000
860.90	425.000
861.20	292.308
861.49	542.857
861.79	-3600.000
862.08	500.000
862.38	366.667
862.67	171.429
862.97	290.000
863.26	110.000
863.56	775.000
863.85	276.923
864.15	229.412
864.44	161.111
864.74	316.667
865.03	227.273
865.33	375.000
865.62	240.000
865.92	433.333
866.21	775.000
866.51	540.000
866.80	200.000
867.10	733.333
867.39	2600.000
867.69	720.000
867.98	600.000
868.27	157.143
868.57	206.667
868.86	875.000
869.16	161.905
869.45	2300.000
869.75	-500.000
870.04	625.000
870.33	500.000
870.63	312.500
870.92	176.471
871.22	725.000
871.51	428.571
871.80	275.000
872.10	369.231
>>>>>End Processed Spectral Data<<<<<
