SpectraSuite Data File
++++++++++++++++++++++++++++++++++++
Date: Tue May 12 15:22:52 PDT 2015
User: schluterlab
Dark Spectrum Present: Yes
Reference Spectrum Present: Yes
Number of Sampled Component Spectra: 1
Spectrometers: USB2E3373
Integration Time (usec): 3000 (USB2E3373)
Spectra Averaged: 3 (USB2E3373)
Boxcar Smoothing: 0 (USB2E3373)
Correct for Electrical Dark: No (USB2E3373)
Strobe/Lamp Enabled: No (USB2E3373)
Correct for Detector Non-linearity: No (USB2E3373)
Correct for Stray Light: No (USB2E3373)
Number of Pixels in Processed Spectrum: 2048
>>>>>Begin Processed Spectral Data<<<<<
178.53	0.000
178.91	-158.333
179.29	-425.000
179.67	-3500.000
180.04	-153.333
180.42	500.000
180.80	1500.000
181.18	0.000
181.56	-225.000
181.94	0.000
182.31	1033.333
182.69	-3000.000
183.07	457.143
183.45	-3100.000
183.83	-1500.000
184.20	350.000
184.58	471.429
184.96	-238.462
185.34	-58.333
185.72	1300.000
186.09	-750.000
186.47	-2800.000
186.85	800.000
187.23	560.000
187.61	1600.000
187.98	512.500
188.36	314.286
188.74	208.333
189.12	333.333
189.49	800.000
189.87	0.000
190.25	462.500
190.63	1500.000
191.00	-208.333
191.38	-3200.000
191.76	-700.000
192.14	512.500
192.51	-3600.000
192.89	1350.000
193.27	833.333
193.65	-866.667
194.02	-720.000
194.40	428.571
194.78	-128.571
195.15	186.667
195.53	-3400.000
195.91	-640.000
196.29	4000.000
196.66	231.250
197.04	875.000
197.42	-950.000
197.79	575.000
198.17	300.000
198.55	0.000
198.92	385.714
199.30	1100.000
199.68	1950.000
200.05	733.333
200.43	-433.333
200.81	216.667
201.18	4700.000
201.56	308.333
201.94	-800.000
202.31	-275.000
202.69	-500.000
203.07	2700.000
203.44	-516.667
203.82	275.000
204.19	780.000
204.57	-1050.000
204.95	-850.000
205.32	-660.000
205.70	633.333
206.08	875.000
206.45	-566.667
206.83	388.889
207.20	184.211
207.58	225.000
207.96	660.000
208.33	0.000
208.71	585.714
209.08	680.000
209.46	-3000.000
209.84	-800.000
210.21	720.000
210.59	-540.000
210.96	333.333
211.34	-925.000
211.71	363.636
212.09	775.000
212.46	1600.000
212.84	-333.333
213.22	488.889
213.59	-2700.000
213.97	320.000
214.34	975.000
214.72	1166.667
215.09	900.000
215.47	-2700.000
215.84	-340.000
216.22	-325.000
216.59	0.000
216.97	0.000
217.34	1150.000
217.72	-1100.000
218.09	1366.667
218.47	525.000
218.84	750.000
219.22	1066.667
219.59	1133.333
219.97	471.429
220.34	422.222
220.72	1150.000
221.09	2600.000
221.47	266.667
221.84	800.000
222.22	380.000
222.59	283.333
222.97	164.286
223.34	281.250
223.72	-1400.000
224.09	1033.333
224.46	284.615
224.84	-750.000
225.21	344.444
225.59	220.000
225.96	1000.000
226.34	-540.000
226.71	-575.000
227.08	-340.000
227.46	0.000
227.83	-466.667
228.21	-1550.000
228.58	358.333
228.95	950.000
229.33	377.778
229.70	950.000
230.08	307.692
230.45	3700.000
230.82	-800.000
231.20	-733.333
231.57	-1033.333
231.95	500.000
232.32	241.667
232.69	516.667
233.07	275.000
233.44	-1450.000
233.81	226.667
234.19	148.148
234.56	175.000
234.93	141.176
235.31	165.000
235.68	181.250
236.05	100.000
236.43	114.815
236.80	235.714
237.17	120.690
237.55	125.000
237.92	122.500
238.29	127.273
238.67	112.500
239.04	75.610
239.41	72.917
239.79	97.500
240.16	81.250
240.53	57.377
240.91	56.522
241.28	77.966
241.65	66.667
242.02	61.972
242.40	50.000
242.77	54.945
243.14	40.506
243.51	56.566
243.89	54.206
244.26	41.121
244.63	48.515
245.00	47.706
245.38	40.678
245.75	46.212
246.12	48.148
246.49	35.461
246.87	30.328
247.24	42.000
247.61	40.625
247.98	36.735
248.36	31.515
248.73	36.735
249.10	33.333
249.47	32.500
249.84	37.811
250.22	30.270
250.59	34.500
250.96	32.489
251.33	29.767
251.70	30.804
252.08	31.092
252.45	25.100
252.82	29.278
253.19	30.435
253.56	27.308
253.94	26.812
254.31	26.744
254.68	27.178
255.05	28.621
255.42	26.642
255.79	26.710
256.16	27.458
256.54	30.519
256.91	24.837
257.28	23.077
257.65	24.138
258.02	25.074
258.39	27.507
258.76	28.116
259.14	20.286
259.51	26.822
259.88	24.924
260.25	21.429
260.62	21.918
260.99	22.590
261.36	25.905
261.73	23.936
262.10	25.654
262.47	23.250
262.85	23.733
263.22	26.221
263.59	26.343
263.96	24.311
264.33	21.235
264.70	22.850
265.07	24.878
265.44	24.312
265.81	22.170
266.18	24.027
266.55	20.331
266.92	23.714
267.29	23.465
267.66	21.973
268.03	22.197
268.40	21.564
268.77	22.907
269.14	21.692
269.51	22.272
269.88	22.857
270.25	20.302
270.62	21.459
270.99	25.152
271.36	22.358
271.73	22.851
272.10	20.606
272.47	18.651
272.84	20.958
273.21	22.107
273.58	23.684
273.95	21.150
274.32	22.957
274.69	22.244
275.06	22.404
275.43	19.157
275.80	20.566
276.17	21.140
276.54	22.617
276.91	22.388
277.28	21.168
277.65	21.218
278.02	19.669
278.39	21.223
278.76	22.931
279.13	19.039
279.50	18.364
279.87	19.739
280.23	18.969
280.60	19.526
280.97	21.379
281.34	19.637
281.71	20.870
282.08	19.145
282.45	19.426
282.82	20.234
283.19	17.806
283.56	19.835
283.92	19.218
284.29	20.133
284.66	18.319
285.03	19.569
285.40	20.165
285.77	19.599
286.14	19.814
286.51	20.245
286.87	18.987
287.24	16.066
287.61	21.125
287.98	20.597
288.35	19.407
288.72	20.334
289.08	17.267
289.45	18.445
289.82	19.219
290.19	18.009
290.56	20.087
290.93	18.705
291.29	19.337
291.66	17.938
292.03	19.215
292.40	19.241
292.77	17.549
293.13	18.688
293.50	19.298
293.87	16.125
294.24	19.860
294.60	19.650
294.97	20.280
295.34	19.124
295.71	18.660
296.08	18.533
296.44	19.441
296.81	18.983
297.18	17.110
297.55	18.719
297.91	16.749
298.28	18.599
298.65	19.877
299.02	18.697
299.38	19.185
299.75	17.805
300.12	19.610
300.48	19.672
300.85	17.044
301.22	18.023
301.59	18.396
301.95	18.203
302.32	18.161
302.69	20.475
303.05	19.304
303.42	17.377
303.79	19.610
304.15	19.472
304.52	18.605
304.89	18.443
305.25	19.466
305.62	19.723
305.99	19.674
306.35	19.263
306.72	20.187
307.09	19.151
307.45	19.641
307.82	18.724
308.19	19.175
308.55	19.100
308.92	19.431
309.29	20.020
309.65	20.714
310.02	21.501
310.38	19.641
310.75	17.840
311.12	19.061
311.48	20.174
311.85	20.420
312.22	20.821
312.58	20.797
312.95	20.194
313.31	21.255
313.68	20.169
314.05	21.703
314.41	21.415
314.78	20.739
315.14	21.896
315.51	21.192
315.87	20.894
316.24	21.475
316.61	21.307
316.97	21.743
317.34	22.102
317.70	22.037
318.07	22.687
318.43	23.199
318.80	21.629
319.16	22.203
319.53	22.566
319.89	22.491
320.26	24.302
320.62	23.535
320.99	24.023
321.35	23.748
321.72	25.142
322.08	24.007
322.45	24.614
322.81	24.154
323.18	25.044
323.54	25.697
323.91	24.932
324.27	25.641
324.64	25.779
325.00	26.466
325.37	26.138
325.73	27.150
326.10	27.755
326.46	26.672
326.83	26.000
327.19	28.032
327.56	27.476
327.92	29.344
328.29	28.723
328.65	29.880
329.01	29.769
329.38	28.934
329.74	28.779
330.11	30.408
330.47	29.753
330.84	28.991
331.20	29.103
331.56	30.570
331.93	30.368
332.29	28.401
332.66	31.037
333.02	28.007
333.38	30.279
333.75	29.191
334.11	28.775
334.48	30.855
334.84	29.307
335.20	30.282
335.57	29.723
335.93	29.941
336.29	29.602
336.66	30.961
337.02	28.657
337.38	29.063
337.75	30.321
338.11	29.283
338.47	28.874
338.84	29.297
339.20	29.004
339.56	29.605
339.93	29.181
340.29	27.899
340.65	28.835
341.02	28.721
341.38	29.310
341.74	29.402
342.11	29.132
342.47	29.040
342.83	29.122
343.20	28.213
343.56	27.562
343.92	27.993
344.28	28.788
344.65	29.014
345.01	28.810
345.37	28.606
345.73	27.778
346.10	28.127
346.46	28.628
346.82	27.778
347.19	29.057
347.55	27.713
347.91	28.323
348.27	27.421
348.63	28.718
349.00	29.322
349.36	29.416
349.72	28.976
350.08	28.649
350.45	28.332
350.81	28.670
351.17	28.351
351.53	28.560
351.89	28.671
352.26	26.757
352.62	28.281
352.98	28.067
353.34	28.120
353.70	27.141
354.07	28.923
354.43	28.571
354.79	28.398
355.15	28.101
355.51	28.248
355.87	27.033
356.24	28.176
356.60	28.082
356.96	26.687
357.32	27.732
357.68	28.561
358.04	29.179
358.40	27.811
358.77	28.024
359.13	27.703
359.49	27.428
359.85	26.806
360.21	26.820
360.57	27.737
360.93	27.417
361.29	27.489
361.66	28.859
362.02	27.273
362.38	26.263
362.74	28.096
363.10	27.840
363.46	27.693
363.82	27.700
364.18	26.743
364.54	28.612
364.90	28.380
365.26	28.036
365.62	27.417
365.98	27.254
366.35	26.690
366.71	27.481
367.07	27.713
367.43	27.535
367.79	26.596
368.15	26.526
368.51	28.256
368.87	26.630
369.23	27.304
369.59	27.175
369.95	27.552
370.31	26.146
370.67	26.926
371.03	28.081
371.39	27.493
371.75	27.146
372.11	27.464
372.47	28.151
372.83	26.988
373.19	27.827
373.55	27.423
373.91	26.450
374.27	27.712
374.63	28.000
374.99	26.752
375.35	28.226
375.71	27.111
376.07	26.326
376.42	26.662
376.78	27.232
377.14	27.261
377.50	26.030
377.86	26.778
378.22	26.935
378.58	27.663
378.94	26.795
379.30	26.865
379.66	27.273
380.02	27.859
380.38	26.464
380.74	26.990
381.09	26.285
381.45	26.185
381.81	25.709
382.17	25.336
382.53	25.855
382.89	26.375
383.25	26.288
383.61	26.513
383.97	25.315
384.32	27.426
384.68	27.392
385.04	27.022
385.40	26.928
385.76	26.507
386.12	26.407
386.48	26.444
386.83	26.222
387.19	26.678
387.55	25.972
387.91	26.097
388.27	26.353
388.62	26.878
388.98	25.773
389.34	25.402
389.70	25.000
390.06	27.073
390.42	26.157
390.77	25.983
391.13	26.252
391.49	25.469
391.85	26.400
392.20	25.805
392.56	26.165
392.92	25.604
393.28	25.897
393.64	25.459
393.99	25.904
394.35	25.368
394.71	25.513
395.07	25.487
395.42	24.766
395.78	26.959
396.14	25.904
396.50	25.150
396.85	25.244
397.21	24.789
397.57	25.344
397.92	24.899
398.28	24.379
398.64	25.422
399.00	25.281
399.35	25.013
399.71	25.276
400.07	24.772
400.42	24.657
400.78	24.633
401.14	25.367
401.49	24.827
401.85	25.261
402.21	24.897
402.57	25.015
402.92	25.394
403.28	23.449
403.63	24.720
403.99	24.427
404.35	24.385
404.70	24.040
405.06	23.807
405.42	24.297
405.77	24.366
406.13	23.644
406.49	24.332
406.84	24.309
407.20	24.486
407.55	24.431
407.91	24.888
408.27	25.531
408.62	24.837
408.98	24.187
409.34	24.489
409.69	24.207
410.05	23.852
410.40	23.675
410.76	23.698
411.11	24.408
411.47	24.074
411.83	23.784
412.18	24.336
412.54	23.544
412.89	24.366
413.25	24.116
413.60	24.533
413.96	25.015
414.31	25.089
414.67	25.885
415.03	24.777
415.38	24.164
415.74	24.700
416.09	25.109
416.45	25.339
416.80	25.978
417.16	23.806
417.51	25.541
417.87	24.969
418.22	24.484
418.58	24.204
418.93	24.807
419.29	24.030
419.64	24.409
420.00	25.776
420.35	24.506
420.71	24.387
421.06	25.368
421.42	24.583
421.77	24.820
422.12	24.862
422.48	24.910
422.83	25.837
423.19	25.054
423.54	24.959
423.90	25.821
424.25	25.757
424.61	25.305
424.96	25.466
425.31	25.670
425.67	25.870
426.02	25.463
426.38	25.496
426.73	26.027
427.09	26.335
427.44	25.605
427.79	25.958
428.15	27.166
428.50	26.457
428.85	26.279
429.21	26.634
429.56	25.673
429.92	26.455
430.27	25.593
430.62	25.893
430.98	26.946
431.33	26.613
431.68	26.025
432.04	26.643
432.39	27.223
432.74	28.279
433.10	26.744
433.45	27.570
433.80	27.689
434.16	26.957
434.51	27.657
434.86	27.708
435.22	27.175
435.57	27.504
435.92	28.571
436.28	28.975
436.63	28.147
436.98	28.491
437.34	27.740
437.69	26.484
438.04	27.903
438.39	28.021
438.75	27.951
439.10	27.307
439.45	27.586
439.81	28.687
440.16	27.683
440.51	27.815
440.86	29.345
441.22	28.734
441.57	27.927
441.92	28.875
442.27	28.608
442.63	28.557
442.98	28.341
443.33	28.763
443.68	29.074
444.03	29.076
444.39	28.672
444.74	29.089
445.09	28.383
445.44	29.384
445.79	29.776
446.15	29.579
446.50	28.586
446.85	29.382
447.20	28.905
447.55	29.038
447.91	30.474
448.26	30.192
448.61	30.459
448.96	30.120
449.31	30.858
449.66	30.066
450.02	29.984
450.37	29.983
450.72	30.579
451.07	30.599
451.42	30.646
451.77	30.241
452.12	30.970
452.47	31.652
452.83	31.211
453.18	31.952
453.53	31.853
453.88	30.971
454.23	31.145
454.58	30.303
454.93	30.963
455.28	30.783
455.63	31.560
455.98	31.359
456.34	31.185
456.69	30.915
457.04	31.325
457.39	31.200
457.74	31.532
458.09	30.152
458.44	31.161
458.79	31.353
459.14	30.660
459.49	31.540
459.84	31.685
460.19	30.678
460.54	31.681
460.89	31.983
461.24	30.641
461.59	32.483
461.94	31.678
462.29	31.636
462.64	32.349
462.99	32.118
463.34	30.979
463.69	32.244
464.04	32.873
464.39	31.254
464.74	31.125
465.09	31.631
465.44	31.393
465.79	31.355
466.14	31.426
466.49	31.199
466.84	31.438
467.19	32.455
467.54	31.592
467.89	32.042
468.24	31.268
468.59	31.845
468.94	32.790
469.29	33.109
469.64	32.347
469.99	32.455
470.34	32.574
470.68	32.207
471.03	32.622
471.38	32.781
471.73	32.462
472.08	33.855
472.43	32.340
472.78	33.099
473.13	32.103
473.48	31.540
473.83	31.802
474.17	32.584
474.52	32.287
474.87	31.779
475.22	33.124
475.57	32.214
475.92	31.272
476.27	31.338
476.61	32.172
476.96	33.124
477.31	33.265
477.66	32.850
478.01	32.130
478.36	32.647
478.70	32.804
479.05	32.113
479.40	32.143
479.75	32.671
480.10	31.994
480.45	31.839
480.79	32.028
481.14	32.335
481.49	31.153
481.84	32.014
482.19	32.271
482.53	31.928
482.88	32.572
483.23	31.935
483.58	32.316
483.92	32.770
484.27	32.192
484.62	31.537
484.97	32.139
485.31	31.078
485.66	30.206
486.01	28.981
486.36	28.740
486.70	28.177
487.05	28.589
487.40	29.725
487.75	29.901
488.09	30.568
488.44	31.262
488.79	31.413
489.13	31.728
489.48	31.842
489.83	31.443
490.17	30.636
490.52	32.343
490.87	32.026
491.22	32.624
491.56	32.235
491.91	32.392
492.26	32.739
492.60	32.620
492.95	32.125
493.30	32.757
493.64	32.929
493.99	32.469
494.34	32.183
494.68	33.599
495.03	32.241
495.37	32.778
495.72	33.054
496.07	32.435
496.41	32.407
496.76	31.997
497.11	32.348
497.45	32.836
497.80	33.318
498.14	32.178
498.49	32.776
498.84	32.897
499.18	31.993
499.53	32.476
499.87	31.626
500.22	32.704
500.56	32.358
500.91	33.163
501.26	32.889
501.60	32.832
501.95	32.079
502.29	32.222
502.64	32.069
502.98	31.614
503.33	32.294
503.67	32.450
504.02	31.751
504.36	32.217
504.71	32.829
505.06	31.534
505.40	32.054
505.75	32.975
506.09	32.618
506.44	32.049
506.78	33.129
507.13	32.913
507.47	32.460
507.82	32.019
508.16	33.219
508.51	33.333
508.85	32.051
509.19	33.089
509.54	32.520
509.88	32.819
510.23	32.549
510.57	31.371
510.92	32.667
511.26	32.781
511.61	31.758
511.95	32.802
512.30	32.450
512.64	31.931
512.98	32.445
513.33	32.633
513.67	32.367
514.02	32.519
514.36	33.022
514.70	32.747
515.05	33.085
515.39	33.279
515.74	34.117
516.08	33.170
516.42	33.716
516.77	32.267
517.11	32.747
517.46	32.543
517.80	32.824
518.14	33.408
518.49	33.572
518.83	32.637
519.17	32.390
519.52	33.807
519.86	32.425
520.20	32.274
520.55	33.465
520.89	32.759
521.23	32.944
521.58	33.735
521.92	33.120
522.26	32.879
522.61	33.690
522.95	33.694
523.29	33.860
523.64	32.717
523.98	33.333
524.32	33.333
524.66	32.986
525.01	33.195
525.35	32.233
525.69	33.715
526.04	33.789
526.38	32.902
526.72	32.279
527.06	31.283
527.41	33.495
527.75	33.658
528.09	32.751
528.43	33.313
528.78	32.260
529.12	33.113
529.46	32.262
529.80	31.659
530.15	32.057
530.49	32.190
530.83	32.176
531.17	32.042
531.51	32.802
531.86	33.213
532.20	31.520
532.54	32.580
532.88	33.167
533.22	31.749
533.57	32.581
533.91	32.401
534.25	30.352
534.59	31.813
534.93	31.172
535.27	31.019
535.62	31.214
535.96	30.496
536.30	31.505
536.64	31.180
536.98	31.278
537.32	32.250
537.66	31.569
538.01	31.827
538.35	32.127
538.69	30.765
539.03	31.095
539.37	30.461
539.71	30.617
540.05	30.585
540.39	31.258
540.73	31.392
541.07	30.803
541.42	31.530
541.76	31.381
542.10	30.949
542.44	30.673
542.78	31.529
543.12	30.613
543.46	31.140
543.80	31.391
544.14	31.517
544.48	31.022
544.82	31.009
545.16	29.447
545.50	30.301
545.84	30.556
546.18	32.510
546.52	30.820
546.86	31.399
547.20	30.814
547.54	30.019
547.88	30.049
548.22	29.690
548.56	29.287
548.90	30.368
549.24	30.512
549.58	29.768
549.92	30.976
550.26	31.846
550.60	30.539
550.94	30.461
551.28	32.207
551.62	30.966
551.96	31.284
552.30	29.993
552.64	30.097
552.98	29.253
553.32	28.937
553.66	30.228
554.00	30.116
554.34	31.092
554.68	31.452
555.02	30.414
555.36	30.186
555.69	29.974
556.03	29.745
556.37	30.529
556.71	30.443
557.05	29.096
557.39	29.800
557.73	31.469
558.07	30.248
558.41	31.117
558.75	30.438
559.08	31.380
559.42	30.780
559.76	31.076
560.10	29.800
560.44	29.131
560.78	29.795
561.12	30.134
561.45	28.974
561.79	28.964
562.13	28.490
562.47	28.618
562.81	28.887
563.15	28.959
563.48	28.634
563.82	29.382
564.16	28.607
564.50	28.210
564.84	28.024
565.17	28.223
565.51	28.510
565.85	29.488
566.19	28.333
566.52	28.520
566.86	28.663
567.20	28.090
567.54	28.603
567.88	28.169
568.21	27.409
568.55	26.800
568.89	26.642
569.23	25.453
569.56	25.559
569.90	25.117
570.24	25.520
570.57	24.659
570.91	24.243
571.25	24.792
571.59	23.999
571.92	23.574
572.26	23.369
572.60	23.605
572.93	24.008
573.27	24.095
573.61	23.281
573.95	23.381
574.28	23.291
574.62	22.776
574.96	22.853
575.29	22.255
575.63	22.756
575.97	22.590
576.30	22.475
576.64	22.768
576.98	22.614
577.31	22.889
577.65	22.574
577.98	22.205
578.32	21.964
578.66	21.792
578.99	22.677
579.33	22.643
579.67	22.386
580.00	22.288
580.34	22.217
580.67	22.215
581.01	22.603
581.35	22.004
581.68	21.374
582.02	21.757
582.35	21.466
582.69	21.661
583.02	21.722
583.36	22.379
583.70	22.688
584.03	22.819
584.37	22.514
584.70	22.269
585.04	22.032
585.37	22.160
585.71	22.854
586.04	22.225
586.38	22.073
586.72	22.342
587.05	22.491
587.39	21.896
587.72	22.835
588.06	22.275
588.39	22.083
588.73	22.664
589.06	22.527
589.40	22.754
589.73	23.173
590.07	23.164
590.40	23.310
590.73	24.311
591.07	23.757
591.40	23.393
591.74	23.295
592.07	23.752
592.41	23.741
592.74	22.959
593.08	22.559
593.41	21.873
593.75	22.313
594.08	22.821
594.41	23.037
594.75	22.705
595.08	23.354
595.42	23.239
595.75	22.935
596.09	22.767
596.42	22.906
596.75	23.478
597.09	24.350
597.42	23.469
597.75	23.489
598.09	23.020
598.42	23.337
598.76	22.205
599.09	22.655
599.42	22.976
599.76	22.286
600.09	22.136
600.42	21.858
600.76	21.652
601.09	21.919
601.42	22.070
601.76	22.342
602.09	22.774
602.42	22.440
602.76	22.619
603.09	22.926
603.42	22.495
603.76	22.234
604.09	22.005
604.42	21.996
604.76	22.758
605.09	22.204
605.42	22.958
605.75	22.306
606.09	22.571
606.42	22.623
606.75	21.959
607.09	21.753
607.42	22.057
607.75	22.771
608.08	22.096
608.42	22.735
608.75	22.465
609.08	22.525
609.41	22.909
609.75	22.802
610.08	23.022
610.41	22.617
610.74	22.944
611.07	23.192
611.41	22.845
611.74	23.566
612.07	22.110
612.40	22.515
612.73	22.566
613.07	23.011
613.40	23.709
613.73	22.666
614.06	22.700
614.39	23.081
614.72	22.099
615.06	21.909
615.39	23.465
615.72	22.556
616.05	22.702
616.38	22.425
616.71	23.277
617.05	22.735
617.38	22.528
617.71	22.666
618.04	22.771
618.37	22.401
618.70	22.344
619.03	22.711
619.36	24.560
619.69	23.549
620.03	24.658
620.36	23.443
620.69	24.968
621.02	24.592
621.35	23.926
621.68	24.705
622.01	24.723
622.34	23.816
622.67	24.508
623.00	24.643
623.33	24.629
623.66	24.152
623.99	23.767
624.32	23.374
624.65	24.556
624.99	23.327
625.32	24.248
625.65	22.621
625.98	23.501
626.31	25.000
626.64	24.298
626.97	24.101
627.30	24.689
627.63	25.275
627.96	24.413
628.29	24.092
628.62	24.465
628.95	25.532
629.28	25.592
629.61	24.868
629.94	24.546
630.26	25.477
630.59	25.355
630.92	24.664
631.25	25.929
631.58	26.712
631.91	26.356
632.24	26.531
632.57	24.754
632.90	26.605
633.23	26.128
633.56	26.660
633.89	25.723
634.22	26.480
634.55	25.161
634.88	28.039
635.20	25.897
635.53	27.642
635.86	27.405
636.19	27.048
636.52	25.405
636.85	24.919
637.18	26.111
637.51	24.693
637.83	26.087
638.16	26.143
638.49	25.988
638.82	25.117
639.15	24.912
639.48	28.673
639.81	26.252
640.13	26.380
640.46	29.962
640.79	26.138
641.12	27.953
641.45	27.943
641.77	27.213
642.10	28.246
642.43	27.881
642.76	26.705
643.09	28.386
643.41	29.453
643.74	28.345
644.07	28.024
644.40	26.775
644.73	30.030
645.05	29.866
645.38	30.322
645.71	28.528
646.04	29.466
646.36	29.577
646.69	26.720
647.02	29.280
647.35	27.717
647.67	29.335
648.00	28.664
648.33	28.722
648.66	26.364
648.98	25.217
649.31	26.046
649.64	24.481
649.96	26.174
650.29	24.857
650.62	27.835
650.94	28.765
651.27	29.984
651.60	27.700
651.92	28.571
652.25	28.189
652.58	27.092
652.90	25.299
653.23	28.213
653.56	27.893
653.88	26.872
654.21	25.953
654.54	25.769
654.86	27.581
655.19	25.726
655.52	21.550
655.84	15.476
656.17	17.457
656.49	24.830
656.82	28.236
657.15	22.881
657.47	17.382
657.80	13.037
658.13	10.493
658.45	14.747
658.78	18.013
659.10	18.620
659.43	19.501
659.75	21.166
660.08	22.368
660.41	21.869
660.73	26.851
661.06	27.177
661.38	27.768
661.71	28.957
662.03	29.087
662.36	28.190
662.68	29.050
663.01	30.450
663.33	27.170
663.66	28.008
663.98	29.563
664.31	29.478
664.63	29.310
664.96	29.831
665.28	27.119
665.61	27.547
665.93	29.245
666.26	28.224
666.58	30.092
666.91	28.764
667.23	26.908
667.56	27.721
667.88	31.328
668.21	29.508
668.53	28.024
668.86	29.459
669.18	27.902
669.50	27.479
669.83	29.979
670.15	29.106
670.48	26.758
670.80	26.693
671.13	28.088
671.45	28.257
671.77	28.757
672.10	27.469
672.42	27.467
672.75	25.633
673.07	25.914
673.39	25.240
673.72	26.644
674.04	27.778
674.37	26.497
674.69	27.323
675.01	27.985
675.34	25.581
675.66	28.125
675.98	27.811
676.31	29.200
676.63	26.839
676.95	28.571
677.28	27.181
677.60	26.761
677.92	26.786
678.25	27.713
678.57	27.561
678.89	27.306
679.22	25.368
679.54	28.114
679.86	26.003
680.18	24.605
680.51	24.876
680.83	25.000
681.15	25.650
681.48	25.521
681.80	26.270
682.12	25.606
682.44	25.405
682.77	28.114
683.09	26.990
683.41	26.735
683.73	27.756
684.06	24.802
684.38	26.357
684.70	25.719
685.02	24.653
685.34	26.056
685.67	24.116
685.99	22.660
686.31	23.267
686.63	23.089
686.96	25.654
687.28	23.826
687.60	25.256
687.92	24.791
688.24	25.345
688.56	26.868
688.89	22.562
689.21	25.819
689.53	27.470
689.85	23.374
690.17	26.602
690.49	26.008
690.82	26.261
691.14	26.465
691.46	28.953
691.78	25.731
692.10	25.382
692.42	25.953
692.74	23.837
693.06	26.550
693.39	24.308
693.71	25.344
694.03	27.613
694.35	27.510
694.67	27.088
694.99	26.608
695.31	28.378
695.63	27.149
695.95	24.661
696.27	29.425
696.59	26.014
696.91	27.342
697.23	26.018
697.56	24.481
697.88	24.750
698.20	22.453
698.52	25.097
698.84	24.641
699.16	25.373
699.48	26.907
699.80	29.412
700.12	25.173
700.44	27.103
700.76	28.162
701.08	28.198
701.40	26.753
701.72	29.947
702.04	28.184
702.36	29.839
702.68	30.053
703.00	25.564
703.32	28.536
703.64	28.715
703.96	25.000
704.28	28.836
704.60	29.577
704.91	29.972
705.23	30.682
705.55	32.344
705.87	28.889
706.19	31.661
706.51	32.602
706.83	33.333
707.15	27.273
707.47	26.392
707.79	25.747
708.11	23.583
708.43	25.843
708.74	25.113
709.06	24.884
709.38	28.040
709.70	27.793
710.02	26.359
710.34	29.282
710.66	30.833
710.98	28.689
711.29	29.248
711.61	28.412
711.93	28.875
712.25	30.120
712.57	28.939
712.89	28.485
713.20	31.629
713.52	31.464
713.84	30.211
714.16	24.638
714.48	24.496
714.80	27.100
715.11	24.468
715.43	27.374
715.75	26.761
716.07	26.301
716.39	26.571
716.70	29.283
717.02	29.293
717.34	29.137
717.66	30.903
717.97	35.985
718.29	28.169
718.61	24.324
718.93	29.412
719.24	32.215
719.56	24.138
719.88	28.981
720.20	29.032
720.51	27.451
720.83	28.763
721.15	30.952
721.46	29.795
721.78	28.571
722.10	31.597
722.42	36.455
722.73	29.242
723.05	33.333
723.37	31.802
723.68	27.344
724.00	36.364
724.32	31.179
724.63	31.538
724.95	31.373
725.27	31.970
725.58	29.412
725.90	27.113
726.22	29.452
726.53	25.418
726.85	28.339
727.16	30.201
727.48	30.565
727.80	32.014
728.11	26.429
728.43	27.536
728.74	28.671
729.06	25.448
729.38	30.526
729.69	30.333
730.01	31.579
730.32	27.181
730.64	30.233
730.96	29.129
731.27	19.572
731.59	27.011
731.90	26.184
732.22	30.571
732.53	24.501
732.85	27.778
733.16	25.301
733.48	23.511
733.80	26.377
734.11	31.902
734.43	23.392
734.74	25.469
735.06	24.868
735.37	23.196
735.69	26.377
736.00	27.523
736.32	26.970
736.63	26.183
736.95	27.329
737.26	28.963
737.58	28.834
737.89	25.904
738.21	25.497
738.52	31.773
738.83	29.670
739.15	30.314
739.46	29.310
739.78	26.190
740.09	24.781
740.41	26.074
740.72	29.524
741.04	29.720
741.35	29.297
741.66	28.458
741.98	30.901
742.29	33.796
742.61	29.204
742.92	26.695
743.23	32.800
743.55	30.189
743.86	30.980
744.18	34.322
744.49	35.950
744.80	30.415
745.12	35.268
745.43	28.037
745.74	30.667
746.06	31.140
746.37	35.814
746.68	33.628
747.00	32.287
747.31	32.773
747.62	25.410
747.94	30.472
748.25	27.237
748.56	33.475
748.88	35.714
749.19	29.302
749.50	31.050
749.82	30.453
750.13	30.435
750.44	26.667
750.75	29.195
751.07	25.987
751.38	28.053
751.69	27.609
752.01	27.622
752.32	24.917
752.63	28.188
752.94	31.119
753.26	26.172
753.57	31.907
753.88	28.839
754.19	29.964
754.51	29.568
754.82	26.846
755.13	24.324
755.44	26.667
755.75	30.584
756.07	30.137
756.38	25.163
756.69	23.125
757.00	26.113
757.31	23.662
757.63	22.314
757.94	23.138
758.25	25.121
758.56	20.366
758.87	24.311
759.18	25.291
759.50	25.532
759.81	27.003
760.12	21.910
760.43	24.930
760.74	25.570
761.05	23.607
761.36	25.000
761.67	28.571
761.99	25.352
762.30	23.473
762.61	24.653
762.92	30.303
763.23	29.057
763.54	28.846
763.85	25.292
764.16	26.389
764.47	27.027
764.78	23.779
765.10	25.000
765.41	26.136
765.72	25.414
766.03	22.356
766.34	22.997
766.65	30.418
766.96	30.364
767.27	33.178
767.58	32.673
767.89	39.227
768.20	37.805
768.51	34.694
768.82	30.263
769.13	27.843
769.44	28.947
769.75	26.217
770.06	30.672
770.37	25.877
770.68	24.889
770.99	34.322
771.30	30.544
771.61	31.538
771.92	26.718
772.23	27.823
772.54	29.778
772.85	35.149
773.16	32.065
773.47	30.556
773.78	29.703
774.09	39.773
774.39	39.394
774.70	31.176
775.01	35.526
775.32	39.130
775.63	39.041
775.94	43.827
776.25	46.207
776.56	47.328
776.87	48.092
777.18	40.909
777.48	53.543
777.79	48.462
778.10	43.939
778.41	49.254
778.72	33.835
779.03	41.026
779.34	33.784
779.65	42.857
779.95	31.677
780.26	32.143
780.57	45.578
780.88	39.716
781.19	45.833
781.50	37.278
781.80	33.880
782.11	31.746
782.42	29.310
782.73	32.768
783.04	35.484
783.34	31.008
783.65	29.252
783.96	42.581
784.27	41.060
784.57	34.211
784.88	35.507
785.19	35.833
785.50	42.241
785.81	42.636
786.11	37.037
786.42	37.008
786.73	36.036
787.04	44.340
787.34	37.398
787.65	43.182
787.96	50.758
788.26	37.795
788.57	52.555
788.88	38.028
789.19	40.458
789.49	45.946
789.80	40.625
790.11	42.149
790.41	37.963
790.72	34.259
791.03	44.231
791.33	43.434
791.64	43.158
791.95	54.737
792.25	44.792
792.56	51.000
792.87	51.220
793.17	48.864
793.48	47.059
793.79	58.621
794.09	56.818
794.40	49.138
794.70	38.889
795.01	38.462
795.32	35.115
795.62	37.607
795.93	38.655
796.23	47.154
796.54	42.857
796.85	52.273
797.15	62.338
797.46	63.415
797.76	41.250
798.07	60.000
798.37	66.250
798.68	63.750
798.99	60.976
799.29	56.000
799.60	48.837
799.90	56.579
800.21	63.636
800.51	49.296
800.82	70.690
801.12	56.923
801.43	64.000
801.73	53.448
802.04	51.948
802.34	56.164
802.65	80.392
802.95	78.261
803.26	83.871
803.56	75.000
803.87	67.164
804.17	60.317
804.48	66.038
804.78	58.333
805.09	77.273
805.39	66.667
805.70	54.386
806.00	48.571
806.30	50.000
806.61	62.353
806.91	52.222
807.22	46.739
807.52	50.000
807.83	73.684
808.13	66.667
808.43	72.581
808.74	54.795
809.04	80.357
809.35	69.118
809.65	65.152
809.95	86.275
810.26	83.333
810.56	73.438
810.86	69.388
811.17	70.175
811.47	82.609
811.77	65.517
812.08	46.552
812.38	80.952
812.69	95.238
812.99	80.000
813.29	125.714
813.59	135.484
813.90	75.862
814.20	75.410
814.50	72.000
814.81	71.930
815.11	75.926
815.41	60.714
815.72	91.071
816.02	94.000
816.32	100.000
816.62	89.655
816.93	127.273
817.23	100.000
817.53	94.643
817.84	77.778
818.14	100.000
818.44	87.500
818.74	83.019
819.04	92.308
819.35	100.000
819.65	90.385
819.95	103.704
820.25	108.511
820.56	110.811
820.86	92.105
821.16	72.340
821.46	78.947
821.76	98.182
822.07	73.810
822.37	76.316
822.67	86.047
822.97	92.105
823.27	106.522
823.57	75.000
823.88	107.692
824.18	93.939
824.48	152.174
824.78	105.556
825.08	160.870
825.38	131.034
825.69	120.588
825.99	76.596
826.29	58.333
826.59	120.000
826.89	83.333
827.19	74.286
827.49	129.032
827.79	130.769
828.09	90.476
828.39	108.333
828.70	81.081
829.00	171.429
829.30	243.750
829.60	113.889
829.90	129.032
830.20	96.970
830.50	102.703
830.80	166.667
831.10	150.000
831.40	128.571
831.70	195.833
832.00	140.000
832.30	165.217
832.60	191.667
832.90	133.333
833.20	205.000
833.50	115.789
833.80	88.235
834.10	105.263
834.40	163.158
834.70	80.000
835.00	164.000
835.30	86.486
835.60	125.000
835.90	113.514
836.20	134.615
836.50	154.545
836.80	102.439
837.10	121.739
837.40	292.308
837.70	100.000
838.00	123.333
838.30	120.833
838.60	156.000
838.90	280.000
839.19	206.250
839.49	123.333
839.79	137.931
840.09	157.692
840.39	200.000
840.69	163.158
840.99	119.048
841.29	134.783
841.59	180.000
841.88	128.000
842.18	344.444
842.48	142.857
842.78	162.963
843.08	192.308
843.38	131.818
843.68	271.429
843.97	314.286
844.27	147.826
844.57	1300.000
844.87	307.143
845.17	205.556
845.47	138.095
845.76	158.333
846.06	485.714
846.36	170.588
846.66	261.538
846.96	237.500
847.25	253.846
847.55	194.737
847.85	177.778
848.15	560.000
848.44	363.636
848.74	204.762
849.04	208.333
849.34	158.824
849.63	225.000
849.93	212.500
850.23	933.333
850.53	400.000
850.82	245.455
851.12	205.882
851.42	208.333
851.71	206.250
852.01	0.000
852.31	147.059
852.61	310.000
852.90	158.333
853.20	366.667
853.50	-1300.000
853.79	116.000
854.09	109.375
854.39	131.034
854.68	148.276
854.98	204.762
855.28	119.355
855.57	250.000
855.87	166.667
856.17	96.296
856.46	200.000
856.76	112.903
857.05	205.882
857.35	200.000
857.65	207.692
857.94	135.000
858.24	233.333
858.53	300.000
858.83	585.714
859.13	178.261
859.42	144.444
859.72	362.500
860.01	216.667
860.31	825.000
860.60	370.000
860.90	300.000
861.20	192.308
861.49	371.429
861.79	-3800.000
862.08	585.714
862.38	322.222
862.67	214.286
862.97	360.000
863.26	150.000
863.56	800.000
863.85	230.769
864.15	282.353
864.44	250.000
864.74	358.333
865.03	309.091
865.33	287.500
865.62	173.333
865.92	616.667
866.21	775.000
866.51	720.000
866.80	233.333
867.10	533.333
867.39	2800.000
867.69	420.000
867.98	700.000
868.27	157.143
868.57	253.333
868.86	1025.000
869.16	176.190
869.45	3800.000
869.75	-450.000
870.04	650.000
870.33	520.000
870.63	337.500
870.92	241.176
871.22	850.000
871.51	400.000
871.80	300.000
872.10	315.385
>>>>>End Processed Spectral Data<<<<<
