SpectraSuite Data File
++++++++++++++++++++++++++++++++++++
Date: Tue May 12 15:35:18 PDT 2015
User: schluterlab
Dark Spectrum Present: Yes
Reference Spectrum Present: Yes
Number of Sampled Component Spectra: 1
Spectrometers: USB2E3373
Integration Time (usec): 3000 (USB2E3373)
Spectra Averaged: 3 (USB2E3373)
Boxcar Smoothing: 0 (USB2E3373)
Correct for Electrical Dark: No (USB2E3373)
Strobe/Lamp Enabled: No (USB2E3373)
Correct for Detector Non-linearity: No (USB2E3373)
Correct for Stray Light: No (USB2E3373)
Number of Pixels in Processed Spectrum: 2048
>>>>>Begin Processed Spectral Data<<<<<
178.53	0.000
178.91	-241.667
179.29	-700.000
179.67	-4900.000
180.04	-146.667
180.42	625.000
180.80	1500.000
181.18	0.000
181.56	-450.000
181.94	0.000
182.31	1133.333
182.69	-3400.000
183.07	471.429
183.45	-3900.000
183.83	-1050.000
184.20	350.000
184.58	485.714
184.96	-184.615
185.34	-266.667
185.72	1450.000
186.09	-750.000
186.47	-2900.000
186.85	1266.667
187.23	680.000
187.61	1850.000
187.98	525.000
188.36	264.286
188.74	366.667
189.12	466.667
189.49	975.000
189.87	0.000
190.25	600.000
190.63	3500.000
191.00	-200.000
191.38	-4300.000
191.76	-650.000
192.14	600.000
192.51	-2700.000
192.89	2000.000
193.27	1266.667
193.65	-1000.000
194.02	-520.000
194.40	485.714
194.78	-192.857
195.15	253.333
195.53	-3300.000
195.91	-740.000
196.29	3800.000
196.66	300.000
197.04	850.000
197.42	-1700.000
197.79	650.000
198.17	316.667
198.55	0.000
198.92	414.286
199.30	1033.333
199.68	1350.000
200.05	733.333
200.43	-466.667
200.81	227.778
201.18	4200.000
201.56	258.333
201.94	-775.000
202.31	-375.000
202.69	-400.000
203.07	3200.000
203.44	-516.667
203.82	341.667
204.19	660.000
204.57	-1250.000
204.95	-825.000
205.32	-740.000
205.70	466.667
206.08	775.000
206.45	-833.333
206.83	444.444
207.20	189.474
207.58	266.667
207.96	820.000
208.33	0.000
208.71	542.857
209.08	700.000
209.46	-3100.000
209.84	-675.000
210.21	840.000
210.59	-660.000
210.96	325.000
211.34	-800.000
211.71	318.182
212.09	925.000
212.46	1700.000
212.84	-616.667
213.22	366.667
213.59	-3500.000
213.97	300.000
214.34	1050.000
214.72	1033.333
215.09	1033.333
215.47	-2700.000
215.84	-320.000
216.22	-412.500
216.59	0.000
216.97	0.000
217.34	1400.000
217.72	-1600.000
218.09	1233.333
218.47	437.500
218.84	950.000
219.22	933.333
219.59	1300.000
219.97	614.286
220.34	388.889
220.72	1700.000
221.09	3400.000
221.47	341.667
221.84	966.667
222.22	250.000
222.59	250.000
222.97	171.429
223.34	300.000
223.72	-1700.000
224.09	1433.333
224.46	323.077
224.84	-625.000
225.21	422.222
225.59	360.000
225.96	1066.667
226.34	-660.000
226.71	-750.000
227.08	-660.000
227.46	0.000
227.83	-616.667
228.21	-1350.000
228.58	291.667
228.95	1050.000
229.33	466.667
229.70	950.000
230.08	353.846
230.45	4600.000
230.82	-900.000
231.20	-1166.667
231.57	-1000.000
231.95	520.000
232.32	266.667
232.69	583.333
233.07	300.000
233.44	-2000.000
233.81	273.333
234.19	188.889
234.56	250.000
234.93	188.235
235.31	165.000
235.68	293.750
236.05	150.000
236.43	170.370
236.80	235.714
237.17	144.828
237.55	137.500
237.92	150.000
238.29	184.848
238.67	128.125
239.04	114.634
239.41	91.667
239.79	122.500
240.16	100.000
240.53	83.607
240.91	76.812
241.28	84.746
241.65	84.848
242.02	83.099
242.40	82.857
242.77	76.923
243.14	74.684
243.51	82.828
243.89	60.748
244.26	65.421
244.63	68.317
245.00	66.055
245.38	50.000
245.75	61.364
246.12	64.444
246.49	49.645
246.87	55.738
247.24	59.333
247.61	55.000
247.98	61.224
248.36	38.788
248.73	50.510
249.10	51.786
249.47	51.500
249.84	53.234
250.22	58.378
250.59	50.500
250.96	45.148
251.33	55.814
251.70	50.446
252.08	48.319
252.45	45.020
252.82	43.726
253.19	47.431
253.56	46.154
253.94	45.290
254.31	46.124
254.68	47.038
255.05	44.828
255.42	45.255
255.79	43.322
256.16	47.458
256.54	41.558
256.91	45.752
257.28	43.813
257.65	41.379
258.02	41.593
258.39	40.974
258.76	44.928
259.14	39.429
259.51	43.732
259.88	46.201
260.25	40.659
260.62	41.096
260.99	39.394
261.36	44.568
261.73	40.691
262.10	41.623
262.47	43.750
262.85	41.600
263.22	40.874
263.59	41.944
263.96	41.604
264.33	37.037
264.70	41.278
265.07	40.488
265.44	37.615
265.81	38.443
266.18	37.529
266.55	39.007
266.92	40.716
267.29	38.816
267.66	36.547
268.03	37.892
268.40	38.901
268.77	38.767
269.14	39.046
269.51	37.416
269.88	37.347
270.25	36.069
270.62	36.695
270.99	40.365
271.36	39.024
271.73	35.010
272.10	37.374
272.47	35.119
272.84	36.128
273.21	41.116
273.58	39.271
273.95	35.524
274.32	38.132
274.69	37.598
275.06	38.251
275.43	37.165
275.80	35.472
276.17	33.272
276.54	36.075
276.91	37.500
277.28	37.226
277.65	36.716
278.02	36.213
278.39	37.770
278.76	36.034
279.13	37.367
279.50	35.818
279.87	37.058
280.23	34.807
280.60	36.131
280.97	36.379
281.34	34.323
281.71	35.826
282.08	35.214
282.45	34.966
282.82	35.117
283.19	34.022
283.56	35.041
283.92	35.505
284.29	35.441
284.66	33.613
285.03	36.318
285.40	34.380
285.77	34.877
286.14	34.675
286.51	34.816
286.87	32.120
287.24	32.883
287.61	34.347
287.98	35.821
288.35	34.963
288.72	33.991
289.08	32.282
289.45	33.994
289.82	33.281
290.19	34.553
290.56	35.226
290.93	33.381
291.29	32.597
291.66	31.638
292.03	34.642
292.40	33.062
292.77	31.337
293.13	33.524
293.50	33.333
293.87	31.572
294.24	33.147
294.60	32.436
294.97	33.846
295.34	32.271
295.71	33.377
296.08	33.867
296.44	33.291
296.81	32.010
297.18	32.573
297.55	31.404
297.91	31.527
298.28	32.246
298.65	32.393
299.02	32.569
299.38	31.894
299.75	32.439
300.12	32.339
300.48	34.192
300.85	33.611
301.22	32.558
301.59	32.311
301.95	33.022
302.32	32.712
302.69	33.145
303.05	34.905
303.42	33.296
303.79	33.911
304.15	32.123
304.52	33.510
304.89	32.729
305.25	34.260
305.62	35.288
305.99	34.457
306.35	32.632
306.72	34.651
307.09	34.886
307.45	34.213
307.82	35.082
308.19	35.979
308.55	35.700
308.92	34.838
309.29	37.475
309.65	37.066
310.02	37.931
310.38	37.288
310.75	38.187
311.12	36.686
311.48	38.803
311.85	39.885
312.22	38.777
312.58	40.039
312.95	41.068
313.31	39.232
313.68	40.713
314.05	41.758
314.41	42.179
314.78	43.087
315.14	43.507
315.51	44.560
315.87	42.792
316.24	44.444
316.61	43.062
316.97	45.321
317.34	45.013
317.70	46.444
318.07	47.776
318.43	47.979
318.80	47.723
319.16	48.514
319.53	49.204
319.89	48.297
320.26	52.421
320.62	51.465
320.99	52.908
321.35	52.968
321.72	54.744
322.08	53.463
322.45	53.769
322.81	57.640
323.18	58.437
323.54	57.491
323.91	60.381
324.27	58.709
324.64	60.208
325.00	61.724
325.37	60.624
325.73	62.226
326.10	64.706
326.46	63.666
326.83	63.440
327.19	67.550
327.56	67.971
327.92	69.262
328.29	69.313
328.65	70.120
329.01	69.632
329.38	69.628
329.74	69.172
330.11	70.895
330.47	71.952
330.84	69.629
331.20	70.220
331.56	71.330
331.93	73.909
332.29	72.194
332.66	74.235
333.02	71.821
333.38	74.520
333.75	71.226
334.11	73.154
334.48	74.701
334.84	72.551
335.20	72.883
335.57	73.132
335.93	72.161
336.29	72.554
336.66	74.957
337.02	74.594
337.38	71.453
337.75	75.253
338.11	74.008
338.47	74.767
338.84	73.412
339.20	73.939
339.56	72.750
339.93	72.826
340.29	73.445
340.65	75.105
341.02	74.417
341.38	73.810
341.74	73.837
342.11	75.292
342.47	74.159
342.83	75.472
343.20	74.697
343.56	72.518
343.92	74.401
344.28	75.199
344.65	76.284
345.01	74.048
345.37	73.397
345.73	73.968
346.10	72.829
346.46	74.003
346.82	72.840
347.19	75.039
347.55	73.770
347.91	74.018
348.27	74.671
348.63	75.079
349.00	72.734
349.36	74.630
349.72	75.459
350.08	74.845
350.45	76.009
350.81	74.694
351.17	74.345
351.53	74.596
351.89	75.136
352.26	75.132
352.62	74.887
352.98	73.926
353.34	76.194
353.70	74.771
354.07	76.385
354.43	74.885
354.79	73.956
355.15	76.187
355.51	75.604
355.87	75.377
356.24	76.059
356.60	77.473
356.96	76.194
357.32	75.132
357.68	75.918
358.04	77.204
358.40	75.262
358.77	77.686
359.13	75.601
359.49	75.686
359.85	77.141
360.21	76.300
360.57	77.372
360.93	75.902
361.29	76.696
361.66	77.181
362.02	75.497
362.38	76.912
362.74	76.787
363.10	76.508
363.46	76.796
363.82	75.806
364.18	77.312
364.54	77.325
364.90	75.502
365.26	77.654
365.62	77.348
365.98	75.430
366.35	76.759
366.71	77.030
367.07	75.495
367.43	76.494
367.79	76.729
368.15	76.119
368.51	77.188
368.87	76.834
369.23	77.131
369.59	75.118
369.95	77.133
370.31	76.181
370.67	77.793
371.03	75.840
371.39	76.247
371.75	77.390
372.11	76.886
372.47	76.096
372.83	77.906
373.19	76.902
373.55	77.457
373.91	76.588
374.27	75.992
374.63	76.475
374.99	78.032
375.35	77.755
375.71	76.715
376.07	78.117
376.42	75.064
376.78	78.099
377.14	78.768
377.50	76.654
377.86	77.194
378.22	78.062
378.58	78.935
378.94	77.007
379.30	78.472
379.66	76.701
380.02	76.540
380.38	76.112
380.74	78.316
381.09	76.343
381.45	74.971
381.81	76.300
382.17	76.618
382.53	76.305
382.89	76.109
383.25	75.607
383.61	74.755
383.97	74.745
384.32	75.769
384.68	76.292
385.04	75.440
385.40	76.928
385.76	75.132
386.12	76.005
386.48	76.596
386.83	76.039
387.19	75.501
387.55	74.617
387.91	75.173
388.27	75.848
388.62	75.117
388.98	74.169
389.34	74.004
389.70	74.233
390.06	74.939
390.42	72.548
390.77	73.833
391.13	74.351
391.49	73.200
391.85	73.662
392.20	74.195
392.56	74.432
392.92	72.600
393.28	73.599
393.64	73.165
393.99	73.563
394.35	73.337
394.71	71.411
395.07	73.358
395.42	72.424
395.78	73.658
396.14	72.892
396.50	71.600
396.85	71.341
397.21	71.420
397.57	71.309
397.92	70.133
398.28	71.153
398.64	71.670
399.00	69.909
399.35	69.404
399.71	70.640
400.07	69.635
400.42	70.090
400.78	69.795
401.14	70.405
401.49	69.009
401.85	70.336
402.21	69.303
402.57	68.881
402.92	69.697
403.28	67.661
403.63	66.274
403.99	67.431
404.35	68.757
404.70	69.403
405.06	67.041
405.42	68.642
405.77	67.806
406.13	66.757
406.49	66.742
406.84	66.497
407.20	66.438
407.55	66.523
407.91	66.752
408.27	66.525
408.62	66.115
408.98	65.050
409.34	65.634
409.69	66.210
410.05	64.997
410.40	63.840
410.76	64.282
411.11	64.218
411.47	64.074
411.83	62.566
412.18	64.010
412.54	65.706
412.89	64.248
413.25	63.797
413.60	62.909
413.96	63.495
414.31	63.282
414.67	64.804
415.03	64.176
415.38	63.659
415.74	63.487
416.09	62.648
416.45	65.029
416.80	64.464
417.16	61.617
417.51	62.739
417.87	63.016
418.22	63.244
418.58	63.376
418.93	63.653
419.29	61.676
419.64	62.810
420.00	62.709
420.35	62.021
420.71	61.960
421.06	63.096
421.42	62.579
421.77	62.798
422.12	62.514
422.48	62.455
422.83	63.170
423.19	61.825
423.54	61.437
423.90	63.250
424.25	62.521
424.61	62.914
424.96	61.321
425.31	62.069
425.67	63.019
426.02	61.918
426.38	61.844
426.73	62.869
427.09	63.167
427.44	62.634
427.79	62.550
428.15	63.229
428.50	62.514
428.85	62.375
429.21	61.912
429.56	61.067
429.92	61.860
430.27	60.474
430.62	60.499
430.98	60.778
431.33	60.333
431.68	60.593
432.04	60.269
432.39	61.251
432.74	60.890
433.10	62.625
433.45	62.493
433.80	63.155
434.16	61.114
434.51	62.539
434.86	61.296
435.22	61.588
435.57	60.877
435.92	62.038
436.28	61.463
436.63	60.778
436.98	62.275
437.34	61.815
437.69	60.526
438.04	60.054
438.39	60.712
438.75	59.855
439.10	60.173
439.45	60.204
439.81	61.191
440.16	60.429
440.51	60.642
440.86	61.538
441.22	60.660
441.57	60.735
441.92	59.674
442.27	60.258
442.63	60.010
442.98	59.860
443.33	60.311
443.68	60.966
444.03	60.792
444.39	60.782
444.74	59.576
445.09	59.558
445.44	58.874
445.79	59.405
446.15	60.737
446.50	59.968
446.85	58.815
447.20	60.149
447.55	60.740
447.91	58.977
448.26	58.413
448.61	60.199
448.96	60.730
449.31	59.406
449.66	59.635
450.02	59.319
450.37	58.745
450.72	60.496
451.07	59.453
451.42	59.632
451.77	60.596
452.12	58.763
452.47	59.903
452.83	59.887
453.18	59.279
453.53	59.976
453.88	59.429
454.23	60.372
454.58	58.450
454.93	59.473
455.28	58.568
455.63	58.629
455.98	59.447
456.34	58.419
456.69	60.061
457.04	58.771
457.39	58.400
457.74	58.390
458.09	57.496
458.44	57.886
458.79	58.568
459.14	57.610
459.49	57.022
459.84	57.935
460.19	56.723
460.54	57.151
460.89	56.930
461.24	56.014
461.59	57.029
461.94	56.265
462.29	57.952
462.64	58.103
462.99	58.285
463.34	57.097
463.69	56.927
464.04	56.822
464.39	55.982
464.74	56.213
465.09	56.065
465.44	56.529
465.79	56.070
466.14	55.856
466.49	55.724
466.84	55.686
467.19	56.415
467.54	54.474
467.89	55.869
468.24	55.298
468.59	55.298
468.94	55.314
469.29	55.162
469.64	54.984
469.99	54.884
470.34	54.586
470.68	54.345
471.03	54.370
471.38	55.364
471.73	53.756
472.08	56.751
472.43	54.935
472.78	55.058
473.13	53.254
473.48	55.929
473.83	54.770
474.17	53.921
474.52	53.673
474.87	53.269
475.22	52.370
475.57	53.200
475.92	53.143
476.27	51.959
476.61	52.869
476.96	52.821
477.31	53.985
477.66	54.643
478.01	51.521
478.36	53.502
478.70	51.861
479.05	52.667
479.40	52.530
479.75	52.731
480.10	52.759
480.45	51.587
480.79	51.429
481.14	52.211
481.49	51.327
481.84	51.231
482.19	52.183
482.53	50.900
482.88	50.806
483.23	50.158
483.58	51.346
483.92	51.051
484.27	50.000
484.62	51.486
484.97	50.097
485.31	49.808
485.66	50.659
486.01	49.126
486.36	47.382
486.70	47.904
487.05	47.574
487.40	47.911
487.75	48.314
488.09	48.068
488.44	48.534
488.79	49.879
489.13	48.899
489.48	49.700
489.83	49.083
490.17	48.183
490.52	49.225
490.87	48.879
491.22	50.355
491.56	49.275
491.91	49.328
492.26	48.641
492.60	49.021
492.95	48.663
493.30	48.362
493.64	48.338
493.99	47.540
494.34	48.319
494.68	48.915
495.03	48.810
495.37	49.347
495.72	49.324
496.07	47.529
496.41	48.349
496.76	47.235
497.11	48.201
497.45	47.216
497.80	48.517
498.14	47.758
498.49	47.539
498.84	48.224
499.18	46.572
499.53	47.772
499.87	46.676
500.22	48.042
500.56	48.236
500.91	48.330
501.26	48.599
501.60	46.767
501.95	46.998
502.29	47.067
502.64	46.493
502.98	46.020
503.33	46.414
503.67	46.402
504.02	46.440
504.36	46.606
504.71	47.351
505.06	47.255
505.40	45.999
505.75	46.258
506.09	46.057
506.44	46.664
506.78	46.456
507.13	46.922
507.47	46.870
507.82	45.839
508.16	47.379
508.51	45.411
508.85	45.394
509.19	45.570
509.54	45.898
509.88	45.997
510.23	45.882
510.57	43.967
510.92	46.004
511.26	46.084
511.61	45.692
511.95	44.798
512.30	45.300
512.64	44.444
512.98	45.720
513.33	44.980
513.67	45.313
514.02	44.779
514.36	45.379
514.70	44.747
515.05	45.445
515.39	44.792
515.74	46.364
516.08	45.370
516.42	45.847
516.77	44.640
517.11	45.387
517.46	44.881
517.80	43.255
518.14	44.958
518.49	44.542
518.83	43.297
519.17	44.093
519.52	45.440
519.86	45.232
520.20	44.986
520.55	44.036
520.89	44.943
521.23	44.334
521.58	44.578
521.92	44.373
522.26	43.839
522.61	43.969
522.95	44.925
523.29	43.860
523.64	44.162
523.98	44.777
524.32	43.656
524.66	42.841
525.01	44.497
525.35	44.137
525.69	43.648
526.04	43.605
526.38	43.790
526.72	43.317
527.06	43.761
527.41	44.015
527.75	44.370
528.09	42.625
528.43	43.441
528.78	43.232
529.12	44.792
529.46	42.548
529.80	42.231
530.15	42.192
530.49	42.238
530.83	43.388
531.17	43.050
531.51	43.777
531.86	42.391
532.20	41.965
532.54	41.871
532.88	42.036
533.22	43.266
533.57	42.465
533.91	42.366
534.25	41.662
534.59	41.754
534.93	40.728
535.27	40.296
535.62	41.890
535.96	40.780
536.30	42.779
536.64	40.435
536.98	42.165
537.32	40.875
537.66	40.880
538.01	40.743
538.35	41.984
538.69	41.444
539.03	40.672
539.37	40.655
539.71	41.111
540.05	40.923
540.39	40.818
540.73	40.886
541.07	41.405
541.42	42.102
541.76	41.184
542.10	41.122
542.44	41.085
542.78	40.654
543.12	39.387
543.46	40.664
543.80	41.479
544.14	40.681
544.48	40.754
544.82	39.327
545.16	39.709
545.50	38.660
545.84	39.773
546.18	41.873
546.52	41.443
546.86	40.361
547.20	39.212
547.54	39.962
547.88	39.720
548.22	39.709
548.56	38.833
548.90	38.790
549.24	40.366
549.58	40.271
549.92	41.126
550.26	39.892
550.60	39.854
550.94	40.638
551.28	39.586
551.62	40.759
551.96	40.000
552.30	39.420
552.64	39.353
552.98	39.046
553.32	38.604
553.66	39.283
554.00	40.026
554.34	38.881
554.68	40.188
555.02	38.900
555.36	38.963
555.69	39.071
556.03	38.662
556.37	39.452
556.71	39.244
557.05	37.090
557.39	40.333
557.73	39.892
558.07	39.906
558.41	39.685
558.75	40.082
559.08	39.528
559.42	39.943
559.76	39.629
560.10	39.229
560.44	38.023
560.78	38.939
561.12	39.797
561.45	38.673
561.79	37.578
562.13	38.471
562.47	39.585
562.81	39.037
563.15	38.268
563.48	38.137
563.82	38.989
564.16	38.122
564.50	37.432
564.84	38.602
565.17	37.493
565.51	39.594
565.85	38.742
566.19	38.452
566.52	38.688
566.86	38.996
567.20	38.708
567.54	37.991
567.88	38.758
568.21	37.094
568.55	37.889
568.89	37.454
569.23	37.619
569.56	37.859
569.90	35.968
570.24	36.763
570.57	36.600
570.91	35.819
571.25	35.884
571.59	35.307
571.92	35.253
572.26	35.175
572.60	35.101
572.93	35.681
573.27	36.157
573.61	35.300
573.95	36.180
574.28	35.725
574.62	35.841
574.96	34.697
575.29	35.137
575.63	34.016
575.97	34.299
576.30	34.978
576.64	35.320
576.98	34.827
577.31	35.722
577.65	35.881
577.98	34.385
578.32	34.654
578.66	34.448
578.99	34.424
579.33	34.664
579.67	34.364
580.00	34.350
580.34	34.332
580.67	34.161
581.01	35.396
581.35	35.043
581.68	34.268
582.02	34.278
582.35	33.897
582.69	33.989
583.02	34.186
583.36	34.065
583.70	34.794
584.03	34.850
584.37	35.033
584.70	35.083
585.04	34.190
585.37	34.130
585.71	35.034
586.04	34.411
586.38	34.259
586.72	34.466
587.05	34.560
587.39	34.968
587.72	35.326
588.06	34.989
588.39	35.082
588.73	35.113
589.06	35.191
589.40	35.399
589.73	35.562
590.07	35.621
590.40	35.470
590.73	36.614
591.07	35.939
591.40	35.250
591.74	35.227
592.07	35.441
592.41	35.971
592.74	35.518
593.08	34.863
593.41	34.949
593.75	34.583
594.08	34.678
594.41	34.115
594.75	35.240
595.08	34.842
595.42	35.418
595.75	34.682
596.09	35.419
596.42	34.887
596.75	35.817
597.09	35.823
597.42	34.653
597.75	35.335
598.09	35.125
598.42	35.292
598.76	34.040
599.09	34.829
599.42	34.083
599.76	34.701
600.09	34.271
600.42	34.496
600.76	34.262
601.09	34.484
601.42	34.354
601.76	34.694
602.09	35.394
602.42	34.048
602.76	34.573
603.09	34.729
603.42	34.862
603.76	33.550
604.09	34.093
604.42	33.861
604.76	34.571
605.09	34.857
605.42	34.539
605.75	34.347
606.09	35.425
606.42	34.536
606.75	34.318
607.09	34.623
607.42	34.472
607.75	34.116
608.08	34.281
608.42	34.648
608.75	33.932
609.08	34.272
609.41	35.500
609.75	35.302
610.08	34.622
610.41	34.431
610.74	34.632
611.07	34.561
611.41	34.198
611.74	34.608
612.07	34.345
612.40	34.649
612.73	35.996
613.07	34.567
613.40	35.038
613.73	34.998
614.06	34.800
614.39	34.848
614.72	34.606
615.06	33.778
615.39	33.762
615.72	33.156
616.05	34.405
616.38	35.058
616.71	34.400
617.05	34.047
617.38	33.933
617.71	35.546
618.04	34.549
618.37	33.741
618.70	33.776
619.03	36.081
619.36	35.930
619.69	34.763
620.03	35.486
620.36	35.196
620.69	35.313
621.02	36.073
621.35	33.095
621.68	36.357
622.01	35.720
622.34	34.596
622.67	34.902
623.00	34.786
623.33	35.088
623.66	35.729
623.99	34.521
624.32	34.824
624.65	34.891
624.99	35.429
625.32	34.669
625.65	34.414
625.98	33.194
626.31	35.312
626.64	34.244
626.97	34.507
627.30	35.171
627.63	35.636
627.96	34.664
628.29	35.479
628.62	34.645
628.95	36.259
629.28	34.706
629.61	36.116
629.94	36.819
630.26	36.828
630.59	36.525
630.92	34.709
631.25	36.899
631.58	36.933
631.91	36.156
632.24	34.694
632.57	35.953
632.90	37.888
633.23	36.831
633.56	36.143
633.89	36.334
634.22	35.953
634.55	36.452
634.88	37.678
635.20	37.108
635.53	35.424
635.86	35.570
636.19	37.037
636.52	34.919
636.85	36.030
637.18	35.970
637.51	35.419
637.83	35.469
638.16	36.225
638.49	36.886
638.82	36.385
639.15	34.665
639.48	37.085
639.81	37.363
640.13	36.810
640.46	36.536
640.79	36.281
641.12	37.008
641.45	38.163
641.77	37.649
642.10	36.278
642.43	37.980
642.76	37.500
643.09	37.176
643.41	35.203
643.74	35.396
644.07	38.201
644.40	36.391
644.73	39.039
645.05	36.999
645.38	36.600
645.71	38.695
646.04	38.931
646.36	38.185
646.69	36.640
647.02	38.880
647.35	34.961
647.67	36.791
648.00	38.599
648.33	38.797
648.66	37.424
648.98	36.522
649.31	34.953
649.64	35.961
649.96	35.562
650.29	37.143
650.62	38.144
650.94	36.295
651.27	38.915
651.60	36.307
651.92	36.866
652.25	36.535
652.58	36.170
652.90	36.228
653.23	36.337
653.56	38.131
653.88	36.417
654.21	35.191
654.54	33.968
654.86	35.988
655.19	38.127
655.52	31.772
655.84	28.917
656.17	33.234
656.49	48.014
656.82	55.079
657.15	44.108
657.47	32.932
657.80	23.926
658.13	19.247
658.45	25.860
658.78	31.572
659.10	31.612
659.43	32.565
659.75	33.348
660.08	34.148
660.41	36.116
660.73	38.645
661.06	36.336
661.38	41.056
661.71	36.871
662.03	38.783
662.36	35.810
662.68	36.872
663.01	37.297
663.33	37.925
663.66	38.659
663.98	40.873
664.31	39.366
664.63	37.548
664.96	39.400
665.28	37.476
665.61	36.792
665.93	38.679
666.26	39.439
666.58	40.183
666.91	36.293
667.23	37.751
667.56	39.836
667.88	37.759
668.21	38.525
668.53	36.694
668.86	38.477
669.18	38.493
669.50	35.950
669.83	39.425
670.15	36.383
670.48	35.156
670.80	37.052
671.13	39.044
671.45	37.275
671.77	36.920
672.10	37.882
672.42	37.993
672.75	37.025
673.07	36.407
673.39	32.907
673.72	36.159
674.04	37.097
674.37	36.298
674.69	35.316
675.01	35.448
675.34	36.628
675.66	37.305
675.98	38.856
676.31	37.000
676.63	36.779
676.95	37.500
677.28	35.700
677.60	37.626
677.92	34.921
678.25	37.791
678.57	36.872
678.89	39.602
679.22	36.213
679.54	35.231
679.86	35.951
680.18	35.149
680.51	34.328
680.83	34.966
681.15	35.875
681.48	34.722
681.80	36.077
682.12	36.851
682.44	35.495
682.77	37.544
683.09	35.922
683.41	35.510
683.73	37.795
684.06	35.119
684.38	38.566
684.70	35.971
685.02	35.417
685.34	37.852
685.67	35.370
685.99	35.304
686.31	35.593
686.63	36.260
686.96	36.765
687.28	34.060
687.60	37.543
687.92	33.836
688.24	35.690
688.56	36.655
688.89	34.034
689.21	37.572
689.53	39.328
689.85	34.350
690.17	36.311
690.49	36.895
690.82	36.975
691.14	36.970
691.46	37.782
691.78	38.207
692.10	38.359
692.42	33.394
692.74	38.953
693.06	34.690
693.39	36.957
693.71	36.346
694.03	39.842
694.35	39.759
694.67	34.623
694.99	36.364
695.31	38.514
695.63	38.688
695.95	35.520
696.27	35.398
696.59	37.947
696.91	37.975
697.23	34.842
697.56	38.174
697.88	30.339
698.20	35.094
698.52	35.214
698.84	35.934
699.16	36.034
699.48	36.653
699.80	35.512
700.12	40.185
700.44	37.850
700.76	39.618
701.08	37.337
701.40	34.805
701.72	42.246
702.04	42.818
702.36	42.473
702.68	40.691
703.00	38.095
703.32	37.469
703.64	37.028
703.96	37.760
704.28	41.005
704.60	38.028
704.91	40.616
705.23	41.761
705.55	41.840
705.87	39.365
706.19	42.633
706.51	42.006
706.83	40.118
707.15	40.909
707.47	37.046
707.79	36.322
708.11	34.921
708.43	37.753
708.74	35.973
709.06	34.884
709.38	35.236
709.70	39.510
710.02	39.130
710.34	38.674
710.66	39.722
710.98	34.153
711.29	40.390
711.61	38.162
711.93	40.729
712.25	37.349
712.57	42.122
712.89	40.303
713.20	42.812
713.52	38.318
713.84	42.598
714.16	37.681
714.48	37.464
714.80	37.398
715.11	38.830
715.43	37.709
715.75	41.127
716.07	37.572
716.39	41.429
716.70	35.826
717.02	43.434
717.34	38.849
717.66	46.181
717.97	40.909
718.29	42.958
718.61	37.500
718.93	40.138
719.24	41.611
719.56	41.034
719.88	35.350
720.20	38.710
720.51	41.830
720.83	41.137
721.15	42.177
721.46	42.466
721.78	42.509
722.10	43.056
722.42	41.137
722.73	41.155
723.05	44.211
723.37	43.110
723.68	42.187
724.00	42.424
724.32	43.346
724.63	42.692
724.95	45.490
725.27	42.379
725.58	42.647
725.90	39.437
726.22	39.041
726.53	44.816
726.85	43.322
727.16	41.946
727.48	40.532
727.80	42.086
728.11	43.571
728.43	39.855
728.74	41.259
729.06	39.068
729.38	43.158
729.69	47.000
730.01	42.763
730.32	39.262
730.64	38.538
730.96	39.640
731.27	36.697
731.59	33.908
731.90	38.719
732.22	38.000
732.53	38.177
732.85	40.058
733.16	37.952
733.48	39.185
733.80	37.681
734.11	40.798
734.43	36.550
734.74	38.606
735.06	37.302
735.37	37.113
735.69	39.710
736.00	38.838
736.32	35.455
736.63	40.063
736.95	40.683
737.26	37.195
737.58	36.196
737.89	39.458
738.21	40.397
738.52	44.147
738.83	46.520
739.15	39.373
739.46	36.897
739.78	37.415
740.09	37.901
740.41	38.957
740.72	38.413
741.04	40.210
741.35	39.453
741.66	45.059
741.98	42.060
742.29	42.593
742.61	37.611
742.92	43.644
743.23	38.800
743.55	38.491
743.86	40.392
744.18	37.288
744.49	41.322
744.80	48.848
745.12	42.857
745.43	43.925
745.74	41.778
746.06	42.982
746.37	42.791
746.68	49.558
747.00	44.843
747.31	42.857
747.62	44.672
747.94	38.627
748.25	43.191
748.56	44.492
748.88	41.518
749.19	40.930
749.50	42.466
749.82	41.152
750.13	39.526
750.44	36.667
750.75	34.564
751.07	39.145
751.38	38.284
751.69	37.710
752.01	41.608
752.32	37.874
752.63	43.624
752.94	41.608
753.26	41.797
753.57	40.078
753.88	41.573
754.19	37.545
754.51	38.870
754.82	38.255
755.13	36.824
755.44	39.630
755.75	41.237
756.07	39.384
756.38	35.948
756.69	37.500
757.00	38.872
757.31	39.155
757.63	37.741
757.94	35.372
758.25	36.957
758.56	33.410
758.87	35.840
759.18	41.860
759.50	38.906
759.81	38.576
760.12	34.831
760.43	37.815
760.74	37.468
761.05	35.279
761.36	32.031
761.67	38.814
761.99	36.620
762.30	41.479
762.61	34.722
762.92	37.879
763.23	40.377
763.54	44.615
763.85	38.132
764.16	42.014
764.47	38.851
764.78	38.111
765.10	35.061
765.41	35.227
765.72	34.254
766.03	33.535
766.34	36.934
766.65	42.205
766.96	42.915
767.27	47.664
767.58	47.525
767.89	52.486
768.20	59.146
768.51	39.286
768.82	36.842
769.13	39.216
769.44	37.970
769.75	36.330
770.06	38.235
770.37	32.895
770.68	41.778
770.99	46.186
771.30	41.004
771.61	44.615
771.92	41.985
772.23	39.516
772.54	44.000
772.85	45.050
773.16	46.196
773.47	43.889
773.78	45.545
774.09	51.705
774.39	47.879
774.70	41.765
775.01	43.421
775.32	42.857
775.63	45.890
775.94	50.000
776.25	53.793
776.56	54.198
776.87	61.832
777.18	52.273
777.48	60.630
777.79	48.462
778.10	48.485
778.41	47.015
778.72	50.376
779.03	38.462
779.34	47.973
779.65	48.447
779.95	43.478
780.26	42.262
780.57	55.782
780.88	54.610
781.19	60.833
781.50	47.337
781.80	43.169
782.11	45.503
782.42	45.977
782.73	46.893
783.04	44.516
783.34	45.736
783.65	46.259
783.96	50.968
784.27	43.046
784.57	38.816
784.88	56.522
785.19	53.333
785.50	50.862
785.81	61.240
786.11	54.815
786.42	52.756
786.73	58.559
787.04	50.000
787.34	60.163
787.65	54.545
787.96	53.788
788.26	61.417
788.57	57.664
788.88	47.887
789.19	41.985
789.49	48.649
789.80	50.000
790.11	49.587
790.41	57.407
790.72	44.444
791.03	60.577
791.33	61.616
791.64	51.579
791.95	44.211
792.25	55.208
792.56	59.000
792.87	75.610
793.17	59.091
793.48	68.235
793.79	64.368
794.09	63.636
794.40	68.966
794.70	54.762
795.01	50.769
795.32	48.092
795.62	44.444
795.93	54.622
796.23	60.976
796.54	71.429
796.85	71.591
797.15	83.117
797.46	65.854
797.76	65.000
798.07	81.333
798.37	72.500
798.68	68.750
798.99	84.146
799.29	72.000
799.60	47.674
799.90	77.632
800.21	83.333
800.51	78.873
800.82	74.138
801.12	84.615
801.43	84.000
801.73	77.586
802.04	66.234
802.34	65.753
802.65	98.039
802.95	97.826
803.26	101.613
803.56	86.667
803.87	86.567
804.17	79.365
804.48	88.679
804.78	68.056
805.09	86.364
805.39	84.127
805.70	84.211
806.00	81.429
806.30	79.687
806.61	61.176
806.91	62.222
807.22	56.522
807.52	56.579
807.83	77.632
808.13	72.464
808.43	104.839
808.74	76.712
809.04	96.429
809.35	70.588
809.65	81.818
809.95	115.686
810.26	87.037
810.56	85.937
810.86	93.878
811.17	80.702
811.47	89.130
811.77	87.931
812.08	70.690
812.38	100.000
812.69	116.667
812.99	100.000
813.29	100.000
813.59	116.129
813.90	74.138
814.20	81.967
814.50	96.000
814.81	91.228
815.11	103.704
815.41	98.214
815.72	92.857
816.02	96.000
816.32	112.195
816.62	91.379
816.93	127.273
817.23	112.195
817.53	101.786
817.84	84.444
818.14	102.381
818.44	102.083
818.74	101.887
819.04	102.564
819.35	148.485
819.65	90.385
819.95	120.370
820.25	125.532
820.56	118.919
820.86	107.895
821.16	89.362
821.46	113.158
821.76	105.455
822.07	76.190
822.37	102.632
822.67	104.651
822.97	105.263
823.27	121.739
823.57	121.875
823.88	110.256
824.18	115.152
824.48	182.609
824.78	155.556
825.08	165.217
825.38	158.621
825.69	105.882
825.99	140.426
826.29	116.667
826.59	114.286
826.89	126.667
827.19	125.714
827.49	151.613
827.79	157.692
828.09	95.238
828.39	119.444
828.70	113.514
829.00	167.857
829.30	212.500
829.60	108.333
829.90	148.387
830.20	121.212
830.50	154.054
830.80	191.667
831.10	169.231
831.40	171.429
831.70	191.667
832.00	123.333
832.30	139.130
832.60	166.667
832.90	160.606
833.20	175.000
833.50	105.263
833.80	117.647
834.10	105.263
834.40	200.000
834.70	116.667
835.00	124.000
835.30	127.027
835.60	146.875
835.90	137.838
836.20	165.385
836.50	145.455
836.80	95.122
837.10	143.478
837.40	323.077
837.70	168.421
838.00	123.333
838.30	170.833
838.60	192.000
838.90	270.000
839.19	218.750
839.49	136.667
839.79	120.690
840.09	142.308
840.39	173.333
840.69	231.579
840.99	100.000
841.29	165.217
841.59	220.000
841.88	192.000
842.18	311.111
842.48	182.143
842.78	174.074
843.08	269.231
843.38	159.091
843.68	271.429
843.97	528.571
844.27	169.565
844.57	1900.000
844.87	335.714
845.17	266.667
845.47	171.429
845.76	175.000
846.06	571.429
846.36	229.412
846.66	269.231
846.96	175.000
847.25	238.462
847.55	184.211
847.85	205.556
848.15	600.000
848.44	309.091
848.74	166.667
849.04	191.667
849.34	247.059
849.63	237.500
849.93	256.250
850.23	1133.333
850.53	475.000
850.82	318.182
851.12	200.000
851.42	170.833
851.71	250.000
852.01	0.000
852.31	247.059
852.61	320.000
852.90	158.333
853.20	288.889
853.50	-2300.000
853.79	172.000
854.09	146.875
854.39	127.586
854.68	144.828
854.98	223.810
855.28	148.387
855.57	242.857
855.87	283.333
856.17	129.630
856.46	226.316
856.76	125.806
857.05	235.294
857.35	290.909
857.65	323.077
857.94	210.000
858.24	377.778
858.53	250.000
858.83	757.143
859.13	195.652
859.42	344.444
859.72	412.500
860.01	325.000
860.31	1000.000
860.60	390.000
860.90	500.000
861.20	300.000
861.49	471.429
861.79	-3900.000
862.08	571.429
862.38	333.333
862.67	185.714
862.97	340.000
863.26	170.000
863.56	875.000
863.85	300.000
864.15	258.824
864.44	194.444
864.74	325.000
865.03	300.000
865.33	462.500
865.62	273.333
865.92	566.667
866.21	900.000
866.51	640.000
866.80	233.333
867.10	966.667
867.39	2900.000
867.69	620.000
867.98	1125.000
868.27	171.429
868.57	266.667
868.86	750.000
869.16	166.667
869.45	3800.000
869.75	-433.333
870.04	825.000
870.33	660.000
870.63	387.500
870.92	229.412
871.22	875.000
871.51	471.429
871.80	308.333
872.10	269.231
>>>>>End Processed Spectral Data<<<<<
