SpectraSuite Data File
++++++++++++++++++++++++++++++++++++
Date: Tue May 12 16:38:20 PDT 2015
User: schluterlab
Dark Spectrum Present: Yes
Reference Spectrum Present: Yes
Number of Sampled Component Spectra: 1
Spectrometers: USB2E3373
Integration Time (usec): 3000 (USB2E3373)
Spectra Averaged: 3 (USB2E3373)
Boxcar Smoothing: 0 (USB2E3373)
Correct for Electrical Dark: No (USB2E3373)
Strobe/Lamp Enabled: No (USB2E3373)
Correct for Detector Non-linearity: No (USB2E3373)
Correct for Stray Light: No (USB2E3373)
Number of Pixels in Processed Spectrum: 2048
>>>>>Begin Processed Spectral Data<<<<<
178.53	0.000
178.91	-233.333
179.29	-800.000
179.67	-3100.000
180.04	-100.000
180.42	700.000
180.80	1350.000
181.18	0.000
181.56	-362.500
181.94	0.000
182.31	1100.000
182.69	-2400.000
183.07	571.429
183.45	-3500.000
183.83	-1200.000
184.20	400.000
184.58	371.429
184.96	-123.077
185.34	-175.000
185.72	1750.000
186.09	-850.000
186.47	-3900.000
186.85	1166.667
187.23	520.000
187.61	1450.000
187.98	475.000
188.36	257.143
188.74	300.000
189.12	383.333
189.49	675.000
189.87	0.000
190.25	475.000
190.63	3100.000
191.00	-233.333
191.38	-3300.000
191.76	-775.000
192.14	462.500
192.51	-1700.000
192.89	1600.000
193.27	1066.667
193.65	-1066.667
194.02	-680.000
194.40	400.000
194.78	-171.429
195.15	200.000
195.53	-4400.000
195.91	-420.000
196.29	4300.000
196.66	268.750
197.04	675.000
197.42	-1650.000
197.79	625.000
198.17	250.000
198.55	0.000
198.92	571.429
199.30	833.333
199.68	1650.000
200.05	666.667
200.43	-550.000
200.81	188.889
201.18	3500.000
201.56	266.667
201.94	-750.000
202.31	-337.500
202.69	-420.000
203.07	3300.000
203.44	-483.333
203.82	300.000
204.19	620.000
204.57	-1700.000
204.95	-900.000
205.32	-600.000
205.70	566.667
206.08	550.000
206.45	-966.667
206.83	444.444
207.20	189.474
207.58	175.000
207.96	640.000
208.33	0.000
208.71	328.571
209.08	720.000
209.46	-3700.000
209.84	-725.000
210.21	580.000
210.59	-580.000
210.96	258.333
211.34	-925.000
211.71	409.091
212.09	700.000
212.46	1600.000
212.84	-316.667
213.22	355.556
213.59	-2900.000
213.97	360.000
214.34	850.000
214.72	1300.000
215.09	866.667
215.47	-2900.000
215.84	-230.000
216.22	-425.000
216.59	0.000
216.97	0.000
217.34	950.000
217.72	-1500.000
218.09	1100.000
218.47	537.500
218.84	800.000
219.22	866.667
219.59	866.667
219.97	400.000
220.34	211.111
220.72	1450.000
221.09	3600.000
221.47	241.667
221.84	1233.333
222.22	350.000
222.59	216.667
222.97	164.286
223.34	218.750
223.72	-1700.000
224.09	1300.000
224.46	276.923
224.84	-750.000
225.21	500.000
225.59	240.000
225.96	1033.333
226.34	-520.000
226.71	-625.000
227.08	-360.000
227.46	0.000
227.83	-550.000
228.21	-1450.000
228.58	400.000
228.95	900.000
229.33	388.889
229.70	1150.000
230.08	323.077
230.45	3200.000
230.82	-1100.000
231.20	-600.000
231.57	-1033.333
231.95	600.000
232.32	308.333
232.69	416.667
233.07	266.667
233.44	-1300.000
233.81	300.000
234.19	148.148
234.56	225.000
234.93	217.647
235.31	205.000
235.68	300.000
236.05	196.429
236.43	129.630
236.80	228.571
237.17	137.931
237.55	150.000
237.92	132.500
238.29	148.485
238.67	146.875
239.04	112.195
239.41	102.083
239.79	110.000
240.16	102.083
240.53	81.967
240.91	84.058
241.28	94.915
241.65	89.394
242.02	84.507
242.40	102.857
242.77	80.220
243.14	67.089
243.51	84.848
243.89	76.636
244.26	83.178
244.63	81.188
245.00	75.229
245.38	59.322
245.75	68.182
246.12	73.333
246.49	63.121
246.87	66.393
247.24	67.333
247.61	66.875
247.98	74.150
248.36	61.212
248.73	65.816
249.10	63.095
249.47	64.000
249.84	51.741
250.22	64.324
250.59	68.000
250.96	58.650
251.33	57.674
251.70	61.161
252.08	60.924
252.45	59.363
252.82	59.696
253.19	56.522
253.56	56.538
253.94	56.522
254.31	62.403
254.68	59.930
255.05	54.138
255.42	58.029
255.79	56.352
256.16	60.339
256.54	60.065
256.91	57.516
257.28	57.191
257.65	52.351
258.02	55.457
258.39	59.312
258.76	55.652
259.14	50.571
259.51	54.519
259.88	57.143
260.25	49.451
260.62	55.342
260.99	51.515
261.36	53.760
261.73	54.787
262.10	57.068
262.47	52.500
262.85	56.533
263.22	56.041
263.59	54.476
263.96	57.393
264.33	53.333
264.70	57.494
265.07	55.610
265.44	52.982
265.81	54.953
266.18	56.522
266.55	54.846
266.92	54.810
267.29	56.360
267.66	52.915
268.03	53.363
268.40	52.220
268.77	53.084
269.14	53.579
269.51	54.120
269.88	53.469
270.25	49.676
270.62	53.648
270.99	53.144
271.36	54.268
271.73	53.249
272.10	51.515
272.47	50.992
272.84	49.900
273.21	52.893
273.58	52.227
273.95	49.897
274.32	52.724
274.69	55.118
275.06	50.091
275.43	50.000
275.80	49.623
276.17	51.838
276.54	51.402
276.91	54.291
277.28	52.737
277.65	51.661
278.02	50.184
278.39	51.799
278.76	50.172
279.13	50.000
279.50	49.818
279.87	49.162
280.23	50.645
280.60	52.920
280.97	50.517
281.34	49.670
281.71	47.304
282.08	48.718
282.45	48.311
282.82	50.836
283.19	48.490
283.56	47.438
283.92	49.349
284.29	48.586
284.66	47.563
285.03	47.761
285.40	44.959
285.77	45.062
286.14	46.904
286.51	46.166
286.87	47.152
287.24	44.895
287.61	46.049
287.98	45.075
288.35	45.926
288.72	45.524
289.08	44.745
289.45	45.122
289.82	44.531
290.19	43.485
290.56	45.997
290.93	44.029
291.29	41.989
291.66	43.927
292.03	43.478
292.40	42.005
292.77	40.669
293.13	42.939
293.50	42.240
293.87	38.618
294.24	42.797
294.60	42.799
294.97	41.259
295.34	40.505
295.71	41.524
296.08	42.400
296.44	40.788
296.81	39.206
297.18	38.530
297.55	39.286
297.91	37.808
298.28	38.043
298.65	39.877
299.02	37.636
299.38	38.249
299.75	37.805
300.12	39.220
300.48	40.398
300.85	38.975
301.22	37.093
301.59	36.439
301.95	38.040
302.32	39.115
302.69	39.932
303.05	38.833
303.42	38.341
303.79	40.087
304.15	36.194
304.52	37.844
304.89	38.273
305.25	38.376
305.62	37.207
305.99	37.609
306.35	38.842
306.72	37.981
307.09	37.992
307.45	38.965
307.82	36.626
308.19	37.938
308.55	38.700
308.92	38.960
309.29	38.659
309.65	38.850
310.02	39.249
310.38	37.886
310.75	37.705
311.12	38.889
311.48	38.610
311.85	39.408
312.22	40.401
312.58	39.650
312.95	39.223
313.31	40.356
313.68	39.493
314.05	39.835
314.41	40.130
314.78	41.667
315.14	41.232
315.51	41.911
315.87	41.606
316.24	40.803
316.61	41.003
316.97	40.092
317.34	41.509
317.70	42.581
318.07	42.794
318.43	42.707
318.80	42.732
319.16	42.657
319.53	42.743
319.89	43.100
320.26	44.320
320.62	43.315
320.99	44.328
321.35	43.135
321.72	45.825
322.08	43.675
322.45	44.233
322.81	44.648
323.18	44.139
323.54	43.554
323.91	44.968
324.27	44.651
324.64	44.204
325.00	44.741
325.37	43.761
325.73	43.929
326.10	45.485
326.46	45.417
326.83	44.320
327.19	46.185
327.56	43.850
327.92	45.492
328.29	44.354
328.65	45.205
329.01	43.798
329.38	45.431
329.74	44.065
330.11	45.004
330.47	45.780
330.84	42.623
331.20	45.262
331.56	45.769
331.93	45.851
332.29	43.707
332.66	45.153
333.02	42.698
333.38	44.328
333.75	44.037
334.11	44.295
334.48	43.162
334.84	43.497
335.20	43.285
335.57	43.325
335.93	42.809
336.29	43.118
336.66	44.511
337.02	42.344
337.38	43.938
337.75	43.074
338.11	42.869
338.47	43.353
338.84	42.083
339.20	42.771
339.56	42.389
339.93	42.559
340.29	42.269
340.65	43.336
341.02	43.363
341.38	42.447
341.74	42.359
342.11	42.237
342.47	41.427
342.83	43.232
343.20	42.361
343.56	41.064
343.92	42.362
344.28	42.424
344.65	40.831
345.01	41.905
345.37	41.346
345.73	41.111
346.10	40.398
346.46	41.467
346.82	40.586
347.19	40.726
347.55	39.969
347.91	40.634
348.27	40.124
348.63	42.089
349.00	40.594
349.36	40.389
349.72	40.367
350.08	41.693
350.45	40.594
350.81	41.514
351.17	38.521
351.53	41.493
351.89	40.559
352.26	40.438
352.62	39.216
352.98	40.874
353.34	39.368
353.70	39.908
354.07	39.846
354.43	40.937
354.79	38.800
355.15	39.510
355.51	39.955
355.87	39.533
356.24	39.030
356.60	39.269
356.96	38.893
357.32	38.659
357.68	39.427
358.04	39.286
358.40	39.055
358.77	39.219
359.13	39.790
359.49	37.954
359.85	38.347
360.21	38.262
360.57	38.467
360.93	38.600
361.29	38.817
361.66	38.926
362.02	37.642
362.38	38.023
362.74	40.623
363.10	37.658
363.46	36.671
363.82	38.008
364.18	38.051
364.54	37.840
364.90	38.220
365.26	38.723
365.62	37.914
365.98	37.784
366.35	38.276
366.71	38.237
367.07	36.724
367.43	37.139
367.79	37.367
368.15	36.771
368.51	37.078
368.87	37.908
369.23	37.561
369.59	36.885
369.95	36.783
370.31	37.235
370.67	36.572
371.03	36.134
371.39	38.019
371.75	36.706
372.11	36.846
372.47	37.329
372.83	35.758
373.19	36.121
373.55	37.388
373.91	35.221
374.27	35.780
374.63	35.729
374.99	36.119
375.35	36.962
375.71	37.071
376.07	35.610
376.42	36.701
376.78	36.802
377.14	36.370
377.50	35.768
377.86	36.003
378.22	36.441
378.58	35.956
378.94	36.693
379.30	36.446
379.66	36.303
380.02	35.777
380.38	35.656
380.74	36.505
381.09	34.988
381.45	34.740
381.81	34.929
382.17	34.860
382.53	34.913
382.89	35.186
383.25	35.346
383.61	35.677
383.97	35.033
384.32	35.202
384.68	35.888
385.04	34.584
385.40	33.808
385.76	35.108
386.12	35.498
386.48	34.347
386.83	35.697
387.19	34.040
387.55	35.100
387.91	34.931
388.27	35.396
388.62	34.155
388.98	34.694
389.34	33.670
389.70	33.903
390.06	34.695
390.42	33.683
390.77	34.214
391.13	33.856
391.49	33.938
391.85	35.446
392.20	35.280
392.56	33.990
392.92	33.577
393.28	33.913
393.64	33.945
393.99	34.025
394.35	33.431
394.71	32.630
395.07	33.333
395.42	33.021
395.78	33.868
396.14	33.434
396.50	33.755
396.85	33.720
397.21	32.611
397.57	32.995
397.92	32.293
398.28	32.488
398.64	34.148
399.00	32.389
399.35	32.958
399.71	32.340
400.07	32.477
400.42	32.657
400.78	32.786
401.14	32.472
401.49	32.604
401.85	32.677
402.21	31.927
402.57	32.974
402.92	33.030
403.28	31.742
403.63	32.313
403.99	32.509
404.35	33.587
404.70	33.550
405.06	32.229
405.42	32.675
405.77	31.367
406.13	31.562
406.49	31.836
406.84	32.713
407.20	32.363
407.55	31.877
407.91	32.482
408.27	31.777
408.62	31.520
408.98	32.289
409.34	32.145
409.69	30.865
410.05	30.769
410.40	31.920
410.76	30.395
411.11	31.813
411.47	31.975
411.83	31.049
412.18	30.978
412.54	31.772
412.89	31.209
413.25	31.756
413.60	31.308
413.96	31.837
414.31	31.582
414.67	31.161
415.03	31.481
415.38	31.230
415.74	31.522
416.09	31.855
416.45	31.545
416.80	32.264
417.16	30.681
417.51	30.955
417.87	31.227
418.22	30.802
418.58	31.146
418.93	30.934
419.29	31.115
419.64	31.254
420.00	32.816
420.35	30.952
420.71	31.272
421.06	31.136
421.42	31.779
421.77	30.372
422.12	30.540
422.48	30.714
422.83	30.413
423.19	30.994
423.54	30.335
423.90	31.484
424.25	31.205
424.61	31.805
424.96	30.322
425.31	30.597
425.67	31.425
426.02	31.408
426.38	30.397
426.73	31.174
427.09	31.079
427.44	29.432
427.79	30.703
428.15	32.233
428.50	30.800
428.85	30.982
429.21	30.956
429.56	30.010
429.92	31.328
430.27	30.479
430.62	30.250
430.98	30.389
431.33	29.788
431.68	29.975
432.04	29.695
432.39	30.241
432.74	31.265
433.10	30.786
433.45	31.189
433.80	31.164
434.16	31.266
434.51	30.237
434.86	30.539
435.22	30.686
435.57	31.239
435.92	30.791
436.28	32.200
436.63	31.118
436.98	30.912
437.34	31.050
437.69	30.067
438.04	31.344
438.39	30.998
438.75	30.512
439.10	31.301
439.45	30.752
439.81	30.538
440.16	30.600
440.51	29.617
440.86	31.738
441.22	29.816
441.57	31.496
441.92	29.961
442.27	30.928
442.63	30.996
442.98	30.011
443.33	31.119
443.68	30.231
444.03	30.160
444.39	30.979
444.74	30.072
445.09	30.490
445.44	29.543
445.79	29.825
446.15	30.737
446.50	30.063
446.85	30.578
447.20	29.652
447.55	31.158
447.91	31.007
448.26	30.298
448.61	30.956
448.96	31.155
449.31	30.638
449.66	31.672
450.02	30.902
450.37	31.038
450.72	30.854
451.07	31.297
451.42	31.535
451.77	31.100
452.12	30.573
452.47	31.166
452.83	30.817
453.18	30.511
453.53	31.024
453.88	30.457
454.23	30.273
454.58	31.643
454.93	31.821
455.28	30.661
455.63	31.206
455.98	30.908
456.34	32.036
456.69	30.793
457.04	31.623
457.39	30.629
457.74	31.306
458.09	30.264
458.44	29.518
458.79	31.247
459.14	30.115
459.49	31.257
459.84	31.087
460.19	30.056
460.54	30.370
460.89	30.597
461.24	29.782
461.59	31.406
461.94	30.792
462.29	31.178
462.64	31.093
462.99	30.198
463.34	31.043
463.69	31.518
464.04	31.318
464.39	30.853
464.74	30.481
465.09	29.774
465.44	31.066
465.79	31.355
466.14	29.518
466.49	29.951
466.84	30.100
467.19	29.877
467.54	30.691
467.89	30.223
468.24	30.747
468.59	30.476
468.94	30.797
469.29	29.994
469.64	31.254
469.99	30.141
470.34	29.791
470.68	29.793
471.03	31.354
471.38	30.397
471.73	30.176
472.08	31.246
472.43	30.354
472.78	31.754
473.13	29.725
473.48	30.379
473.83	30.330
474.17	30.517
474.52	30.628
474.87	29.221
475.22	29.355
475.57	29.853
475.92	29.790
476.27	29.597
476.61	29.223
476.96	29.781
477.31	29.923
477.66	30.327
478.01	29.190
478.36	29.609
478.70	29.529
479.05	29.812
479.40	28.274
479.75	29.643
480.10	30.445
480.45	29.412
480.79	29.263
481.14	29.387
481.49	29.186
481.84	29.639
482.19	30.349
482.53	28.634
482.88	29.615
483.23	29.635
483.58	28.995
483.92	30.804
484.27	29.024
484.62	29.202
484.97	29.373
485.31	29.194
485.66	29.283
486.01	29.129
486.36	28.911
486.70	28.226
487.05	28.406
487.40	28.181
487.75	28.527
488.09	28.437
488.44	28.999
488.79	28.358
489.13	29.153
489.48	28.566
489.83	28.565
490.17	28.282
490.52	29.759
490.87	29.009
491.22	29.211
491.56	28.854
491.91	28.719
492.26	28.731
492.60	28.929
492.95	28.681
493.30	28.753
493.64	28.571
493.99	28.533
494.34	28.463
494.68	29.084
495.03	29.142
495.37	29.041
495.72	28.345
496.07	27.853
496.41	28.844
496.76	28.029
497.11	29.006
497.45	28.935
497.80	29.194
498.14	28.479
498.49	28.273
498.84	29.065
499.18	28.245
499.53	28.204
499.87	29.155
500.22	28.420
500.56	28.552
500.91	29.035
501.26	29.215
501.60	28.689
501.95	28.450
502.29	28.578
502.64	27.966
502.98	28.101
503.33	27.840
503.67	28.168
504.02	28.168
504.36	28.054
504.71	28.335
505.06	27.827
505.40	28.825
505.75	28.064
506.09	28.698
506.44	28.195
506.78	28.828
507.13	28.066
507.47	28.481
507.82	29.197
508.16	28.907
508.51	28.116
508.85	27.873
509.19	28.536
509.54	27.637
509.88	28.543
510.23	28.971
510.57	27.799
510.92	27.722
511.26	28.213
511.61	27.277
511.95	27.974
512.30	28.050
512.64	27.414
512.98	27.832
513.33	28.689
513.67	28.120
514.02	27.221
514.36	28.037
514.70	28.000
515.05	28.183
515.39	28.454
515.74	28.376
516.08	27.614
516.42	28.579
516.77	27.680
517.11	27.893
517.46	27.856
517.80	27.854
518.14	28.282
518.49	27.233
518.83	26.538
519.17	28.064
519.52	28.127
519.86	27.629
520.20	28.384
520.55	27.360
520.89	27.299
521.23	27.395
521.58	27.768
521.92	26.880
522.26	27.310
522.61	27.867
522.95	28.589
523.29	27.602
523.64	26.705
523.98	27.934
524.32	27.105
524.66	27.420
525.01	27.219
525.35	27.755
525.69	27.694
526.04	27.246
526.38	27.251
526.72	26.671
527.06	27.380
527.41	27.690
527.75	27.450
528.09	26.851
528.43	27.334
528.78	26.953
529.12	27.634
529.46	27.995
529.80	27.395
530.15	27.048
530.49	27.016
530.83	28.275
531.17	26.876
531.51	27.836
531.86	26.812
532.20	26.823
532.54	27.056
532.88	27.420
533.22	28.397
533.57	27.639
533.91	26.399
534.25	26.601
534.59	27.076
534.93	26.166
535.27	26.409
535.62	26.429
535.96	27.069
536.30	28.215
536.64	27.019
536.98	26.683
537.32	27.375
537.66	27.168
538.01	26.873
538.35	27.885
538.69	27.124
539.03	26.617
539.37	26.032
539.71	27.099
540.05	26.523
540.39	26.541
540.73	26.013
541.07	26.788
541.42	27.052
541.76	26.572
542.10	26.634
542.44	26.870
542.78	27.124
543.12	26.994
543.46	26.253
543.80	27.005
544.14	27.183
544.48	25.487
544.82	27.401
545.16	26.351
545.50	26.613
545.84	27.399
546.18	27.763
546.52	26.820
546.86	26.306
547.20	25.840
547.54	26.029
547.88	26.582
548.22	26.655
548.56	26.400
548.90	26.690
549.24	26.469
549.58	26.546
549.92	26.392
550.26	27.045
550.60	26.480
550.94	26.934
551.28	26.345
551.62	28.345
551.96	25.676
552.30	24.720
552.64	27.443
552.98	26.804
553.32	26.248
553.66	26.775
554.00	27.284
554.34	27.097
554.68	26.277
555.02	26.680
555.36	25.931
555.69	26.505
556.03	26.943
556.37	25.813
556.71	26.988
557.05	25.426
557.39	26.133
557.73	26.482
558.07	26.090
558.41	27.073
558.75	27.018
559.08	27.305
559.42	26.843
559.76	26.942
560.10	25.327
560.44	26.476
560.78	27.174
561.12	26.319
561.45	25.657
561.79	26.342
562.13	25.963
562.47	26.217
562.81	26.675
563.15	26.050
563.48	25.031
563.82	27.386
564.16	26.617
564.50	26.040
564.84	26.018
565.17	25.966
565.51	26.601
565.85	26.774
566.19	25.833
566.52	26.414
566.86	27.262
567.20	26.910
567.54	25.491
567.88	26.082
568.21	26.111
568.55	27.043
568.89	26.277
569.23	25.496
569.56	26.597
569.90	26.015
570.24	26.371
570.57	26.801
570.91	25.772
571.25	25.830
571.59	25.578
571.92	25.646
572.26	25.768
572.60	25.410
572.93	25.302
573.27	25.962
573.61	25.609
573.95	25.822
574.28	26.394
574.62	25.664
574.96	25.701
575.29	25.402
575.63	25.630
575.97	24.976
576.30	24.601
576.64	25.371
576.98	25.354
577.31	25.913
577.65	25.531
577.98	25.553
578.32	25.361
578.66	25.564
578.99	25.551
579.33	25.620
579.67	24.440
580.00	24.971
580.34	25.011
580.67	25.369
581.01	26.004
581.35	25.562
581.68	25.335
582.02	25.342
582.35	25.732
582.69	25.683
583.02	25.329
583.36	25.227
583.70	25.386
584.03	25.876
584.37	25.644
584.70	25.454
585.04	25.339
585.37	25.113
585.71	25.775
586.04	25.752
586.38	25.808
586.72	25.457
587.05	25.605
587.39	25.487
587.72	26.128
588.06	25.702
588.39	25.563
588.73	25.524
589.06	25.970
589.40	26.072
589.73	25.238
590.07	25.841
590.40	26.063
590.73	26.405
591.07	25.996
591.40	26.108
591.74	25.893
592.07	24.792
592.41	26.059
592.74	25.741
593.08	26.204
593.41	25.554
593.75	25.564
594.08	25.316
594.41	25.709
594.75	25.377
595.08	25.926
595.42	25.839
595.75	25.107
596.09	25.547
596.42	25.747
596.75	25.841
597.09	26.125
597.42	25.510
597.75	25.314
598.09	25.400
598.42	25.745
598.76	25.482
599.09	25.598
599.42	25.779
599.76	25.373
600.09	25.661
600.42	26.485
600.76	25.051
601.09	24.888
601.42	24.991
601.76	24.740
602.09	25.754
602.42	24.732
602.76	24.972
603.09	25.603
603.42	25.284
603.76	24.765
604.09	25.335
604.42	25.461
604.76	25.444
605.09	25.306
605.42	25.030
605.75	25.188
606.09	25.440
606.42	25.442
606.75	24.990
607.09	25.306
607.42	25.392
607.75	25.239
608.08	25.670
608.42	25.965
608.75	24.861
609.08	25.121
609.41	25.364
609.75	25.916
610.08	25.764
610.41	24.638
610.74	25.411
611.07	26.057
611.41	25.718
611.74	25.430
612.07	25.723
612.40	25.097
612.73	26.061
613.07	25.849
613.40	25.714
613.73	25.012
614.06	24.800
614.39	26.566
614.72	25.816
615.06	24.184
615.39	26.188
615.72	24.879
616.05	25.665
616.38	24.505
616.71	25.014
617.05	25.371
617.38	24.607
617.71	25.759
618.04	25.407
618.37	24.903
618.70	25.058
619.03	25.763
619.36	25.565
619.69	25.000
620.03	25.897
620.36	25.112
620.69	25.479
621.02	26.427
621.35	24.928
621.68	25.369
622.01	26.273
622.34	24.982
622.67	25.913
623.00	25.323
623.33	26.316
623.66	25.216
623.99	25.890
624.32	25.881
624.65	25.346
624.99	26.031
625.32	26.453
625.65	24.828
625.98	25.523
626.31	24.852
626.64	25.588
626.97	25.861
627.30	25.000
627.63	25.667
627.96	24.570
628.29	25.083
628.62	24.380
628.95	26.684
629.28	27.169
629.61	25.132
629.94	25.411
630.26	25.823
630.59	27.305
630.92	25.650
631.25	25.295
631.58	26.905
631.91	25.309
632.24	24.976
632.57	24.558
632.90	25.362
633.23	26.128
633.56	25.501
633.89	26.367
634.22	24.758
634.55	25.806
634.88	26.068
635.20	26.121
635.53	26.481
635.86	25.503
636.19	25.477
636.52	24.649
636.85	24.595
637.18	26.327
637.51	26.480
637.83	23.570
638.16	25.791
638.49	27.186
638.82	26.174
639.15	25.382
639.48	26.540
639.81	26.252
640.13	25.521
640.46	26.043
640.79	27.828
641.12	25.197
641.45	26.908
641.77	26.816
642.10	25.301
642.43	26.174
642.76	24.148
643.09	26.513
643.41	26.087
643.74	26.619
644.07	27.434
644.40	26.036
644.73	26.877
645.05	27.786
645.38	28.790
645.71	27.314
646.04	28.092
646.36	25.196
646.69	26.400
647.02	27.040
647.35	25.039
647.67	28.039
648.00	26.221
648.33	25.414
648.66	26.818
648.98	24.783
649.31	25.236
649.64	26.003
649.96	26.316
650.29	23.714
650.62	26.215
650.94	26.657
651.27	26.954
651.60	26.761
651.92	27.343
652.25	25.039
652.58	26.383
652.90	25.449
653.23	26.145
653.56	27.003
653.88	24.523
654.21	26.686
654.54	25.769
654.86	27.139
655.19	27.045
655.52	25.128
655.84	22.846
656.17	27.149
656.49	39.206
656.82	45.124
657.15	35.556
657.47	26.476
657.80	19.309
658.13	15.319
658.45	20.464
658.78	24.565
659.10	24.957
659.43	24.740
659.75	25.986
660.08	26.754
660.41	27.677
660.73	28.231
661.06	26.276
661.38	27.598
661.71	26.079
662.03	29.087
662.36	26.286
662.68	25.326
663.01	27.748
663.33	26.792
663.66	27.219
663.98	28.175
664.31	29.291
664.63	27.778
664.96	29.831
665.28	25.989
665.61	24.528
665.93	28.113
666.26	27.850
666.58	28.624
666.91	27.992
667.23	24.699
667.56	25.667
667.88	28.216
668.21	26.844
668.53	26.815
668.86	28.257
669.18	27.902
669.50	23.967
669.83	28.542
670.15	28.274
670.48	24.219
670.80	25.697
671.13	26.096
671.45	28.257
671.77	27.458
672.10	25.494
672.42	25.822
672.75	27.373
673.07	26.868
673.39	26.837
673.72	26.990
674.04	28.853
674.37	27.042
674.69	26.394
675.01	25.000
675.34	26.163
675.66	27.344
675.98	27.022
676.31	27.800
676.63	23.260
676.95	26.984
677.28	28.803
677.60	29.577
677.92	27.579
678.25	25.775
678.57	27.188
678.89	28.210
679.22	26.471
679.54	27.580
679.86	25.829
680.18	25.132
680.51	25.539
680.83	24.662
681.15	24.783
681.48	27.083
681.80	24.518
682.12	27.336
682.44	24.324
682.77	27.402
683.09	26.796
683.41	27.959
683.73	27.165
684.06	27.183
684.38	28.101
684.70	26.619
685.02	27.431
685.34	27.465
685.67	27.974
685.99	26.765
686.31	26.656
686.63	27.154
686.96	28.105
687.28	25.168
687.60	26.621
687.92	26.968
688.24	28.103
688.56	26.512
688.89	25.430
689.21	27.168
689.53	30.040
689.85	24.187
690.17	26.408
690.49	27.218
690.82	28.992
691.14	27.273
691.46	29.569
691.78	26.121
692.10	28.244
692.42	27.042
692.74	26.744
693.06	27.907
693.39	26.285
693.71	28.684
694.03	27.219
694.35	29.317
694.67	26.273
694.99	29.712
695.31	27.928
695.63	27.828
695.95	24.887
696.27	28.540
696.59	27.924
696.91	24.810
697.23	27.602
697.56	25.311
697.88	26.946
698.20	27.170
698.52	23.930
698.84	27.721
699.16	28.571
699.48	27.754
699.80	29.847
700.12	30.254
700.44	28.037
700.76	30.549
701.08	27.154
701.40	29.091
701.72	30.749
702.04	31.978
702.36	28.763
702.68	31.649
703.00	27.068
703.32	30.769
703.64	28.463
703.96	24.479
704.28	29.894
704.60	30.423
704.91	28.852
705.23	27.557
705.55	29.674
705.87	26.349
706.19	31.348
706.51	29.467
706.83	31.268
707.15	28.075
707.47	32.930
707.79	31.494
708.11	27.438
708.43	28.090
708.74	26.244
709.06	27.907
709.38	28.040
709.70	28.883
710.02	29.891
710.34	29.006
710.66	34.167
710.98	31.148
711.29	32.312
711.61	27.855
711.93	31.307
712.25	28.012
712.57	32.154
712.89	30.303
713.20	32.268
713.52	28.037
713.84	30.211
714.16	28.406
714.48	25.937
714.80	28.455
715.11	28.191
715.43	31.006
715.75	28.451
716.07	30.636
716.39	28.286
716.70	28.660
717.02	31.987
717.34	32.374
717.66	30.208
717.97	39.773
718.29	29.577
718.61	26.351
718.93	34.256
719.24	31.544
719.56	27.241
719.88	29.618
720.20	31.290
720.51	29.739
720.83	29.766
721.15	31.293
721.46	33.562
721.78	32.404
722.10	32.292
722.42	31.104
722.73	26.715
723.05	34.386
723.37	34.982
723.68	33.203
724.00	34.091
724.32	32.319
724.63	33.077
724.95	32.549
725.27	35.316
725.58	28.676
725.90	30.282
726.22	28.425
726.53	30.769
726.85	36.156
727.16	33.221
727.48	26.910
727.80	33.813
728.11	31.429
728.43	28.261
728.74	33.217
729.06	28.674
729.38	32.982
729.69	37.000
730.01	36.842
730.32	30.872
730.64	27.907
730.96	31.832
731.27	29.358
731.59	27.586
731.90	28.969
732.22	29.429
732.53	29.915
732.85	33.041
733.16	28.916
733.48	28.840
733.80	28.696
734.11	34.356
734.43	28.363
734.74	30.831
735.06	31.746
735.37	29.897
735.69	32.174
736.00	29.969
736.32	28.788
736.63	26.814
736.95	27.950
737.26	32.927
737.58	31.595
737.89	30.422
738.21	31.788
738.52	29.431
738.83	33.333
739.15	33.101
739.46	30.000
739.78	33.673
740.09	32.070
740.41	31.902
740.72	31.429
741.04	34.266
741.35	39.453
741.66	31.621
741.98	33.047
742.29	32.407
742.61	33.628
742.92	31.356
743.23	30.400
743.55	33.585
743.86	29.412
744.18	35.169
744.49	36.364
744.80	29.493
745.12	31.250
745.43	40.187
745.74	33.333
746.06	34.649
746.37	38.140
746.68	33.628
747.00	31.839
747.31	38.235
747.62	28.689
747.94	32.618
748.25	30.350
748.56	36.017
748.88	33.036
749.19	32.558
749.50	29.224
749.82	33.333
750.13	33.992
750.44	29.333
750.75	34.899
751.07	29.276
751.38	31.683
751.69	32.323
752.01	31.469
752.32	30.565
752.63	34.564
752.94	29.021
753.26	32.812
753.57	35.019
753.88	30.712
754.19	37.184
754.51	30.565
754.82	30.537
755.13	31.081
755.44	31.481
755.75	31.615
756.07	36.644
756.38	28.758
756.69	31.875
757.00	28.783
757.31	32.958
757.63	25.344
757.94	29.255
758.25	30.193
758.56	31.808
758.87	30.075
759.18	31.105
759.50	33.739
759.81	35.312
760.12	33.146
760.43	29.132
760.74	30.127
761.05	31.034
761.36	29.427
761.67	31.267
761.99	33.803
762.30	30.225
762.61	29.514
762.92	30.303
763.23	34.717
763.54	31.923
763.85	35.798
764.16	31.250
764.47	33.108
764.78	29.967
765.10	30.793
765.41	29.545
765.72	26.796
766.03	29.607
766.34	33.449
766.65	34.601
766.96	36.842
767.27	37.383
767.58	38.614
767.89	44.199
768.20	42.073
768.51	36.735
768.82	31.140
769.13	34.510
769.44	35.338
769.75	26.592
770.06	36.555
770.37	29.386
770.68	32.000
770.99	34.746
771.30	35.983
771.61	34.615
771.92	34.351
772.23	32.661
772.54	36.444
772.85	36.634
773.16	38.587
773.47	33.889
773.78	33.168
774.09	38.068
774.39	42.424
774.70	36.471
775.01	42.763
775.32	39.752
775.63	47.260
775.94	45.062
776.25	44.828
776.56	43.511
776.87	39.695
777.18	41.667
777.48	49.606
777.79	35.385
778.10	39.394
778.41	43.284
778.72	39.850
779.03	33.974
779.34	43.243
779.65	40.373
779.95	39.752
780.26	41.667
780.57	48.299
780.88	36.879
781.19	48.333
781.50	43.787
781.80	37.158
782.11	34.921
782.42	33.333
782.73	41.808
783.04	39.355
783.34	48.062
783.65	38.776
783.96	41.935
784.27	43.046
784.57	36.842
784.88	44.928
785.19	39.167
785.50	50.862
785.81	46.512
786.11	40.741
786.42	40.945
786.73	52.252
787.04	45.283
787.34	43.902
787.65	53.030
787.96	47.727
788.26	50.394
788.57	45.255
788.88	42.958
789.19	41.221
789.49	44.595
789.80	42.969
790.11	51.240
790.41	53.704
790.72	43.519
791.03	46.154
791.33	48.485
791.64	50.526
791.95	53.684
792.25	47.917
792.56	47.000
792.87	63.415
793.17	56.818
793.48	58.824
793.79	48.276
794.09	53.409
794.40	61.207
794.70	49.206
795.01	48.462
795.32	40.458
795.62	38.462
795.93	52.101
796.23	44.715
796.54	51.020
796.85	51.136
797.15	51.948
797.46	63.415
797.76	46.250
798.07	72.000
798.37	60.000
798.68	61.250
798.99	60.976
799.29	69.333
799.60	59.302
799.90	64.474
800.21	62.121
800.51	70.423
800.82	65.517
801.12	66.154
801.43	72.000
801.73	74.138
802.04	66.234
802.34	65.753
802.65	52.941
802.95	65.217
803.26	69.355
803.56	95.000
803.87	70.149
804.17	74.603
804.48	75.472
804.78	68.056
805.09	80.303
805.39	80.952
805.70	71.930
806.00	58.571
806.30	71.875
806.61	61.176
806.91	47.778
807.22	48.913
807.52	46.053
807.83	73.684
808.13	79.710
808.43	75.806
808.74	75.342
809.04	87.500
809.35	85.294
809.65	77.273
809.95	105.882
810.26	83.333
810.56	96.875
810.86	81.633
811.17	91.228
811.47	97.826
811.77	87.931
812.08	72.414
812.38	76.190
812.69	85.714
812.99	86.667
813.29	125.714
813.59	109.677
813.90	65.517
814.20	81.967
814.50	64.000
814.81	68.421
815.11	75.926
815.41	85.714
815.72	83.929
816.02	84.000
816.32	95.122
816.62	70.690
816.93	106.061
817.23	100.000
817.53	94.643
817.84	88.889
818.14	92.857
818.44	70.833
818.74	79.245
819.04	74.359
819.35	112.121
819.65	107.692
819.95	114.815
820.25	95.745
820.56	116.216
820.86	115.789
821.16	59.574
821.46	115.789
821.76	81.818
822.07	88.095
822.37	92.105
822.67	106.977
822.97	94.737
823.27	104.348
823.57	81.250
823.88	71.795
824.18	93.939
824.48	147.826
824.78	127.778
825.08	147.826
825.38	124.138
825.69	94.118
825.99	87.234
826.29	100.000
826.59	128.571
826.89	153.333
827.19	60.000
827.49	129.032
827.79	161.538
828.09	97.619
828.39	91.667
828.70	89.189
829.00	167.857
829.30	150.000
829.60	108.333
829.90	109.677
830.20	87.879
830.50	118.919
830.80	129.167
831.10	192.308
831.40	161.905
831.70	145.833
832.00	140.000
832.30	160.870
832.60	141.667
832.90	100.000
833.20	205.000
833.50	115.789
833.80	82.353
834.10	89.474
834.40	168.421
834.70	103.333
835.00	168.000
835.30	75.676
835.60	131.250
835.90	121.622
836.20	146.154
836.50	100.000
836.80	85.366
837.10	139.130
837.40	253.846
837.70	142.105
838.00	120.000
838.30	170.833
838.60	176.000
838.90	270.000
839.19	181.250
839.49	136.667
839.79	127.586
840.09	126.923
840.39	186.667
840.69	194.737
840.99	142.857
841.29	165.217
841.59	200.000
841.88	160.000
842.18	333.333
842.48	135.714
842.78	159.259
843.08	253.846
843.38	145.455
843.68	257.143
843.97	571.429
844.27	195.652
844.57	1300.000
844.87	150.000
845.17	138.889
845.47	95.238
845.76	154.167
846.06	457.143
846.36	117.647
846.66	215.385
846.96	225.000
847.25	230.769
847.55	178.947
847.85	166.667
848.15	520.000
848.44	227.273
848.74	152.381
849.04	183.333
849.34	182.353
849.63	162.500
849.93	268.750
850.23	833.333
850.53	250.000
850.82	236.364
851.12	152.941
851.42	145.833
851.71	268.750
852.01	0.000
852.31	211.765
852.61	420.000
852.90	158.333
853.20	244.444
853.50	-1800.000
853.79	152.000
854.09	125.000
854.39	86.207
854.68	165.517
854.98	200.000
855.28	100.000
855.57	292.857
855.87	205.556
856.17	122.222
856.46	163.158
856.76	135.484
857.05	270.588
857.35	272.727
857.65	276.923
857.94	115.000
858.24	422.222
858.53	321.429
858.83	700.000
859.13	165.217
859.42	322.222
859.72	400.000
860.01	266.667
860.31	775.000
860.60	260.000
860.90	287.500
861.20	330.769
861.49	385.714
861.79	-3200.000
862.08	442.857
862.38	266.667
862.67	200.000
862.97	220.000
863.26	130.000
863.56	525.000
863.85	292.308
864.15	252.941
864.44	155.556
864.74	283.333
865.03	209.091
865.33	287.500
865.62	273.333
865.92	566.667
866.21	950.000
866.51	380.000
866.80	238.889
867.10	566.667
867.39	3300.000
867.69	700.000
867.98	925.000
868.27	166.667
868.57	260.000
868.86	750.000
869.16	152.381
869.45	3000.000
869.75	-450.000
870.04	650.000
870.33	740.000
870.63	425.000
870.92	164.706
871.22	825.000
871.51	300.000
871.80	283.333
872.10	238.462
>>>>>End Processed Spectral Data<<<<<
