SpectraSuite Data File
++++++++++++++++++++++++++++++++++++
Date: Tue May 12 16:48:06 PDT 2015
User: schluterlab
Dark Spectrum Present: Yes
Reference Spectrum Present: Yes
Number of Sampled Component Spectra: 1
Spectrometers: USB2E3373
Integration Time (usec): 3000 (USB2E3373)
Spectra Averaged: 3 (USB2E3373)
Boxcar Smoothing: 0 (USB2E3373)
Correct for Electrical Dark: No (USB2E3373)
Strobe/Lamp Enabled: No (USB2E3373)
Correct for Detector Non-linearity: No (USB2E3373)
Correct for Stray Light: No (USB2E3373)
Number of Pixels in Processed Spectrum: 2048
>>>>>Begin Processed Spectral Data<<<<<
178.53	0.000
178.91	-208.333
179.29	-775.000
179.67	-4100.000
180.04	-173.333
180.42	725.000
180.80	1750.000
181.18	0.000
181.56	-300.000
181.94	0.000
182.31	1233.333
182.69	-3900.000
183.07	528.571
183.45	-4100.000
183.83	-1950.000
184.20	330.000
184.58	457.143
184.96	-292.308
185.34	-250.000
185.72	1550.000
186.09	-900.000
186.47	-2700.000
186.85	766.667
187.23	600.000
187.61	1500.000
187.98	462.500
188.36	257.143
188.74	308.333
189.12	383.333
189.49	1075.000
189.87	0.000
190.25	462.500
190.63	2900.000
191.00	-208.333
191.38	-3100.000
191.76	-625.000
192.14	475.000
192.51	-2800.000
192.89	1800.000
193.27	900.000
193.65	-1100.000
194.02	-640.000
194.40	628.571
194.78	-185.714
195.15	293.333
195.53	-3200.000
195.91	-480.000
196.29	4000.000
196.66	262.500
197.04	975.000
197.42	-1300.000
197.79	775.000
198.17	350.000
198.55	0.000
198.92	428.571
199.30	1466.667
199.68	2150.000
200.05	433.333
200.43	-433.333
200.81	211.111
201.18	3500.000
201.56	341.667
201.94	-1025.000
202.31	-350.000
202.69	-660.000
203.07	2600.000
203.44	-433.333
203.82	316.667
204.19	620.000
204.57	-1200.000
204.95	-825.000
205.32	-620.000
205.70	666.667
206.08	900.000
206.45	-1100.000
206.83	333.333
207.20	173.684
207.58	291.667
207.96	760.000
208.33	0.000
208.71	528.571
209.08	560.000
209.46	-3500.000
209.84	-850.000
210.21	820.000
210.59	-580.000
210.96	300.000
211.34	-875.000
211.71	372.727
212.09	1000.000
212.46	1700.000
212.84	-433.333
213.22	488.889
213.59	-3100.000
213.97	380.000
214.34	1050.000
214.72	933.333
215.09	1166.667
215.47	-2700.000
215.84	-340.000
216.22	-312.500
216.59	0.000
216.97	0.000
217.34	1100.000
217.72	-1500.000
218.09	933.333
218.47	437.500
218.84	825.000
219.22	1366.667
219.59	1233.333
219.97	485.714
220.34	444.444
220.72	1700.000
221.09	3000.000
221.47	275.000
221.84	933.333
222.22	350.000
222.59	255.556
222.97	221.429
223.34	275.000
223.72	-1450.000
224.09	1133.333
224.46	292.308
224.84	-700.000
225.21	500.000
225.59	293.333
225.96	1600.000
226.34	-640.000
226.71	-950.000
227.08	-780.000
227.46	0.000
227.83	-516.667
228.21	-1250.000
228.58	375.000
228.95	1050.000
229.33	400.000
229.70	1225.000
230.08	369.231
230.45	3500.000
230.82	-950.000
231.20	-933.333
231.57	-1233.333
231.95	720.000
232.32	358.333
232.69	650.000
233.07	275.000
233.44	-1400.000
233.81	293.333
234.19	192.593
234.56	212.500
234.93	235.294
235.31	260.000
235.68	350.000
236.05	146.429
236.43	133.333
236.80	242.857
237.17	165.517
237.55	165.625
237.92	140.000
238.29	139.394
238.67	165.625
239.04	126.829
239.41	87.500
239.79	120.000
240.16	114.583
240.53	103.279
240.91	94.203
241.28	106.780
241.65	87.879
242.02	98.592
242.40	91.429
242.77	92.308
243.14	70.886
243.51	83.838
243.89	65.421
244.26	75.701
244.63	80.198
245.00	75.229
245.38	61.017
245.75	63.636
246.12	68.889
246.49	70.922
246.87	57.377
247.24	73.333
247.61	56.250
247.98	67.347
248.36	57.576
248.73	63.265
249.10	63.690
249.47	57.500
249.84	53.234
250.22	56.216
250.59	56.000
250.96	53.165
251.33	52.093
251.70	57.589
252.08	54.202
252.45	49.801
252.82	49.049
253.19	52.964
253.56	51.154
253.94	48.913
254.31	52.326
254.68	52.613
255.05	54.138
255.42	56.204
255.79	55.700
256.16	52.881
256.54	54.545
256.91	49.020
257.28	50.836
257.65	49.530
258.02	49.558
258.39	51.576
258.76	49.565
259.14	48.857
259.51	54.227
259.88	51.064
260.25	48.901
260.62	46.027
260.99	45.455
261.36	48.189
261.73	50.000
262.10	49.215
262.47	47.250
262.85	49.067
263.22	49.100
263.59	45.780
263.96	47.118
264.33	48.395
264.70	47.912
265.07	48.780
265.44	47.477
265.81	47.170
266.18	48.513
266.55	47.991
266.92	47.204
267.29	49.781
267.66	48.206
268.03	48.430
268.40	46.934
268.77	49.559
269.14	46.421
269.51	47.661
269.88	45.918
270.25	44.924
270.62	50.000
270.99	46.653
271.36	47.358
271.73	46.960
272.10	45.253
272.47	45.635
272.84	45.709
273.21	47.727
273.58	49.595
273.95	44.764
274.32	46.887
274.69	49.016
275.06	45.902
275.43	47.701
275.80	44.340
276.17	45.404
276.54	44.299
276.91	48.694
277.28	45.438
277.65	47.417
278.02	46.324
278.39	44.784
278.76	44.483
279.13	46.263
279.50	44.909
279.87	42.831
280.23	43.278
280.60	46.350
280.97	45.517
281.34	45.050
281.71	44.174
282.08	45.983
282.45	45.608
282.82	43.478
283.19	43.402
283.56	44.959
283.92	45.440
284.29	43.760
284.66	43.697
285.03	46.269
285.40	43.802
285.77	44.136
286.14	44.582
286.51	41.258
286.87	43.038
287.24	43.694
287.61	44.073
287.98	46.119
288.35	44.148
288.72	42.944
289.08	44.444
289.45	46.037
289.82	43.281
290.19	46.559
290.56	45.124
290.93	45.324
291.29	42.265
291.66	43.644
292.03	45.302
292.40	42.818
292.77	42.479
293.13	45.792
293.50	43.725
293.87	42.547
294.24	44.895
294.60	43.607
294.97	47.413
295.34	43.692
295.71	43.627
296.08	43.867
296.44	44.981
296.81	43.176
297.18	41.825
297.55	43.227
297.91	41.995
298.28	42.150
298.65	43.313
299.02	42.702
299.38	44.964
299.75	43.902
300.12	43.234
300.48	44.379
300.85	45.769
301.22	43.140
301.59	43.278
301.95	44.807
302.32	44.936
302.69	44.570
303.05	45.567
303.42	43.610
303.79	44.854
304.15	44.554
304.52	44.397
304.89	47.122
305.25	44.939
305.62	45.096
305.99	45.326
306.35	45.158
306.72	47.034
307.09	46.066
307.45	45.935
307.82	46.091
308.19	44.948
308.55	46.100
308.92	46.909
309.29	48.323
309.65	47.770
310.02	49.899
310.38	47.657
310.75	46.384
311.12	47.510
311.48	48.456
311.85	48.187
312.22	47.851
312.58	47.813
312.95	49.515
313.31	49.157
313.68	48.968
314.05	52.381
314.41	49.348
314.78	51.420
315.14	51.943
315.51	52.696
315.87	49.453
316.24	52.194
316.61	51.209
316.97	51.468
317.34	53.459
317.70	52.327
318.07	53.737
318.43	54.218
318.80	53.853
319.16	53.322
319.53	54.425
319.89	54.122
320.26	58.752
320.62	55.769
320.99	55.291
321.35	55.566
321.72	58.065
322.08	58.172
322.45	57.221
322.81	58.280
323.18	59.059
323.54	58.972
323.91	59.746
324.27	58.532
324.64	59.170
325.00	60.948
325.37	59.528
325.73	59.781
326.10	61.889
326.46	62.263
326.83	60.720
327.19	64.096
327.56	62.620
327.92	64.836
328.29	61.866
328.65	64.384
329.01	61.848
329.38	63.875
329.74	63.194
330.11	63.076
330.47	62.063
330.84	61.432
331.20	62.944
331.56	63.040
331.93	64.756
332.29	61.990
332.66	63.690
333.02	62.629
333.38	63.874
333.75	62.552
334.11	61.829
334.48	63.846
334.84	61.571
335.20	62.019
335.57	62.217
335.93	60.555
336.29	60.862
336.66	64.666
337.02	61.334
337.38	62.683
337.75	61.064
338.11	62.025
338.47	60.711
338.84	60.373
339.20	60.866
339.56	61.228
339.93	60.368
340.29	61.849
340.65	61.861
341.02	60.901
341.38	59.934
341.74	61.296
342.11	59.766
342.47	59.885
342.83	62.346
343.20	61.601
343.56	60.048
343.92	60.776
344.28	61.164
344.65	63.407
345.01	59.841
345.37	59.936
345.73	60.317
346.10	59.841
346.46	60.925
346.82	58.642
347.19	61.360
347.55	59.016
347.91	60.423
348.27	58.482
348.63	60.522
349.00	60.091
349.36	60.000
349.72	62.768
350.08	61.413
350.45	60.396
350.81	60.474
351.17	59.707
351.53	61.047
351.89	59.984
352.26	59.259
352.62	60.483
352.98	59.279
353.34	60.401
353.70	60.321
354.07	59.846
354.43	60.215
354.79	59.301
355.15	60.184
355.51	61.178
355.87	60.617
356.24	60.277
356.60	60.274
356.96	59.363
357.32	59.985
357.68	60.499
358.04	60.030
358.40	60.195
358.77	60.932
359.13	61.111
359.49	59.451
359.85	60.387
360.21	59.361
360.57	58.978
360.93	60.606
361.29	60.317
361.66	61.894
362.02	59.872
362.38	60.029
362.74	60.439
363.10	61.150
363.46	59.599
363.82	61.080
364.18	61.451
364.54	61.159
364.90	59.237
365.26	60.930
365.62	58.633
365.98	60.151
366.35	58.690
366.71	60.861
367.07	60.000
367.43	59.973
367.79	59.907
368.15	58.209
368.51	60.510
368.87	60.394
369.23	60.014
369.59	59.879
369.95	60.210
370.31	60.780
370.67	59.750
371.03	60.784
371.39	60.803
371.75	61.479
372.11	59.415
372.47	59.658
372.83	59.823
373.19	60.589
373.55	60.825
373.91	60.221
374.27	60.780
374.63	61.220
374.99	60.512
375.35	61.828
375.71	62.401
376.07	60.610
376.42	60.038
376.78	60.951
377.14	63.041
377.50	60.112
377.86	61.563
378.22	60.573
378.58	62.167
378.94	60.893
379.30	62.401
379.66	61.830
380.02	61.818
380.38	60.656
380.74	61.534
381.09	60.572
381.45	61.503
381.81	61.052
382.17	59.524
382.53	60.708
382.89	61.088
383.25	60.864
383.61	60.058
383.97	60.408
384.32	61.603
384.68	62.745
385.04	61.430
385.40	60.735
385.76	60.094
386.12	61.348
386.48	62.006
386.83	62.164
387.19	61.661
387.55	61.249
387.91	61.432
388.27	62.106
388.62	61.678
388.98	60.175
389.34	60.857
389.70	61.321
390.06	60.976
390.42	61.073
390.77	61.916
391.13	60.712
391.49	61.101
391.85	61.662
392.20	61.740
392.56	61.768
392.92	61.988
393.28	60.818
393.64	60.149
393.99	60.996
394.35	60.565
394.71	59.710
395.07	60.827
395.42	61.534
395.78	61.999
396.14	61.506
396.50	61.191
396.85	61.220
397.21	61.252
397.57	61.028
397.92	60.832
398.28	61.445
398.64	61.315
399.00	59.968
399.35	60.870
399.71	60.872
400.07	62.043
400.42	60.299
400.78	60.704
401.14	61.304
401.49	60.253
401.85	59.733
402.21	61.511
402.57	61.460
402.92	61.394
403.28	60.680
403.63	59.800
403.99	61.701
404.35	60.258
404.70	62.256
405.06	59.461
405.42	60.862
405.77	61.356
406.13	58.785
406.49	60.489
406.84	59.052
407.20	60.788
407.55	60.923
407.91	60.498
408.27	62.159
408.62	60.378
408.98	60.438
409.34	60.023
409.69	61.108
410.05	61.300
410.40	59.953
410.76	59.130
411.11	59.775
411.47	60.123
411.83	58.582
412.18	59.783
412.54	61.381
412.89	60.531
413.25	60.661
413.60	60.105
413.96	61.161
414.31	60.272
414.67	60.832
415.03	60.664
415.38	60.315
415.74	60.897
416.09	61.524
416.45	60.375
416.80	61.065
417.16	59.707
417.51	60.828
417.87	59.449
418.22	58.931
418.58	61.975
418.93	59.667
419.29	58.780
419.64	60.267
420.00	60.442
420.35	61.034
420.71	61.085
421.06	60.330
421.42	59.470
421.77	60.744
422.12	60.915
422.48	58.603
422.83	60.993
423.19	59.719
423.54	59.846
423.90	60.249
424.25	59.329
424.61	61.114
424.96	60.531
425.31	60.372
425.67	59.933
426.02	59.899
426.38	59.627
426.73	60.902
427.09	59.846
427.44	59.539
427.79	60.606
428.15	60.931
428.50	60.171
428.85	60.788
429.21	60.184
429.56	59.472
429.92	61.363
430.27	58.781
430.62	59.618
430.98	59.581
431.33	59.123
431.68	58.420
432.04	58.820
432.39	59.276
432.74	59.075
433.10	60.244
433.45	60.885
433.80	61.445
434.16	59.012
434.51	60.165
434.86	59.717
435.22	60.022
435.57	60.640
435.92	59.932
436.28	61.002
436.63	59.157
436.98	60.642
437.34	60.559
437.69	58.847
438.04	59.570
438.39	60.654
438.75	58.853
439.10	60.712
439.45	59.243
439.81	61.423
440.16	60.319
440.51	59.009
440.86	60.171
441.22	59.037
441.57	60.157
441.92	59.477
442.27	59.433
442.63	59.502
442.98	58.890
443.33	59.507
443.68	59.960
444.03	59.142
444.39	59.228
444.74	59.886
445.09	59.610
445.44	58.289
445.79	59.259
446.15	59.211
446.50	60.232
446.85	60.159
447.20	59.701
447.55	59.543
447.91	60.469
448.26	60.170
448.61	59.480
448.96	60.566
449.31	60.121
449.66	59.579
450.02	59.481
450.37	59.800
450.72	59.890
451.07	58.930
451.42	61.055
451.77	58.820
452.12	60.125
452.47	60.024
452.83	59.662
453.18	60.060
453.53	60.332
453.88	59.429
454.23	59.384
454.58	59.557
454.93	59.779
455.28	59.425
455.63	59.811
455.98	58.940
456.34	59.514
456.69	59.451
457.04	60.203
457.39	59.371
457.74	58.840
458.09	58.956
458.44	58.981
458.79	58.621
459.14	58.756
459.49	58.890
459.84	59.511
460.19	58.305
460.54	58.917
460.89	59.115
461.24	57.617
461.59	57.426
461.94	58.333
462.29	58.924
462.64	61.118
462.99	59.181
463.34	58.911
463.69	59.589
464.04	59.758
464.39	58.958
464.74	58.675
465.09	59.431
465.44	58.760
465.79	58.792
466.14	57.870
466.49	59.577
466.84	58.919
467.19	58.992
467.54	57.838
467.89	59.096
468.24	58.946
468.59	59.464
468.94	60.447
469.29	57.850
469.64	59.421
469.99	58.290
470.34	58.444
470.68	58.207
471.03	60.974
471.38	58.808
471.73	59.373
472.08	59.752
472.43	59.218
472.78	59.539
473.13	57.822
473.48	57.579
473.83	57.597
474.17	59.088
474.52	57.464
474.87	57.703
475.22	59.166
475.57	56.821
475.92	57.179
476.27	56.910
476.61	56.461
476.96	57.106
477.31	57.789
477.66	59.420
478.01	56.266
478.36	57.673
478.70	56.824
479.05	57.270
479.40	56.845
479.75	58.044
480.10	57.502
480.45	57.096
480.79	56.221
481.14	56.491
481.49	56.404
481.84	56.288
482.19	56.463
482.53	56.214
482.88	55.869
483.23	56.022
483.58	57.136
483.92	58.135
484.27	56.635
484.62	57.767
484.97	55.123
485.31	56.017
485.66	55.561
486.01	54.855
486.36	53.752
486.70	53.543
487.05	53.036
487.40	53.276
487.75	54.357
488.09	54.034
488.44	54.238
488.79	54.669
489.13	55.282
489.48	55.453
489.83	54.837
490.17	55.078
490.52	55.685
490.87	54.914
491.22	56.161
491.56	55.424
491.91	55.959
492.26	55.056
492.60	55.809
492.95	54.871
493.30	54.732
493.64	54.762
493.99	54.919
494.34	53.877
494.68	54.670
495.03	54.378
495.37	55.471
495.72	54.872
496.07	55.256
496.41	55.604
496.76	55.635
497.11	54.756
497.45	54.450
497.80	55.144
498.14	54.461
498.49	53.064
498.84	55.981
499.18	53.473
499.53	54.800
499.87	54.987
500.22	54.399
500.56	54.643
500.91	54.917
501.26	54.387
501.60	53.324
501.95	53.719
502.29	55.333
502.64	53.816
502.98	52.290
503.33	53.764
503.67	52.450
504.02	52.844
504.36	54.389
504.71	55.109
505.06	53.918
505.40	54.282
505.75	52.947
506.09	53.243
506.44	53.665
506.78	53.733
507.13	54.387
507.47	53.809
507.82	54.209
508.16	53.993
508.51	53.623
508.85	53.656
509.19	54.528
509.54	53.613
509.88	54.301
510.23	53.873
510.57	52.751
510.92	53.447
511.26	54.167
511.61	51.994
511.95	53.211
512.30	53.500
512.64	52.856
512.98	53.050
513.33	52.664
513.67	54.169
514.02	52.364
514.36	52.700
514.70	52.960
515.05	52.744
515.39	53.673
515.74	54.292
516.08	53.050
516.42	54.044
516.77	53.387
517.11	52.907
517.46	52.856
517.80	53.250
518.14	54.085
518.49	52.315
518.83	51.648
519.17	53.356
519.52	52.103
519.86	52.480
520.20	53.151
520.55	51.950
520.89	51.839
521.23	53.505
521.58	52.668
521.92	52.245
522.26	51.955
522.61	53.832
522.95	54.054
523.29	52.515
523.64	51.792
523.98	52.113
524.32	52.249
524.66	52.058
525.01	52.189
525.35	51.503
525.69	53.522
526.04	52.528
526.38	52.148
526.72	50.835
527.06	51.863
527.41	51.935
527.75	51.674
528.09	52.378
528.43	52.044
528.78	51.044
529.12	52.619
529.46	51.724
529.80	51.110
530.15	52.269
530.49	49.940
530.83	51.249
531.17	50.923
531.51	51.012
531.86	50.121
532.20	51.978
532.54	50.910
532.88	51.218
533.22	52.468
533.57	52.837
533.91	50.758
534.25	50.606
534.59	51.228
534.93	50.171
535.27	49.516
535.62	49.242
535.96	51.064
536.30	51.493
536.64	50.000
536.98	50.346
537.32	49.625
537.66	49.171
538.01	49.721
538.35	49.220
538.69	49.211
539.03	48.632
539.37	49.211
539.71	50.000
540.05	49.600
540.39	49.497
540.73	48.544
541.07	49.247
541.42	49.938
541.76	49.815
542.10	49.137
542.44	49.377
542.78	49.025
543.12	49.448
543.46	49.812
543.80	50.501
544.14	49.598
544.48	49.148
544.82	48.379
545.16	47.784
545.50	48.310
545.84	48.106
546.18	50.130
546.52	49.770
546.86	49.516
547.20	48.320
547.54	48.195
547.88	48.297
548.22	48.573
548.56	47.672
548.90	47.805
549.24	48.326
549.58	47.745
549.92	48.330
550.26	49.628
550.60	48.303
550.94	49.457
551.28	48.759
551.62	48.897
551.96	46.554
552.30	47.001
552.64	49.450
552.98	46.649
553.32	46.287
553.66	47.622
554.00	47.233
554.34	46.937
554.68	48.118
555.02	47.386
555.36	47.074
555.69	47.251
556.03	47.134
556.37	47.036
556.71	47.392
557.05	46.003
557.39	47.267
557.73	46.765
558.07	48.156
558.41	47.567
558.75	47.538
559.08	48.249
559.42	47.244
559.76	47.470
560.10	46.800
560.44	45.786
560.78	47.634
561.12	47.235
561.45	45.244
561.79	47.316
562.13	45.231
562.47	45.555
562.81	46.064
563.15	45.766
563.48	44.783
563.82	47.162
564.16	46.953
564.50	44.786
564.84	46.687
565.17	44.682
565.51	46.490
565.85	46.638
566.19	46.845
566.52	46.089
566.86	45.884
567.20	45.618
567.54	46.561
567.88	45.644
568.21	44.933
568.55	45.525
568.89	44.526
569.23	43.658
569.56	43.770
569.90	43.550
570.24	43.646
570.57	43.997
570.91	43.432
571.25	43.031
571.59	42.273
571.92	42.573
572.26	42.129
572.60	42.572
572.93	42.438
573.27	42.849
573.61	42.393
573.95	42.729
574.28	42.511
574.62	42.175
574.96	41.817
575.29	41.318
575.63	40.989
575.97	41.188
576.30	41.002
576.64	41.596
576.98	41.816
577.31	41.926
577.65	41.524
577.98	41.890
578.32	41.093
578.66	41.233
578.99	41.494
579.33	41.768
579.67	40.365
580.00	40.266
580.34	40.590
580.67	40.626
581.01	40.904
581.35	40.469
581.68	40.145
582.02	40.614
582.35	40.840
582.69	40.449
583.02	40.428
583.36	40.308
583.70	40.005
584.03	40.741
584.37	40.939
584.70	40.433
585.04	39.734
585.37	40.126
585.71	40.697
586.04	40.402
586.38	40.340
586.72	39.846
587.05	40.144
587.39	40.101
587.72	40.156
588.06	40.551
588.39	40.328
588.73	40.915
589.06	40.356
589.40	40.344
589.73	40.118
590.07	40.906
590.40	40.941
590.73	40.911
591.07	40.531
591.40	39.641
591.74	40.016
592.07	40.599
592.41	40.248
592.74	39.143
593.08	39.421
593.41	40.096
593.75	39.444
594.08	39.298
594.41	39.133
594.75	39.555
595.08	39.438
595.42	39.368
595.75	39.388
596.09	39.937
596.42	39.658
596.75	39.824
597.09	40.157
597.42	38.612
597.75	39.838
598.09	39.434
598.42	39.453
598.76	40.285
599.09	38.875
599.42	38.374
599.76	38.636
600.09	38.678
600.42	39.088
600.76	39.123
601.09	39.386
601.42	38.789
601.76	39.420
602.09	38.668
602.42	38.447
602.76	38.672
603.09	39.253
603.42	39.046
603.76	38.829
604.09	38.256
604.42	38.757
604.76	38.838
605.09	38.490
605.42	38.155
605.75	38.847
606.09	38.026
606.42	38.369
606.75	38.127
607.09	38.452
607.42	37.565
607.75	38.217
608.08	38.262
608.42	38.758
608.75	38.896
609.08	38.671
609.41	39.773
609.75	38.416
610.08	37.995
610.41	38.735
610.74	39.221
611.07	38.063
611.41	38.508
611.74	38.241
612.07	37.958
612.40	38.938
612.73	38.492
613.07	38.672
613.40	37.794
613.73	38.093
614.06	37.500
614.39	38.535
614.72	38.122
615.06	37.141
615.39	37.178
615.72	37.318
616.05	38.423
616.38	37.900
616.71	38.361
617.05	38.660
617.38	37.640
617.71	38.358
618.04	37.801
618.37	38.299
618.70	38.106
619.03	38.217
619.36	39.070
619.69	37.731
620.03	40.183
620.36	38.022
620.69	38.697
621.02	38.655
621.35	36.963
621.68	38.348
622.01	37.786
622.34	37.655
622.67	37.500
623.00	38.530
623.33	36.505
623.66	37.791
623.99	38.836
624.32	38.008
624.65	38.249
624.99	38.201
625.32	37.675
625.65	36.552
625.98	37.099
626.31	38.501
626.64	38.345
626.97	37.261
627.30	36.957
627.63	37.912
627.96	38.263
628.29	38.449
628.62	37.382
628.95	38.298
629.28	39.089
629.61	38.401
629.94	38.462
630.26	37.782
630.59	37.855
630.92	37.040
631.25	38.169
631.58	38.476
631.91	38.630
632.24	36.832
632.57	37.426
632.90	38.302
633.23	39.244
633.56	38.883
633.89	39.443
634.22	38.644
634.55	38.495
634.88	38.116
635.20	38.677
635.53	39.837
635.86	39.038
636.19	38.159
636.52	36.324
636.85	37.864
637.18	37.161
637.51	38.771
637.83	36.728
638.16	38.687
638.49	38.683
638.82	38.263
639.15	37.955
639.48	38.389
639.81	37.363
640.13	39.755
640.46	38.180
640.79	38.101
641.12	36.745
641.45	39.069
641.77	39.762
642.10	39.090
642.43	39.972
642.76	38.778
643.09	38.761
643.41	37.027
643.74	40.144
644.07	39.971
644.40	36.686
644.73	38.288
645.05	37.741
645.38	37.979
645.71	38.847
646.04	40.763
646.36	37.559
646.69	37.440
647.02	40.160
647.35	37.480
647.67	38.574
648.00	38.274
648.33	38.496
648.66	39.242
648.98	37.681
649.31	37.247
649.64	35.270
649.96	36.273
650.29	36.143
650.62	38.586
650.94	40.361
651.27	38.756
651.60	36.620
651.92	38.095
652.25	39.528
652.58	38.014
652.90	39.371
653.23	36.632
653.56	37.537
653.88	36.711
654.21	36.657
654.54	36.310
654.86	36.873
655.19	37.335
655.52	33.390
655.84	29.602
656.17	35.025
656.49	51.112
656.82	60.027
657.15	48.647
657.47	35.765
657.80	25.683
658.13	19.544
658.45	25.985
658.78	31.730
659.10	32.542
659.43	32.944
659.75	34.706
660.08	36.779
660.41	37.659
660.73	39.649
661.06	38.589
661.38	37.819
661.71	36.691
662.03	40.114
662.36	37.143
662.68	39.292
663.01	37.117
663.33	38.679
663.66	36.489
663.98	36.706
664.31	39.366
664.63	39.655
664.96	39.212
665.28	35.028
665.61	37.547
665.93	36.981
666.26	37.570
666.58	38.349
666.91	38.996
667.23	36.747
667.56	39.425
667.88	37.137
668.21	38.320
668.53	39.315
668.86	37.275
669.18	39.104
669.50	37.810
669.83	36.756
670.15	39.293
670.48	35.742
670.80	36.255
671.13	35.259
671.45	37.475
671.77	37.291
672.10	35.009
672.42	35.197
672.75	37.025
673.07	36.566
673.39	35.144
673.72	38.235
674.04	36.022
674.37	33.394
674.69	35.502
675.01	33.022
675.34	35.465
675.66	36.328
675.98	37.475
676.31	37.400
676.63	35.189
676.95	36.111
677.28	33.469
677.60	34.608
677.92	36.111
678.25	34.884
678.57	35.568
678.89	38.879
679.22	36.397
679.54	35.231
679.86	35.079
680.18	36.731
680.51	35.323
680.83	35.304
681.15	35.875
681.48	35.590
681.80	34.676
682.12	35.467
682.44	35.315
682.77	35.587
683.09	35.146
683.41	35.918
683.73	36.220
684.06	33.730
684.38	36.822
684.70	35.612
685.02	34.201
685.34	35.915
685.67	33.762
685.99	36.453
686.31	34.977
686.63	33.821
686.96	33.497
687.28	32.886
687.60	33.447
687.92	34.841
688.24	36.379
688.56	37.367
688.89	32.505
689.21	34.875
689.53	36.759
689.85	34.959
690.17	33.592
690.49	35.282
690.82	36.555
691.14	36.768
691.46	35.934
691.78	36.452
692.10	37.023
692.42	35.390
692.74	35.078
693.06	36.822
693.39	32.806
693.71	36.935
694.03	35.897
694.35	37.952
694.67	36.253
694.99	34.146
695.31	36.036
695.63	34.615
695.95	33.937
696.27	35.177
696.59	34.845
696.91	35.443
697.23	36.425
697.56	32.988
697.88	31.537
698.20	36.226
698.52	32.101
698.84	35.729
699.16	36.247
699.48	35.169
699.80	37.255
700.12	36.490
700.44	36.682
700.76	38.902
701.08	37.337
701.40	38.182
701.72	39.840
702.04	39.566
702.36	38.978
702.68	36.702
703.00	35.589
703.32	37.717
703.64	38.791
703.96	36.719
704.28	36.508
704.60	40.000
704.91	35.574
705.23	36.648
705.55	40.059
705.87	37.460
706.19	39.498
706.51	41.693
706.83	38.938
707.15	36.096
707.47	36.077
707.79	36.552
708.11	34.240
708.43	37.528
708.74	35.520
709.06	34.186
709.38	36.228
709.70	35.150
710.02	35.326
710.34	37.845
710.66	35.556
710.98	37.978
711.29	35.655
711.61	39.276
711.93	35.866
712.25	37.651
712.57	36.334
712.89	35.455
713.20	40.256
713.52	38.318
713.84	36.556
714.16	34.203
714.48	34.294
714.80	40.108
715.11	36.968
715.43	36.592
715.75	37.746
716.07	35.549
716.39	34.000
716.70	37.072
717.02	35.354
717.34	42.806
717.66	39.583
717.97	42.424
718.29	36.972
718.61	33.108
718.93	35.640
719.24	39.597
719.56	41.034
719.88	35.987
720.20	38.710
720.51	37.908
720.83	37.793
721.15	39.116
721.46	38.356
721.78	40.070
722.10	39.583
722.42	38.796
722.73	35.379
723.05	37.895
723.37	38.163
723.68	40.234
724.00	37.879
724.32	38.783
724.63	40.000
724.95	43.922
725.27	38.662
725.58	40.074
725.90	34.507
726.22	37.329
726.53	36.789
726.85	37.459
727.16	38.255
727.48	38.538
727.80	38.489
728.11	37.500
728.43	38.043
728.74	40.909
729.06	36.559
729.38	37.895
729.69	40.333
730.01	42.434
730.32	38.591
730.64	38.538
730.96	39.640
731.27	33.945
731.59	33.046
731.90	37.604
732.22	37.429
732.53	35.043
732.85	38.889
733.16	37.349
733.48	37.618
733.80	37.971
734.11	36.196
734.43	35.673
734.74	35.657
735.06	34.656
735.37	31.443
735.69	36.522
736.00	38.838
736.32	34.848
736.63	34.069
736.95	36.335
737.26	38.110
737.58	36.810
737.89	37.651
738.21	39.735
738.52	43.144
738.83	36.996
739.15	37.282
739.46	37.931
739.78	36.054
740.09	34.985
740.41	39.877
740.72	38.413
741.04	40.909
741.35	39.063
741.66	38.735
741.98	38.627
742.29	43.981
742.61	46.018
742.92	39.831
743.23	43.200
743.55	36.226
743.86	37.647
744.18	41.102
744.49	42.562
744.80	39.631
745.12	38.839
745.43	43.458
745.74	43.111
746.06	40.351
746.37	44.651
746.68	40.708
747.00	43.498
747.31	39.916
747.62	35.246
747.94	41.631
748.25	37.743
748.56	45.339
748.88	43.304
749.19	41.860
749.50	33.790
749.82	41.975
750.13	37.154
750.44	33.000
750.75	39.933
751.07	36.184
751.38	38.284
751.69	36.027
752.01	42.308
752.32	37.542
752.63	35.235
752.94	37.063
753.26	38.672
753.57	43.969
753.88	37.828
754.19	38.628
754.51	41.528
754.82	33.557
755.13	38.851
755.44	36.296
755.75	42.955
756.07	39.041
756.38	33.987
756.69	41.250
757.00	35.905
757.31	35.211
757.63	36.639
757.94	34.309
758.25	35.990
758.56	35.469
758.87	38.346
759.18	39.535
759.50	36.778
759.81	37.389
760.12	37.079
760.43	36.415
760.74	34.684
761.05	32.361
761.36	36.198
761.67	35.310
761.99	37.465
762.30	35.691
762.61	36.806
762.92	37.879
763.23	36.981
763.54	37.692
763.85	40.078
764.16	36.111
764.47	35.135
764.78	35.505
765.10	33.232
765.41	34.375
765.72	35.912
766.03	34.441
766.34	41.463
766.65	39.163
766.96	44.939
767.27	47.196
767.58	46.040
767.89	48.619
768.20	49.390
768.51	39.286
768.82	42.105
769.13	33.725
769.44	37.218
769.75	37.079
770.06	38.655
770.37	37.719
770.68	37.778
770.99	41.949
771.30	41.841
771.61	44.615
771.92	42.748
772.23	37.500
772.54	44.000
772.85	39.109
773.16	36.957
773.47	42.222
773.78	40.099
774.09	46.023
774.39	47.879
774.70	48.235
775.01	41.447
775.32	45.963
775.63	54.110
775.94	54.938
776.25	49.655
776.56	51.908
776.87	49.618
777.18	50.000
777.48	62.205
777.79	56.923
778.10	49.242
778.41	51.493
778.72	41.353
779.03	43.590
779.34	48.649
779.65	47.205
779.95	47.205
780.26	47.619
780.57	56.463
780.88	58.156
781.19	57.500
781.50	43.787
781.80	46.995
782.11	40.212
782.42	44.253
782.73	48.588
783.04	45.161
783.34	43.411
783.65	48.299
783.96	59.355
784.27	43.046
784.57	47.368
784.88	51.449
785.19	54.167
785.50	57.759
785.81	65.891
786.11	48.148
786.42	47.244
786.73	51.351
787.04	56.604
787.34	49.593
787.65	53.788
787.96	50.000
788.26	56.693
788.57	55.474
788.88	40.845
789.19	54.198
789.49	52.027
789.80	54.688
790.11	50.413
790.41	56.481
790.72	57.407
791.03	50.000
791.33	58.586
791.64	66.316
791.95	67.368
792.25	51.042
792.56	57.000
792.87	57.317
793.17	59.091
793.48	58.824
793.79	52.874
794.09	68.182
794.40	56.034
794.70	60.317
795.01	46.154
795.32	51.908
795.62	49.573
795.93	63.025
796.23	52.846
796.54	60.204
796.85	60.227
797.15	68.831
797.46	58.537
797.76	67.500
798.07	74.667
798.37	58.750
798.68	63.750
798.99	71.951
799.29	60.000
799.60	58.140
799.90	76.316
800.21	78.788
800.51	77.465
800.82	81.034
801.12	67.692
801.43	76.000
801.73	77.586
802.04	72.727
802.34	76.712
802.65	90.196
802.95	67.391
803.26	85.484
803.56	73.333
803.87	73.134
804.17	79.365
804.48	88.679
804.78	79.167
805.09	81.818
805.39	87.302
805.70	96.491
806.00	77.143
806.30	81.250
806.61	67.059
806.91	60.000
807.22	69.565
807.52	72.368
807.83	77.632
808.13	86.957
808.43	85.484
808.74	75.342
809.04	91.071
809.35	86.765
809.65	72.727
809.95	94.118
810.26	96.296
810.56	96.875
810.86	75.510
811.17	107.018
811.47	113.043
811.77	77.586
812.08	75.862
812.38	80.952
812.69	100.000
812.99	91.111
813.29	122.857
813.59	116.129
813.90	77.586
814.20	78.689
814.50	74.000
814.81	85.965
815.11	101.852
815.41	98.214
815.72	92.857
816.02	110.000
816.32	114.634
816.62	94.828
816.93	127.273
817.23	104.878
817.53	110.714
817.84	80.000
818.14	80.952
818.44	89.583
818.74	100.000
819.04	110.256
819.35	115.152
819.65	98.077
819.95	122.222
820.25	119.149
820.56	124.324
820.86	118.421
821.16	91.489
821.46	113.158
821.76	96.364
822.07	88.095
822.37	128.947
822.67	104.651
822.97	89.474
823.27	95.652
823.57	93.750
823.88	125.641
824.18	112.121
824.48	160.870
824.78	136.111
825.08	134.783
825.38	141.379
825.69	132.353
825.99	104.255
826.29	52.778
826.59	122.857
826.89	126.667
827.19	114.286
827.49	164.516
827.79	146.154
828.09	97.619
828.39	105.556
828.70	135.135
829.00	182.143
829.30	162.500
829.60	108.333
829.90	148.387
830.20	139.394
830.50	124.324
830.80	158.333
831.10	165.385
831.40	190.476
831.70	187.500
832.00	126.667
832.30	191.304
832.60	195.833
832.90	187.879
833.20	215.000
833.50	152.632
833.80	100.000
834.10	102.632
834.40	163.158
834.70	126.667
835.00	188.000
835.30	94.595
835.60	137.500
835.90	135.135
836.20	138.462
836.50	150.000
836.80	112.195
837.10	139.130
837.40	338.462
837.70	142.105
838.00	140.000
838.30	183.333
838.60	156.000
838.90	420.000
839.19	162.500
839.49	146.667
839.79	120.690
840.09	161.538
840.39	153.333
840.69	189.474
840.99	142.857
841.29	156.522
841.59	175.000
841.88	188.000
842.18	400.000
842.48	160.714
842.78	133.333
843.08	215.385
843.38	136.364
843.68	200.000
843.97	385.714
844.27	186.957
844.57	1200.000
844.87	342.857
845.17	233.333
845.47	128.571
845.76	170.833
846.06	657.143
846.36	147.059
846.66	200.000
846.96	237.500
847.25	223.077
847.55	147.368
847.85	177.778
848.15	560.000
848.44	409.091
848.74	157.143
849.04	208.333
849.34	229.412
849.63	243.750
849.93	225.000
850.23	900.000
850.53	362.500
850.82	318.182
851.12	229.412
851.42	175.000
851.71	200.000
852.01	0.000
852.31	200.000
852.61	380.000
852.90	195.833
853.20	400.000
853.50	-2200.000
853.79	164.000
854.09	146.875
854.39	141.379
854.68	158.621
854.98	209.524
855.28	135.484
855.57	207.143
855.87	205.556
856.17	151.852
856.46	242.105
856.76	158.065
857.05	258.824
857.35	354.545
857.65	223.077
857.94	155.000
858.24	411.111
858.53	285.714
858.83	528.571
859.13	165.217
859.42	388.889
859.72	362.500
860.01	341.667
860.31	775.000
860.60	360.000
860.90	350.000
861.20	269.231
861.49	342.857
861.79	-3400.000
862.08	500.000
862.38	333.333
862.67	121.429
862.97	410.000
863.26	140.000
863.56	825.000
863.85	323.077
864.15	229.412
864.44	183.333
864.74	341.667
865.03	318.182
865.33	450.000
865.62	260.000
865.92	533.333
866.21	925.000
866.51	780.000
866.80	211.111
867.10	833.333
867.39	4000.000
867.69	760.000
867.98	975.000
868.27	233.333
868.57	333.333
868.86	1125.000
869.16	138.095
869.45	3100.000
869.75	-550.000
870.04	775.000
870.33	840.000
870.63	462.500
870.92	182.353
871.22	675.000
871.51	414.286
871.80	325.000
872.10	307.692
>>>>>End Processed Spectral Data<<<<<
