SpectraSuite Data File
++++++++++++++++++++++++++++++++++++
Date: Tue May 12 15:23:14 PDT 2015
User: schluterlab
Dark Spectrum Present: Yes
Reference Spectrum Present: Yes
Number of Sampled Component Spectra: 1
Spectrometers: USB2E3373
Integration Time (usec): 3000 (USB2E3373)
Spectra Averaged: 3 (USB2E3373)
Boxcar Smoothing: 0 (USB2E3373)
Correct for Electrical Dark: No (USB2E3373)
Strobe/Lamp Enabled: No (USB2E3373)
Correct for Detector Non-linearity: No (USB2E3373)
Correct for Stray Light: No (USB2E3373)
Number of Pixels in Processed Spectrum: 2048
>>>>>Begin Processed Spectral Data<<<<<
178.53	0.000
178.91	-166.667
179.29	-650.000
179.67	-3700.000
180.04	-140.000
180.42	575.000
180.80	1550.000
181.18	0.000
181.56	-337.500
181.94	0.000
182.31	1133.333
182.69	-3200.000
183.07	657.143
183.45	-2800.000
183.83	-1550.000
184.20	400.000
184.58	471.429
184.96	-276.923
185.34	-275.000
185.72	1550.000
186.09	-750.000
186.47	-3600.000
186.85	1166.667
187.23	620.000
187.61	1500.000
187.98	375.000
188.36	192.857
188.74	341.667
189.12	333.333
189.49	675.000
189.87	0.000
190.25	475.000
190.63	2700.000
191.00	-141.667
191.38	-3100.000
191.76	-775.000
192.14	575.000
192.51	-2600.000
192.89	1300.000
193.27	1300.000
193.65	-1000.000
194.02	-760.000
194.40	457.143
194.78	-207.143
195.15	286.667
195.53	-3600.000
195.91	-580.000
196.29	3300.000
196.66	218.750
197.04	950.000
197.42	-1100.000
197.79	675.000
198.17	300.000
198.55	0.000
198.92	471.429
199.30	1333.333
199.68	1700.000
200.05	616.667
200.43	-566.667
200.81	188.889
201.18	3300.000
201.56	200.000
201.94	-700.000
202.31	-275.000
202.69	-300.000
203.07	2900.000
203.44	-500.000
203.82	308.333
204.19	820.000
204.57	-1300.000
204.95	-875.000
205.32	-540.000
205.70	516.667
206.08	825.000
206.45	-800.000
206.83	455.556
207.20	252.632
207.58	216.667
207.96	700.000
208.33	0.000
208.71	600.000
209.08	600.000
209.46	-3000.000
209.84	-525.000
210.21	840.000
210.59	-560.000
210.96	358.333
211.34	-925.000
211.71	345.455
212.09	800.000
212.46	1850.000
212.84	-416.667
213.22	466.667
213.59	-3200.000
213.97	330.000
214.34	825.000
214.72	966.667
215.09	933.333
215.47	-3700.000
215.84	-280.000
216.22	-287.500
216.59	0.000
216.97	0.000
217.34	1650.000
217.72	-1650.000
218.09	1000.000
218.47	375.000
218.84	700.000
219.22	1133.333
219.59	866.667
219.97	500.000
220.34	422.222
220.72	1500.000
221.09	3000.000
221.47	150.000
221.84	1266.667
222.22	310.000
222.59	216.667
222.97	200.000
223.34	212.500
223.72	-950.000
224.09	1466.667
224.46	284.615
224.84	-950.000
225.21	355.556
225.59	333.333
225.96	1366.667
226.34	-360.000
226.71	-550.000
227.08	-580.000
227.46	0.000
227.83	-466.667
228.21	-1850.000
228.58	333.333
228.95	1025.000
229.33	355.556
229.70	925.000
230.08	369.231
230.45	3400.000
230.82	-875.000
231.20	-866.667
231.57	-1200.000
231.95	500.000
232.32	241.667
232.69	566.667
233.07	233.333
233.44	-1200.000
233.81	253.333
234.19	155.556
234.56	193.750
234.93	188.235
235.31	165.000
235.68	200.000
236.05	164.286
236.43	140.741
236.80	250.000
237.17	162.069
237.55	121.875
237.92	110.000
238.29	112.121
238.67	156.250
239.04	107.317
239.41	79.167
239.79	95.000
240.16	85.417
240.53	60.656
240.91	71.014
241.28	79.661
241.65	78.788
242.02	66.197
242.40	88.571
242.77	67.033
243.14	56.962
243.51	57.576
243.89	52.336
244.26	43.925
244.63	44.554
245.00	45.872
245.38	50.000
245.75	52.273
246.12	54.815
246.49	55.319
246.87	40.164
247.24	46.000
247.61	46.250
247.98	48.299
248.36	40.000
248.73	43.367
249.10	42.857
249.47	42.000
249.84	43.781
250.22	50.811
250.59	44.500
250.96	37.131
251.33	36.279
251.70	34.375
252.08	43.697
252.45	38.645
252.82	36.122
253.19	34.783
253.56	33.846
253.94	34.783
254.31	35.659
254.68	38.676
255.05	36.552
255.42	33.942
255.79	37.459
256.16	34.576
256.54	38.636
256.91	35.621
257.28	35.786
257.65	32.915
258.02	31.268
258.39	33.524
258.76	35.362
259.14	30.857
259.51	35.860
259.88	39.818
260.25	28.571
260.62	32.329
260.99	28.650
261.36	34.819
261.73	31.915
262.10	33.246
262.47	34.000
262.85	31.733
263.22	34.447
263.59	30.691
263.96	33.083
264.33	32.840
264.70	31.941
265.07	32.683
265.44	31.881
265.81	33.019
266.18	32.494
266.55	32.151
266.92	29.530
267.29	30.921
267.66	30.045
268.03	28.700
268.40	33.404
268.77	33.480
269.14	29.718
269.51	30.958
269.88	31.429
270.25	28.078
270.62	30.258
270.99	30.020
271.36	31.504
271.73	29.560
272.10	30.303
272.47	28.373
272.84	28.144
273.21	30.372
273.58	31.781
273.95	29.979
274.32	29.767
274.69	29.528
275.06	28.780
275.43	29.693
275.80	30.566
276.17	28.309
276.54	29.346
276.91	30.410
277.28	28.650
277.65	29.705
278.02	30.331
278.39	30.755
278.76	29.828
279.13	25.979
279.50	27.818
279.87	30.354
280.23	30.755
280.60	29.380
280.97	27.759
281.34	27.723
281.71	27.826
282.08	27.692
282.45	28.547
282.82	28.595
283.19	28.458
283.56	29.091
283.92	27.687
284.29	28.286
284.66	27.563
285.03	29.685
285.40	28.430
285.77	26.543
286.14	30.495
286.51	28.374
286.87	27.057
287.24	25.976
287.61	28.875
287.98	27.313
288.35	28.889
288.72	27.618
289.08	29.880
289.45	28.811
289.82	27.812
290.19	29.283
290.56	31.441
290.93	28.633
291.29	28.729
291.66	27.260
292.03	28.331
292.40	26.152
292.77	27.716
293.13	28.103
293.50	28.205
293.87	28.184
294.24	29.091
294.60	29.744
294.97	28.531
295.34	28.818
295.71	28.909
296.08	29.600
296.44	28.717
296.81	29.156
297.18	27.376
297.55	28.941
297.91	28.695
298.28	28.986
298.65	28.589
299.02	28.347
299.38	28.058
299.75	29.024
300.12	28.784
300.48	30.913
300.85	30.751
301.22	28.605
301.59	29.481
301.95	29.288
302.32	29.919
302.69	31.109
303.05	31.650
303.42	28.251
303.79	30.986
304.15	29.263
304.52	28.118
304.89	30.277
305.25	31.591
305.62	31.130
305.99	29.565
306.35	31.789
306.72	30.177
307.09	31.056
307.45	30.729
307.82	31.070
308.19	31.959
308.55	30.400
308.92	30.226
309.29	30.769
309.65	29.832
310.02	31.542
310.38	32.104
310.75	31.919
311.12	31.130
311.48	32.336
311.85	31.584
312.22	31.901
312.58	31.973
312.95	32.718
313.31	31.180
313.68	30.769
314.05	32.967
314.41	31.192
314.78	33.428
315.14	33.744
315.51	34.248
315.87	32.208
316.24	32.680
316.61	33.035
316.97	32.569
317.34	33.423
317.70	33.538
318.07	34.609
318.43	34.710
318.80	33.625
319.16	35.664
319.53	34.602
319.89	33.692
320.26	37.058
320.62	35.806
320.99	35.272
321.35	36.085
321.72	37.381
322.08	36.750
322.45	36.785
322.81	36.871
323.18	37.034
323.54	38.589
323.91	38.259
324.27	36.163
324.64	37.370
325.00	38.707
325.37	38.449
325.73	38.027
326.10	38.774
326.46	38.481
326.83	39.440
327.19	39.357
327.56	37.859
327.92	40.246
328.29	40.262
328.65	40.668
329.01	38.922
329.38	40.271
329.74	39.624
330.11	39.618
330.47	40.153
330.84	37.877
331.20	39.002
331.56	40.760
331.93	39.949
332.29	38.265
332.66	40.901
333.02	37.887
333.38	39.354
333.75	39.033
334.11	39.681
334.48	38.974
334.84	38.598
335.20	40.719
335.57	39.211
335.93	40.286
336.29	38.557
336.66	39.623
337.02	38.494
337.38	38.263
337.75	39.189
338.11	39.325
338.47	38.019
338.84	38.865
339.20	37.835
339.56	37.595
339.93	37.793
340.29	38.319
340.65	39.732
341.02	38.697
341.38	39.080
341.74	38.538
342.11	38.815
342.47	37.654
342.83	38.392
343.20	38.157
343.56	36.537
343.92	37.903
344.28	38.278
344.65	37.327
345.01	38.095
345.37	36.699
345.73	37.381
346.10	36.653
346.46	37.241
346.82	36.034
347.19	36.785
347.55	36.300
347.91	36.405
348.27	37.568
348.63	38.054
349.00	37.243
349.36	38.988
349.72	36.850
350.08	38.043
350.45	37.091
350.81	38.226
351.17	36.133
351.53	36.336
351.89	36.752
352.26	37.037
352.62	36.576
352.98	37.500
353.34	37.596
353.70	36.468
354.07	37.923
354.43	37.020
354.79	36.295
355.15	35.605
355.51	37.311
355.87	36.973
356.24	36.259
356.60	36.149
356.96	36.088
357.32	36.850
357.68	35.316
358.04	36.474
358.40	36.882
358.77	37.566
359.13	36.937
359.49	34.766
359.85	35.964
360.21	35.290
360.57	35.985
360.93	36.941
361.29	36.580
361.66	36.764
362.02	35.582
362.38	36.147
362.74	36.235
363.10	37.097
363.46	35.773
363.82	36.676
364.18	36.131
364.54	37.124
364.90	35.141
365.26	37.543
365.62	36.602
365.98	34.825
366.35	35.310
366.71	36.294
367.07	35.358
367.43	36.132
367.79	36.170
368.15	35.210
368.51	36.113
368.87	35.870
369.23	35.620
369.59	36.008
369.95	36.364
370.31	35.661
370.67	35.878
371.03	35.854
371.39	36.704
371.75	35.520
372.11	35.486
372.47	35.342
372.83	35.486
373.19	36.395
373.55	36.151
373.91	35.290
374.27	35.913
374.63	34.915
374.99	35.243
375.35	36.492
375.71	35.818
376.07	34.682
376.42	34.463
376.78	35.453
377.14	35.649
377.50	34.457
377.86	35.490
378.22	35.405
378.58	37.167
378.94	35.244
379.30	35.537
379.66	35.521
380.02	36.129
380.38	35.246
380.74	35.179
381.09	35.105
381.45	34.451
381.81	34.988
382.17	35.958
382.53	35.213
382.89	35.541
383.25	34.221
383.61	34.870
383.97	35.093
384.32	35.081
384.68	36.126
385.04	34.174
385.40	34.401
385.76	34.699
386.12	35.127
386.48	35.745
386.83	34.108
387.19	34.570
387.55	34.570
387.91	34.873
388.27	34.622
388.62	35.681
388.98	33.994
389.34	33.551
389.70	34.198
390.06	35.000
390.42	34.423
390.77	34.152
391.13	33.434
391.49	34.846
391.85	34.338
392.20	34.565
392.56	33.811
392.92	33.464
393.28	32.848
393.64	32.454
393.99	33.847
394.35	34.079
394.71	32.811
395.07	34.063
395.42	32.904
395.78	34.300
396.14	34.880
396.50	33.815
396.85	33.963
397.21	32.912
397.57	33.174
397.92	32.120
398.28	32.432
398.64	32.577
399.00	32.496
399.35	32.636
399.71	32.726
400.07	32.306
400.42	32.776
400.78	32.903
401.14	32.237
401.49	32.776
401.85	32.213
402.21	32.337
402.57	32.555
402.92	31.758
403.28	31.444
403.63	31.901
403.99	31.665
404.35	32.181
404.70	31.601
405.06	31.387
405.42	31.299
405.77	31.643
406.13	30.206
406.49	31.268
406.84	31.134
407.20	31.450
407.55	31.569
407.91	32.036
408.27	31.777
408.62	30.869
408.98	30.692
409.34	30.684
409.69	30.803
410.05	30.411
410.40	30.742
410.76	31.139
411.11	30.628
411.47	30.370
411.83	29.584
412.18	30.435
412.54	30.991
412.89	30.088
413.25	30.958
413.60	30.257
413.96	30.341
414.31	31.287
414.67	31.099
415.03	31.481
415.38	30.662
415.74	29.880
416.09	30.356
416.45	31.739
416.80	30.212
417.16	30.426
417.51	30.701
417.87	30.601
418.22	30.498
418.58	30.637
418.93	31.231
419.29	29.636
419.64	30.164
420.00	31.683
420.35	31.069
420.71	30.688
421.06	29.782
421.42	30.052
421.77	30.705
422.12	30.650
422.48	31.125
422.83	31.194
423.19	29.860
423.54	30.938
423.90	30.578
424.25	31.480
424.61	30.818
424.96	30.435
425.31	31.691
425.67	30.752
426.02	30.791
426.38	29.463
426.73	31.868
427.09	32.325
427.44	31.289
427.79	31.732
428.15	31.644
428.50	31.771
428.85	30.923
429.21	32.037
429.56	31.605
429.92	32.422
430.27	31.350
430.62	31.620
430.98	31.387
431.33	31.099
431.68	31.556
432.04	30.781
432.39	32.108
432.74	31.674
433.10	33.001
433.45	32.682
433.80	32.488
434.16	32.738
434.51	33.179
434.86	32.662
435.22	31.929
435.57	32.543
435.92	33.182
436.28	33.410
436.63	32.739
436.98	33.052
437.34	33.276
437.69	32.811
438.04	32.796
438.39	32.633
438.75	32.962
439.10	32.596
439.45	32.843
439.81	33.372
440.16	33.297
440.51	32.714
440.86	33.504
441.22	33.171
441.57	33.543
441.92	33.810
442.27	34.021
442.63	33.028
442.98	32.759
443.33	34.708
443.68	33.099
444.03	33.977
444.39	34.793
444.74	32.609
445.09	33.807
445.44	32.572
445.79	33.674
446.15	33.684
446.50	33.703
446.85	33.516
447.20	33.433
447.55	33.877
447.91	35.056
448.26	34.398
448.61	34.218
448.96	33.333
449.31	34.488
449.66	34.219
450.02	33.225
450.37	35.147
450.72	34.435
451.07	34.322
451.42	34.795
451.77	34.593
452.12	33.806
452.47	35.601
452.83	34.986
453.18	34.474
453.53	35.050
453.88	34.457
454.23	35.735
454.58	34.441
454.93	34.641
455.28	36.047
455.63	35.047
455.98	34.349
456.34	35.015
456.69	35.244
457.04	34.010
457.39	35.429
457.74	34.347
458.09	33.464
458.44	34.392
458.79	34.642
459.14	34.479
459.49	35.447
459.84	35.272
460.19	34.633
460.54	35.271
460.89	35.394
461.24	34.364
461.59	35.828
461.94	34.634
462.29	34.668
462.64	35.553
462.99	35.829
463.34	35.515
463.69	35.390
464.04	34.139
464.39	34.516
464.74	34.467
465.09	34.359
465.44	34.984
465.79	34.241
466.14	33.598
466.49	34.563
466.84	34.504
467.19	34.739
467.54	33.874
467.89	34.272
468.24	34.221
468.59	34.821
468.94	34.481
469.29	34.087
469.64	34.855
469.99	35.090
470.34	34.725
470.68	34.621
471.03	35.023
471.38	34.834
471.73	34.422
472.08	34.573
472.43	35.506
472.78	35.339
473.13	33.667
473.48	34.352
473.83	34.511
474.17	34.529
474.52	34.182
474.87	33.371
475.22	34.780
475.57	33.526
475.92	33.981
476.27	32.535
476.61	33.941
476.96	33.856
477.31	34.910
477.66	34.675
478.01	35.224
478.36	33.625
478.70	34.045
479.05	34.623
479.40	33.333
479.75	34.310
480.10	33.930
480.45	33.940
480.79	33.917
481.14	33.571
481.49	33.532
481.84	33.465
482.19	32.838
482.53	33.158
482.88	33.289
483.23	33.198
483.58	34.515
483.92	33.958
484.27	33.091
484.62	34.211
484.97	33.035
485.31	33.031
485.66	33.579
486.01	32.850
486.36	32.531
486.70	31.777
487.05	31.959
487.40	31.861
487.75	31.872
488.09	33.125
488.44	33.015
488.79	32.558
489.13	33.221
489.48	34.479
489.83	32.986
490.17	32.659
490.52	33.419
490.87	32.974
491.22	33.466
491.56	32.499
491.91	32.392
492.26	33.363
492.60	33.531
492.95	32.397
493.30	33.076
493.64	32.525
493.99	32.737
494.34	33.303
494.68	32.492
495.03	32.780
495.37	34.174
495.72	32.867
496.07	32.929
496.41	32.971
496.76	33.052
497.11	33.976
497.45	33.143
497.80	33.642
498.14	32.409
498.49	33.333
498.84	33.879
499.18	32.130
499.53	32.522
499.87	32.480
500.22	32.980
500.56	33.055
500.91	33.395
501.26	33.027
501.60	32.468
501.95	32.303
502.29	32.667
502.64	32.422
502.98	32.237
503.33	33.541
503.67	32.583
504.02	32.781
504.36	31.946
504.71	32.971
505.06	32.332
505.40	33.037
505.75	32.086
506.09	32.105
506.44	32.190
506.78	33.270
507.13	32.719
507.47	32.703
507.82	33.577
508.16	32.827
508.51	32.754
508.85	32.669
509.19	31.816
509.54	32.666
509.88	32.571
510.23	32.892
510.57	31.853
510.92	32.118
511.26	32.631
511.61	31.905
511.95	32.753
512.30	31.850
512.64	32.918
512.98	31.830
513.33	32.684
513.67	32.574
514.02	32.208
514.36	32.555
514.70	32.693
515.05	32.126
515.39	32.730
515.74	33.680
516.08	31.590
516.42	33.770
516.77	31.787
517.11	32.160
517.46	32.220
517.80	32.332
518.14	32.563
518.49	32.470
518.83	31.209
519.17	32.113
519.52	31.950
519.86	32.371
520.20	33.151
520.55	31.430
520.89	31.264
521.23	32.185
521.58	31.670
521.92	32.187
522.26	31.576
522.61	31.788
522.95	32.613
523.29	31.754
523.64	31.676
523.98	32.277
524.32	30.681
524.66	32.174
525.01	32.189
525.35	31.880
525.69	31.427
526.04	32.362
526.38	33.255
526.72	31.504
527.06	31.815
527.41	31.620
527.75	31.832
528.09	31.186
528.43	31.483
528.78	32.021
529.12	32.450
529.46	31.034
529.80	31.075
530.15	31.408
530.49	30.205
530.83	32.236
531.17	31.673
531.51	31.821
531.86	31.220
532.20	30.902
532.54	31.136
532.88	33.104
533.22	31.444
533.57	32.032
533.91	31.527
534.25	30.641
534.59	31.462
534.93	30.546
535.27	29.994
535.62	31.039
535.96	30.615
536.30	32.480
536.64	31.056
536.98	30.019
537.32	30.812
537.66	30.804
538.01	30.960
538.35	31.316
538.69	30.097
539.03	29.726
539.37	30.400
539.71	30.864
540.05	30.277
540.39	30.881
540.73	31.646
541.07	29.172
541.42	30.162
541.76	30.641
542.10	30.826
542.44	30.299
542.78	31.026
543.12	31.104
543.46	29.950
543.80	30.075
544.14	31.146
544.48	31.265
544.82	30.887
545.16	29.387
545.50	29.871
545.84	30.997
546.18	31.860
546.52	30.754
546.86	31.077
547.20	31.395
547.54	30.842
547.88	30.231
548.22	30.419
548.56	30.701
548.90	29.478
549.24	30.575
549.58	28.995
549.92	30.255
550.26	30.764
550.60	29.741
550.94	30.801
551.28	31.034
551.62	32.138
551.96	30.541
552.30	30.587
552.64	31.262
552.98	30.026
553.32	29.321
553.66	29.837
554.00	29.730
554.34	30.959
554.68	31.452
555.02	30.686
555.36	29.654
555.69	30.563
556.03	29.745
556.37	30.784
556.71	29.987
557.05	29.227
557.39	29.333
557.73	30.930
558.07	30.047
558.41	30.569
558.75	30.848
559.08	30.951
559.42	30.422
559.76	31.789
560.10	29.800
560.44	30.790
560.78	31.202
561.12	30.642
561.45	29.787
561.79	28.714
562.13	28.743
562.47	29.591
562.81	29.993
563.15	30.446
563.48	28.820
563.82	31.067
564.16	30.348
564.50	29.717
564.84	29.970
565.17	29.055
565.51	31.342
565.85	30.598
566.19	29.583
566.52	29.603
566.86	29.772
567.20	30.112
567.54	30.076
567.88	30.203
568.21	29.106
568.55	30.350
568.89	29.745
569.23	29.292
569.56	29.273
569.90	28.926
570.24	28.552
570.57	29.104
570.91	28.518
571.25	28.173
571.59	28.003
571.92	27.449
572.26	27.305
572.60	28.159
572.93	27.487
573.27	28.403
573.61	27.694
573.95	27.963
574.28	28.381
574.62	27.667
574.96	27.690
575.29	27.688
575.63	27.138
575.97	26.947
576.30	26.905
576.64	27.536
576.98	27.467
577.31	27.749
577.65	27.801
577.98	27.285
578.32	26.901
578.66	27.547
578.99	27.439
579.33	27.424
579.67	27.648
580.00	27.219
580.34	27.135
580.67	27.271
581.01	27.672
581.35	27.410
581.68	27.251
582.02	27.676
582.35	27.472
582.69	27.460
583.02	27.543
583.36	27.652
583.70	27.807
584.03	28.238
584.37	28.117
584.70	27.669
585.04	27.266
585.37	27.277
585.71	27.955
586.04	27.493
586.38	27.532
586.72	27.439
587.05	27.483
587.39	27.611
587.72	28.202
588.06	28.110
588.39	28.147
588.73	27.922
589.06	28.100
589.40	28.607
589.73	27.368
590.07	28.620
590.40	28.885
590.73	28.645
591.07	28.008
591.40	27.984
591.74	28.369
592.07	27.537
592.41	28.137
592.74	27.389
593.08	27.637
593.41	27.887
593.75	27.877
594.08	27.749
594.41	28.185
594.75	27.740
595.08	27.606
595.42	27.913
595.75	27.838
596.09	28.537
596.42	28.296
596.75	28.966
597.09	28.353
597.42	28.449
597.75	27.748
598.09	27.780
598.42	28.274
598.76	27.525
599.09	28.099
599.42	27.612
599.76	27.985
600.09	27.831
600.42	27.106
600.76	27.532
601.09	27.684
601.42	26.962
601.76	27.927
602.09	28.661
602.42	27.505
602.76	28.159
603.09	28.431
603.42	28.587
603.76	27.332
604.09	27.651
604.42	27.571
604.76	27.855
605.09	28.082
605.42	27.469
605.75	27.596
606.09	27.812
606.42	28.222
606.75	27.439
607.09	28.109
607.42	27.802
607.75	27.667
608.08	27.579
608.42	27.517
608.75	27.856
609.08	27.321
609.41	28.273
609.75	28.114
610.08	28.103
610.41	28.063
610.74	28.139
611.07	28.286
611.41	28.082
611.74	28.203
612.07	28.179
612.40	28.021
612.73	28.058
613.07	27.369
613.40	28.221
613.73	28.607
614.06	27.400
614.39	27.980
614.72	28.076
615.06	27.003
615.39	28.267
615.72	27.396
616.05	28.127
616.38	27.042
616.71	27.075
617.05	27.787
617.38	27.303
617.71	28.178
618.04	28.211
618.37	27.738
618.70	28.176
619.03	27.900
619.36	28.329
619.69	28.298
620.03	29.289
620.36	27.746
620.69	28.608
621.02	28.397
621.35	29.083
621.68	28.466
622.01	29.077
622.34	28.405
622.67	28.792
623.00	27.434
623.33	28.003
623.66	28.942
623.99	28.904
624.32	27.778
624.65	28.374
624.99	28.938
625.32	28.791
625.65	26.276
625.98	27.545
626.31	27.522
626.64	27.107
626.97	28.080
627.30	27.950
627.63	29.592
627.96	27.230
628.29	27.888
628.62	27.459
628.95	28.457
629.28	30.061
629.61	28.998
629.94	28.349
630.26	28.423
630.59	29.521
630.92	29.058
631.25	28.377
631.58	29.797
631.91	29.210
632.24	28.474
632.57	27.603
632.90	31.470
633.23	27.912
633.56	30.137
633.89	29.475
634.22	29.494
634.55	28.925
634.88	30.668
635.20	29.709
635.53	27.642
635.86	30.872
636.19	27.609
636.52	27.892
636.85	27.832
637.18	28.711
637.51	27.821
637.83	29.748
638.16	30.129
638.49	28.982
638.82	30.047
639.15	28.672
639.48	30.569
639.81	28.938
640.13	28.712
640.46	30.721
640.79	29.389
641.12	29.396
641.45	32.083
641.77	30.515
642.10	29.451
642.43	29.872
642.76	29.403
643.09	31.556
643.41	28.612
643.74	29.496
644.07	31.268
644.40	28.846
644.73	29.730
645.05	29.569
645.38	30.475
645.71	32.625
646.04	31.145
646.36	30.047
646.69	29.280
647.02	30.720
647.35	28.976
647.67	29.173
648.00	31.107
648.33	31.278
648.66	29.394
648.98	29.420
649.31	27.395
649.64	27.939
649.96	29.018
650.29	28.857
650.62	30.191
650.94	31.476
651.27	32.057
651.60	29.421
651.92	32.412
652.25	30.551
652.58	28.936
652.90	29.491
653.23	31.019
653.56	29.970
653.88	28.488
654.21	27.419
654.54	30.161
654.86	29.056
655.19	29.420
655.52	26.150
655.84	23.180
656.17	26.912
656.49	38.875
656.82	45.506
657.15	36.252
657.47	26.883
657.80	20.073
658.13	15.514
658.45	20.995
658.78	25.416
659.10	26.278
659.43	27.012
659.75	28.265
660.08	28.759
660.41	30.218
660.73	32.120
661.06	31.081
661.38	29.642
661.71	28.957
662.03	31.369
662.36	30.095
662.68	29.050
663.01	31.532
663.33	30.189
663.66	33.531
663.98	28.770
664.31	33.209
664.63	30.268
664.96	32.270
665.28	30.320
665.61	28.113
665.93	30.377
666.26	30.841
666.58	32.294
666.91	31.660
667.23	31.727
667.56	31.417
667.88	31.743
668.21	31.148
668.53	28.831
668.86	31.463
669.18	32.587
669.50	29.545
669.83	31.417
670.15	30.769
670.48	28.906
670.80	30.279
671.13	29.283
671.45	30.060
671.77	30.612
672.10	30.162
672.42	28.125
672.75	28.323
673.07	28.299
673.39	30.032
673.72	30.623
674.04	30.824
674.37	30.490
674.69	27.695
675.01	30.037
675.34	29.457
675.66	31.836
675.98	31.953
676.31	30.200
676.63	28.231
676.95	28.968
677.28	30.223
677.60	26.761
677.92	28.373
678.25	29.651
678.57	32.402
678.89	29.837
679.22	30.515
679.54	29.537
679.86	30.541
680.18	28.647
680.51	27.197
680.83	27.027
681.15	30.503
681.48	30.208
681.80	27.145
682.12	30.969
682.44	28.829
682.77	31.673
683.09	31.068
683.41	30.408
683.73	27.165
684.06	29.365
684.38	29.845
684.70	28.417
685.02	27.431
685.34	29.754
685.67	30.225
685.99	30.542
686.31	27.427
686.63	29.268
686.96	28.595
687.28	26.510
687.60	28.498
687.92	29.481
688.24	28.448
688.56	28.114
688.89	27.916
689.21	29.287
689.53	31.423
689.85	29.065
690.17	29.515
690.49	29.435
690.82	28.782
691.14	31.717
691.46	28.131
691.78	28.460
692.10	29.962
692.42	30.127
692.74	31.977
693.06	29.457
693.39	26.680
693.71	29.862
694.03	32.150
694.35	32.731
694.67	28.921
694.99	31.486
695.31	30.405
695.63	30.090
695.95	28.959
696.27	32.522
696.59	32.458
696.91	28.354
697.23	30.317
697.56	29.046
697.88	25.749
698.20	28.491
698.52	25.486
698.84	30.185
699.16	30.490
699.48	30.297
699.80	32.462
700.12	31.409
700.44	32.477
700.76	29.833
701.08	30.026
701.40	30.909
701.72	33.155
702.04	35.772
702.36	32.796
702.68	32.979
703.00	31.078
703.32	30.769
703.64	34.005
703.96	29.687
704.28	33.333
704.60	31.268
704.91	33.053
705.23	29.830
705.55	32.047
705.87	33.968
706.19	32.288
706.51	33.542
706.83	33.038
707.15	32.888
707.47	31.477
707.79	32.184
708.11	29.932
708.43	30.112
708.74	29.638
709.06	28.140
709.38	31.762
709.70	33.787
710.02	30.707
710.34	28.729
710.66	30.833
710.98	30.874
711.29	34.540
711.61	32.591
711.93	28.267
712.25	33.434
712.57	31.833
712.89	33.636
713.20	33.546
713.52	32.710
713.84	29.305
714.16	29.565
714.48	27.666
714.80	30.894
715.11	32.447
715.43	32.123
715.75	31.549
716.07	30.058
716.39	28.571
716.70	30.841
717.02	31.987
717.34	34.532
717.66	35.069
717.97	33.333
718.29	35.563
718.61	30.405
718.93	33.564
719.24	28.523
719.56	33.103
719.88	28.025
720.20	33.548
720.51	30.392
720.83	36.455
721.15	34.354
721.46	33.219
721.78	32.404
722.10	37.153
722.42	33.445
722.73	34.296
723.05	39.649
723.37	34.276
723.68	31.250
724.00	36.742
724.32	35.361
724.63	33.462
724.95	36.471
725.27	30.855
725.58	34.926
725.90	28.873
726.22	28.767
726.53	33.445
726.85	32.899
727.16	34.564
727.48	32.890
727.80	36.331
728.11	34.286
728.43	31.522
728.74	34.615
729.06	33.333
729.38	36.842
729.69	35.667
730.01	36.184
730.32	33.221
730.64	33.555
730.96	30.631
731.27	28.746
731.59	33.046
731.90	29.526
732.22	33.143
732.53	31.339
732.85	32.164
733.16	31.627
733.48	29.781
733.80	31.014
734.11	34.356
734.43	29.825
734.74	32.440
735.06	29.630
735.37	29.124
735.69	31.884
736.00	35.780
736.32	31.818
736.63	27.129
736.95	30.745
737.26	32.012
737.58	32.515
737.89	31.627
738.21	33.113
738.52	31.773
738.83	38.462
739.15	31.707
739.46	32.759
739.78	34.354
740.09	31.195
740.41	34.356
740.72	33.016
741.04	32.517
741.35	37.109
741.66	36.759
741.98	38.197
742.29	39.352
742.61	36.726
742.92	35.593
743.23	33.600
743.55	30.566
743.86	32.549
744.18	34.322
744.49	38.017
744.80	41.935
745.12	37.500
745.43	37.850
745.74	36.444
746.06	33.772
746.37	40.465
746.68	40.708
747.00	39.013
747.31	35.714
747.62	28.689
747.94	33.906
748.25	30.350
748.56	38.136
748.88	39.286
749.19	32.093
749.50	35.616
749.82	37.449
750.13	33.202
750.44	34.333
750.75	29.866
751.07	33.553
751.38	29.043
751.69	30.976
752.01	35.315
752.32	38.870
752.63	33.557
752.94	31.818
753.26	38.281
753.57	33.074
753.88	30.712
754.19	32.852
754.51	31.561
754.82	29.866
755.13	35.135
755.44	29.259
755.75	33.677
756.07	33.562
756.38	29.739
756.69	34.375
757.00	32.641
757.31	25.915
757.63	27.548
757.94	31.117
758.25	28.986
758.56	28.146
758.87	29.073
759.18	33.140
759.50	33.131
759.81	30.861
760.12	29.213
760.43	31.092
760.74	30.633
761.05	29.443
761.36	28.125
761.67	29.650
761.99	32.958
762.30	36.013
762.61	30.208
762.92	37.500
763.23	32.830
763.54	32.692
763.85	33.074
764.16	34.375
764.47	32.432
764.78	29.967
765.10	28.659
765.41	26.989
765.72	26.519
766.03	26.888
766.34	33.101
766.65	31.179
766.96	35.223
767.27	43.458
767.58	37.624
767.89	45.304
768.20	48.780
768.51	36.224
768.82	34.211
769.13	33.725
769.44	32.707
769.75	29.963
770.06	34.454
770.37	33.772
770.68	31.111
770.99	38.983
771.30	32.636
771.61	32.308
771.92	33.206
772.23	35.484
772.54	35.556
772.85	40.594
773.16	33.152
773.47	32.778
773.78	40.099
774.09	40.341
774.39	38.182
774.70	34.706
775.01	30.921
775.32	45.342
775.63	45.205
775.94	46.914
776.25	51.724
776.56	41.985
776.87	48.092
777.18	43.939
777.48	50.394
777.79	43.846
778.10	43.939
778.41	52.985
778.72	37.594
779.03	38.462
779.34	39.189
779.65	38.509
779.95	46.584
780.26	39.881
780.57	49.660
780.88	46.099
781.19	48.333
781.50	44.970
781.80	42.077
782.11	37.037
782.42	46.552
782.73	41.808
783.04	38.065
783.34	45.736
783.65	40.816
783.96	39.355
784.27	40.397
784.57	32.895
784.88	37.681
785.19	39.167
785.50	49.138
785.81	44.961
786.11	39.259
786.42	45.669
786.73	49.550
787.04	49.057
787.34	39.024
787.65	47.727
787.96	46.212
788.26	48.819
788.57	47.445
788.88	42.958
789.19	41.221
789.49	54.730
789.80	38.281
790.11	46.281
790.41	44.444
790.72	40.741
791.03	55.769
791.33	54.545
791.64	48.421
791.95	56.842
792.25	38.542
792.56	54.000
792.87	53.659
793.17	62.500
793.48	54.118
793.79	43.678
794.09	52.273
794.40	59.483
794.70	50.000
795.01	45.385
795.32	41.221
795.62	44.444
795.93	42.017
796.23	50.407
796.54	46.939
796.85	56.818
797.15	71.429
797.46	68.293
797.76	66.250
798.07	72.000
798.37	58.750
798.68	65.000
798.99	57.317
799.29	49.333
799.60	38.372
799.90	59.211
800.21	74.242
800.51	61.972
800.82	81.034
801.12	58.462
801.43	70.667
801.73	74.138
802.04	51.948
802.34	72.603
802.65	86.275
802.95	60.870
803.26	80.645
803.56	86.667
803.87	67.164
804.17	63.492
804.48	73.585
804.78	62.500
805.09	72.727
805.39	74.603
805.70	75.439
806.00	58.571
806.30	68.750
806.61	70.588
806.91	58.889
807.22	52.174
807.52	57.895
807.83	78.947
808.13	68.116
808.43	69.355
808.74	65.753
809.04	78.571
809.35	69.118
809.65	72.727
809.95	84.314
810.26	87.037
810.56	85.937
810.86	97.959
811.17	70.175
811.47	84.783
811.77	75.862
812.08	74.138
812.38	83.333
812.69	69.048
812.99	57.778
813.29	122.857
813.59	106.452
813.90	58.621
814.20	86.885
814.50	78.000
814.81	56.140
815.11	94.444
815.41	73.214
815.72	94.643
816.02	90.000
816.32	102.439
816.62	89.655
816.93	124.242
817.23	112.195
817.53	85.714
817.84	91.111
818.14	80.952
818.44	85.417
818.74	92.453
819.04	76.923
819.35	127.273
819.65	88.462
819.95	111.111
820.25	95.745
820.56	105.405
820.86	113.158
821.16	51.064
821.46	128.947
821.76	90.909
822.07	90.476
822.37	118.421
822.67	83.721
822.97	76.316
823.27	84.783
823.57	81.250
823.88	92.308
824.18	103.030
824.48	113.043
824.78	97.222
825.08	130.435
825.38	151.724
825.69	114.706
825.99	89.362
826.29	69.444
826.59	94.286
826.89	130.000
827.19	80.000
827.49	125.806
827.79	142.308
828.09	78.571
828.39	116.667
828.70	89.189
829.00	139.286
829.30	162.500
829.60	83.333
829.90	112.903
830.20	106.061
830.50	154.054
830.80	166.667
831.10	150.000
831.40	147.619
831.70	183.333
832.00	133.333
832.30	130.435
832.60	158.333
832.90	133.333
833.20	155.000
833.50	131.579
833.80	94.118
834.10	100.000
834.40	100.000
834.70	93.333
835.00	160.000
835.30	83.784
835.60	146.875
835.90	94.595
836.20	169.231
836.50	136.364
836.80	73.171
837.10	130.435
837.40	346.154
837.70	157.895
838.00	160.000
838.30	158.333
838.60	88.000
838.90	290.000
839.19	175.000
839.49	143.333
839.79	134.483
840.09	134.615
840.39	166.667
840.69	205.263
840.99	104.762
841.29	143.478
841.59	150.000
841.88	136.000
842.18	255.556
842.48	146.429
842.78	159.259
843.08	146.154
843.38	154.545
843.68	178.571
843.97	271.429
844.27	117.391
844.57	1300.000
844.87	300.000
845.17	205.556
845.47	138.095
845.76	175.000
846.06	314.286
846.36	200.000
846.66	246.154
846.96	187.500
847.25	246.154
847.55	173.684
847.85	216.667
848.15	500.000
848.44	227.273
848.74	109.524
849.04	179.167
849.34	194.118
849.63	212.500
849.93	256.250
850.23	1066.667
850.53	350.000
850.82	254.545
851.12	176.471
851.42	229.167
851.71	262.500
852.01	0.000
852.31	182.353
852.61	420.000
852.90	133.333
853.20	288.889
853.50	-2300.000
853.79	156.000
854.09	140.625
854.39	106.897
854.68	124.138
854.98	228.571
855.28	103.226
855.57	250.000
855.87	177.778
856.17	155.556
856.46	178.947
856.76	141.935
857.05	294.118
857.35	290.909
857.65	238.462
857.94	150.000
858.24	333.333
858.53	271.429
858.83	557.143
859.13	195.652
859.42	300.000
859.72	337.500
860.01	283.333
860.31	875.000
860.60	370.000
860.90	512.500
861.20	200.000
861.49	371.429
861.79	-2100.000
862.08	600.000
862.38	377.778
862.67	235.714
862.97	340.000
863.26	113.333
863.56	800.000
863.85	284.615
864.15	235.294
864.44	177.778
864.74	258.333
865.03	281.818
865.33	387.500
865.62	233.333
865.92	566.667
866.21	950.000
866.51	640.000
866.80	211.111
867.10	933.333
867.39	3000.000
867.69	700.000
867.98	675.000
868.27	204.762
868.57	240.000
868.86	925.000
869.16	133.333
869.45	3100.000
869.75	-333.333
870.04	650.000
870.33	780.000
870.63	437.500
870.92	205.882
871.22	950.000
871.51	328.571
871.80	266.667
872.10	300.000
>>>>>End Processed Spectral Data<<<<<
