SpectraSuite Data File
++++++++++++++++++++++++++++++++++++
Date: Tue May 12 16:49:58 PDT 2015
User: schluterlab
Dark Spectrum Present: Yes
Reference Spectrum Present: Yes
Number of Sampled Component Spectra: 1
Spectrometers: USB2E3373
Integration Time (usec): 3000 (USB2E3373)
Spectra Averaged: 3 (USB2E3373)
Boxcar Smoothing: 0 (USB2E3373)
Correct for Electrical Dark: No (USB2E3373)
Strobe/Lamp Enabled: No (USB2E3373)
Correct for Detector Non-linearity: No (USB2E3373)
Correct for Stray Light: No (USB2E3373)
Number of Pixels in Processed Spectrum: 2048
>>>>>Begin Processed Spectral Data<<<<<
178.53	0.000
178.91	-191.667
179.29	-725.000
179.67	-4200.000
180.04	-126.667
180.42	850.000
180.80	1650.000
181.18	0.000
181.56	-437.500
181.94	0.000
182.31	1366.667
182.69	-3000.000
183.07	642.857
183.45	-2900.000
183.83	-1200.000
184.20	360.000
184.58	585.714
184.96	-261.538
185.34	-291.667
185.72	1600.000
186.09	-675.000
186.47	-3600.000
186.85	866.667
187.23	520.000
187.61	1600.000
187.98	437.500
188.36	242.857
188.74	366.667
189.12	433.333
189.49	1025.000
189.87	0.000
190.25	450.000
190.63	1400.000
191.00	-191.667
191.38	-3300.000
191.76	-925.000
192.14	500.000
192.51	-2800.000
192.89	1800.000
193.27	1200.000
193.65	-1100.000
194.02	-760.000
194.40	528.571
194.78	-135.714
195.15	293.333
195.53	-3000.000
195.91	-880.000
196.29	3900.000
196.66	262.500
197.04	675.000
197.42	-1450.000
197.79	550.000
198.17	366.667
198.55	0.000
198.92	585.714
199.30	833.333
199.68	2150.000
200.05	916.667
200.43	-466.667
200.81	188.889
201.18	4100.000
201.56	325.000
201.94	-725.000
202.31	-312.500
202.69	-480.000
203.07	2600.000
203.44	-566.667
203.82	308.333
204.19	620.000
204.57	-1600.000
204.95	-800.000
205.32	-620.000
205.70	666.667
206.08	600.000
206.45	-1133.333
206.83	455.556
207.20	200.000
207.58	275.000
207.96	700.000
208.33	0.000
208.71	471.429
209.08	720.000
209.46	-2500.000
209.84	-850.000
210.21	800.000
210.59	-760.000
210.96	316.667
211.34	-925.000
211.71	400.000
212.09	800.000
212.46	1650.000
212.84	-500.000
213.22	466.667
213.59	-3800.000
213.97	400.000
214.34	975.000
214.72	1166.667
215.09	833.333
215.47	-2700.000
215.84	-370.000
216.22	-387.500
216.59	0.000
216.97	0.000
217.34	1550.000
217.72	-1550.000
218.09	1033.333
218.47	437.500
218.84	750.000
219.22	966.667
219.59	866.667
219.97	600.000
220.34	433.333
220.72	1500.000
221.09	3400.000
221.47	333.333
221.84	1033.333
222.22	340.000
222.59	205.556
222.97	228.571
223.34	275.000
223.72	-2050.000
224.09	1233.333
224.46	253.846
224.84	-825.000
225.21	366.667
225.59	253.333
225.96	1100.000
226.34	-680.000
226.71	-700.000
227.08	-540.000
227.46	0.000
227.83	-450.000
228.21	-1550.000
228.58	466.667
228.95	900.000
229.33	411.111
229.70	1150.000
230.08	369.231
230.45	3200.000
230.82	-925.000
231.20	-933.333
231.57	-800.000
231.95	540.000
232.32	291.667
232.69	533.333
233.07	283.333
233.44	-1400.000
233.81	260.000
234.19	170.370
234.56	300.000
234.93	217.647
235.31	205.000
235.68	250.000
236.05	164.286
236.43	155.556
236.80	242.857
237.17	141.379
237.55	112.500
237.92	117.500
238.29	130.303
238.67	118.750
239.04	112.195
239.41	89.583
239.79	85.000
240.16	75.000
240.53	52.459
240.91	53.623
241.28	88.136
241.65	65.152
242.02	63.380
242.40	61.429
242.77	56.044
243.14	58.228
243.51	58.586
243.89	51.402
244.26	47.664
244.63	46.535
245.00	44.954
245.38	27.966
245.75	41.667
246.12	40.000
246.49	36.879
246.87	36.066
247.24	37.333
247.61	39.375
247.98	38.095
248.36	26.061
248.73	35.714
249.10	27.381
249.47	31.500
249.84	33.333
250.22	33.514
250.59	30.500
250.96	31.224
251.33	31.163
251.70	30.357
252.08	25.210
252.45	26.295
252.82	26.236
253.19	25.296
253.56	22.692
253.94	27.899
254.31	29.457
254.68	25.436
255.05	26.552
255.42	24.818
255.79	24.756
256.16	25.763
256.54	25.974
256.91	26.471
257.28	27.425
257.65	22.884
258.02	24.779
258.39	23.782
258.76	23.478
259.14	22.286
259.51	23.615
259.88	25.836
260.25	18.956
260.62	22.466
260.99	17.631
261.36	23.955
261.73	19.681
262.10	23.298
262.47	23.750
262.85	21.333
263.22	22.365
263.59	17.647
263.96	24.812
264.33	18.025
264.70	21.622
265.07	21.951
265.44	22.477
265.81	20.047
266.18	21.968
266.55	20.567
266.92	19.911
267.29	21.491
267.66	16.816
268.03	18.834
268.40	19.027
268.77	20.485
269.14	18.004
269.51	17.817
269.88	20.816
270.25	16.847
270.62	18.670
270.99	21.704
271.36	20.122
271.73	16.981
272.10	16.768
272.47	19.246
272.84	17.565
273.21	18.802
273.58	21.053
273.95	16.427
274.32	19.844
274.69	18.504
275.06	19.672
275.43	18.199
275.80	16.415
276.17	20.037
276.54	20.187
276.91	17.537
277.28	15.876
277.65	17.712
278.02	18.015
278.39	18.165
278.76	18.276
279.13	17.794
279.50	17.818
279.87	17.691
280.23	16.390
280.60	19.161
280.97	17.931
281.34	15.842
281.71	16.522
282.08	18.120
282.45	16.385
282.82	16.555
283.19	15.898
283.56	18.678
283.92	17.101
284.29	16.140
284.66	18.151
285.03	16.584
285.40	17.190
285.77	16.821
286.14	17.647
286.51	16.258
286.87	16.614
287.24	15.015
287.61	15.046
287.98	16.716
288.35	15.704
288.72	16.388
289.08	15.616
289.45	16.006
289.82	15.937
290.19	16.691
290.56	16.885
290.93	15.252
291.29	15.608
291.66	15.678
292.03	15.849
292.40	16.260
292.77	11.838
293.13	14.123
293.50	14.170
293.87	15.176
294.24	14.126
294.60	13.997
294.97	14.126
295.34	15.936
295.71	14.717
296.08	14.533
296.44	15.756
296.81	14.268
297.18	14.322
297.55	16.256
297.91	13.177
298.28	14.130
298.65	13.006
299.02	13.993
299.38	14.748
299.75	14.024
300.12	14.220
300.48	16.393
300.85	13.707
301.22	13.721
301.59	12.264
301.95	11.902
302.32	13.038
302.69	12.783
303.05	14.141
303.42	12.892
303.79	15.168
304.15	13.311
304.52	12.262
304.89	13.006
305.25	13.682
305.62	14.499
305.99	12.609
306.35	11.789
306.72	12.799
307.09	13.043
307.45	11.721
307.82	13.066
308.19	12.371
308.55	11.500
308.92	12.954
309.29	13.905
309.65	11.992
310.02	12.170
310.38	11.665
310.75	12.729
311.12	11.877
311.48	13.610
311.85	14.218
312.22	13.181
312.58	12.148
312.95	13.689
313.31	12.453
313.68	12.383
314.05	14.011
314.41	12.197
314.78	11.364
315.14	13.081
315.51	13.245
315.87	12.318
316.24	12.885
316.61	11.817
316.97	11.651
317.34	12.309
317.70	12.379
318.07	12.900
318.43	12.742
318.80	13.222
319.16	13.112
319.53	12.389
319.89	11.649
320.26	13.501
320.62	13.095
320.99	12.393
321.35	11.967
321.72	12.808
322.08	14.035
322.45	12.716
322.81	11.802
323.18	13.588
323.54	13.763
323.91	12.783
324.27	12.555
324.64	11.159
325.00	12.845
325.37	12.732
325.73	12.226
326.10	13.339
326.46	12.634
326.83	11.520
327.19	12.771
327.56	12.700
327.92	12.213
328.29	13.748
328.65	13.955
329.01	13.687
329.38	13.367
329.74	12.468
330.11	12.685
330.47	13.470
330.84	12.166
331.20	12.014
331.56	13.731
331.93	13.088
332.29	11.820
332.66	12.925
333.02	12.543
333.38	12.914
333.75	12.177
334.11	13.171
334.48	12.051
334.84	12.416
335.20	12.233
335.57	11.923
335.93	12.952
336.29	12.189
336.66	13.122
337.02	12.746
337.38	12.554
337.75	12.416
338.11	11.561
338.47	12.701
338.84	12.447
339.20	10.736
339.56	12.868
339.93	12.709
340.29	11.008
340.65	12.992
341.02	12.711
341.38	11.987
341.74	12.542
342.11	11.436
342.47	11.403
342.83	12.223
343.20	11.964
343.56	11.041
343.92	11.643
344.28	11.882
344.65	12.551
345.01	11.270
345.37	10.737
345.73	10.952
346.10	11.394
346.46	11.404
346.82	10.648
347.19	12.442
347.55	11.085
347.91	11.329
348.27	10.689
348.63	11.946
349.00	11.805
349.36	12.218
349.72	11.621
350.08	11.646
350.45	11.424
350.81	11.927
351.17	11.094
351.53	11.162
351.89	11.033
352.26	10.280
352.62	10.860
352.98	10.429
353.34	11.479
353.70	10.015
354.07	11.000
354.43	10.753
354.79	11.010
355.15	11.026
355.51	10.498
355.87	11.145
356.24	10.778
356.60	10.731
356.96	10.008
357.32	12.208
357.68	11.527
358.04	11.246
358.40	11.469
358.77	11.796
359.13	10.586
359.49	11.119
359.85	10.722
360.21	10.624
360.57	11.679
360.93	10.390
361.29	10.967
361.66	11.111
362.02	10.227
362.38	10.462
362.74	10.403
363.10	10.168
363.46	10.635
363.82	11.571
364.18	11.024
364.54	10.587
364.90	10.776
365.26	10.687
365.62	10.497
365.98	10.392
366.35	10.552
366.71	11.659
367.07	11.058
367.43	10.678
367.79	10.173
368.15	9.973
368.51	11.234
368.87	9.986
369.23	10.187
369.59	10.789
369.95	10.420
370.31	9.514
370.67	10.548
371.03	10.714
371.39	10.596
371.75	11.165
372.11	10.809
372.47	10.822
372.83	9.993
373.19	11.241
373.55	10.722
373.91	9.738
374.27	10.251
374.63	9.898
374.99	10.849
375.35	10.887
375.71	10.488
376.07	10.212
376.42	10.038
376.78	10.019
377.14	10.485
377.50	9.988
377.86	9.609
378.22	10.299
378.58	10.533
378.94	10.682
379.30	9.460
379.66	10.295
380.02	10.264
380.38	9.543
380.74	11.361
381.09	10.047
381.45	11.040
381.81	9.752
382.17	9.951
382.53	9.718
382.89	9.758
383.25	9.947
383.61	9.798
383.97	10.138
384.32	10.368
384.68	11.111
385.04	9.320
385.40	10.380
385.76	9.713
386.12	9.895
386.48	9.362
386.83	9.841
387.19	10.188
387.55	10.542
387.91	10.450
388.27	9.756
388.62	10.622
388.98	9.796
389.34	9.697
389.70	10.083
390.06	9.756
390.42	10.426
390.77	10.135
391.13	9.656
391.49	10.224
391.85	10.523
392.20	9.774
392.56	10.992
392.92	9.826
393.28	10.146
393.64	8.658
393.99	9.129
394.35	9.535
394.71	10.434
395.07	9.489
395.42	10.070
395.78	10.364
396.14	10.843
396.50	9.507
396.85	10.061
397.21	9.326
397.57	9.863
397.92	9.474
398.28	9.266
398.64	9.831
399.00	9.941
399.35	9.018
399.71	9.272
400.07	9.760
400.42	9.552
400.78	9.971
401.14	9.395
401.49	9.850
401.85	10.429
402.21	8.905
402.57	10.353
402.92	9.758
403.28	9.666
403.63	9.770
403.99	10.072
404.35	10.844
404.70	10.219
405.06	8.647
405.42	9.575
405.77	9.537
406.13	9.273
406.49	9.267
406.84	9.024
407.20	9.703
407.55	9.415
407.91	10.338
408.27	9.763
408.62	9.344
408.98	9.817
409.34	9.059
409.69	9.272
410.05	9.779
410.40	8.598
410.76	9.330
411.11	9.242
411.47	9.877
411.83	9.666
412.18	9.420
412.54	9.369
412.89	9.027
413.25	10.547
413.60	10.047
413.96	9.695
414.31	9.268
414.67	10.118
415.03	9.451
415.38	10.599
415.74	8.907
416.09	9.557
416.45	9.696
416.80	10.006
417.16	9.675
417.51	9.682
417.87	9.700
418.22	10.146
418.58	9.236
418.93	9.161
419.29	8.441
419.64	9.328
420.00	10.561
420.35	8.885
420.71	9.510
421.06	8.770
421.42	9.384
421.77	9.439
422.12	9.868
422.48	9.348
422.83	9.542
423.19	9.017
423.54	10.093
423.90	10.249
424.25	9.081
424.61	10.157
424.96	9.091
425.31	9.195
425.67	9.315
426.02	9.086
426.38	8.868
426.73	9.080
427.09	9.964
427.44	8.666
427.79	8.805
428.15	9.193
428.50	10.114
428.85	10.053
429.21	9.887
429.56	9.571
429.92	8.702
430.27	9.095
430.62	8.860
430.98	9.132
431.33	9.073
431.68	8.099
432.04	8.743
432.39	9.715
432.74	9.309
433.10	9.690
433.45	9.305
433.80	9.983
434.16	9.774
434.51	9.030
434.86	9.526
435.22	9.076
435.57	9.544
435.92	9.505
436.28	10.253
436.63	9.130
436.98	9.797
437.34	10.103
437.69	9.071
438.04	9.086
438.39	9.749
438.75	9.410
439.10	9.876
439.45	8.932
439.81	9.774
440.16	10.017
440.51	9.459
440.86	9.972
441.22	9.253
441.57	9.711
441.92	9.279
442.27	9.278
442.63	9.400
442.98	9.375
443.33	9.802
443.68	8.753
444.03	9.566
444.39	8.804
444.74	9.161
445.09	9.900
445.44	9.830
445.79	9.698
446.15	9.263
446.50	9.546
446.85	8.765
447.20	8.607
447.55	9.570
447.91	10.123
448.26	9.585
448.61	9.508
448.96	10.131
449.31	9.791
449.66	10.299
450.02	9.238
450.37	9.828
450.72	9.532
451.07	10.122
451.42	9.899
451.77	10.080
452.12	9.870
452.47	9.478
452.83	10.366
453.18	10.390
453.53	9.769
453.88	10.343
454.23	10.808
454.58	10.198
454.93	10.178
455.28	10.220
455.63	9.811
455.98	10.998
456.34	10.395
456.69	10.427
457.04	10.263
457.39	10.000
457.74	10.304
458.09	8.928
458.44	10.131
458.79	10.133
459.14	9.384
459.49	10.249
459.84	9.728
460.19	9.831
460.54	10.712
460.89	9.968
461.24	9.908
461.59	9.977
461.94	10.225
462.29	10.469
462.64	10.616
462.99	10.493
463.34	10.564
463.69	10.950
464.04	10.190
464.39	10.418
464.74	10.317
465.09	9.692
465.44	9.739
465.79	10.071
466.14	9.645
466.49	10.147
466.84	9.588
467.19	10.662
467.54	9.790
467.89	10.270
468.24	9.380
468.59	10.060
468.94	10.628
469.29	10.812
469.64	10.740
469.99	9.961
470.34	11.259
470.68	10.483
471.03	10.807
471.38	10.993
471.73	10.843
472.08	11.220
472.43	10.801
472.78	10.819
473.13	9.762
473.48	10.941
473.83	10.601
474.17	10.274
474.52	10.841
474.87	10.006
475.22	10.109
475.57	9.916
475.92	9.351
476.27	10.011
476.61	9.705
476.96	10.920
477.31	10.283
477.66	10.413
478.01	10.469
478.36	10.968
478.70	9.727
479.05	9.257
479.40	10.169
479.75	10.129
480.10	9.874
480.45	9.851
480.79	9.816
481.14	9.986
481.49	9.744
481.84	10.070
482.19	9.782
482.53	9.574
482.88	10.170
483.23	9.833
483.58	9.829
483.92	10.329
484.27	9.418
484.62	10.059
484.97	9.544
485.31	9.034
485.66	8.803
486.01	8.147
486.36	8.016
486.70	7.792
487.05	8.102
487.40	8.500
487.75	8.947
488.09	8.523
488.44	9.433
488.79	8.851
489.13	9.556
489.48	10.108
489.83	9.216
490.17	10.239
490.52	10.078
490.87	10.259
491.22	9.663
491.56	10.101
491.91	9.991
492.26	10.468
492.60	10.706
492.95	10.014
493.30	10.828
493.64	10.063
493.99	10.107
494.34	9.951
494.68	10.137
495.03	9.969
495.37	10.401
495.72	9.977
496.07	10.153
496.41	10.382
496.76	10.004
497.11	10.154
497.45	10.083
497.80	10.241
498.14	10.587
498.49	10.074
498.84	10.935
499.18	9.781
499.53	11.024
499.87	9.973
500.22	10.226
500.56	9.935
500.91	10.853
501.26	10.703
501.60	9.563
501.95	9.812
502.29	10.533
502.64	10.057
502.98	10.494
503.33	10.022
503.67	10.596
504.02	10.703
504.36	10.271
504.71	10.454
505.06	10.418
505.40	10.576
505.75	10.150
506.09	10.919
506.44	10.573
506.78	10.681
507.13	11.003
507.47	11.063
507.82	10.608
508.16	11.612
508.51	10.773
508.85	11.254
509.19	10.817
509.54	10.547
509.88	11.188
510.23	10.735
510.57	10.618
510.92	10.789
511.26	10.492
511.61	10.931
511.95	11.100
512.30	11.100
512.64	10.592
512.98	10.866
513.33	10.963
513.67	10.616
514.02	11.065
514.36	10.228
514.70	10.987
515.05	11.348
515.39	11.678
515.74	11.810
516.08	11.765
516.42	11.202
516.77	11.627
517.11	11.307
517.46	11.800
517.80	10.705
518.14	11.606
518.49	11.521
518.83	11.374
519.17	11.425
519.52	11.742
519.86	11.989
520.20	12.219
520.55	11.023
520.89	12.529
521.23	11.974
521.58	11.761
521.92	11.895
522.26	11.848
522.61	12.359
522.95	12.072
523.29	11.696
523.64	11.676
523.98	12.500
524.32	11.938
524.66	11.884
525.01	11.893
525.35	11.373
525.69	11.860
526.04	12.552
526.38	11.595
526.72	12.232
527.06	11.709
527.41	12.334
527.75	12.295
528.09	11.499
528.43	12.691
528.78	11.986
529.12	12.342
529.46	11.864
529.80	12.150
530.15	12.021
530.49	12.094
530.83	11.761
531.17	12.239
531.51	12.692
531.86	12.258
532.20	12.237
532.54	11.676
532.88	12.242
533.22	12.310
533.57	11.836
533.91	12.121
534.25	11.425
534.59	12.222
534.93	11.775
535.27	11.269
535.62	11.727
535.96	12.175
536.30	11.883
536.64	11.304
536.98	11.580
537.32	13.562
537.66	11.990
538.01	12.941
538.35	12.539
538.69	11.650
539.03	11.629
539.37	11.711
539.71	12.654
540.05	11.323
540.39	11.887
540.73	12.152
541.07	11.167
541.42	11.692
541.76	12.515
542.10	12.577
542.44	11.721
542.78	11.454
543.12	11.656
543.46	11.967
543.80	12.030
544.14	11.703
544.48	12.226
544.82	12.722
545.16	11.597
545.50	11.739
545.84	13.636
546.18	13.199
546.52	12.459
546.86	12.637
547.20	11.499
547.54	12.476
547.88	12.470
548.22	11.840
548.56	13.141
548.90	11.269
549.24	11.939
549.58	11.856
549.92	12.312
550.26	12.170
550.60	11.976
550.94	12.415
551.28	13.862
551.62	12.552
551.96	12.095
552.30	11.140
552.64	12.233
552.98	12.307
553.32	11.844
553.66	11.596
554.00	11.583
554.34	12.983
554.68	13.105
555.02	12.152
555.36	12.301
555.69	12.435
556.03	12.166
556.37	12.110
556.71	12.451
557.05	12.254
557.39	11.733
557.73	12.938
558.07	12.542
558.41	12.200
558.75	12.859
559.08	13.224
559.42	12.813
559.76	11.618
560.10	11.906
560.44	13.404
560.78	12.148
561.12	12.142
561.45	11.890
561.79	12.422
562.13	11.750
562.47	12.265
562.81	11.971
563.15	11.829
563.48	11.925
563.82	12.227
564.16	12.251
564.50	11.091
564.84	11.793
565.17	11.765
565.51	11.884
565.85	12.030
566.19	11.429
566.52	11.432
566.86	12.376
567.20	11.404
567.54	11.900
567.88	11.789
568.21	11.283
568.55	11.235
568.89	11.086
569.23	10.871
569.56	10.623
569.90	9.845
570.24	9.949
570.57	10.188
570.91	9.610
571.25	9.342
571.59	9.504
571.92	8.907
572.26	8.841
572.60	9.442
572.93	9.229
573.27	9.391
573.61	8.879
573.95	9.213
574.28	9.428
574.62	8.873
574.96	8.590
575.29	8.988
575.63	8.693
575.97	8.836
576.30	8.555
576.64	8.927
576.98	8.869
577.31	9.026
577.65	8.559
577.98	8.640
578.32	8.560
578.66	8.709
578.99	8.538
579.33	8.976
579.67	8.908
580.00	8.507
580.34	8.650
580.67	8.814
581.01	8.734
581.35	8.627
581.68	8.065
582.02	8.336
582.35	8.399
582.69	8.462
583.02	8.418
583.36	8.690
583.70	8.762
584.03	8.799
584.37	8.960
584.70	8.858
585.04	8.946
585.37	8.341
585.71	8.742
586.04	8.524
586.38	8.858
586.72	8.932
587.05	9.213
587.39	8.799
587.72	8.953
588.06	9.138
588.39	8.598
588.73	9.235
589.06	9.308
589.40	9.139
589.73	9.603
590.07	9.643
590.40	10.035
590.73	10.320
591.07	10.626
591.40	9.621
591.74	10.308
592.07	9.817
592.41	9.752
592.74	9.594
593.08	8.887
593.41	9.066
593.75	8.990
594.08	9.455
594.41	9.514
594.75	9.418
595.08	9.602
595.42	9.908
595.75	9.345
596.09	10.010
596.42	9.905
596.75	9.816
597.09	10.442
597.42	10.082
597.75	9.736
598.09	9.889
598.42	10.404
598.76	9.676
599.09	9.673
599.42	9.654
599.76	9.668
600.09	8.814
600.42	9.289
600.76	9.347
601.09	9.424
601.42	9.504
601.76	9.739
602.09	9.676
602.42	10.092
602.76	9.602
603.09	9.917
603.42	9.651
603.76	9.978
604.09	9.519
604.42	9.115
604.76	9.640
605.09	9.959
605.42	10.037
605.75	9.949
606.09	10.176
606.42	9.921
606.75	9.561
607.09	10.067
607.42	10.366
607.75	9.992
608.08	9.829
608.42	10.193
608.75	9.542
609.08	10.031
609.41	10.409
609.75	10.440
610.08	10.072
610.41	10.540
610.74	10.823
611.07	10.687
611.41	10.426
611.74	10.373
612.07	9.827
612.40	10.770
612.73	10.185
613.07	10.897
613.40	11.278
613.73	10.484
614.06	10.500
614.39	10.909
614.72	11.200
615.06	10.089
615.39	11.040
615.72	10.310
616.05	10.648
616.38	10.654
616.71	11.177
617.05	10.599
617.38	11.404
617.71	11.024
618.04	10.656
618.37	11.117
618.70	10.508
619.03	11.050
619.36	11.872
619.69	11.544
620.03	12.916
620.36	11.047
620.69	11.941
621.02	11.617
621.35	11.676
621.68	12.832
622.01	12.915
622.34	11.945
622.67	11.938
623.00	12.185
623.33	12.416
623.66	12.109
623.99	11.712
624.32	11.924
624.65	11.784
624.99	11.562
625.32	11.957
625.65	11.517
625.98	11.715
626.31	12.463
626.64	12.377
626.97	12.624
627.30	12.422
627.63	13.108
627.96	12.833
628.29	12.376
628.62	13.430
628.95	13.830
629.28	13.935
629.61	12.917
629.94	12.446
630.26	12.912
630.59	14.184
630.92	14.170
631.25	14.234
631.58	14.947
631.91	13.892
632.24	14.577
632.57	11.591
632.90	14.182
633.23	13.641
633.56	15.068
633.89	15.220
634.22	15.501
634.55	14.516
634.88	14.677
635.20	14.910
635.53	16.725
635.86	15.324
636.19	15.825
636.52	14.378
636.85	14.024
637.18	16.360
637.51	13.520
637.83	15.217
638.16	16.178
638.49	16.048
638.82	15.962
639.15	15.041
639.48	15.995
639.81	14.896
640.13	15.951
640.46	16.941
640.79	15.995
641.12	15.092
641.45	16.559
641.77	17.173
642.10	17.001
642.43	15.932
642.76	15.625
643.09	15.994
643.41	15.708
643.74	15.396
644.07	17.847
644.40	15.237
644.73	16.817
645.05	17.979
645.38	17.152
645.71	17.147
646.04	16.947
646.36	18.623
646.69	16.640
647.02	18.400
647.35	17.165
647.67	16.207
648.00	17.101
648.33	17.594
648.66	16.212
648.98	15.507
649.31	14.440
649.64	14.938
649.96	16.216
650.29	15.857
650.62	17.084
650.94	16.265
651.27	19.139
651.60	17.058
651.92	18.126
652.25	16.850
652.58	17.447
652.90	16.168
653.23	15.066
653.56	16.766
653.88	14.684
654.21	16.862
654.54	15.520
654.86	17.109
655.19	15.567
655.52	12.606
655.84	7.282
656.17	7.774
656.49	10.964
656.82	12.476
657.15	10.028
657.47	7.745
657.80	5.738
658.13	4.665
658.45	6.626
658.78	8.413
659.10	8.539
659.43	8.836
659.75	9.947
660.08	10.902
660.41	12.250
660.73	15.433
661.06	15.916
661.38	18.569
661.71	17.986
662.03	17.871
662.36	20.000
662.68	19.553
663.01	18.198
663.33	16.226
663.66	17.751
663.98	19.048
664.31	20.149
664.63	20.881
664.96	21.013
665.28	16.949
665.61	18.113
665.93	18.868
666.26	19.626
666.58	18.716
666.91	16.988
667.23	17.269
667.56	20.123
667.88	20.539
668.21	18.648
668.53	18.750
668.86	22.044
669.18	19.552
669.50	17.355
669.83	18.480
670.15	19.335
670.48	17.383
670.80	18.127
671.13	17.131
671.45	19.439
671.77	17.069
672.10	18.312
672.42	18.421
672.75	15.348
673.07	16.693
673.39	15.655
673.72	16.263
674.04	17.742
674.37	18.512
674.69	18.773
675.01	18.470
675.34	16.279
675.66	18.164
675.98	18.540
676.31	19.200
676.63	15.308
676.95	18.056
677.28	19.270
677.60	18.109
677.92	17.262
678.25	17.442
678.57	16.201
678.89	18.626
679.22	17.831
679.54	16.904
679.86	15.707
680.18	17.399
680.51	14.096
680.83	16.385
681.15	17.504
681.48	18.229
681.80	16.813
682.12	16.782
682.44	16.036
682.77	18.861
683.09	19.223
683.41	20.408
683.73	19.488
684.06	17.262
684.38	18.992
684.70	17.446
685.02	17.014
685.34	16.725
685.67	16.077
685.99	15.764
686.31	15.100
686.63	13.821
686.96	18.627
687.28	17.785
687.60	14.505
687.92	17.923
688.24	19.483
688.56	16.548
688.89	15.679
689.21	18.690
689.53	17.984
689.85	16.667
690.17	18.252
690.49	17.944
690.82	19.748
691.14	18.384
691.46	16.838
691.78	17.739
692.10	16.794
692.42	15.789
692.74	18.023
693.06	19.961
693.39	16.601
693.71	16.699
694.03	18.540
694.35	19.277
694.67	18.534
694.99	17.960
695.31	20.045
695.63	17.421
695.95	18.778
696.27	21.018
696.59	17.900
696.91	16.962
697.23	19.910
697.56	16.598
697.88	14.571
698.20	18.491
698.52	15.564
698.84	17.659
699.16	20.256
699.48	18.644
699.80	22.658
700.12	19.861
700.44	20.327
700.76	20.048
701.08	22.977
701.40	19.221
701.72	25.134
702.04	22.493
702.36	21.505
702.68	23.404
703.00	17.544
703.32	18.610
703.64	17.632
703.96	20.052
704.28	18.254
704.60	17.746
704.91	20.168
705.23	20.455
705.55	22.849
705.87	21.905
706.19	25.392
706.51	21.003
706.83	23.599
707.15	23.262
707.47	20.097
707.79	19.540
708.11	18.367
708.43	17.978
708.74	15.837
709.06	20.000
709.38	19.603
709.70	17.984
710.02	17.663
710.34	22.928
710.66	20.833
710.98	18.852
711.29	21.170
711.61	22.284
711.93	20.669
712.25	22.892
712.57	22.186
712.89	20.909
713.20	24.601
713.52	20.872
713.84	25.982
714.16	16.522
714.48	17.867
714.80	19.512
715.11	17.287
715.43	17.598
715.75	16.338
716.07	18.786
716.39	18.571
716.70	20.249
717.02	25.253
717.34	25.180
717.66	27.083
717.97	25.379
718.29	22.887
718.61	19.257
718.93	21.107
719.24	26.174
719.56	21.379
719.88	18.153
720.20	19.032
720.51	20.261
720.83	21.070
721.15	20.408
721.46	26.370
721.78	22.997
722.10	22.222
722.42	29.097
722.73	22.022
723.05	26.316
723.37	28.269
723.68	25.391
724.00	27.652
724.32	23.574
724.63	23.846
724.95	23.137
725.27	21.190
725.58	20.588
725.90	25.352
726.22	20.548
726.53	18.395
726.85	22.801
727.16	19.463
727.48	21.595
727.80	20.144
728.11	27.143
728.43	21.377
728.74	21.329
729.06	20.789
729.38	25.965
729.69	22.667
730.01	25.000
730.32	21.477
730.64	25.914
730.96	21.021
731.27	16.514
731.59	18.966
731.90	15.877
732.22	20.286
732.53	18.803
732.85	21.930
733.16	18.976
733.48	18.809
733.80	20.580
734.11	20.552
734.43	19.883
734.74	19.035
735.06	18.783
735.37	16.495
735.69	20.000
736.00	20.183
736.32	16.667
736.63	16.404
736.95	19.876
737.26	17.988
737.58	16.871
737.89	20.482
738.21	21.854
738.52	25.418
738.83	19.414
739.15	22.648
739.46	24.828
739.78	20.408
740.09	21.574
740.41	17.791
740.72	23.492
741.04	24.825
741.35	23.828
741.66	20.949
741.98	22.318
742.29	25.463
742.61	23.451
742.92	20.763
743.23	23.200
743.55	23.396
743.86	27.843
744.18	23.729
744.49	26.033
744.80	25.806
745.12	21.875
745.43	25.701
745.74	27.111
746.06	25.877
746.37	28.837
746.68	25.221
747.00	22.870
747.31	28.571
747.62	23.770
747.94	27.897
748.25	21.790
748.56	26.695
748.88	27.679
749.19	24.186
749.50	23.744
749.82	24.280
750.13	20.949
750.44	19.000
750.75	22.819
751.07	19.737
751.38	17.162
751.69	18.855
752.01	22.727
752.32	19.601
752.63	23.490
752.94	21.329
753.26	25.781
753.57	26.070
753.88	21.723
754.19	23.105
754.51	21.595
754.82	19.463
755.13	21.959
755.44	22.963
755.75	24.742
756.07	22.603
756.38	21.242
756.69	17.500
757.00	23.739
757.31	22.535
757.63	16.253
757.94	18.883
758.25	17.874
758.56	16.247
758.87	17.794
759.18	21.512
759.50	22.796
759.81	23.442
760.12	18.539
760.43	18.487
760.74	17.975
761.05	18.833
761.36	13.802
761.67	19.137
761.99	23.099
762.30	18.650
762.61	20.139
762.92	20.833
763.23	25.283
763.54	24.231
763.85	19.455
764.16	23.264
764.47	23.311
764.78	17.264
765.10	21.037
765.41	16.477
765.72	17.680
766.03	19.940
766.34	19.512
766.65	20.532
766.96	27.935
767.27	27.103
767.58	20.792
767.89	28.729
768.20	33.537
768.51	28.061
768.82	21.053
769.13	26.275
769.44	21.805
769.75	23.221
770.06	23.109
770.37	20.614
770.68	22.222
770.99	26.695
771.30	23.013
771.61	25.769
771.92	22.901
772.23	22.581
772.54	24.889
772.85	28.713
773.16	34.239
773.47	28.333
773.78	25.248
774.09	30.114
774.39	31.515
774.70	27.059
775.01	31.579
775.32	29.814
775.63	30.822
775.94	38.889
776.25	37.241
776.56	38.931
776.87	36.641
777.18	30.303
777.48	39.370
777.79	31.538
778.10	32.576
778.41	47.761
778.72	33.083
779.03	27.564
779.34	37.162
779.65	35.404
779.95	31.677
780.26	28.571
780.57	38.095
780.88	39.007
781.19	42.500
781.50	31.953
781.80	33.880
782.11	29.630
782.42	29.885
782.73	33.898
783.04	30.968
783.34	26.357
783.65	25.170
783.96	32.903
784.27	33.775
784.57	21.053
784.88	26.812
785.19	37.500
785.50	37.069
785.81	38.760
786.11	33.333
786.42	39.370
786.73	38.739
787.04	33.019
787.34	32.520
787.65	43.182
787.96	38.636
788.26	42.520
788.57	37.226
788.88	33.803
789.19	31.298
789.49	43.919
789.80	37.500
790.11	40.496
790.41	35.185
790.72	31.481
791.03	53.846
791.33	39.394
791.64	38.947
791.95	49.474
792.25	47.917
792.56	44.000
792.87	45.122
793.17	38.636
793.48	43.529
793.79	47.126
794.09	47.727
794.40	44.828
794.70	43.651
795.01	26.923
795.32	30.534
795.62	33.333
795.93	36.134
796.23	39.024
796.54	52.041
796.85	53.409
797.15	59.740
797.46	48.780
797.76	33.750
798.07	50.667
798.37	53.750
798.68	57.500
798.99	63.415
799.29	61.333
799.60	41.860
799.90	46.053
800.21	54.545
800.51	39.437
800.82	63.793
801.12	60.000
801.43	72.000
801.73	55.172
802.04	59.740
802.34	57.534
802.65	80.392
802.95	60.870
803.26	70.968
803.56	88.333
803.87	52.239
804.17	76.190
804.48	52.830
804.78	51.389
805.09	69.697
805.39	61.905
805.70	82.456
806.00	60.000
806.30	56.250
806.61	64.706
806.91	52.222
807.22	42.391
807.52	57.895
807.83	59.211
808.13	68.116
808.43	75.806
808.74	63.014
809.04	57.143
809.35	57.353
809.65	68.182
809.95	74.510
810.26	96.296
810.56	93.750
810.86	73.469
811.17	73.684
811.47	84.783
811.77	62.069
812.08	62.069
812.38	64.286
812.69	111.905
812.99	102.222
813.29	105.714
813.59	122.581
813.90	75.862
814.20	65.574
814.50	60.000
814.81	73.684
815.11	103.704
815.41	76.786
815.72	85.714
816.02	72.000
816.32	100.000
816.62	87.931
816.93	115.152
817.23	95.122
817.53	91.071
817.84	100.000
818.14	71.429
818.44	72.917
818.74	86.792
819.04	87.179
819.35	90.909
819.65	90.385
819.95	118.519
820.25	100.000
820.56	91.892
820.86	118.421
821.16	65.957
821.46	110.526
821.76	81.818
822.07	80.952
822.37	92.105
822.67	97.674
822.97	84.211
823.27	95.652
823.57	112.500
823.88	107.692
824.18	96.970
824.48	139.130
824.78	119.444
825.08	165.217
825.38	93.103
825.69	120.588
825.99	89.362
826.29	100.000
826.59	100.000
826.89	110.000
827.19	88.571
827.49	135.484
827.79	130.769
828.09	92.857
828.39	75.000
828.70	86.486
829.00	142.857
829.30	218.750
829.60	105.556
829.90	125.806
830.20	93.939
830.50	137.838
830.80	158.333
831.10	176.923
831.40	176.190
831.70	187.500
832.00	103.333
832.30	165.217
832.60	162.500
832.90	124.242
833.20	165.000
833.50	113.158
833.80	94.118
834.10	97.368
834.40	147.368
834.70	76.667
835.00	188.000
835.30	97.297
835.60	146.875
835.90	91.892
836.20	126.923
836.50	136.364
836.80	92.683
837.10	169.565
837.40	307.692
837.70	126.316
838.00	140.000
838.30	150.000
838.60	124.000
838.90	390.000
839.19	218.750
839.49	146.667
839.79	141.379
840.09	146.154
840.39	233.333
840.69	194.737
840.99	142.857
841.29	156.522
841.59	205.000
841.88	176.000
842.18	311.111
842.48	150.000
842.78	188.889
843.08	246.154
843.38	195.455
843.68	314.286
843.97	528.571
844.27	147.826
844.57	1250.000
844.87	178.571
845.17	205.556
845.47	157.143
845.76	179.167
846.06	457.143
846.36	158.824
846.66	323.077
846.96	237.500
847.25	200.000
847.55	147.368
847.85	227.778
848.15	680.000
848.44	254.545
848.74	147.619
849.04	175.000
849.34	223.529
849.63	212.500
849.93	281.250
850.23	966.667
850.53	425.000
850.82	309.091
851.12	194.118
851.42	175.000
851.71	306.250
852.01	0.000
852.31	229.412
852.61	420.000
852.90	183.333
853.20	344.444
853.50	-2200.000
853.79	144.000
854.09	137.500
854.39	89.655
854.68	120.690
854.98	190.476
855.28	125.806
855.57	257.143
855.87	166.667
856.17	137.037
856.46	210.526
856.76	109.677
857.05	211.765
857.35	245.455
857.65	300.000
857.94	170.000
858.24	477.778
858.53	278.571
858.83	400.000
859.13	186.957
859.42	333.333
859.72	425.000
860.01	300.000
860.31	900.000
860.60	390.000
860.90	462.500
861.20	230.769
861.49	328.571
861.79	-3300.000
862.08	614.286
862.38	388.889
862.67	164.286
862.97	350.000
863.26	133.333
863.56	850.000
863.85	292.308
864.15	217.647
864.44	144.444
864.74	333.333
865.03	290.909
865.33	362.500
865.62	226.667
865.92	516.667
866.21	850.000
866.51	540.000
866.80	238.889
867.10	866.667
867.39	3200.000
867.69	540.000
867.98	825.000
868.27	214.286
868.57	280.000
868.86	1000.000
869.16	185.714
869.45	3600.000
869.75	-416.667
870.04	900.000
870.33	700.000
870.63	487.500
870.92	235.294
871.22	900.000
871.51	414.286
871.80	325.000
872.10	292.308
>>>>>End Processed Spectral Data<<<<<
