SpectraSuite Data File
++++++++++++++++++++++++++++++++++++
Date: Tue May 12 16:03:08 PDT 2015
User: schluterlab
Dark Spectrum Present: Yes
Reference Spectrum Present: Yes
Number of Sampled Component Spectra: 1
Spectrometers: USB2E3373
Integration Time (usec): 3000 (USB2E3373)
Spectra Averaged: 3 (USB2E3373)
Boxcar Smoothing: 0 (USB2E3373)
Correct for Electrical Dark: No (USB2E3373)
Strobe/Lamp Enabled: No (USB2E3373)
Correct for Detector Non-linearity: No (USB2E3373)
Correct for Stray Light: No (USB2E3373)
Number of Pixels in Processed Spectrum: 2048
>>>>>Begin Processed Spectral Data<<<<<
178.53	0.000
178.91	-233.333
179.29	-500.000
179.67	-3900.000
180.04	-106.667
180.42	700.000
180.80	1850.000
181.18	0.000
181.56	-262.500
181.94	0.000
182.31	1100.000
182.69	-3500.000
183.07	771.429
183.45	-3900.000
183.83	-1300.000
184.20	410.000
184.58	442.857
184.96	-284.615
185.34	-208.333
185.72	1650.000
186.09	-700.000
186.47	-3300.000
186.85	733.333
187.23	540.000
187.61	1650.000
187.98	462.500
188.36	250.000
188.74	283.333
189.12	350.000
189.49	950.000
189.87	0.000
190.25	512.500
190.63	1800.000
191.00	-175.000
191.38	-4200.000
191.76	-875.000
192.14	662.500
192.51	-2700.000
192.89	1800.000
193.27	1133.333
193.65	-1000.000
194.02	-740.000
194.40	571.429
194.78	-135.714
195.15	266.667
195.53	-3700.000
195.91	-680.000
196.29	4000.000
196.66	306.250
197.04	750.000
197.42	-1650.000
197.79	725.000
198.17	325.000
198.55	0.000
198.92	557.143
199.30	1100.000
199.68	2100.000
200.05	733.333
200.43	-483.333
200.81	200.000
201.18	2900.000
201.56	266.667
201.94	-975.000
202.31	-287.500
202.69	-480.000
203.07	3800.000
203.44	-516.667
203.82	350.000
204.19	560.000
204.57	-1250.000
204.95	-700.000
205.32	-720.000
205.70	466.667
206.08	850.000
206.45	-833.333
206.83	400.000
207.20	200.000
207.58	250.000
207.96	620.000
208.33	0.000
208.71	557.143
209.08	880.000
209.46	-3800.000
209.84	-925.000
210.21	820.000
210.59	-620.000
210.96	341.667
211.34	-850.000
211.71	400.000
212.09	1025.000
212.46	1600.000
212.84	-500.000
213.22	466.667
213.59	-3400.000
213.97	250.000
214.34	850.000
214.72	1366.667
215.09	1066.667
215.47	-3100.000
215.84	-310.000
216.22	-312.500
216.59	0.000
216.97	0.000
217.34	1300.000
217.72	-1550.000
218.09	1266.667
218.47	462.500
218.84	725.000
219.22	1100.000
219.59	1033.333
219.97	614.286
220.34	400.000
220.72	2000.000
221.09	3800.000
221.47	233.333
221.84	1666.667
222.22	360.000
222.59	266.667
222.97	214.286
223.34	250.000
223.72	-2300.000
224.09	1433.333
224.46	215.385
224.84	-1000.000
225.21	433.333
225.59	300.000
225.96	1300.000
226.34	-640.000
226.71	-850.000
227.08	-580.000
227.46	0.000
227.83	-583.333
228.21	-1250.000
228.58	383.333
228.95	1050.000
229.33	411.111
229.70	1025.000
230.08	400.000
230.45	3800.000
230.82	-1100.000
231.20	-933.333
231.57	-1033.333
231.95	540.000
232.32	266.667
232.69	516.667
233.07	233.333
233.44	-1900.000
233.81	260.000
234.19	144.444
234.56	243.750
234.93	217.647
235.31	185.000
235.68	237.500
236.05	139.286
236.43	122.222
236.80	257.143
237.17	141.379
237.55	121.875
237.92	100.000
238.29	133.333
238.67	100.000
239.04	95.122
239.41	75.000
239.79	95.000
240.16	95.833
240.53	75.410
240.91	72.464
241.28	79.661
241.65	51.515
242.02	76.056
242.40	61.429
242.77	52.747
243.14	49.367
243.51	60.606
243.89	46.729
244.26	42.056
244.63	45.545
245.00	47.706
245.38	29.661
245.75	38.636
246.12	39.259
246.49	33.333
246.87	29.508
247.24	40.667
247.61	38.125
247.98	32.653
248.36	32.727
248.73	33.673
249.10	32.738
249.47	30.500
249.84	31.343
250.22	26.486
250.59	34.500
250.96	29.958
251.33	28.837
251.70	30.804
252.08	28.992
252.45	30.279
252.82	25.856
253.19	24.506
253.56	23.077
253.94	26.812
254.31	24.419
254.68	28.571
255.05	24.138
255.42	28.832
255.79	25.081
256.16	23.729
256.54	25.649
256.91	24.837
257.28	25.084
257.65	19.122
258.02	20.944
258.39	24.069
258.76	24.638
259.14	21.429
259.51	23.907
259.88	21.277
260.25	19.505
260.62	26.575
260.99	19.835
261.36	22.284
261.73	22.074
262.10	24.084
262.47	20.750
262.85	20.800
263.22	21.851
263.59	25.320
263.96	23.308
264.33	19.506
264.70	20.393
265.07	21.951
265.44	22.706
265.81	21.934
266.18	21.968
266.55	19.858
266.92	20.805
267.29	21.053
267.66	18.834
268.03	19.283
268.40	19.662
268.77	20.044
269.14	19.306
269.51	19.822
269.88	20.000
270.25	16.631
270.62	23.176
270.99	22.718
271.36	20.935
271.73	17.610
272.10	19.394
272.47	19.444
272.84	16.966
273.21	17.975
273.58	21.255
273.95	19.507
274.32	19.844
274.69	18.898
275.06	18.579
275.43	19.923
275.80	19.245
276.17	19.301
276.54	18.879
276.91	19.030
277.28	19.343
277.65	19.557
278.02	19.669
278.39	17.986
278.76	18.793
279.13	16.548
279.50	18.727
279.87	18.622
280.23	17.680
280.60	19.526
280.97	18.448
281.34	18.977
281.71	19.478
282.08	19.487
282.45	17.905
282.82	18.395
283.19	19.078
283.56	17.851
283.92	17.101
284.29	18.968
284.66	16.807
285.03	18.076
285.40	18.347
285.77	14.198
286.14	16.873
286.51	17.791
286.87	15.506
287.24	17.267
287.61	17.173
287.98	19.701
288.35	16.444
288.72	14.264
289.08	17.718
289.45	16.768
289.82	16.719
290.19	16.545
290.56	17.758
290.93	15.683
291.29	15.746
291.66	15.395
292.03	15.989
292.40	15.583
292.77	16.295
293.13	16.405
293.50	15.115
293.87	16.396
294.24	15.664
294.60	16.016
294.97	16.503
295.34	14.608
295.71	16.294
296.08	16.267
296.44	16.010
296.81	16.005
297.18	13.815
297.55	15.148
297.91	14.039
298.28	15.097
298.65	14.724
299.02	13.872
299.38	14.628
299.75	13.659
300.12	14.794
300.48	15.691
300.85	15.137
301.22	14.767
301.59	14.151
301.95	14.352
302.32	13.620
302.69	14.027
303.05	14.703
303.42	13.229
303.79	15.060
304.15	12.981
304.52	12.262
304.89	13.113
305.25	12.347
305.62	14.392
305.99	13.478
306.35	12.421
306.72	13.111
307.09	12.319
307.45	13.094
307.82	12.551
308.19	14.536
308.55	11.700
308.92	13.346
309.29	13.708
309.65	13.280
310.02	12.576
310.38	13.061
310.75	12.247
311.12	12.931
311.48	14.093
311.85	13.168
312.22	13.754
312.58	13.314
312.95	12.330
313.31	14.139
313.68	12.383
314.05	14.652
314.41	12.011
314.78	13.826
315.14	13.081
315.51	14.286
315.87	13.139
316.24	14.286
316.61	13.160
316.97	13.119
317.34	12.848
317.70	13.960
318.07	15.125
318.43	14.763
318.80	14.098
319.16	14.773
319.53	13.805
319.89	14.068
320.26	15.270
320.62	15.385
320.99	14.776
321.35	15.306
321.72	16.603
322.08	15.789
322.45	15.441
322.81	15.371
323.18	16.341
323.54	17.334
323.91	17.316
324.27	17.153
324.64	16.003
325.00	17.931
325.37	17.032
325.73	17.285
326.10	19.718
326.46	18.580
326.83	18.160
327.19	19.920
327.56	19.808
327.92	20.164
328.29	21.931
328.65	20.976
329.01	20.530
329.38	20.135
329.74	21.264
330.11	22.068
330.47	21.398
330.84	21.311
331.20	22.420
331.56	22.453
331.93	23.011
332.29	22.449
332.66	23.299
333.02	23.368
333.38	23.909
333.75	24.437
334.11	22.483
334.48	23.761
334.84	23.142
335.20	24.722
335.57	23.342
335.93	23.633
336.29	23.715
336.66	24.528
337.02	23.353
337.38	22.958
337.75	23.226
338.11	24.979
338.47	23.624
338.84	22.947
339.20	23.290
339.56	24.979
339.93	24.331
340.29	23.782
340.65	24.979
341.02	25.261
341.38	25.369
341.74	23.754
342.11	24.207
342.47	23.954
342.83	25.677
343.20	24.737
343.56	24.067
343.92	24.195
344.28	24.003
344.65	23.390
345.01	23.730
345.37	23.958
345.73	24.841
346.10	24.143
346.46	25.120
346.82	23.765
347.19	23.879
347.55	24.434
347.91	23.414
348.27	23.625
348.63	24.367
349.00	24.676
349.36	23.891
349.72	25.076
350.08	23.758
350.45	24.676
350.81	24.159
351.17	23.421
351.53	23.095
351.89	23.932
352.26	23.356
352.62	24.208
352.98	24.463
353.34	25.347
353.70	24.847
354.07	24.308
354.43	24.885
354.79	23.614
355.15	25.115
355.51	24.018
355.87	24.096
356.24	24.557
356.60	23.896
356.96	24.716
357.32	24.642
357.68	26.138
358.04	23.936
358.40	25.562
358.77	24.869
359.13	25.000
359.49	24.537
359.85	24.870
360.21	23.477
360.57	24.818
360.93	24.820
361.29	24.242
361.66	25.652
362.02	23.651
362.38	23.593
362.74	24.912
363.10	24.965
363.46	24.724
363.82	24.053
364.18	24.964
364.54	24.535
364.90	25.100
365.26	25.191
365.62	24.793
365.98	23.606
366.35	25.034
366.71	23.942
367.07	24.983
367.43	24.782
367.79	24.269
368.15	24.355
368.51	25.086
368.87	24.796
369.23	24.532
369.59	24.208
369.95	25.874
370.31	24.641
370.67	24.358
371.03	25.490
371.39	24.931
371.75	24.983
372.11	25.765
372.47	26.096
372.83	25.017
373.19	24.812
373.55	25.086
373.91	24.102
374.27	25.860
374.63	24.136
374.99	24.865
375.35	24.731
375.71	24.604
376.07	25.663
376.42	23.721
376.78	25.434
377.14	24.967
377.50	24.532
377.86	24.279
378.22	25.046
378.58	25.726
378.94	25.528
379.30	25.652
379.66	25.166
380.02	26.158
380.38	23.653
380.74	25.894
381.09	25.409
381.45	24.335
381.81	24.586
382.17	24.481
382.53	24.895
382.89	25.370
383.25	23.623
383.61	24.496
383.97	25.195
384.32	25.497
384.68	25.847
385.04	24.971
385.40	25.148
385.76	25.044
386.12	24.923
386.48	24.742
386.83	25.428
387.19	25.147
387.55	24.794
387.91	25.173
388.27	24.450
388.62	25.880
388.98	24.723
389.34	24.212
389.70	24.057
390.06	24.878
390.42	25.416
390.77	25.307
391.13	25.106
391.49	24.864
391.85	25.477
392.20	24.255
392.56	26.225
392.92	24.368
393.28	24.944
393.64	25.057
393.99	24.896
394.35	24.073
394.71	23.643
395.07	25.547
395.42	24.473
395.78	24.059
396.14	25.422
396.50	23.887
396.85	25.183
397.21	24.549
397.57	24.088
397.92	23.975
398.28	24.269
398.64	24.607
399.00	23.677
399.35	23.349
399.71	23.675
400.07	24.372
400.42	24.657
400.78	23.695
401.14	23.547
401.49	23.329
401.85	24.334
402.21	23.140
402.57	23.998
402.92	23.818
403.28	23.389
403.63	23.779
403.99	24.246
404.35	24.150
404.70	23.863
405.06	23.077
405.42	23.279
405.77	23.043
406.13	22.777
406.49	22.854
406.84	23.012
407.20	23.573
407.55	23.508
407.91	24.442
408.27	23.044
408.62	23.596
408.98	23.241
409.34	23.027
409.69	22.589
410.05	22.242
410.40	23.027
410.76	22.725
411.11	23.460
411.47	23.272
411.83	22.378
412.18	22.886
412.54	23.183
412.89	21.829
413.25	22.919
413.60	23.131
413.96	22.142
414.31	23.200
414.67	23.464
415.03	22.542
415.38	23.596
415.74	22.994
416.09	23.111
416.45	23.594
416.80	24.310
417.16	22.979
417.51	22.548
417.87	22.653
418.22	22.236
418.58	23.439
418.93	22.844
419.29	22.797
419.64	23.743
420.00	23.747
420.35	23.171
420.71	23.512
421.06	23.602
421.42	23.316
421.77	23.765
422.12	22.712
422.48	22.702
422.83	23.772
423.19	22.408
423.54	22.655
423.90	23.556
424.25	23.500
424.61	23.447
424.96	22.756
425.31	23.755
425.67	23.401
426.02	23.780
426.38	22.754
426.73	22.961
427.09	23.488
427.44	23.467
427.79	23.328
428.15	24.337
428.50	24.114
428.85	24.868
429.21	23.231
429.56	23.330
429.92	23.272
430.27	23.754
430.62	23.446
430.98	23.902
431.33	23.034
431.68	22.617
432.04	23.797
432.39	25.357
432.74	24.766
433.10	24.197
433.45	24.698
433.80	24.986
434.16	24.172
434.51	24.303
434.86	24.986
435.22	24.365
435.57	24.303
435.92	24.929
436.28	24.770
436.63	24.905
436.98	24.550
437.34	25.285
437.69	24.524
438.04	24.516
438.39	25.452
438.75	25.501
439.10	24.609
439.45	24.138
439.81	24.870
440.16	25.041
440.51	25.225
440.86	24.729
441.22	24.838
441.57	25.249
441.92	24.432
442.27	24.278
442.63	25.102
442.98	25.000
443.33	25.335
443.68	25.050
444.03	24.929
444.39	25.094
444.74	24.845
445.09	25.171
445.44	25.080
445.79	25.244
446.15	25.474
446.50	25.000
446.85	25.946
447.20	24.627
447.55	25.068
447.91	25.360
448.26	25.293
448.61	24.986
448.96	25.218
449.31	25.578
449.66	25.914
450.02	24.959
450.37	25.819
450.72	26.116
451.07	26.062
451.42	24.956
451.77	26.174
452.12	25.922
452.47	25.091
452.83	26.085
453.18	26.486
453.53	25.992
453.88	26.343
454.23	26.148
454.58	25.991
454.93	25.383
455.28	25.398
455.63	25.414
455.98	25.268
456.34	26.140
456.69	25.610
457.04	26.253
457.39	25.314
457.74	26.351
458.09	25.042
458.44	25.192
458.79	25.517
459.14	25.423
459.49	24.802
459.84	25.924
460.19	25.537
460.54	25.641
460.89	25.640
461.24	25.544
461.59	26.020
461.94	25.473
462.29	25.801
462.64	26.068
462.99	26.424
463.34	26.442
463.69	25.650
464.04	25.043
464.39	25.701
464.74	24.560
465.09	24.666
465.44	24.864
465.79	24.823
466.14	25.225
466.49	25.556
466.84	25.307
467.19	26.128
467.54	25.586
467.89	24.765
468.24	26.173
468.59	25.476
468.94	26.027
469.29	26.756
469.64	25.852
469.99	26.735
470.34	25.933
470.68	25.724
471.03	26.618
471.38	25.828
471.73	26.715
472.08	26.484
472.43	26.443
472.78	25.288
473.13	25.720
473.48	25.733
473.83	26.384
474.17	25.228
474.52	25.355
474.87	25.071
475.22	24.729
475.57	26.180
475.92	24.885
476.27	24.973
476.61	24.879
476.96	25.131
477.31	25.553
477.66	25.497
478.01	25.838
478.36	26.056
478.70	24.665
479.05	25.105
479.40	24.256
479.75	25.372
480.10	25.605
480.45	24.510
480.79	25.207
481.14	24.536
481.49	24.611
481.84	25.286
482.19	25.284
482.53	25.033
482.88	24.686
483.23	24.267
483.58	24.910
483.92	25.229
484.27	24.615
484.62	25.637
484.97	24.270
485.31	23.648
485.66	23.748
486.01	23.158
486.36	22.899
486.70	22.440
487.05	22.822
487.40	23.124
487.75	23.626
488.09	24.062
488.44	24.092
488.79	24.644
489.13	24.001
489.48	24.650
489.83	24.312
490.17	24.401
490.52	25.065
490.87	24.698
491.22	25.665
491.56	25.033
491.91	24.866
492.26	25.122
492.60	24.829
492.95	24.694
493.30	24.704
493.64	25.022
493.99	24.240
494.34	25.056
494.68	24.391
495.03	25.685
495.37	25.439
495.72	25.408
496.07	24.528
496.41	24.805
496.76	24.567
497.11	24.850
497.45	24.682
497.80	25.255
498.14	25.104
498.49	24.652
498.84	25.047
499.18	24.132
499.53	25.034
499.87	25.427
500.22	24.643
500.56	24.977
500.91	25.139
501.26	24.897
501.60	25.091
501.95	24.328
502.29	24.444
502.64	24.702
502.98	24.144
503.33	24.365
503.67	24.901
504.02	23.914
504.36	23.665
504.71	25.449
505.06	25.153
505.40	25.316
505.75	24.836
506.09	24.452
506.44	24.718
506.78	24.905
507.13	24.479
507.47	24.939
507.82	25.596
508.16	25.380
508.51	25.072
508.85	24.644
509.19	25.502
509.54	24.756
509.88	25.908
510.23	25.245
510.57	24.469
510.92	25.275
511.26	24.799
511.61	24.865
511.95	25.734
512.30	25.850
512.64	25.441
512.98	25.628
513.33	24.744
513.67	25.427
514.02	25.558
514.36	24.714
514.70	25.493
515.05	25.519
515.39	25.439
515.74	25.205
516.08	25.218
516.42	26.120
516.77	24.747
517.11	26.240
517.46	25.323
517.80	25.614
518.14	26.254
518.49	25.028
518.83	24.835
519.17	26.456
519.52	25.560
519.86	25.613
520.20	26.027
520.55	25.721
520.89	25.632
521.23	25.935
521.58	25.818
521.92	25.306
522.26	25.592
522.61	26.857
522.95	26.066
523.29	26.316
523.64	25.607
523.98	26.291
524.32	26.067
524.66	25.217
525.01	26.391
525.35	26.105
525.69	26.309
526.04	27.008
526.38	26.251
526.72	25.597
527.06	25.192
527.41	26.844
527.75	26.233
528.09	25.707
528.43	26.541
528.78	26.535
529.12	25.948
529.46	25.482
529.80	25.409
530.15	25.987
530.49	25.211
530.83	25.960
531.17	26.630
531.51	26.548
531.86	24.698
532.20	25.649
532.54	24.796
532.88	25.921
533.22	26.447
533.57	25.564
533.91	24.534
534.25	24.639
534.59	25.322
534.93	25.484
535.27	23.904
535.62	25.088
535.96	25.887
536.30	25.655
536.64	24.907
536.98	25.299
537.32	25.938
537.66	25.510
538.01	25.387
538.35	26.076
538.69	25.425
539.03	24.129
539.37	24.211
539.71	25.679
540.05	25.292
540.39	25.849
540.73	25.823
541.07	24.028
541.42	25.684
541.76	25.586
542.10	24.969
542.44	25.873
542.78	25.425
543.12	24.724
543.46	25.188
543.80	25.063
544.14	25.882
544.48	25.608
544.82	24.893
545.16	24.408
545.50	24.647
545.84	25.568
546.18	25.683
546.52	26.230
546.86	25.919
547.20	25.323
547.54	25.966
547.88	25.304
548.22	24.590
548.56	25.398
548.90	24.377
549.24	26.027
549.58	25.580
549.92	24.820
550.26	25.085
550.60	26.281
550.94	25.916
551.28	26.276
551.62	26.621
551.96	25.068
552.30	25.181
552.64	25.696
552.98	24.549
553.32	24.456
553.66	25.863
554.00	25.418
554.34	25.965
554.68	25.672
555.02	24.576
555.36	24.601
555.69	24.542
556.03	25.541
556.37	25.239
556.71	25.880
557.05	24.443
557.39	25.733
557.73	26.482
558.07	26.090
558.41	26.456
558.75	26.265
559.08	26.305
559.42	25.698
559.76	26.087
560.10	24.914
560.44	24.486
560.78	26.662
561.12	25.238
561.45	25.031
561.79	24.095
562.13	25.268
562.47	24.659
562.81	25.439
563.15	25.663
563.48	23.727
563.82	25.702
564.16	24.751
564.50	25.256
564.84	25.289
565.17	24.658
565.51	25.554
565.85	25.416
566.19	24.524
566.52	24.428
566.86	25.628
567.20	25.393
567.54	25.000
567.88	25.196
568.21	23.665
568.55	24.903
568.89	23.768
569.23	23.814
569.56	23.403
569.90	22.602
570.24	22.998
570.57	22.745
570.91	22.215
571.25	22.509
571.59	22.025
571.92	21.717
572.26	21.671
572.60	21.911
572.93	22.570
573.27	22.688
573.61	22.090
573.95	21.614
574.28	21.958
574.62	21.751
574.96	21.519
575.29	21.417
575.63	21.602
575.97	21.178
576.30	21.741
576.64	21.552
576.98	21.662
577.31	21.881
577.65	21.554
577.98	21.012
578.32	21.194
578.66	21.423
578.99	21.796
579.33	21.967
579.67	22.063
580.00	21.348
580.34	21.211
580.67	21.723
581.01	21.835
581.35	21.566
581.68	21.013
582.02	21.357
582.35	21.231
582.69	21.139
583.02	21.359
583.36	21.409
583.70	22.020
584.03	22.396
584.37	22.312
584.70	21.647
585.04	21.651
585.37	21.776
585.71	21.933
586.04	21.682
586.38	21.331
586.72	22.162
587.05	22.388
587.39	22.427
587.72	22.176
588.06	21.579
588.39	22.185
588.73	22.147
589.06	22.410
589.40	22.973
589.73	22.517
590.07	23.370
590.40	23.066
590.73	23.797
591.07	24.213
591.40	22.834
591.74	22.971
592.07	22.629
592.41	23.661
592.74	23.068
593.08	22.266
593.41	22.412
593.75	22.167
594.08	22.852
594.41	22.581
594.75	22.877
595.08	22.805
595.42	23.107
595.75	22.409
596.09	22.697
596.42	22.724
596.75	23.438
597.09	23.731
597.42	23.184
597.75	22.921
598.09	22.610
598.42	22.970
598.76	22.089
599.09	23.317
599.42	23.114
599.76	22.999
600.09	22.068
600.42	22.410
600.76	22.060
601.09	22.851
601.42	22.562
601.76	22.879
602.09	23.142
602.42	22.403
602.76	22.581
603.09	23.416
603.42	22.826
603.76	22.885
604.09	22.620
604.42	22.900
604.76	23.271
605.09	23.184
605.42	23.527
605.75	23.135
606.09	22.877
606.42	22.961
606.75	23.241
607.09	23.608
607.42	22.338
607.75	22.970
608.08	22.786
608.42	22.735
608.75	22.507
609.08	22.833
609.41	23.864
609.75	23.352
610.08	23.966
610.41	23.540
610.74	23.593
611.07	23.738
611.41	23.633
611.74	23.518
612.07	23.988
612.40	23.587
612.73	23.814
613.07	24.176
613.40	23.810
613.73	23.814
614.06	23.450
614.39	24.899
614.72	23.908
615.06	23.294
615.39	23.713
615.72	23.379
616.05	25.163
616.38	24.150
616.71	24.200
617.05	24.767
617.38	24.157
617.71	24.691
618.04	24.285
618.37	24.792
618.70	24.018
619.03	25.458
619.36	24.749
619.69	25.132
620.03	25.245
620.36	24.663
620.69	25.287
621.02	25.883
621.35	24.785
621.68	26.696
622.01	26.273
622.34	25.637
622.67	26.124
623.00	25.868
623.33	24.764
623.66	25.948
623.99	25.479
624.32	25.542
624.65	24.490
624.99	25.355
625.32	26.052
625.65	25.379
625.98	24.059
626.31	25.000
626.64	25.209
626.97	24.713
627.30	25.932
627.63	27.159
627.96	24.961
628.29	26.155
628.62	26.091
628.95	27.394
629.28	26.819
629.61	26.362
629.94	27.053
630.26	27.383
630.59	27.128
630.92	27.085
631.25	27.924
631.58	27.194
631.91	28.544
632.24	25.850
632.57	26.523
632.90	28.882
633.23	28.122
633.56	26.554
633.89	27.760
634.22	29.064
634.55	28.172
634.88	28.478
635.20	29.036
635.53	29.036
635.86	29.754
636.19	28.058
636.52	28.324
636.85	27.940
637.18	29.144
637.51	26.816
637.83	29.291
638.16	30.129
638.49	27.305
638.82	29.225
639.15	26.439
639.48	28.199
639.81	28.327
640.13	27.853
640.46	28.571
640.79	30.169
641.12	28.215
641.45	29.754
641.77	29.855
642.10	29.317
642.43	30.299
642.76	28.835
643.09	28.963
643.41	29.453
643.74	30.647
644.07	30.531
644.40	31.213
644.73	30.781
645.05	29.421
645.38	29.403
645.71	31.259
646.04	30.840
646.36	32.394
646.69	29.120
647.02	31.840
647.35	29.449
647.67	31.605
648.00	31.107
648.33	29.774
648.66	29.545
648.98	29.130
649.31	28.340
649.64	28.354
649.96	27.596
650.29	29.286
650.62	29.897
650.94	30.572
651.27	32.376
651.60	30.516
651.92	29.800
652.25	31.181
652.58	29.362
652.90	30.988
653.23	31.758
653.56	30.267
653.88	31.865
654.21	29.765
654.54	29.429
654.86	31.268
655.19	27.704
655.52	24.702
655.84	18.986
656.17	22.252
656.49	31.899
656.82	37.266
657.15	29.974
657.47	22.150
657.80	16.517
658.13	13.377
658.45	17.934
658.78	21.833
659.10	22.339
659.43	22.815
659.75	24.277
660.08	25.501
660.41	26.588
660.73	29.235
661.06	29.880
661.38	32.538
661.71	31.295
662.03	33.650
662.36	32.381
662.68	32.588
663.01	32.432
663.33	33.208
663.66	30.375
663.98	32.540
664.31	29.478
664.63	32.759
664.96	33.771
665.28	34.087
665.61	30.377
665.93	32.264
666.26	29.533
666.58	33.211
666.91	33.012
667.23	30.321
667.56	31.828
667.88	35.477
668.21	31.762
668.53	30.645
668.86	34.269
669.18	32.790
669.50	31.818
669.83	35.318
670.15	34.719
670.48	29.492
670.80	33.267
671.13	31.873
671.45	34.469
671.77	32.653
672.10	31.418
672.42	30.428
672.75	29.589
673.07	30.207
673.39	30.831
673.72	30.450
674.04	29.928
674.37	32.486
674.69	31.227
675.01	30.784
675.34	30.814
675.66	33.594
675.98	33.728
676.31	34.200
676.63	33.797
676.95	34.325
677.28	31.237
677.60	32.998
677.92	30.754
678.25	32.171
678.57	34.637
678.89	32.369
679.22	30.882
679.54	29.893
679.86	29.843
680.18	31.107
680.51	28.524
680.83	29.899
681.15	29.289
681.48	30.208
681.80	28.897
682.12	30.796
682.44	28.649
682.77	31.851
683.09	31.262
683.41	31.224
683.73	33.268
684.06	30.159
684.38	31.395
684.70	29.856
685.02	29.167
685.34	32.923
685.67	27.653
685.99	30.542
686.31	27.889
686.63	27.967
686.96	30.065
687.28	26.510
687.60	28.669
687.92	30.318
688.24	33.448
688.56	31.673
688.89	30.784
689.21	30.250
689.53	32.213
689.85	30.691
690.17	31.262
690.49	31.855
690.82	29.832
691.14	31.515
691.46	30.595
691.78	30.409
692.10	29.962
692.42	30.490
692.74	30.426
693.06	31.589
693.39	29.644
693.71	30.255
694.03	31.361
694.35	33.735
694.67	29.735
694.99	31.042
695.31	35.135
695.63	32.805
695.95	33.937
696.27	31.416
696.59	35.084
696.91	33.924
697.23	33.258
697.56	30.498
697.88	29.541
698.20	32.642
698.52	28.988
698.84	31.211
699.16	34.328
699.48	32.627
699.80	34.205
700.12	33.487
700.44	33.411
700.76	33.174
701.08	34.465
701.40	34.805
701.72	35.027
702.04	33.604
702.36	35.484
702.68	34.309
703.00	32.331
703.32	32.258
703.64	32.746
703.96	33.333
704.28	32.804
704.60	33.803
704.91	33.613
705.23	38.068
705.55	37.389
705.87	37.143
706.19	34.483
706.51	36.050
706.83	38.643
707.15	35.027
707.47	34.867
707.79	34.023
708.11	32.200
708.43	33.708
708.74	28.507
709.06	33.256
709.38	32.010
709.70	31.880
710.02	33.696
710.34	32.873
710.66	36.111
710.98	37.158
711.29	35.376
711.61	33.705
711.93	33.739
712.25	35.241
712.57	36.013
712.89	36.061
713.20	37.380
713.52	38.941
713.84	37.462
714.16	32.174
714.48	29.683
714.80	32.791
715.11	33.777
715.43	32.682
715.75	34.085
716.07	34.971
716.39	32.857
716.70	34.891
717.02	34.680
717.34	39.568
717.66	40.972
717.97	42.803
718.29	37.676
718.61	34.797
718.93	37.370
719.24	38.926
719.56	36.207
719.88	33.439
720.20	39.032
720.51	31.699
720.83	35.786
721.15	34.014
721.46	39.384
721.78	41.463
722.10	37.847
722.42	39.130
722.73	37.184
723.05	36.842
723.37	38.869
723.68	33.984
724.00	38.258
724.32	38.023
724.63	36.923
724.95	37.647
725.27	39.777
725.58	38.603
725.90	32.394
726.22	32.877
726.53	31.773
726.85	35.831
727.16	36.913
727.48	35.216
727.80	32.734
728.11	40.357
728.43	35.507
728.74	37.063
729.06	34.767
729.38	38.246
729.69	37.333
730.01	35.526
730.32	33.221
730.64	38.538
730.96	31.832
731.27	30.887
731.59	29.023
731.90	31.755
732.22	32.857
732.53	29.060
732.85	33.626
733.16	35.241
733.48	34.796
733.80	32.754
734.11	36.503
734.43	35.088
734.74	33.244
735.06	33.069
735.37	32.474
735.69	32.174
736.00	36.086
736.32	29.394
736.63	33.438
736.95	30.745
737.26	30.183
737.58	34.663
737.89	30.120
738.21	33.113
738.52	36.120
738.83	36.630
739.15	35.192
739.46	33.448
739.78	31.293
740.09	34.694
740.41	33.742
740.72	37.460
741.04	37.413
741.35	36.328
741.66	37.945
741.98	39.914
742.29	38.426
742.61	38.938
742.92	38.559
743.23	36.800
743.55	31.698
743.86	34.118
744.18	38.559
744.49	36.364
744.80	35.484
745.12	38.393
745.43	43.925
745.74	39.556
746.06	38.158
746.37	44.651
746.68	44.690
747.00	41.704
747.31	37.395
747.62	37.705
747.94	39.485
748.25	33.463
748.56	43.220
748.88	37.946
749.19	39.535
749.50	37.900
749.82	34.979
750.13	33.202
750.44	32.667
750.75	34.228
751.07	36.184
751.38	36.964
751.69	36.027
752.01	34.615
752.32	32.226
752.63	34.899
752.94	34.615
753.26	35.156
753.57	34.630
753.88	36.704
754.19	40.072
754.51	32.558
754.82	34.899
755.13	33.108
755.44	34.074
755.75	38.144
756.07	36.986
756.38	33.987
756.69	34.063
757.00	35.312
757.31	32.958
757.63	32.507
757.94	29.787
758.25	32.367
758.56	29.748
758.87	31.830
759.18	32.849
759.50	34.347
759.81	33.828
760.12	33.146
760.43	29.132
760.74	28.861
761.05	33.422
761.36	30.208
761.67	33.962
761.99	32.958
762.30	35.048
762.61	37.153
762.92	36.364
763.23	35.849
763.54	39.615
763.85	35.798
764.16	34.722
764.47	34.122
764.78	31.922
765.10	29.268
765.41	31.534
765.72	26.796
766.03	33.535
766.34	31.359
766.65	38.023
766.96	38.462
767.27	42.523
767.58	41.584
767.89	48.619
768.20	46.341
768.51	38.265
768.82	39.035
769.13	34.118
769.44	37.594
769.75	32.584
770.06	34.454
770.37	38.158
770.68	33.778
770.99	39.407
771.30	37.238
771.61	35.769
771.92	32.824
772.23	35.484
772.54	36.444
772.85	45.050
773.16	42.935
773.47	33.333
773.78	38.119
774.09	43.750
774.39	44.848
774.70	37.647
775.01	44.737
775.32	39.130
775.63	49.315
775.94	52.469
776.25	50.345
776.56	47.328
776.87	50.382
777.18	49.242
777.48	55.906
777.79	53.846
778.10	57.576
778.41	48.507
778.72	44.361
779.03	37.821
779.34	52.027
779.65	44.099
779.95	42.857
780.26	42.262
780.57	60.544
780.88	47.518
781.19	62.500
781.50	40.828
781.80	42.623
782.11	43.386
782.42	41.379
782.73	49.718
783.04	49.677
783.34	43.411
783.65	48.299
783.96	48.387
784.27	45.695
784.57	42.105
784.88	44.928
785.19	50.833
785.50	50.000
785.81	56.589
786.11	50.370
786.42	51.969
786.73	53.153
787.04	41.509
787.34	46.341
787.65	61.364
787.96	53.030
788.26	52.756
788.57	51.825
788.88	47.183
789.19	48.855
789.49	52.703
789.80	54.688
790.11	48.760
790.41	55.556
790.72	51.852
791.03	63.462
791.33	59.596
791.64	58.947
791.95	66.316
792.25	46.875
792.56	62.000
792.87	58.537
793.17	59.091
793.48	60.000
793.79	59.770
794.09	53.409
794.40	60.345
794.70	53.968
795.01	49.231
795.32	48.092
795.62	42.735
795.93	52.941
796.23	46.341
796.54	53.061
796.85	62.500
797.15	70.130
797.46	63.415
797.76	52.500
798.07	82.667
798.37	66.250
798.68	71.250
798.99	73.171
799.29	70.667
799.60	51.163
799.90	53.947
800.21	59.091
800.51	69.014
800.82	79.310
801.12	86.154
801.43	68.000
801.73	82.759
802.04	70.130
802.34	71.233
802.65	84.314
802.95	80.435
803.26	96.774
803.56	100.000
803.87	80.597
804.17	74.603
804.48	86.792
804.78	84.722
805.09	75.758
805.39	73.016
805.70	87.719
806.00	71.429
806.30	84.375
806.61	63.529
806.91	66.667
807.22	65.217
807.52	71.053
807.83	82.895
808.13	85.507
808.43	82.258
808.74	87.671
809.04	80.357
809.35	83.824
809.65	71.212
809.95	80.392
810.26	94.444
810.56	89.063
810.86	83.673
811.17	92.982
811.47	102.174
811.77	79.310
812.08	75.862
812.38	90.476
812.69	135.714
812.99	95.556
813.29	114.286
813.59	116.129
813.90	63.793
814.20	90.164
814.50	88.000
814.81	80.702
815.11	112.963
815.41	69.643
815.72	107.143
816.02	96.000
816.32	104.878
816.62	81.034
816.93	118.182
817.23	107.317
817.53	76.786
817.84	111.111
818.14	100.000
818.44	91.667
818.74	105.660
819.04	82.051
819.35	127.273
819.65	86.538
819.95	105.556
820.25	102.128
820.56	113.514
820.86	97.368
821.16	74.468
821.46	107.895
821.76	83.636
822.07	88.095
822.37	102.632
822.67	111.628
822.97	110.526
823.27	104.348
823.57	118.750
823.88	100.000
824.18	109.091
824.48	182.609
824.78	127.778
825.08	165.217
825.38	144.828
825.69	141.176
825.99	95.745
826.29	69.444
826.59	128.571
826.89	153.333
827.19	100.000
827.49	164.516
827.79	134.615
828.09	107.143
828.39	91.667
828.70	91.892
829.00	139.286
829.30	212.500
829.60	97.222
829.90	135.484
830.20	81.818
830.50	137.838
830.80	179.167
831.10	153.846
831.40	180.952
831.70	179.167
832.00	133.333
832.30	213.043
832.60	187.500
832.90	148.485
833.20	215.000
833.50	134.211
833.80	105.882
834.10	113.158
834.40	221.053
834.70	126.667
835.00	184.000
835.30	121.622
835.60	146.875
835.90	127.027
836.20	161.538
836.50	195.455
836.80	131.707
837.10	139.130
837.40	276.923
837.70	152.632
838.00	110.000
838.30	154.167
838.60	184.000
838.90	390.000
839.19	193.750
839.49	140.000
839.79	113.793
840.09	123.077
840.39	253.333
840.69	273.684
840.99	166.667
841.29	195.652
841.59	245.000
841.88	164.000
842.18	388.889
842.48	135.714
842.78	177.778
843.08	230.769
843.38	163.636
843.68	271.429
843.97	571.429
844.27	134.783
844.57	1800.000
844.87	321.429
845.17	255.556
845.47	147.619
845.76	166.667
846.06	571.429
846.36	211.765
846.66	300.000
846.96	268.750
847.25	253.846
847.55	173.684
847.85	222.222
848.15	580.000
848.44	190.909
848.74	152.381
849.04	195.833
849.34	176.471
849.63	262.500
849.93	275.000
850.23	966.667
850.53	462.500
850.82	309.091
851.12	194.118
851.42	183.333
851.71	300.000
852.01	0.000
852.31	194.118
852.61	410.000
852.90	175.000
853.20	311.111
853.50	-1600.000
853.79	156.000
854.09	137.500
854.39	134.483
854.68	151.724
854.98	219.048
855.28	132.258
855.57	207.143
855.87	194.444
856.17	133.333
856.46	242.105
856.76	174.194
857.05	264.706
857.35	336.364
857.65	292.308
857.94	210.000
858.24	455.556
858.53	271.429
858.83	585.714
859.13	186.957
859.42	422.222
859.72	412.500
860.01	208.333
860.31	925.000
860.60	350.000
860.90	325.000
861.20	269.231
861.49	442.857
861.79	-4000.000
862.08	528.571
862.38	377.778
862.67	200.000
862.97	420.000
863.26	143.333
863.56	875.000
863.85	269.231
864.15	276.471
864.44	266.667
864.74	383.333
865.03	345.455
865.33	425.000
865.62	240.000
865.92	716.667
866.21	750.000
866.51	660.000
866.80	283.333
867.10	1000.000
867.39	4000.000
867.69	720.000
867.98	1000.000
868.27	180.952
868.57	240.000
868.86	875.000
869.16	176.190
869.45	3200.000
869.75	-550.000
870.04	825.000
870.33	780.000
870.63	325.000
870.92	158.824
871.22	825.000
871.51	528.571
871.80	300.000
872.10	338.462
>>>>>End Processed Spectral Data<<<<<
