SpectraSuite Data File
++++++++++++++++++++++++++++++++++++
Date: Tue May 12 16:29:18 PDT 2015
User: schluterlab
Dark Spectrum Present: Yes
Reference Spectrum Present: Yes
Number of Sampled Component Spectra: 1
Spectrometers: USB2E3373
Integration Time (usec): 3000 (USB2E3373)
Spectra Averaged: 3 (USB2E3373)
Boxcar Smoothing: 0 (USB2E3373)
Correct for Electrical Dark: No (USB2E3373)
Strobe/Lamp Enabled: No (USB2E3373)
Correct for Detector Non-linearity: No (USB2E3373)
Correct for Stray Light: No (USB2E3373)
Number of Pixels in Processed Spectrum: 2048
>>>>>Begin Processed Spectral Data<<<<<
178.53	0.000
178.91	-141.667
179.29	-325.000
179.67	-4100.000
180.04	-80.000
180.42	575.000
180.80	1600.000
181.18	0.000
181.56	-325.000
181.94	0.000
182.31	866.667
182.69	-2500.000
183.07	557.143
183.45	-3800.000
183.83	-2000.000
184.20	400.000
184.58	557.143
184.96	-230.769
185.34	-166.667
185.72	1500.000
186.09	-800.000
186.47	-2800.000
186.85	1233.333
187.23	680.000
187.61	2150.000
187.98	337.500
188.36	235.714
188.74	358.333
189.12	416.667
189.49	800.000
189.87	0.000
190.25	475.000
190.63	2400.000
191.00	-275.000
191.38	-3000.000
191.76	-550.000
192.14	575.000
192.51	-2400.000
192.89	1350.000
193.27	1200.000
193.65	-933.333
194.02	-640.000
194.40	514.286
194.78	-157.143
195.15	213.333
195.53	-3900.000
195.91	-440.000
196.29	4500.000
196.66	262.500
197.04	725.000
197.42	-1500.000
197.79	500.000
198.17	375.000
198.55	0.000
198.92	457.143
199.30	1133.333
199.68	1900.000
200.05	733.333
200.43	-316.667
200.81	150.000
201.18	3400.000
201.56	275.000
201.94	-750.000
202.31	-300.000
202.69	-580.000
203.07	2600.000
203.44	-483.333
203.82	341.667
204.19	640.000
204.57	-1550.000
204.95	-625.000
205.32	-720.000
205.70	433.333
206.08	900.000
206.45	-800.000
206.83	322.222
207.20	221.053
207.58	241.667
207.96	720.000
208.33	0.000
208.71	485.714
209.08	640.000
209.46	-3700.000
209.84	-900.000
210.21	880.000
210.59	-580.000
210.96	283.333
211.34	-900.000
211.71	390.909
212.09	675.000
212.46	1600.000
212.84	-366.667
213.22	388.889
213.59	-3400.000
213.97	320.000
214.34	1025.000
214.72	1166.667
215.09	1233.333
215.47	-2900.000
215.84	-250.000
216.22	-425.000
216.59	0.000
216.97	0.000
217.34	1400.000
217.72	-1700.000
218.09	900.000
218.47	437.500
218.84	800.000
219.22	800.000
219.59	800.000
219.97	428.571
220.34	377.778
220.72	1100.000
221.09	3400.000
221.47	308.333
221.84	1033.333
222.22	330.000
222.59	311.111
222.97	242.857
223.34	200.000
223.72	-2100.000
224.09	1200.000
224.46	276.923
224.84	-850.000
225.21	477.778
225.59	226.667
225.96	1133.333
226.34	-680.000
226.71	-625.000
227.08	-540.000
227.46	0.000
227.83	-433.333
228.21	-1900.000
228.58	275.000
228.95	1000.000
229.33	244.444
229.70	925.000
230.08	346.154
230.45	2500.000
230.82	-750.000
231.20	-766.667
231.57	-1066.667
231.95	540.000
232.32	191.667
232.69	466.667
233.07	283.333
233.44	-1300.000
233.81	306.667
234.19	140.741
234.56	206.250
234.93	229.412
235.31	200.000
235.68	275.000
236.05	182.143
236.43	225.926
236.80	257.143
237.17	182.759
237.55	153.125
237.92	132.500
238.29	148.485
238.67	162.500
239.04	153.659
239.41	93.750
239.79	110.000
240.16	120.833
240.53	100.000
240.91	94.203
241.28	100.000
241.65	101.515
242.02	114.085
242.40	108.571
242.77	84.615
243.14	75.949
243.51	94.949
243.89	71.963
244.26	70.093
244.63	83.168
245.00	71.560
245.38	60.169
245.75	70.455
246.12	73.333
246.49	69.504
246.87	66.393
247.24	71.333
247.61	66.875
247.98	68.027
248.36	59.394
248.73	63.265
249.10	69.643
249.47	61.000
249.84	59.701
250.22	67.027
250.59	61.000
250.96	61.603
251.33	63.256
251.70	59.375
252.08	64.286
252.45	54.582
252.82	59.696
253.19	60.870
253.56	58.077
253.94	56.884
254.31	60.853
254.68	55.401
255.05	58.966
255.42	55.839
255.79	59.283
256.16	62.373
256.54	58.766
256.91	59.150
257.28	57.191
257.65	52.351
258.02	56.047
258.39	56.447
258.76	60.290
259.14	54.000
259.51	56.268
259.88	60.790
260.25	52.473
260.62	52.055
260.99	53.168
261.36	54.596
261.73	55.585
262.10	57.068
262.47	51.500
262.85	55.467
263.22	55.270
263.59	54.731
263.96	52.632
264.33	55.309
264.70	55.774
265.07	55.366
265.44	54.358
265.81	54.953
266.18	54.462
266.55	54.137
266.92	53.468
267.29	56.798
267.66	53.139
268.03	54.260
268.40	50.529
268.77	57.709
269.14	52.061
269.51	52.784
269.88	53.673
270.25	54.212
270.62	53.648
270.99	55.984
271.36	53.049
271.73	51.572
272.10	51.717
272.47	50.000
272.84	53.293
273.21	53.512
273.58	53.239
273.95	52.567
274.32	52.724
274.69	52.165
275.06	54.098
275.43	51.724
275.80	51.698
276.17	47.978
276.54	50.280
276.91	54.291
277.28	48.175
277.65	52.030
278.02	50.184
278.39	48.921
278.76	51.552
279.13	49.466
279.50	51.091
279.87	47.672
280.23	48.250
280.60	51.642
280.97	48.966
281.34	48.185
281.71	48.696
282.08	49.231
282.45	47.635
282.82	47.993
283.19	49.921
283.56	47.934
283.92	51.303
284.29	48.253
284.66	47.899
285.03	49.088
285.40	47.603
285.77	46.296
286.14	47.214
286.51	47.239
286.87	44.778
287.24	45.796
287.61	43.921
287.98	46.567
288.35	47.704
288.72	44.917
289.08	45.045
289.45	45.732
289.82	46.875
290.19	43.485
290.56	46.143
290.93	43.885
291.29	41.298
291.66	41.243
292.03	43.619
292.40	42.141
292.77	42.201
293.13	41.369
293.50	40.216
293.87	39.973
294.24	42.797
294.60	41.992
294.97	40.699
295.34	40.106
295.71	38.765
296.08	41.067
296.44	38.882
296.81	39.454
297.18	38.276
297.55	37.069
297.91	37.438
298.28	37.802
298.65	38.037
299.02	37.033
299.38	38.129
299.75	36.220
300.12	36.697
300.48	37.939
300.85	36.353
301.22	36.395
301.59	34.080
301.95	36.639
302.32	33.411
302.69	37.104
303.05	34.119
303.42	32.960
303.79	34.886
304.15	33.663
304.52	33.087
304.89	34.435
305.25	35.150
305.62	35.821
305.99	34.674
306.35	34.000
306.72	35.276
307.09	33.333
307.45	34.213
307.82	32.819
308.19	34.742
308.55	32.800
308.92	34.249
309.29	35.306
309.65	34.985
310.02	31.542
310.38	32.702
310.75	32.498
311.12	32.280
311.48	34.749
311.85	33.397
312.22	33.142
312.58	32.459
312.95	32.039
313.31	32.772
313.68	31.895
314.05	33.150
314.41	32.775
314.78	31.250
315.14	32.227
315.51	32.923
315.87	31.752
316.24	31.466
316.61	32.140
316.97	31.743
317.34	32.255
317.70	33.011
318.07	32.740
318.43	32.953
318.80	32.750
319.16	31.643
319.53	32.389
319.89	31.631
320.26	33.520
320.62	31.960
320.99	32.507
321.35	31.076
321.72	32.068
322.08	31.487
322.45	32.788
322.81	32.388
323.18	31.616
323.54	32.753
323.91	32.457
324.27	32.361
324.64	31.315
325.00	31.638
325.37	31.703
325.73	31.788
326.10	33.223
326.46	31.709
326.83	31.200
327.19	33.655
327.56	32.827
327.92	32.131
328.29	32.815
328.65	33.134
329.01	32.079
329.38	32.318
329.74	32.451
330.11	32.407
330.47	32.396
330.84	30.544
331.20	32.064
331.56	33.765
331.93	32.164
332.29	31.463
332.66	31.803
333.02	31.787
333.38	32.810
333.75	31.943
334.11	30.872
334.48	31.795
334.84	31.757
335.20	31.394
335.57	30.730
335.93	31.371
336.29	31.509
336.66	31.904
337.02	31.138
337.38	30.954
337.75	32.179
338.11	31.561
338.47	31.329
338.84	30.821
339.20	30.909
339.56	30.698
339.93	31.689
340.29	30.252
340.65	31.098
341.02	31.456
341.38	30.131
341.74	32.309
342.11	30.050
342.47	30.025
342.83	31.829
343.20	30.315
343.56	28.991
343.92	29.480
344.28	30.622
344.65	31.296
345.01	30.476
345.37	29.487
345.73	30.556
346.10	29.243
346.46	30.223
346.82	28.318
347.19	30.526
347.55	29.586
347.91	30.060
348.27	29.280
348.63	29.193
349.00	29.246
349.36	28.872
349.72	29.205
350.08	29.736
350.45	29.703
350.81	28.670
351.17	28.968
351.53	28.560
351.89	28.671
352.26	27.967
352.62	29.864
352.98	28.528
353.34	29.353
353.70	28.670
354.07	29.846
354.43	29.493
354.79	29.005
355.15	28.484
355.51	28.323
355.87	28.614
356.24	28.099
356.60	28.919
356.96	28.355
357.32	29.917
357.68	28.488
358.04	29.179
358.40	27.736
358.77	29.151
359.13	28.679
359.49	28.466
359.85	27.923
360.21	27.786
360.57	27.664
360.93	27.633
361.29	28.066
361.66	28.784
362.02	27.486
362.38	28.066
362.74	28.521
363.10	27.419
363.46	27.279
363.82	29.243
364.18	28.592
364.54	28.112
364.90	28.246
365.26	28.383
365.62	27.348
365.98	26.359
366.35	27.586
366.71	27.412
367.07	27.509
367.43	27.199
367.79	27.793
368.15	27.408
368.51	27.636
368.87	27.378
369.23	28.205
369.59	28.186
369.95	27.762
370.31	26.557
370.67	26.232
371.03	27.871
371.39	27.701
371.75	26.448
372.11	26.852
372.47	27.671
372.83	27.532
373.19	27.553
373.55	27.285
373.91	26.174
374.27	26.521
374.63	27.661
374.99	26.752
375.35	27.016
375.71	27.375
376.07	27.586
376.42	26.343
376.78	27.553
377.14	26.802
377.50	26.717
377.86	27.162
378.22	26.630
378.58	27.724
378.94	26.614
379.30	27.471
379.66	26.791
380.02	27.038
380.38	26.347
380.74	26.759
381.09	26.460
381.45	26.416
381.81	26.123
382.17	26.068
382.53	25.675
382.89	26.257
383.25	25.814
383.61	25.994
383.97	25.915
384.32	26.040
384.68	27.154
385.04	26.964
385.40	26.157
385.76	26.214
386.12	26.778
386.48	26.079
386.83	26.650
387.19	25.559
387.55	26.207
387.91	25.924
388.27	26.710
388.62	26.526
388.98	25.248
389.34	25.640
389.70	27.005
390.06	26.159
390.42	25.355
390.77	26.351
391.13	26.252
391.49	26.074
391.85	27.077
392.20	26.698
392.56	25.806
392.92	24.874
393.28	26.570
393.64	25.000
393.99	25.311
394.35	25.662
394.71	25.573
395.07	25.487
395.42	26.347
395.78	26.835
396.14	26.506
396.50	25.933
396.85	26.463
397.21	26.414
397.57	26.778
397.92	25.534
398.28	25.979
398.64	25.829
399.00	25.494
399.35	24.799
399.71	24.945
400.07	24.886
400.42	25.433
400.78	24.868
401.14	25.719
401.49	25.346
401.85	25.492
402.21	24.780
402.57	25.494
402.92	25.091
403.28	24.523
403.63	24.897
403.99	25.754
404.35	25.615
404.70	25.576
405.06	25.154
405.42	25.135
405.77	25.910
406.13	25.976
406.49	24.446
406.84	24.422
407.20	25.514
407.55	25.538
407.91	25.271
408.27	24.864
408.62	25.251
408.98	25.015
409.34	25.015
409.69	25.264
410.05	24.806
410.40	23.852
410.76	24.442
411.11	25.296
411.47	24.691
411.83	24.429
412.18	24.698
412.54	25.285
412.89	24.779
413.25	24.914
413.60	25.058
413.96	25.314
414.31	25.030
414.67	25.388
415.03	24.521
415.38	25.615
415.74	25.774
416.09	25.547
416.45	26.180
416.80	27.069
417.16	25.143
417.51	25.096
417.87	24.781
418.22	25.091
418.58	25.541
418.93	24.450
419.29	23.906
419.64	25.560
420.00	25.776
420.35	24.448
420.71	24.679
421.06	24.250
421.42	24.583
421.77	25.319
422.12	24.587
422.48	24.653
422.83	24.554
423.19	25.216
423.54	25.069
423.90	24.462
424.25	24.326
424.61	24.608
424.96	23.941
425.31	24.795
425.67	24.916
426.02	24.790
426.38	24.854
426.73	24.754
427.09	24.140
427.44	24.311
427.79	24.814
428.15	24.573
428.50	25.543
428.85	24.456
429.21	24.689
429.56	24.277
429.92	25.012
430.27	24.141
430.62	24.180
430.98	24.351
431.33	23.841
431.68	23.358
432.04	24.470
432.39	25.137
432.74	24.239
433.10	24.695
433.45	25.273
433.80	24.545
434.16	24.120
434.51	24.613
434.86	24.878
435.22	24.365
435.57	24.422
435.92	24.701
436.28	24.770
436.63	24.743
436.98	24.550
437.34	24.829
437.69	24.244
438.04	24.355
438.39	24.927
438.75	24.555
439.10	24.447
439.45	25.042
439.81	25.853
440.16	24.546
440.51	23.986
440.86	25.470
441.22	24.188
441.57	23.885
441.92	23.741
442.27	24.124
442.63	24.339
442.98	24.084
443.33	24.906
443.68	24.245
444.03	23.987
444.39	24.011
444.74	24.224
445.09	24.381
445.44	24.017
445.79	23.635
446.15	23.211
446.50	24.420
446.85	24.452
447.20	23.532
447.55	24.144
447.91	24.560
448.26	23.536
448.61	24.820
448.96	25.381
449.31	24.642
449.66	24.695
450.02	23.663
450.37	24.653
450.72	24.959
451.07	25.015
451.42	24.778
451.77	23.883
452.12	24.220
452.47	24.727
452.83	24.113
453.18	25.405
453.53	24.512
453.88	24.914
454.23	24.172
454.58	24.709
454.93	24.341
455.28	25.398
455.63	24.882
455.98	24.365
456.34	24.802
456.69	24.146
457.04	24.224
457.39	24.286
457.74	24.775
458.09	24.424
458.44	24.863
458.79	23.979
459.14	23.895
459.49	25.028
459.84	25.652
460.19	24.915
460.54	24.615
460.89	24.627
461.24	24.971
461.59	23.980
461.94	24.173
462.29	24.600
462.64	24.874
462.99	24.440
463.34	24.822
463.69	25.408
464.04	24.813
464.39	24.499
464.74	23.740
465.09	24.144
465.44	24.538
465.79	24.333
466.14	24.006
466.49	24.525
466.84	24.916
467.19	24.370
467.54	23.544
467.89	24.824
468.24	23.798
468.59	23.929
468.94	24.758
469.29	23.885
469.64	24.952
469.99	24.614
470.34	24.794
470.68	25.517
471.03	25.017
471.38	24.636
471.73	24.559
472.08	25.701
472.43	25.326
472.78	24.520
473.13	23.279
473.48	24.389
473.83	24.087
474.17	24.802
474.52	24.704
474.87	23.309
475.22	23.758
475.57	24.029
475.92	23.812
476.27	23.232
476.61	23.271
476.96	23.929
477.31	24.216
477.66	24.852
478.01	23.620
478.36	24.202
478.70	23.375
479.05	24.425
479.40	24.256
479.75	24.628
480.10	23.959
480.45	23.903
480.79	23.917
481.14	24.013
481.49	23.376
481.84	23.527
482.19	23.624
482.53	23.979
482.88	23.880
483.23	23.004
483.58	24.506
483.92	24.086
484.27	22.817
484.62	23.684
484.97	23.257
485.31	23.195
485.66	22.984
486.01	22.917
486.36	22.728
486.70	22.407
487.05	22.802
487.40	22.840
487.75	23.055
488.09	23.097
488.44	23.454
488.79	22.596
489.13	23.292
489.48	22.932
489.83	22.686
490.17	23.699
490.52	23.600
490.87	23.060
491.22	24.512
491.56	23.452
491.91	23.297
492.26	23.296
492.60	23.690
492.95	23.833
493.30	23.794
493.64	23.270
493.99	23.479
494.34	23.667
494.68	23.595
495.03	23.799
495.37	23.863
495.72	24.242
496.07	23.720
496.41	22.980
496.76	23.385
497.11	23.565
497.45	23.498
497.80	23.726
498.14	23.717
498.49	23.955
498.84	23.598
499.18	22.623
499.53	24.437
499.87	23.405
500.22	23.445
500.56	23.120
500.91	23.794
501.26	23.886
501.60	23.816
501.95	22.984
502.29	23.422
502.64	23.467
502.98	22.543
503.33	23.341
503.67	24.415
504.02	22.750
504.36	23.122
504.71	23.936
505.06	23.463
505.40	23.163
505.75	23.761
506.09	23.565
506.44	23.590
506.78	23.440
507.13	23.267
507.47	22.756
507.82	23.552
508.16	24.547
508.51	24.010
508.85	24.264
509.19	23.446
509.54	24.170
509.88	23.720
510.23	23.186
510.57	21.911
510.92	23.626
511.26	23.996
511.61	23.141
511.95	23.544
512.30	23.100
512.64	23.832
512.98	23.424
513.33	23.258
513.67	23.045
514.02	23.221
514.36	23.209
514.70	23.307
515.05	23.015
515.39	23.849
515.74	24.112
516.08	23.856
516.42	24.754
516.77	23.787
517.11	23.200
517.46	23.761
517.80	22.993
518.14	24.056
518.49	22.822
518.83	22.473
519.17	23.572
519.52	24.468
519.86	23.270
520.20	23.342
520.55	23.686
520.89	24.310
521.23	23.832
521.58	23.523
521.92	23.265
522.26	23.223
522.61	23.886
522.95	23.784
523.29	23.275
523.64	23.353
523.98	23.650
524.32	23.933
524.66	23.594
525.01	23.018
525.35	23.866
525.69	24.865
526.04	24.033
526.38	23.661
526.72	23.091
527.06	22.886
527.41	23.942
527.75	23.433
528.09	22.757
528.43	23.612
528.78	23.256
529.12	24.925
529.46	23.612
529.80	22.722
530.15	23.984
530.49	23.586
530.83	24.314
531.17	23.370
531.51	24.280
531.86	23.792
532.20	22.682
532.54	23.854
532.88	24.047
533.22	23.766
533.57	23.490
533.91	23.252
534.25	23.543
534.59	23.801
534.93	23.265
535.27	22.709
535.62	23.221
535.96	23.641
536.30	23.583
536.64	23.540
536.98	23.222
537.32	24.250
537.66	23.151
538.01	23.591
538.35	23.269
538.69	23.544
539.03	23.445
539.37	23.422
539.71	23.333
540.05	23.385
540.39	23.711
540.73	23.608
541.07	23.275
541.42	23.632
541.76	23.120
542.10	23.243
542.44	23.379
542.78	23.600
543.12	23.129
543.46	23.684
543.80	23.434
544.14	23.406
544.48	23.175
544.82	23.242
545.16	23.558
545.50	23.479
545.84	23.359
546.18	24.577
546.52	24.328
546.86	23.017
547.20	23.062
547.54	22.673
547.88	22.932
548.22	23.801
548.56	22.805
548.90	23.132
549.24	23.563
549.58	23.260
549.92	22.331
550.26	23.935
550.60	22.954
550.94	23.609
551.28	24.414
551.62	24.207
551.96	22.770
552.30	23.270
552.64	23.754
552.98	23.454
553.32	23.303
553.66	23.388
554.00	22.973
554.34	24.434
554.68	23.522
555.02	23.829
555.36	22.473
555.69	22.840
556.03	24.204
556.37	23.901
556.71	23.859
557.05	21.822
557.39	23.000
557.73	23.113
558.07	24.212
558.41	23.852
558.75	23.529
559.08	23.803
559.42	23.622
559.76	23.022
560.10	23.400
560.44	22.628
560.78	23.465
561.12	22.759
561.45	22.778
561.79	21.973
562.13	22.868
562.47	22.583
562.81	24.203
563.15	23.206
563.48	22.671
563.82	23.394
564.16	22.575
564.50	22.664
564.84	23.100
565.17	23.292
565.51	23.399
565.85	23.319
566.19	23.036
566.52	22.563
566.86	23.876
567.20	23.090
567.54	22.980
567.88	22.587
568.21	22.416
568.55	22.714
568.89	22.901
569.23	22.519
569.56	22.364
569.90	22.566
570.24	22.419
570.57	22.226
570.91	22.246
571.25	22.212
571.59	22.109
571.92	21.421
572.26	21.563
572.60	21.411
572.93	22.139
573.27	21.597
573.61	21.630
573.95	22.311
574.28	22.079
574.62	21.844
574.96	21.225
575.29	21.146
575.63	21.484
575.97	21.592
576.30	21.109
576.64	21.479
576.98	21.453
577.31	22.128
577.65	21.470
577.98	21.512
578.32	21.438
578.66	21.442
578.99	21.775
579.33	21.696
579.67	21.394
580.00	21.211
580.34	21.770
580.67	21.253
581.01	21.900
581.35	21.507
581.68	21.266
582.02	21.541
582.35	21.717
582.69	21.574
583.02	21.321
583.36	21.514
583.70	21.536
584.03	22.347
584.37	22.287
584.70	21.398
585.04	21.033
585.37	21.348
585.71	21.685
586.04	21.343
586.38	21.714
586.72	21.956
587.05	21.770
587.39	21.669
587.72	21.859
588.06	21.803
588.39	21.776
588.73	21.411
589.06	22.002
589.40	22.066
589.73	22.288
590.07	22.272
590.40	22.892
590.73	23.210
591.07	22.543
591.40	21.996
591.74	22.524
592.07	21.381
592.41	22.502
592.74	22.007
593.08	21.615
593.41	21.634
593.75	21.376
594.08	21.866
594.41	21.636
594.75	21.678
595.08	21.674
595.42	22.548
595.75	21.685
596.09	22.454
596.42	21.668
596.75	22.837
597.09	22.493
597.42	21.878
597.75	21.826
598.09	21.543
598.42	22.113
598.76	21.550
599.09	21.846
599.42	21.592
599.76	22.083
600.09	21.898
600.42	21.789
600.76	21.006
601.09	21.781
601.42	22.210
601.76	21.625
602.09	22.075
602.42	21.701
602.76	21.670
603.09	22.097
603.42	21.835
603.76	21.764
604.09	21.100
604.42	21.431
604.76	22.007
605.09	22.000
605.42	21.942
605.75	22.029
606.09	22.150
606.42	21.947
606.75	22.231
607.09	21.477
607.42	21.294
607.75	21.855
608.08	21.324
608.42	21.644
608.75	21.694
609.08	21.777
609.41	22.227
609.75	22.573
610.08	22.482
610.41	21.300
610.74	21.861
611.07	21.874
611.41	21.872
611.74	21.797
612.07	21.387
612.40	22.173
612.73	22.566
613.07	22.453
613.40	21.955
613.73	21.867
614.06	21.000
614.39	22.677
614.72	21.045
615.06	21.464
615.39	21.980
615.72	20.813
616.05	23.104
616.38	21.867
616.71	22.626
617.05	21.472
617.38	21.854
617.71	22.441
618.04	21.481
618.37	21.623
618.70	21.998
619.03	22.222
619.36	22.487
619.69	22.955
620.03	23.549
620.36	23.443
620.69	23.691
621.02	23.030
621.35	21.418
621.68	22.493
622.01	24.502
622.34	22.141
622.67	22.683
623.00	21.920
623.33	22.132
623.66	22.222
623.99	22.329
624.32	22.493
624.65	22.383
624.99	22.380
625.32	22.044
625.65	21.586
625.98	21.757
626.31	22.478
626.64	21.412
626.97	22.188
627.30	22.050
627.63	22.527
627.96	22.379
628.29	22.855
628.62	22.156
628.95	23.493
629.28	22.787
629.61	22.232
629.94	22.558
630.26	23.657
630.59	23.936
630.92	23.677
631.25	22.303
631.58	22.854
631.91	22.265
632.24	22.741
632.57	21.415
632.90	23.292
633.23	24.449
633.56	23.288
633.89	23.794
634.22	22.067
634.55	23.333
634.88	22.782
635.20	21.637
635.53	23.345
635.86	24.161
636.19	23.008
636.52	21.297
636.85	22.114
637.18	24.269
637.51	21.899
637.83	22.540
638.16	24.033
638.49	22.994
638.82	23.944
639.15	22.209
639.48	24.645
639.81	22.711
640.13	24.172
640.46	23.262
640.79	22.627
641.12	23.360
641.45	22.898
641.77	24.306
642.10	24.230
642.43	24.324
642.76	23.722
643.09	23.775
643.41	23.422
643.74	24.892
644.07	24.779
644.40	22.929
644.73	24.174
645.05	25.260
645.38	24.809
645.71	23.976
646.04	25.038
646.36	24.726
646.69	23.520
647.02	23.840
647.35	24.567
647.67	23.825
648.00	24.593
648.33	22.105
648.66	22.727
648.98	23.913
649.31	21.862
649.64	23.375
649.96	23.186
650.29	21.857
650.62	24.742
650.94	24.849
651.27	24.721
651.60	26.604
651.92	24.270
652.25	23.622
652.58	23.830
652.90	24.701
653.23	23.486
653.56	25.223
653.88	23.348
654.21	23.314
654.54	21.962
654.86	23.156
655.19	24.274
655.52	22.147
655.84	19.267
656.17	22.558
656.49	32.273
656.82	37.291
657.15	29.719
657.47	22.150
657.80	16.483
658.13	12.868
658.45	17.627
658.78	21.338
659.10	21.140
659.43	21.363
659.75	21.648
660.08	21.429
660.41	23.049
660.73	22.961
661.06	24.925
661.38	23.509
661.71	25.360
662.03	26.046
662.36	24.381
662.68	24.581
663.01	24.865
663.33	25.283
663.66	24.852
663.98	24.603
664.31	26.493
664.63	22.989
664.96	25.516
665.28	25.424
665.61	22.642
665.93	23.774
666.26	24.860
666.58	24.771
666.91	25.676
667.23	25.100
667.56	26.283
667.88	25.104
668.21	24.590
668.53	25.403
668.86	24.649
669.18	24.440
669.50	26.033
669.83	25.051
670.15	27.443
670.48	23.047
670.80	24.104
671.13	25.299
671.45	23.848
671.77	26.531
672.10	24.417
672.42	25.000
672.75	23.259
673.07	25.119
673.39	25.879
673.72	24.567
674.04	23.835
674.37	23.230
674.69	23.234
675.01	22.388
675.34	23.450
675.66	25.195
675.98	24.260
676.31	25.800
676.63	23.658
676.95	23.214
677.28	24.746
677.60	23.340
677.92	23.611
678.25	25.194
678.57	24.022
678.89	28.029
679.22	26.103
679.54	25.267
679.86	24.607
680.18	23.726
680.51	22.886
680.83	23.480
681.15	24.263
681.48	26.389
681.80	23.818
682.12	25.087
682.44	24.144
682.77	26.512
683.09	23.495
683.41	22.449
683.73	25.591
684.06	26.190
684.38	24.225
684.70	23.921
685.02	21.354
685.34	25.000
685.67	25.563
685.99	25.780
686.31	25.886
686.63	24.065
686.96	26.144
687.28	23.993
687.60	23.891
687.92	24.958
688.24	24.828
688.56	24.911
688.89	22.753
689.21	23.699
689.53	24.901
689.85	23.374
690.17	25.243
690.49	25.605
690.82	22.899
691.14	25.859
691.46	27.105
691.78	26.706
692.10	22.519
692.42	23.593
692.74	25.388
693.06	24.225
693.39	23.123
693.71	24.361
694.03	26.824
694.35	24.699
694.67	25.662
694.99	26.164
695.31	23.423
695.63	25.339
695.95	25.792
696.27	26.327
696.59	28.401
696.91	24.051
697.23	23.529
697.56	23.651
697.88	22.954
698.20	26.415
698.52	21.984
698.84	24.230
699.16	26.439
699.48	30.085
699.80	27.015
700.12	27.252
700.44	26.168
700.76	28.162
701.08	25.326
701.40	26.234
701.72	27.005
702.04	28.726
702.36	26.613
702.68	26.330
703.00	23.308
703.32	29.529
703.64	27.708
703.96	25.521
704.28	26.455
704.60	27.042
704.91	25.490
705.23	28.409
705.55	27.003
705.87	29.841
706.19	30.094
706.51	31.034
706.83	28.614
707.15	27.005
707.47	24.939
707.79	25.977
708.11	25.624
708.43	26.966
708.74	23.756
709.06	27.442
709.38	26.799
709.70	25.068
710.02	27.989
710.34	27.072
710.66	25.833
710.98	29.235
711.29	28.134
711.61	29.805
711.93	27.356
712.25	26.807
712.57	27.653
712.89	26.667
713.20	30.990
713.52	28.349
713.84	24.471
714.16	22.899
714.48	24.207
714.80	28.726
715.11	27.128
715.43	26.257
715.75	29.296
716.07	27.746
716.39	27.714
716.70	28.349
717.02	26.936
717.34	32.734
717.66	29.861
717.97	35.985
718.29	25.352
718.61	26.351
718.93	28.720
719.24	28.188
719.56	24.828
719.88	27.389
720.20	30.645
720.51	27.451
720.83	25.084
721.15	29.252
721.46	28.082
721.78	32.404
722.10	33.681
722.42	27.090
722.73	26.715
723.05	29.123
723.37	32.155
723.68	29.297
724.00	30.303
724.32	28.517
724.63	30.385
724.95	30.588
725.27	30.855
725.58	28.676
725.90	24.296
726.22	28.767
726.53	30.100
726.85	28.664
727.16	30.872
727.48	28.239
727.80	30.216
728.11	30.000
728.43	30.797
728.74	27.622
729.06	26.882
729.38	30.175
729.69	32.333
730.01	33.553
730.32	28.859
730.64	30.897
730.96	26.426
731.27	24.159
731.59	24.713
731.90	27.019
732.22	27.714
732.53	25.071
732.85	25.439
733.16	27.108
733.48	26.959
733.80	28.406
734.11	30.368
734.43	26.901
734.74	25.201
735.06	26.984
735.37	24.485
735.69	26.667
736.00	30.275
736.32	25.152
736.63	24.290
736.95	29.503
737.26	28.963
737.58	26.994
737.89	26.205
738.21	27.483
738.52	30.769
738.83	30.769
739.15	32.056
739.46	24.828
739.78	28.571
740.09	27.988
740.41	25.460
740.72	31.746
741.04	26.573
741.35	28.906
741.66	34.387
741.98	32.189
742.29	34.722
742.61	26.991
742.92	27.542
743.23	30.400
743.55	26.792
743.86	27.451
744.18	30.932
744.49	31.818
744.80	36.866
745.12	29.018
745.43	30.374
745.74	40.000
746.06	31.140
746.37	30.233
746.68	36.726
747.00	31.390
747.31	28.151
747.62	26.639
747.94	27.039
748.25	27.626
748.56	35.593
748.88	29.464
749.19	30.698
749.50	26.484
749.82	28.395
750.13	30.435
750.44	28.000
750.75	30.537
751.07	27.632
751.38	26.073
751.69	28.956
752.01	28.322
752.32	31.229
752.63	29.530
752.94	31.818
753.26	35.156
753.57	29.572
753.88	31.461
754.19	27.798
754.51	30.897
754.82	25.168
755.13	30.068
755.44	31.852
755.75	31.615
756.07	29.110
756.38	26.797
756.69	29.375
757.00	29.080
757.31	28.732
757.63	25.895
757.94	30.851
758.25	27.536
758.56	27.918
758.87	27.318
759.18	29.360
759.50	29.179
759.81	31.157
760.12	26.685
760.43	28.291
760.74	26.835
761.05	28.382
761.36	27.344
761.67	27.763
761.99	30.704
762.30	27.331
762.61	27.431
762.92	29.545
763.23	32.075
763.54	31.923
763.85	33.074
764.16	29.514
764.47	28.378
764.78	28.339
765.10	28.963
765.41	23.295
765.72	26.519
766.03	25.378
766.34	30.314
766.65	30.798
766.96	31.579
767.27	39.720
767.58	36.634
767.89	32.044
768.20	40.854
768.51	33.163
768.82	31.579
769.13	34.118
769.44	31.203
769.75	27.341
770.06	31.933
770.37	28.509
770.68	27.556
770.99	32.627
771.30	36.402
771.61	31.923
771.92	30.153
772.23	27.016
772.54	34.222
772.85	33.663
773.16	32.609
773.47	31.111
773.78	37.129
774.09	36.364
774.39	34.545
774.70	33.529
775.01	30.921
775.32	35.404
775.63	42.466
775.94	39.506
776.25	40.690
776.56	35.878
776.87	38.168
777.18	40.152
777.48	50.394
777.79	43.846
778.10	38.636
778.41	41.791
778.72	43.609
779.03	38.462
779.34	41.892
779.65	40.994
779.95	42.236
780.26	30.357
780.57	46.259
780.88	48.227
781.19	48.333
781.50	43.787
781.80	36.612
782.11	37.037
782.42	35.632
782.73	40.678
783.04	41.290
783.34	34.884
783.65	35.374
783.96	40.000
784.27	37.748
784.57	41.447
784.88	47.101
785.19	39.167
785.50	38.793
785.81	52.713
786.11	40.000
786.42	35.433
786.73	49.550
787.04	48.113
787.34	30.081
787.65	45.455
787.96	39.394
788.26	44.094
788.57	37.226
788.88	51.408
789.19	37.405
789.49	43.243
789.80	40.625
790.11	51.240
790.41	43.519
790.72	43.519
791.03	54.808
791.33	50.505
791.64	45.263
791.95	56.842
792.25	38.542
792.56	59.000
792.87	51.220
793.17	47.727
793.48	60.000
793.79	64.368
794.09	51.136
794.40	55.172
794.70	46.032
795.01	43.846
795.32	41.985
795.62	44.444
795.93	37.815
796.23	46.341
796.54	47.959
796.85	50.000
797.15	74.026
797.46	58.537
797.76	66.250
798.07	60.000
798.37	63.750
798.68	66.250
798.99	65.854
799.29	46.667
799.60	51.163
799.90	55.263
800.21	60.606
800.51	60.563
800.82	56.897
801.12	76.923
801.43	64.000
801.73	58.621
802.04	55.844
802.34	57.534
802.65	70.588
802.95	82.609
803.26	74.194
803.56	75.000
803.87	53.731
804.17	68.254
804.48	50.943
804.78	52.778
805.09	72.727
805.39	57.143
805.70	85.965
806.00	58.571
806.30	78.125
806.61	58.824
806.91	54.444
807.22	51.087
807.52	63.158
807.83	48.684
808.13	81.159
808.43	75.806
808.74	71.233
809.04	69.643
809.35	57.353
809.65	74.242
809.95	62.745
810.26	96.296
810.56	87.500
810.86	71.429
811.17	78.947
811.47	82.609
811.77	82.759
812.08	74.138
812.38	102.381
812.69	85.714
812.99	71.111
813.29	108.571
813.59	125.806
813.90	67.241
814.20	78.689
814.50	76.000
814.81	66.667
815.11	92.593
815.41	83.929
815.72	75.000
816.02	82.000
816.32	109.756
816.62	70.690
816.93	90.909
817.23	112.195
817.53	96.429
817.84	77.778
818.14	85.714
818.44	83.333
818.74	81.132
819.04	100.000
819.35	106.061
819.65	94.231
819.95	100.000
820.25	106.383
820.56	116.216
820.86	113.158
821.16	82.979
821.46	86.842
821.76	78.182
822.07	80.952
822.37	92.105
822.67	106.977
822.97	81.579
823.27	95.652
823.57	81.250
823.88	107.692
824.18	106.061
824.48	165.217
824.78	113.889
825.08	126.087
825.38	96.552
825.69	102.941
825.99	93.617
826.29	75.000
826.59	117.143
826.89	126.667
827.19	120.000
827.49	125.806
827.79	88.462
828.09	119.048
828.39	113.889
828.70	91.892
829.00	121.429
829.30	200.000
829.60	102.778
829.90	112.903
830.20	90.909
830.50	116.216
830.80	116.667
831.10	119.231
831.40	138.095
831.70	170.833
832.00	83.333
832.30	147.826
832.60	112.500
832.90	154.545
833.20	155.000
833.50	100.000
833.80	111.765
834.10	86.842
834.40	121.053
834.70	106.667
835.00	176.000
835.30	105.405
835.60	137.500
835.90	127.027
836.20	134.615
836.50	131.818
836.80	95.122
837.10	152.174
837.40	269.231
837.70	147.368
838.00	116.667
838.30	145.833
838.60	112.000
838.90	320.000
839.19	168.750
839.49	140.000
839.79	93.103
840.09	134.615
840.39	233.333
840.69	189.474
840.99	109.524
841.29	213.043
841.59	175.000
841.88	104.000
842.18	288.889
842.48	139.286
842.78	148.148
843.08	184.615
843.38	145.455
843.68	178.571
843.97	271.429
844.27	186.957
844.57	1450.000
844.87	321.429
845.17	200.000
845.47	138.095
845.76	154.167
846.06	428.571
846.36	158.824
846.66	253.846
846.96	225.000
847.25	176.923
847.55	178.947
847.85	177.778
848.15	680.000
848.44	245.455
848.74	161.905
849.04	179.167
849.34	164.706
849.63	225.000
849.93	268.750
850.23	733.333
850.53	400.000
850.82	345.455
851.12	217.647
851.42	208.333
851.71	250.000
852.01	0.000
852.31	188.235
852.61	430.000
852.90	170.833
853.20	355.556
853.50	-3000.000
853.79	148.000
854.09	162.500
854.39	148.276
854.68	127.586
854.98	195.238
855.28	116.129
855.57	207.143
855.87	155.556
856.17	92.593
856.46	157.895
856.76	119.355
857.05	152.941
857.35	327.273
857.65	223.077
857.94	170.000
858.24	266.667
858.53	228.571
858.83	571.429
859.13	182.609
859.42	344.444
859.72	375.000
860.01	216.667
860.31	725.000
860.60	290.000
860.90	262.500
861.20	276.923
861.49	385.714
861.79	-2800.000
862.08	442.857
862.38	277.778
862.67	264.286
862.97	340.000
863.26	173.333
863.56	750.000
863.85	284.615
864.15	252.941
864.44	216.667
864.74	283.333
865.03	336.364
865.33	375.000
865.62	266.667
865.92	550.000
866.21	825.000
866.51	580.000
866.80	216.667
867.10	800.000
867.39	3300.000
867.69	600.000
867.98	775.000
868.27	171.429
868.57	273.333
868.86	775.000
869.16	176.190
869.45	3500.000
869.75	-400.000
870.04	500.000
870.33	660.000
870.63	400.000
870.92	182.353
871.22	925.000
871.51	428.571
871.80	300.000
872.10	230.769
>>>>>End Processed Spectral Data<<<<<
