SpectraSuite Data File
++++++++++++++++++++++++++++++++++++
Date: Tue May 12 16:38:18 PDT 2015
User: schluterlab
Dark Spectrum Present: Yes
Reference Spectrum Present: Yes
Number of Sampled Component Spectra: 1
Spectrometers: USB2E3373
Integration Time (usec): 3000 (USB2E3373)
Spectra Averaged: 3 (USB2E3373)
Boxcar Smoothing: 0 (USB2E3373)
Correct for Electrical Dark: No (USB2E3373)
Strobe/Lamp Enabled: No (USB2E3373)
Correct for Detector Non-linearity: No (USB2E3373)
Correct for Stray Light: No (USB2E3373)
Number of Pixels in Processed Spectrum: 2048
>>>>>Begin Processed Spectral Data<<<<<
178.53	0.000
178.91	-275.000
179.29	-700.000
179.67	-3500.000
180.04	-146.667
180.42	500.000
180.80	1700.000
181.18	0.000
181.56	-212.500
181.94	0.000
182.31	1100.000
182.69	-3100.000
183.07	485.714
183.45	-3700.000
183.83	-1450.000
184.20	300.000
184.58	428.571
184.96	-169.231
185.34	-166.667
185.72	1600.000
186.09	-650.000
186.47	-2400.000
186.85	900.000
187.23	660.000
187.61	1500.000
187.98	400.000
188.36	192.857
188.74	350.000
189.12	350.000
189.49	850.000
189.87	0.000
190.25	512.500
190.63	2500.000
191.00	-175.000
191.38	-2600.000
191.76	-700.000
192.14	562.500
192.51	-1900.000
192.89	1300.000
193.27	1000.000
193.65	-966.667
194.02	-600.000
194.40	471.429
194.78	-157.143
195.15	266.667
195.53	-3000.000
195.91	-540.000
196.29	4100.000
196.66	300.000
197.04	775.000
197.42	-1600.000
197.79	650.000
198.17	300.000
198.55	0.000
198.92	528.571
199.30	966.667
199.68	1950.000
200.05	650.000
200.43	-400.000
200.81	205.556
201.18	3200.000
201.56	283.333
201.94	-925.000
202.31	-325.000
202.69	-560.000
203.07	2800.000
203.44	-433.333
203.82	316.667
204.19	520.000
204.57	-1400.000
204.95	-675.000
205.32	-620.000
205.70	616.667
206.08	650.000
206.45	-700.000
206.83	366.667
207.20	147.368
207.58	275.000
207.96	600.000
208.33	0.000
208.71	642.857
209.08	420.000
209.46	-2400.000
209.84	-825.000
210.21	700.000
210.59	-540.000
210.96	291.667
211.34	-775.000
211.71	390.909
212.09	725.000
212.46	1700.000
212.84	-383.333
213.22	444.444
213.59	-2800.000
213.97	280.000
214.34	950.000
214.72	1100.000
215.09	900.000
215.47	-2200.000
215.84	-200.000
216.22	-475.000
216.59	0.000
216.97	0.000
217.34	1550.000
217.72	-1250.000
218.09	1066.667
218.47	500.000
218.84	575.000
219.22	1033.333
219.59	866.667
219.97	442.857
220.34	433.333
220.72	1150.000
221.09	3500.000
221.47	308.333
221.84	833.333
222.22	340.000
222.59	200.000
222.97	214.286
223.34	237.500
223.72	-2100.000
224.09	1166.667
224.46	207.692
224.84	-925.000
225.21	355.556
225.59	280.000
225.96	1066.667
226.34	-720.000
226.71	-475.000
227.08	-680.000
227.46	0.000
227.83	-500.000
228.21	-1700.000
228.58	300.000
228.95	825.000
229.33	311.111
229.70	1050.000
230.08	338.462
230.45	3100.000
230.82	-525.000
231.20	-900.000
231.57	-900.000
231.95	540.000
232.32	258.333
232.69	650.000
233.07	266.667
233.44	-1550.000
233.81	226.667
234.19	148.148
234.56	218.750
234.93	141.176
235.31	175.000
235.68	231.250
236.05	153.571
236.43	155.556
236.80	221.429
237.17	134.483
237.55	115.625
237.92	135.000
238.29	106.061
238.67	109.375
239.04	87.805
239.41	58.333
239.79	92.500
240.16	58.333
240.53	81.967
240.91	57.971
241.28	66.102
241.65	53.030
242.02	69.014
242.40	72.857
242.77	43.956
243.14	48.101
243.51	64.646
243.89	55.140
244.26	49.533
244.63	42.574
245.00	50.459
245.38	33.898
245.75	43.939
246.12	46.667
246.49	37.589
246.87	40.984
247.24	46.000
247.61	33.750
247.98	40.816
248.36	30.909
248.73	43.878
249.10	34.524
249.47	35.500
249.84	37.811
250.22	40.000
250.59	31.000
250.96	29.958
251.33	35.349
251.70	30.357
252.08	30.252
252.45	30.677
252.82	28.137
253.19	26.482
253.56	33.077
253.94	30.435
254.31	29.070
254.68	29.965
255.05	28.966
255.42	27.737
255.79	28.664
256.16	30.169
256.54	31.818
256.91	31.046
257.28	26.087
257.65	27.273
258.02	27.434
258.39	27.507
258.76	29.275
259.14	23.429
259.51	28.863
259.88	29.787
260.25	27.747
260.62	28.219
260.99	25.620
261.36	26.462
261.73	26.064
262.10	26.440
262.47	27.250
262.85	26.133
263.22	26.221
263.59	25.575
263.96	25.313
264.33	23.704
264.70	27.518
265.07	25.610
265.44	29.128
265.81	24.057
266.18	27.689
266.55	25.296
266.92	22.819
267.29	25.219
267.66	23.318
268.03	24.888
268.40	24.947
268.77	27.313
269.14	23.210
269.51	23.608
269.88	24.898
270.25	24.838
270.62	25.322
270.99	26.166
271.36	24.593
271.73	24.738
272.10	22.828
272.47	23.016
272.84	25.349
273.21	21.694
273.58	25.101
273.95	24.025
274.32	24.708
274.69	25.787
275.06	25.501
275.43	22.989
275.80	21.132
276.17	24.449
276.54	25.981
276.91	24.627
277.28	24.818
277.65	23.063
278.02	24.449
278.39	24.460
278.76	24.655
279.13	24.733
279.50	24.364
279.87	24.767
280.23	21.731
280.60	22.810
280.97	25.000
281.34	23.102
281.71	25.043
282.08	22.222
282.45	22.128
282.82	22.408
283.19	23.052
283.56	22.645
283.92	25.407
284.29	21.631
284.66	24.202
285.03	24.378
285.40	21.653
285.77	21.451
286.14	22.601
286.51	24.693
286.87	20.411
287.24	22.072
287.61	21.581
287.98	22.537
288.35	21.333
288.72	22.610
289.08	22.372
289.45	23.323
289.82	21.094
290.19	22.255
290.56	21.252
290.93	23.741
291.29	22.238
291.66	21.469
292.03	21.178
292.40	23.848
292.77	22.702
293.13	21.826
293.50	21.592
293.87	21.545
294.24	21.259
294.60	23.015
294.97	22.378
295.34	22.975
295.71	21.025
296.08	21.867
296.44	21.093
296.81	20.471
297.18	21.926
297.55	20.813
297.91	21.182
298.28	20.894
298.65	20.123
299.02	22.316
299.38	20.504
299.75	19.878
300.12	22.018
300.48	21.780
300.85	22.646
301.22	21.628
301.59	21.816
301.95	20.887
302.32	22.701
302.69	21.833
303.05	23.232
303.42	22.534
303.79	22.210
304.15	21.782
304.52	21.036
304.89	22.068
305.25	22.247
305.62	22.708
305.99	21.739
306.35	22.421
306.72	22.997
307.09	22.360
307.45	21.859
307.82	22.428
308.19	22.990
308.55	23.200
308.92	23.749
309.29	24.162
309.65	25.173
310.02	23.529
310.38	23.031
310.75	22.662
311.12	22.605
311.48	25.676
311.85	24.427
312.22	26.552
312.58	24.976
312.95	25.534
313.31	25.843
313.68	25.985
314.05	27.015
314.41	26.257
314.78	25.947
315.14	26.730
315.51	27.720
315.87	25.730
316.24	27.077
316.61	27.126
316.97	27.706
317.34	27.763
317.70	28.358
318.07	28.826
318.43	29.701
318.80	28.021
319.16	28.934
319.53	27.876
319.89	29.570
320.26	30.540
320.62	30.495
320.99	29.266
321.35	28.757
321.72	30.835
322.08	30.009
322.45	29.973
322.81	29.826
323.18	30.107
323.54	31.882
323.91	31.097
324.27	30.858
324.64	29.585
325.00	30.000
325.37	30.860
325.73	31.872
326.10	29.909
326.46	30.636
326.83	29.920
327.19	30.442
327.56	31.390
327.92	32.705
328.29	33.142
328.65	32.021
329.01	31.993
329.38	30.880
329.74	31.768
330.11	30.582
330.47	32.055
330.84	31.838
331.20	31.303
331.56	31.693
331.93	31.309
332.29	30.442
332.66	31.973
333.02	29.811
333.38	31.239
333.75	30.859
334.11	30.453
334.48	31.880
334.84	31.334
335.20	31.394
335.57	29.471
335.93	30.109
336.29	30.431
336.66	30.789
337.02	30.881
337.38	29.751
337.75	31.250
338.11	30.802
338.47	30.229
338.84	30.059
339.20	29.524
339.56	29.521
339.93	29.348
340.29	28.571
340.65	30.679
341.02	30.410
341.38	30.952
341.74	29.734
342.11	29.967
342.47	29.614
342.83	30.435
343.20	29.911
343.56	28.991
343.92	30.636
344.28	29.506
344.65	29.747
345.01	29.444
345.37	29.167
345.73	28.968
346.10	28.446
346.46	28.628
346.82	29.552
347.19	29.366
347.55	26.776
347.91	28.021
348.27	27.421
348.63	28.323
349.00	27.875
349.36	29.027
349.72	28.746
350.08	28.804
350.45	28.332
350.81	28.670
351.17	26.656
351.53	28.099
351.89	28.127
352.26	27.740
352.62	28.281
352.98	28.374
353.34	28.891
353.70	26.988
354.07	27.154
354.43	27.419
354.79	26.651
355.15	28.331
355.51	27.341
355.87	28.765
356.24	27.945
356.60	26.865
356.96	27.597
357.32	27.882
357.68	27.386
358.04	28.116
358.40	27.586
358.77	28.174
359.13	26.502
359.49	26.983
359.85	26.880
360.21	25.929
360.57	27.518
360.93	25.902
361.29	26.479
361.66	28.412
362.02	25.426
362.38	26.912
362.74	26.681
363.10	26.508
363.46	26.243
363.82	26.227
364.18	27.169
364.54	26.037
364.90	27.577
365.26	27.065
365.62	27.072
365.98	25.946
366.35	26.414
366.71	26.301
367.07	25.324
367.43	26.192
367.79	25.332
368.15	24.627
368.51	25.775
368.87	25.815
369.23	25.988
369.59	26.770
369.95	25.874
370.31	25.941
370.67	25.121
371.03	26.190
371.39	25.623
371.75	25.680
372.11	26.581
372.47	25.822
372.83	25.629
373.19	27.485
373.55	25.567
373.91	24.448
374.27	24.934
374.63	25.017
374.99	25.472
375.35	25.672
375.71	25.858
376.07	25.199
376.42	24.552
376.78	25.177
377.14	26.081
377.50	24.969
377.86	24.215
378.22	25.229
378.58	25.545
378.94	25.166
379.30	24.924
379.66	24.684
380.02	24.575
380.38	23.770
380.74	25.836
381.09	25.058
381.45	24.624
381.81	24.409
382.17	24.969
382.53	23.995
382.89	24.423
383.25	24.452
383.61	23.977
383.97	24.235
384.32	24.653
384.68	24.421
385.04	23.681
385.40	24.911
385.76	24.400
386.12	25.046
386.48	23.404
386.83	24.633
387.19	24.087
387.55	23.616
387.91	24.711
388.27	25.223
388.62	24.765
388.98	23.673
389.34	23.974
389.70	23.762
390.06	22.988
390.42	23.874
390.77	23.649
391.13	23.355
391.49	24.682
391.85	24.369
392.20	24.672
392.56	25.149
392.92	23.751
393.28	23.543
393.64	23.739
393.99	23.889
394.35	23.131
394.71	23.522
395.07	23.662
395.42	23.888
395.78	24.800
396.14	24.458
396.50	23.345
396.85	22.561
397.21	23.586
397.57	23.371
397.92	22.704
398.28	23.056
398.64	23.328
399.00	22.822
399.35	22.383
399.71	23.565
400.07	23.516
400.42	23.522
400.78	22.874
401.14	23.605
401.49	22.581
401.85	23.523
402.21	22.554
402.57	23.818
402.92	22.909
403.28	22.792
403.63	23.367
403.99	22.919
404.35	23.447
404.70	23.627
405.06	22.235
405.42	22.501
405.77	23.153
406.13	22.180
406.49	22.058
406.84	21.433
407.20	22.831
407.55	22.954
407.91	22.782
408.27	22.680
408.62	23.063
408.98	22.945
409.34	22.209
409.69	22.775
410.05	21.825
410.40	23.027
410.76	22.381
411.11	21.919
411.47	21.605
411.83	21.851
412.18	21.739
412.54	22.342
412.89	22.301
413.25	22.577
413.60	23.248
413.96	21.783
414.31	21.960
414.67	23.091
415.03	22.350
415.38	22.397
415.74	22.615
416.09	22.923
416.45	22.495
416.80	23.412
417.16	21.897
417.51	22.866
417.87	21.277
418.22	22.539
418.58	22.994
418.93	22.308
419.29	21.811
419.64	21.684
420.00	23.329
420.35	22.009
420.71	22.112
421.06	21.424
421.42	22.395
421.77	22.654
422.12	21.610
422.48	21.726
422.83	22.433
423.19	21.652
423.54	22.436
423.90	21.801
424.25	22.345
424.61	21.822
424.96	21.118
425.31	21.237
425.67	21.380
426.02	21.873
426.38	21.237
426.73	21.978
427.09	21.590
427.44	20.934
427.79	21.555
428.15	21.980
428.50	21.714
428.85	21.987
429.21	21.988
429.56	21.984
429.92	21.681
430.27	21.287
430.62	20.852
430.98	21.856
431.33	21.825
431.68	20.988
432.04	22.038
432.39	22.064
432.74	21.956
433.10	21.927
433.45	22.229
433.80	22.449
434.16	21.913
434.51	21.414
434.86	21.829
435.22	21.610
435.57	21.221
435.92	21.969
436.28	21.947
436.63	21.718
436.98	21.903
437.34	21.461
437.69	21.221
438.04	21.559
438.39	21.483
438.75	21.659
439.10	20.831
439.45	21.820
439.81	22.152
440.16	21.464
440.51	21.565
440.86	22.507
441.22	22.024
441.57	22.415
441.92	21.125
442.27	22.010
442.63	20.681
442.98	20.905
443.33	21.050
443.68	21.479
444.03	20.688
444.39	21.469
444.74	21.325
445.09	22.275
445.44	22.051
445.79	21.150
446.15	21.368
446.50	21.677
446.85	21.863
447.20	21.194
447.55	21.914
447.91	22.216
448.26	21.832
448.61	22.222
448.96	21.786
449.31	21.727
449.66	21.539
450.02	21.394
450.37	21.932
450.72	21.873
451.07	21.699
451.42	21.577
451.77	22.050
452.12	21.611
452.47	21.993
452.83	22.028
453.18	22.222
453.53	22.380
453.88	22.000
454.23	21.092
454.58	22.669
454.93	21.888
455.28	21.787
455.63	21.986
455.98	21.940
456.34	22.067
456.69	22.378
457.04	21.122
457.39	21.429
457.74	23.029
458.09	22.066
458.44	21.906
458.79	21.910
459.14	20.840
459.49	21.178
459.84	21.793
460.19	21.469
460.54	21.823
460.89	21.695
461.24	21.936
461.59	22.902
461.94	21.986
462.29	21.224
462.64	21.985
462.99	21.561
463.34	22.489
463.69	22.081
464.04	22.165
464.39	21.694
464.74	21.219
465.09	21.880
465.44	22.361
465.79	21.230
466.14	20.774
466.49	21.595
466.84	21.405
467.19	21.441
467.54	21.862
467.89	22.124
468.24	21.193
468.59	21.310
468.94	21.920
469.29	22.053
469.64	21.801
469.99	21.722
470.34	21.379
470.68	21.793
471.03	21.748
471.38	22.384
471.73	21.946
472.08	21.983
472.43	21.912
472.78	22.663
473.13	21.339
473.48	21.394
473.83	21.555
474.17	22.188
474.52	22.038
474.87	21.205
475.22	21.987
475.57	21.039
475.92	21.615
476.27	21.328
476.61	21.019
476.96	22.205
477.31	21.080
477.66	22.276
478.01	21.042
478.36	21.421
478.70	20.695
479.05	20.764
479.40	20.933
479.75	21.698
480.10	21.539
480.45	20.822
480.79	20.829
481.14	21.208
481.49	20.906
481.84	20.580
482.19	21.135
482.53	20.773
482.88	20.520
483.23	20.162
483.58	21.275
483.92	21.344
484.27	20.933
484.62	21.180
484.97	20.647
485.31	20.439
485.66	20.005
486.01	19.587
486.36	19.652
486.70	19.333
487.05	19.716
487.40	19.682
487.75	19.295
488.09	19.773
488.44	19.949
488.79	20.097
489.13	20.717
489.48	20.495
489.83	20.100
490.17	20.933
490.52	20.672
490.87	20.302
491.22	20.878
491.56	20.290
491.91	20.475
492.26	20.401
492.60	20.911
492.95	20.571
493.30	20.974
493.64	20.171
493.99	20.617
494.34	20.394
494.68	20.274
495.03	20.790
495.37	21.027
495.72	20.000
496.07	20.800
496.41	20.287
496.76	20.557
497.11	20.908
497.45	20.605
497.80	20.806
498.14	20.435
498.49	20.659
498.84	21.402
499.18	20.704
499.53	21.130
499.87	20.305
500.22	21.050
500.56	19.684
500.91	21.521
501.26	21.176
501.60	20.173
501.95	20.385
502.29	20.356
502.64	19.762
502.98	19.564
503.33	20.089
503.67	20.486
504.02	19.928
504.36	20.633
504.71	20.293
505.06	19.944
505.40	20.309
505.75	19.925
506.09	20.392
506.44	20.536
506.78	20.463
507.13	20.165
507.47	20.573
507.82	20.681
508.16	20.970
508.51	20.918
508.85	20.750
509.19	20.901
509.54	19.922
509.88	21.283
510.23	20.343
510.57	19.643
510.92	20.979
511.26	20.934
511.61	19.695
511.95	19.960
512.30	19.600
512.64	20.768
512.98	20.349
513.33	20.748
513.67	20.818
514.02	20.052
514.36	20.353
514.70	21.067
515.05	20.671
515.39	20.614
515.74	20.448
516.08	20.915
516.42	21.366
516.77	19.573
517.11	20.373
517.46	20.366
517.80	20.808
518.14	21.352
518.49	19.791
518.83	19.670
519.17	20.133
519.52	20.644
519.86	20.872
520.20	21.808
520.55	20.350
520.89	19.598
521.23	20.327
521.58	20.482
521.92	20.175
522.26	20.498
522.61	20.974
522.95	20.601
523.29	19.708
523.64	19.075
523.98	19.894
524.32	19.781
524.66	20.580
525.01	20.710
525.35	19.682
525.69	20.590
526.04	20.761
526.38	20.247
526.72	19.570
527.06	19.515
527.41	20.798
527.75	21.120
528.09	20.530
528.43	20.439
528.78	20.751
529.12	20.409
529.46	19.871
529.80	20.210
530.15	21.214
530.49	19.675
530.83	20.049
531.17	20.295
531.51	19.681
531.86	20.471
532.20	20.148
532.54	20.778
532.88	21.237
533.22	21.085
533.57	21.110
533.91	20.280
534.25	19.158
534.59	20.994
534.93	20.648
535.27	18.668
535.62	19.662
535.96	19.444
536.30	20.293
536.64	19.503
536.98	20.327
537.32	20.500
537.66	19.770
538.01	20.310
538.35	20.274
538.69	19.721
539.03	19.154
539.37	18.629
539.71	20.000
540.05	19.446
540.39	19.937
540.73	20.063
541.07	19.887
541.42	19.216
541.76	19.852
542.10	20.160
542.44	20.387
542.78	19.257
543.12	19.632
543.46	19.925
543.80	19.674
544.14	19.752
544.48	19.830
544.82	19.633
545.16	19.611
545.50	19.422
545.84	20.076
546.18	20.936
546.52	19.148
546.86	20.825
547.20	19.444
547.54	19.379
547.88	19.100
548.22	18.944
548.56	19.151
548.90	18.565
549.24	19.078
549.58	19.137
549.92	20.105
550.26	20.014
550.60	18.696
550.94	20.421
551.28	20.000
551.62	20.138
551.96	20.000
552.30	18.721
552.64	20.129
552.98	19.265
553.32	19.526
553.66	19.153
554.00	19.176
554.34	20.040
554.68	19.153
555.02	19.484
555.36	19.082
555.69	20.026
556.03	20.127
556.37	19.694
556.71	20.013
557.05	18.349
557.39	20.800
557.73	19.407
558.07	19.987
558.41	19.328
558.75	20.246
559.08	21.086
559.42	19.757
559.76	20.456
560.10	19.408
560.44	19.509
560.78	20.141
561.12	19.771
561.45	18.836
561.79	18.851
562.13	19.204
562.47	18.494
562.81	19.714
563.15	19.522
563.48	18.137
563.82	19.152
564.16	18.532
564.50	18.445
564.84	19.331
565.17	17.885
565.51	19.335
565.85	19.494
566.19	18.869
566.52	18.351
566.86	19.031
567.20	19.101
567.54	18.504
567.88	19.249
568.21	18.472
568.55	18.628
568.89	17.883
569.23	17.860
569.56	17.971
569.90	17.751
570.24	17.751
570.57	17.748
570.91	17.254
571.25	17.319
571.59	16.751
571.92	16.981
572.26	16.981
572.60	17.106
572.93	17.625
573.27	17.088
573.61	16.649
573.95	16.708
574.28	17.014
574.62	16.884
574.96	16.840
575.29	16.459
575.63	16.938
575.97	16.456
576.30	16.477
576.64	16.492
576.98	16.671
577.31	17.021
577.65	16.410
577.98	16.394
578.32	16.332
578.66	16.855
578.99	16.992
579.33	16.554
579.67	16.640
580.00	16.327
580.34	16.696
580.67	16.376
581.01	16.765
581.35	16.557
581.68	16.528
582.02	16.322
582.35	16.563
582.69	16.385
583.02	16.721
583.36	17.043
583.70	16.325
584.03	16.803
584.37	16.784
584.70	16.696
585.04	17.083
585.37	16.141
585.71	16.674
586.04	16.640
586.38	16.758
586.72	16.551
587.05	16.727
587.39	16.966
587.72	16.614
588.06	16.216
588.39	16.684
588.73	16.344
589.06	16.866
589.40	17.246
589.73	16.683
590.07	17.159
590.40	17.247
590.73	17.407
591.07	17.761
591.40	17.126
591.74	17.127
592.07	16.473
592.41	17.266
592.74	17.100
593.08	17.025
593.41	16.846
593.75	16.837
594.08	17.154
594.41	16.846
594.75	16.952
595.08	16.975
595.42	16.754
595.75	16.091
596.09	16.615
596.42	16.715
596.75	17.468
597.09	17.045
597.42	16.980
597.75	17.525
598.09	16.496
598.42	17.095
598.76	16.577
599.09	17.212
599.42	16.920
599.76	16.927
600.09	16.847
600.42	17.196
600.76	16.383
601.09	16.845
601.42	16.825
601.76	16.434
602.09	16.998
602.42	16.858
602.76	16.812
603.09	17.232
603.42	17.064
603.76	16.341
604.09	16.612
604.42	16.610
604.76	16.831
605.09	16.653
605.42	16.619
605.75	16.936
606.09	17.253
606.42	16.498
606.75	16.829
607.09	16.463
607.42	16.352
607.75	16.839
608.08	17.465
608.42	17.576
608.75	16.303
609.08	16.630
609.41	17.545
609.75	16.621
610.08	16.682
610.41	16.776
610.74	17.359
611.07	17.144
611.41	17.424
611.74	17.065
612.07	16.908
612.40	16.813
612.73	17.074
613.07	17.131
613.40	17.895
613.73	17.723
614.06	16.200
614.39	17.172
614.72	17.428
615.06	16.864
615.39	16.584
615.72	16.360
616.05	16.876
616.38	16.591
616.71	16.549
617.05	16.804
617.38	17.416
617.71	16.592
618.04	17.050
618.37	17.287
618.70	17.783
619.03	16.850
619.36	18.342
619.69	17.216
620.03	18.395
620.36	17.534
620.69	18.966
621.02	18.478
621.35	18.481
621.68	18.510
622.01	18.745
622.34	17.771
622.67	17.978
623.00	17.699
623.33	18.219
623.66	17.432
623.99	17.877
624.32	17.073
624.65	17.709
624.99	18.391
625.32	17.034
625.65	16.828
625.98	17.015
626.31	17.359
626.64	17.084
626.97	17.904
627.30	18.634
627.63	19.074
627.96	17.919
628.29	17.739
628.62	17.793
628.95	18.085
629.28	18.054
629.61	19.069
629.94	18.323
630.26	18.284
630.59	19.326
630.92	18.027
631.25	20.399
631.58	19.672
631.91	18.268
632.24	19.145
632.57	18.369
632.90	19.565
633.23	18.993
633.56	20.021
633.89	19.829
634.22	19.699
634.55	19.570
634.88	19.606
635.20	21.188
635.53	19.512
635.86	20.246
636.19	20.202
636.52	18.054
636.85	19.310
637.18	19.827
637.51	18.659
637.83	18.192
638.16	21.571
638.49	20.958
638.82	20.305
639.15	18.801
639.48	19.787
639.81	20.147
640.13	20.123
640.46	18.837
640.79	21.066
641.12	20.079
641.45	20.181
641.77	21.929
642.10	19.143
642.43	20.626
642.76	18.040
643.09	21.037
643.41	20.056
643.74	20.576
644.07	19.322
644.40	19.822
644.73	19.820
645.05	21.248
645.38	20.214
645.71	21.851
646.04	21.221
646.36	19.875
646.69	23.200
647.02	20.960
647.35	20.630
647.67	21.394
648.00	21.010
648.33	20.752
648.66	20.152
648.98	19.855
649.31	18.758
649.64	19.087
649.96	18.919
650.29	20.286
650.62	21.208
650.94	21.687
651.27	21.053
651.60	20.344
651.92	21.505
652.25	21.732
652.58	21.277
652.90	20.659
653.23	20.827
653.56	20.030
653.88	20.558
654.21	19.501
654.54	19.766
654.86	19.174
655.19	20.580
655.52	16.610
655.84	13.792
656.17	15.497
656.49	22.912
656.82	26.971
657.15	22.126
657.47	16.373
657.80	11.628
658.13	8.966
658.45	11.812
658.78	14.608
659.10	14.950
659.43	14.863
659.75	15.995
660.08	17.669
660.41	19.147
660.73	20.703
661.06	20.871
661.38	21.635
661.71	20.863
662.03	20.913
662.36	21.714
662.68	21.229
663.01	23.784
663.33	21.132
663.66	22.091
663.98	23.016
664.31	22.015
664.63	23.946
664.96	24.203
665.28	19.209
665.61	21.321
665.93	22.453
666.26	20.748
666.58	23.670
666.91	22.973
667.23	21.888
667.56	23.203
667.88	21.162
668.21	24.590
668.53	21.371
668.86	23.647
669.18	20.978
669.50	21.694
669.83	23.203
670.15	21.830
670.48	20.312
670.80	21.315
671.13	21.116
671.45	22.645
671.77	23.006
672.10	22.980
672.42	20.888
672.75	19.937
673.07	21.463
673.39	19.169
673.72	20.069
674.04	21.505
674.37	21.053
674.69	20.260
675.01	19.590
675.34	20.930
675.66	24.805
675.98	21.302
676.31	22.800
676.63	23.062
676.95	23.016
677.28	21.907
677.60	22.736
677.92	21.627
678.25	22.481
678.57	20.298
678.89	21.881
679.22	20.772
679.54	21.174
679.86	21.291
680.18	19.332
680.51	20.398
680.83	18.919
681.15	20.277
681.48	22.222
681.80	19.790
682.12	20.934
682.44	20.000
682.77	20.819
683.09	20.971
683.41	22.857
683.73	21.654
684.06	21.032
684.38	22.674
684.70	21.942
685.02	18.924
685.34	19.894
685.67	22.508
685.99	20.361
686.31	20.955
686.63	19.350
686.96	20.098
687.28	19.966
687.60	19.625
687.92	19.933
688.24	21.897
688.56	22.776
688.89	18.547
689.21	22.736
689.53	20.949
689.85	21.545
690.17	21.359
690.49	21.976
690.82	21.429
691.14	23.232
691.46	21.971
691.78	22.222
692.10	21.374
692.42	19.238
692.74	19.961
693.06	19.767
693.39	22.332
693.71	20.629
694.03	23.077
694.35	23.494
694.67	21.996
694.99	21.508
695.31	22.973
695.63	23.756
695.95	20.588
696.27	23.894
696.59	21.241
696.91	21.772
697.23	21.946
697.56	19.502
697.88	17.565
698.20	22.075
698.52	20.623
698.84	22.382
699.16	23.881
699.48	20.127
699.80	24.183
700.12	21.247
700.44	21.262
700.76	22.673
701.08	20.888
701.40	22.857
701.72	26.738
702.04	23.035
702.36	22.849
702.68	23.138
703.00	20.050
703.32	22.581
703.64	22.922
703.96	22.656
704.28	24.868
704.60	23.662
704.91	23.529
705.23	25.000
705.55	24.332
705.87	25.079
706.19	25.705
706.51	28.840
706.83	23.894
707.15	25.668
707.47	22.760
707.79	24.368
708.11	22.902
708.43	22.247
708.74	21.041
709.06	22.791
709.38	26.055
709.70	22.616
710.02	22.283
710.34	23.481
710.66	26.111
710.98	26.503
711.29	21.727
711.61	26.741
711.93	24.316
712.25	23.795
712.57	25.402
712.89	25.455
713.20	27.796
713.52	26.168
713.84	23.867
714.16	20.870
714.48	21.902
714.80	23.577
715.11	21.543
715.43	20.670
715.75	22.254
716.07	22.254
716.39	24.286
716.70	23.676
717.02	23.569
717.34	25.899
717.66	29.861
717.97	27.652
718.29	28.169
718.61	23.311
718.93	23.529
719.24	29.866
719.56	21.034
719.88	25.478
720.20	22.903
720.51	21.569
720.83	25.753
721.15	24.490
721.46	21.918
721.78	25.436
722.10	31.597
722.42	27.090
722.73	24.188
723.05	25.965
723.37	27.915
723.68	23.437
724.00	25.758
724.32	25.095
724.63	27.692
724.95	27.059
725.27	26.394
725.58	25.735
725.90	24.296
726.22	24.658
726.53	21.405
726.85	26.384
727.16	26.174
727.48	25.914
727.80	27.698
728.11	27.857
728.43	23.913
728.74	27.273
729.06	23.656
729.38	25.965
729.69	27.000
730.01	27.961
730.32	28.859
730.64	29.900
730.96	23.123
731.27	19.266
731.59	21.552
731.90	21.448
732.22	24.000
732.53	17.949
732.85	25.439
733.16	23.193
733.48	24.138
733.80	28.696
734.11	27.301
734.43	22.515
734.74	23.056
735.06	24.868
735.37	19.845
735.69	25.797
736.00	29.358
736.32	23.030
736.63	20.189
736.95	22.050
737.26	21.646
737.58	21.472
737.89	25.904
738.21	25.166
738.52	23.746
738.83	29.670
739.15	27.875
739.46	24.828
739.78	27.551
740.09	25.364
740.41	23.006
740.72	26.667
741.04	24.825
741.35	30.859
741.66	28.854
741.98	31.330
742.29	30.093
742.61	28.761
742.92	24.576
743.23	25.200
743.55	25.660
743.86	25.490
744.18	25.424
744.49	30.579
744.80	26.728
745.12	30.357
745.43	29.907
745.74	28.000
746.06	26.754
746.37	23.721
746.68	30.531
747.00	27.354
747.31	28.151
747.62	24.590
747.94	23.605
748.25	26.070
748.56	29.237
748.88	22.321
749.19	26.047
749.50	21.005
749.82	27.984
750.13	24.901
750.44	25.333
750.75	27.852
751.07	24.671
751.38	24.422
751.69	24.579
752.01	23.776
752.32	24.917
752.63	26.174
752.94	26.573
753.26	29.688
753.57	27.237
753.88	23.221
754.19	26.715
754.51	24.585
754.82	21.812
755.13	23.649
755.44	24.074
755.75	27.835
756.07	27.740
756.38	27.451
756.69	19.063
757.00	27.596
757.31	22.535
757.63	19.835
757.94	20.745
758.25	23.671
758.56	19.451
758.87	24.812
759.18	24.419
759.50	23.404
759.81	25.223
760.12	22.753
760.43	24.370
760.74	25.316
761.05	23.342
761.36	19.531
761.67	24.259
761.99	25.915
762.30	23.151
762.61	22.917
762.92	25.758
763.23	26.415
763.54	23.462
763.85	25.292
764.16	28.819
764.47	27.365
764.78	25.407
765.10	21.646
765.41	20.170
765.72	18.232
766.03	23.867
766.34	23.693
766.65	27.376
766.96	28.745
767.27	29.439
767.58	28.218
767.89	33.702
768.20	35.976
768.51	25.510
768.82	27.193
769.13	28.627
769.44	24.812
769.75	24.345
770.06	27.311
770.37	25.439
770.68	26.222
770.99	27.119
771.30	27.615
771.61	26.923
771.92	26.336
772.23	22.177
772.54	28.444
772.85	30.198
773.16	33.696
773.47	30.556
773.78	29.208
774.09	31.250
774.39	35.152
774.70	24.118
775.01	29.605
775.32	31.056
775.63	28.082
775.94	38.889
776.25	38.621
776.56	36.641
776.87	35.878
777.18	35.606
777.48	42.520
777.79	37.692
778.10	44.697
778.41	41.045
778.72	33.083
779.03	36.538
779.34	34.459
779.65	36.646
779.95	39.752
780.26	33.929
780.57	42.177
780.88	34.752
781.19	40.000
781.50	33.136
781.80	36.612
782.11	33.862
782.42	29.885
782.73	34.463
783.04	31.613
783.34	29.457
783.65	39.456
783.96	39.355
784.27	33.113
784.57	31.579
784.88	36.957
785.19	38.333
785.50	37.069
785.81	44.186
786.11	40.000
786.42	40.157
786.73	32.432
787.04	41.509
787.34	35.772
787.65	34.091
787.96	42.424
788.26	45.669
788.57	40.876
788.88	41.549
789.19	43.511
789.49	39.189
789.80	40.625
790.11	37.190
790.41	42.593
790.72	39.815
791.03	50.962
791.33	41.414
791.64	37.895
791.95	53.684
792.25	41.667
792.56	39.000
792.87	40.244
793.17	56.818
793.48	57.647
793.79	59.770
794.09	45.455
794.40	53.448
794.70	42.857
795.01	36.923
795.32	29.008
795.62	29.060
795.93	48.739
796.23	43.902
796.54	44.898
796.85	37.500
797.15	45.455
797.46	50.000
797.76	38.750
798.07	48.000
798.37	42.500
798.68	45.000
798.99	58.537
799.29	45.333
799.60	37.209
799.90	38.158
800.21	62.121
800.51	67.606
800.82	63.793
801.12	61.538
801.43	60.000
801.73	68.966
802.04	53.247
802.34	61.644
802.65	78.431
802.95	65.217
803.26	75.806
803.56	76.667
803.87	64.179
804.17	55.556
804.48	58.491
804.78	52.778
805.09	60.606
805.39	68.254
805.70	80.702
806.00	58.571
806.30	59.375
806.61	55.294
806.91	55.556
807.22	42.391
807.52	39.474
807.83	65.789
808.13	47.826
808.43	80.645
808.74	61.644
809.04	75.000
809.35	51.471
809.65	80.303
809.95	72.549
810.26	90.741
810.56	62.500
810.86	53.061
811.17	78.947
811.47	78.261
811.77	62.069
812.08	53.448
812.38	78.571
812.69	88.095
812.99	91.111
813.29	91.429
813.59	100.000
813.90	62.069
814.20	77.049
814.50	64.000
814.81	71.930
815.11	79.630
815.41	64.286
815.72	66.071
816.02	70.000
816.32	87.805
816.62	65.517
816.93	112.121
817.23	85.366
817.53	75.000
817.84	77.778
818.14	71.429
818.44	83.333
818.74	79.245
819.04	82.051
819.35	96.970
819.65	78.846
819.95	90.741
820.25	63.830
820.56	67.568
820.86	92.105
821.16	74.468
821.46	107.895
821.76	87.273
822.07	69.048
822.37	76.316
822.67	100.000
822.97	76.316
823.27	102.174
823.57	81.250
823.88	100.000
824.18	96.970
824.48	126.087
824.78	102.778
825.08	126.087
825.38	124.138
825.69	97.059
825.99	63.830
826.29	80.556
826.59	102.857
826.89	130.000
827.19	85.714
827.49	116.129
827.79	138.462
828.09	92.857
828.39	91.667
828.70	78.378
829.00	142.857
829.30	131.250
829.60	91.667
829.90	112.903
830.20	106.061
830.50	132.432
830.80	166.667
831.10	157.692
831.40	128.571
831.70	162.500
832.00	126.667
832.30	160.870
832.60	154.167
832.90	151.515
833.20	150.000
833.50	105.263
833.80	108.824
834.10	78.947
834.40	157.895
834.70	103.333
835.00	140.000
835.30	72.973
835.60	131.250
835.90	108.108
836.20	123.077
836.50	109.091
836.80	78.049
837.10	91.304
837.40	292.308
837.70	121.053
838.00	160.000
838.30	150.000
838.60	152.000
838.90	330.000
839.19	187.500
839.49	140.000
839.79	134.483
840.09	126.923
840.39	206.667
840.69	231.579
840.99	161.905
841.29	165.217
841.59	175.000
841.88	156.000
842.18	188.889
842.48	110.714
842.78	133.333
843.08	223.077
843.38	136.364
843.68	271.429
843.97	442.857
844.27	126.087
844.57	1200.000
844.87	292.857
845.17	227.778
845.47	142.857
845.76	145.833
846.06	400.000
846.36	170.588
846.66	200.000
846.96	187.500
847.25	153.846
847.55	121.053
847.85	194.444
848.15	520.000
848.44	300.000
848.74	133.333
849.04	133.333
849.34	105.882
849.63	206.250
849.93	218.750
850.23	866.667
850.53	362.500
850.82	236.364
851.12	211.765
851.42	141.667
851.71	181.250
852.01	0.000
852.31	205.882
852.61	330.000
852.90	158.333
853.20	344.444
853.50	-1300.000
853.79	120.000
854.09	143.750
854.39	127.586
854.68	162.069
854.98	185.714
855.28	93.548
855.57	314.286
855.87	205.556
856.17	129.630
856.46	189.474
856.76	119.355
857.05	270.588
857.35	245.455
857.65	238.462
857.94	140.000
858.24	322.222
858.53	300.000
858.83	671.429
859.13	213.043
859.42	300.000
859.72	337.500
860.01	200.000
860.31	575.000
860.60	360.000
860.90	362.500
861.20	200.000
861.49	300.000
861.79	-2900.000
862.08	457.143
862.38	333.333
862.67	257.143
862.97	300.000
863.26	126.667
863.56	675.000
863.85	207.692
864.15	264.706
864.44	205.556
864.74	358.333
865.03	281.818
865.33	337.500
865.62	213.333
865.92	550.000
866.21	775.000
866.51	520.000
866.80	233.333
867.10	666.667
867.39	3700.000
867.69	440.000
867.98	750.000
868.27	147.619
868.57	300.000
868.86	1000.000
869.16	114.286
869.45	3000.000
869.75	-416.667
870.04	700.000
870.33	640.000
870.63	437.500
870.92	217.647
871.22	550.000
871.51	500.000
871.80	325.000
872.10	246.154
>>>>>End Processed Spectral Data<<<<<
