SpectraSuite Data File
++++++++++++++++++++++++++++++++++++
Date: Tue May 12 16:39:54 PDT 2015
User: schluterlab
Dark Spectrum Present: Yes
Reference Spectrum Present: Yes
Number of Sampled Component Spectra: 1
Spectrometers: USB2E3373
Integration Time (usec): 3000 (USB2E3373)
Spectra Averaged: 3 (USB2E3373)
Boxcar Smoothing: 0 (USB2E3373)
Correct for Electrical Dark: No (USB2E3373)
Strobe/Lamp Enabled: No (USB2E3373)
Correct for Detector Non-linearity: No (USB2E3373)
Correct for Stray Light: No (USB2E3373)
Number of Pixels in Processed Spectrum: 2048
>>>>>Begin Processed Spectral Data<<<<<
178.53	0.000
178.91	-250.000
179.29	-600.000
179.67	-2500.000
180.04	-100.000
180.42	625.000
180.80	1400.000
181.18	0.000
181.56	-275.000
181.94	0.000
182.31	866.667
182.69	-2600.000
183.07	528.571
183.45	-3400.000
183.83	-1100.000
184.20	410.000
184.58	371.429
184.96	-269.231
185.34	-283.333
185.72	1750.000
186.09	-775.000
186.47	-3000.000
186.85	1033.333
187.23	700.000
187.61	1750.000
187.98	412.500
188.36	292.857
188.74	308.333
189.12	266.667
189.49	850.000
189.87	0.000
190.25	387.500
190.63	3000.000
191.00	-191.667
191.38	-3600.000
191.76	-600.000
192.14	537.500
192.51	-1500.000
192.89	1300.000
193.27	733.333
193.65	-1066.667
194.02	-600.000
194.40	600.000
194.78	-114.286
195.15	286.667
195.53	-1800.000
195.91	-440.000
196.29	3600.000
196.66	162.500
197.04	825.000
197.42	-1600.000
197.79	475.000
198.17	308.333
198.55	0.000
198.92	471.429
199.30	1233.333
199.68	2000.000
200.05	733.333
200.43	-550.000
200.81	233.333
201.18	3100.000
201.56	266.667
201.94	-600.000
202.31	-262.500
202.69	-460.000
203.07	2500.000
203.44	-516.667
203.82	266.667
204.19	720.000
204.57	-1100.000
204.95	-550.000
205.32	-560.000
205.70	466.667
206.08	425.000
206.45	-766.667
206.83	333.333
207.20	184.211
207.58	216.667
207.96	480.000
208.33	0.000
208.71	685.714
209.08	660.000
209.46	-1700.000
209.84	-800.000
210.21	720.000
210.59	-460.000
210.96	258.333
211.34	-800.000
211.71	336.364
212.09	750.000
212.46	1350.000
212.84	-316.667
213.22	422.222
213.59	-3000.000
213.97	290.000
214.34	975.000
214.72	766.667
215.09	833.333
215.47	-3700.000
215.84	-270.000
216.22	-400.000
216.59	0.000
216.97	0.000
217.34	950.000
217.72	-1050.000
218.09	1266.667
218.47	350.000
218.84	825.000
219.22	1266.667
219.59	633.333
219.97	457.143
220.34	400.000
220.72	1150.000
221.09	2600.000
221.47	225.000
221.84	800.000
222.22	290.000
222.59	194.444
222.97	214.286
223.34	250.000
223.72	-1650.000
224.09	900.000
224.46	223.077
224.84	-575.000
225.21	355.556
225.59	246.667
225.96	866.667
226.34	-680.000
226.71	-575.000
227.08	-440.000
227.46	0.000
227.83	-500.000
228.21	-1650.000
228.58	316.667
228.95	950.000
229.33	288.889
229.70	975.000
230.08	346.154
230.45	3000.000
230.82	-875.000
231.20	-633.333
231.57	-866.667
231.95	500.000
232.32	366.667
232.69	516.667
233.07	191.667
233.44	-1150.000
233.81	173.333
234.19	159.259
234.56	181.250
234.93	270.588
235.31	195.000
235.68	193.750
236.05	153.571
236.43	122.222
236.80	214.286
237.17	158.621
237.55	103.125
237.92	132.500
238.29	81.818
238.67	96.875
239.04	95.122
239.41	85.417
239.79	77.500
240.16	68.750
240.53	62.295
240.91	65.217
241.28	64.407
241.65	69.697
242.02	64.789
242.40	57.143
242.77	54.945
243.14	40.506
243.51	50.505
243.89	46.729
244.26	45.794
244.63	40.594
245.00	40.367
245.38	38.136
245.75	34.848
246.12	40.741
246.49	32.624
246.87	25.410
247.24	33.333
247.61	33.125
247.98	34.694
248.36	24.848
248.73	35.714
249.10	29.762
249.47	30.500
249.84	30.846
250.22	30.270
250.59	24.500
250.96	24.895
251.33	25.581
251.70	27.232
252.08	29.832
252.45	24.303
252.82	22.053
253.19	24.901
253.56	18.846
253.94	23.551
254.31	27.132
254.68	26.132
255.05	23.448
255.42	25.182
255.79	23.127
256.16	21.017
256.54	22.403
256.91	19.935
257.28	20.401
257.65	21.003
258.02	20.649
258.39	26.074
258.76	24.928
259.14	16.571
259.51	24.490
259.88	18.541
260.25	17.857
260.62	21.918
260.99	18.457
261.36	18.106
261.73	19.681
262.10	19.634
262.47	18.750
262.85	18.933
263.22	20.566
263.59	19.693
263.96	22.306
264.33	17.531
264.70	22.113
265.07	22.195
265.44	17.661
265.81	19.811
266.18	20.366
266.55	19.149
266.92	19.016
267.29	18.640
267.66	16.368
268.03	19.058
268.40	16.490
268.77	19.163
269.14	18.004
269.51	18.263
269.88	18.980
270.25	19.654
270.62	18.670
270.99	20.081
271.36	18.089
271.73	17.820
272.10	16.768
272.47	16.865
272.84	16.567
273.21	18.182
273.58	18.826
273.95	15.195
274.32	17.704
274.69	18.504
275.06	16.029
275.43	18.008
275.80	16.415
276.17	17.463
276.54	16.822
276.91	16.045
277.28	16.241
277.65	17.528
278.02	17.463
278.39	16.727
278.76	18.448
279.13	17.082
279.50	16.909
279.87	16.201
280.23	16.390
280.60	15.693
280.97	15.517
281.34	17.987
281.71	16.522
282.08	17.265
282.45	15.372
282.82	15.552
283.19	17.011
283.56	15.702
283.92	16.775
284.29	15.807
284.66	15.126
285.03	15.755
285.40	15.702
285.77	14.969
286.14	17.028
286.51	16.104
286.87	13.924
287.24	14.114
287.61	15.350
287.98	14.776
288.35	14.370
288.72	12.898
289.08	15.766
289.45	15.396
289.82	15.625
290.19	14.056
290.56	17.176
290.93	14.676
291.29	13.950
291.66	12.994
292.03	15.989
292.40	14.905
292.77	11.421
293.13	14.408
293.50	12.551
293.87	13.957
294.24	14.545
294.60	14.266
294.97	13.427
295.34	13.679
295.71	14.323
296.08	13.467
296.44	13.469
296.81	12.655
297.18	12.041
297.55	12.562
297.91	12.192
298.28	13.406
298.65	12.270
299.02	11.701
299.38	12.470
299.75	12.561
300.12	12.729
300.48	12.529
300.85	12.872
301.22	11.395
301.59	11.203
301.95	11.785
302.32	10.710
302.69	12.104
303.05	13.244
303.42	10.650
303.79	11.484
304.15	11.221
304.52	11.099
304.89	11.940
305.25	12.125
305.62	12.154
305.99	10.652
306.35	11.158
306.72	12.279
307.09	9.627
307.45	11.721
307.82	10.288
308.19	11.856
308.55	10.900
308.92	12.169
309.29	11.440
309.65	10.704
310.02	11.968
310.38	11.167
310.75	10.029
311.12	10.728
311.48	11.969
311.85	11.546
312.22	10.984
312.58	10.787
312.95	10.874
313.31	10.300
313.68	11.632
314.05	11.172
314.41	10.521
314.78	10.701
315.14	11.280
315.51	11.637
315.87	11.314
316.24	11.018
316.61	10.295
316.97	9.174
317.34	10.961
317.70	12.028
318.07	11.388
318.43	11.248
318.80	11.121
319.16	10.927
319.53	10.796
319.89	10.215
320.26	13.035
320.62	11.905
320.99	10.677
321.35	11.874
321.72	12.239
322.08	11.542
322.45	11.262
322.81	9.973
323.18	12.078
323.54	12.195
323.91	11.423
324.27	12.732
324.64	10.900
325.00	12.155
325.37	12.142
325.73	12.816
326.10	12.593
326.46	11.726
326.83	12.000
327.19	11.406
327.56	11.821
327.92	12.049
328.29	12.766
328.65	12.500
329.01	12.660
329.38	11.506
329.74	11.272
330.11	11.729
330.47	13.214
330.84	10.871
331.20	11.844
331.56	12.781
331.93	11.891
332.29	11.054
332.66	12.415
333.02	11.254
333.38	11.955
333.75	12.344
334.11	12.332
334.48	11.197
334.84	11.149
335.20	12.746
335.57	12.343
335.93	11.859
336.29	10.779
336.66	13.808
337.02	11.206
337.38	11.350
337.75	11.993
338.11	12.574
338.47	11.770
338.84	11.770
339.20	10.390
339.56	11.102
339.93	11.288
340.29	11.681
340.65	11.484
341.02	12.872
341.38	11.330
341.74	12.791
342.11	10.684
342.47	10.993
342.83	11.157
343.20	11.641
343.56	10.167
343.92	10.900
344.28	12.360
344.65	11.328
345.01	10.794
345.37	10.497
345.73	11.429
346.10	10.598
346.46	11.244
346.82	10.262
347.19	11.901
347.55	10.461
347.91	10.952
348.27	9.682
348.63	10.759
349.00	10.891
349.36	10.661
349.72	11.239
350.08	10.792
350.45	11.500
350.81	11.391
351.17	10.169
351.53	10.701
351.89	10.334
352.26	10.280
352.62	10.181
352.98	11.043
353.34	11.248
353.70	9.327
354.07	10.923
354.43	10.369
354.79	9.795
355.15	10.184
355.51	10.423
355.87	10.843
356.24	10.162
356.60	10.502
356.96	9.553
357.32	10.550
357.68	11.454
358.04	10.790
358.40	10.345
358.77	10.744
359.13	11.036
359.49	10.156
359.85	10.276
360.21	9.584
360.57	10.073
360.93	11.183
361.29	10.534
361.66	10.515
362.02	9.872
362.38	10.101
362.74	9.908
363.10	9.677
363.46	9.323
363.82	10.940
364.18	10.740
364.54	10.157
364.90	11.178
365.26	10.409
365.62	9.047
365.98	9.704
366.35	9.862
366.71	11.103
367.07	10.171
367.43	10.208
367.79	10.106
368.15	9.023
368.51	9.855
368.87	9.986
369.23	10.534
369.59	10.249
369.95	10.629
370.31	9.377
370.67	9.924
371.03	10.154
371.39	11.357
371.75	9.421
372.11	11.013
372.47	10.000
372.83	9.857
373.19	10.144
373.55	10.997
373.91	9.185
374.27	9.127
374.63	10.034
374.99	9.704
375.35	10.013
375.71	11.412
376.07	9.549
376.42	9.783
376.78	10.790
377.14	9.174
377.50	10.237
377.86	9.609
378.22	10.299
378.58	10.654
378.94	9.897
379.30	9.400
379.66	10.476
380.02	10.029
380.38	8.958
380.74	10.035
381.09	9.988
381.45	9.422
381.81	9.456
382.17	9.219
382.53	8.998
382.89	9.876
383.25	10.243
383.61	9.798
383.97	9.598
384.32	9.584
384.68	10.992
385.04	10.023
385.40	10.024
385.76	9.128
386.12	10.019
386.48	10.152
386.83	9.597
387.19	9.717
387.55	9.305
387.91	9.758
388.27	10.351
388.62	11.092
388.98	10.262
389.34	9.578
389.70	9.434
390.06	10.122
390.42	9.624
390.77	10.258
391.13	10.199
391.49	10.587
391.85	10.031
392.20	10.131
392.56	10.215
392.92	9.714
393.28	9.137
393.64	9.748
393.99	9.959
394.35	10.418
394.71	9.650
395.07	9.489
395.42	9.368
395.78	10.302
396.14	10.602
396.50	9.446
396.85	9.512
397.21	9.807
397.57	9.683
397.92	8.492
398.28	9.046
398.64	9.773
399.00	9.300
399.35	9.554
399.71	9.327
400.07	8.961
400.42	9.194
400.78	9.795
401.14	10.100
401.49	9.101
401.85	10.023
402.21	9.783
402.57	10.054
402.92	10.242
403.28	9.606
403.63	9.358
403.99	9.228
404.35	10.199
404.70	10.278
405.06	9.096
405.42	9.455
405.77	9.427
406.13	9.707
406.49	8.982
406.84	9.193
407.20	9.475
407.55	9.169
407.91	9.700
408.27	10.249
408.62	9.698
408.98	9.817
409.34	9.410
409.69	9.210
410.05	9.183
410.40	9.835
410.76	9.044
411.11	9.538
411.47	9.938
411.83	10.252
412.18	8.937
412.54	9.910
412.89	8.909
413.25	9.293
413.60	9.813
413.96	9.396
414.31	8.973
414.67	10.428
415.03	9.387
415.38	9.842
415.74	9.728
416.09	10.306
416.45	10.860
416.80	10.263
417.16	9.612
417.51	9.554
417.87	10.138
418.22	9.842
418.58	9.299
418.93	9.459
419.29	9.365
419.64	9.873
420.00	10.382
420.35	9.988
420.71	8.868
421.06	9.358
421.42	9.614
421.77	10.105
422.12	9.647
422.48	9.656
422.83	10.156
423.19	9.125
423.54	10.368
423.90	9.003
424.25	9.081
424.61	9.925
424.96	9.543
425.31	9.414
425.67	9.428
426.02	9.759
426.38	9.160
426.73	9.774
427.09	10.083
427.44	8.948
427.79	9.434
428.15	9.959
428.50	9.429
428.85	9.347
429.21	9.833
429.56	9.521
429.92	9.697
430.27	9.724
430.62	8.957
430.98	9.331
431.33	9.073
431.68	8.593
432.04	9.105
432.39	9.056
432.74	10.539
433.10	9.247
433.45	9.248
433.80	9.928
434.16	8.776
434.51	9.701
434.86	9.690
435.22	9.022
435.57	9.781
435.92	9.960
436.28	10.138
436.63	9.238
436.98	9.516
437.34	10.731
437.69	9.574
438.04	9.677
438.39	9.982
438.75	9.800
439.10	9.498
439.45	9.271
439.81	10.121
440.16	10.402
440.51	9.572
440.86	10.370
441.22	8.983
441.57	9.081
441.92	9.576
442.27	9.485
442.63	9.858
442.98	9.321
443.33	9.802
443.68	9.658
444.03	9.425
444.39	9.793
444.74	9.265
445.09	9.268
445.44	9.671
445.79	9.552
446.15	9.000
446.50	9.968
446.85	9.163
447.20	9.254
447.55	8.972
447.91	9.909
448.26	9.744
448.61	9.066
448.96	10.022
449.31	9.791
449.66	10.133
450.02	9.292
450.37	10.383
450.72	9.421
451.07	9.715
451.42	10.077
451.77	9.737
452.12	9.586
452.47	9.842
452.83	9.577
453.18	10.210
453.53	10.361
453.88	9.600
454.23	9.878
454.58	10.140
454.93	10.178
455.28	10.588
455.63	9.634
455.98	9.927
456.34	10.517
456.69	10.000
457.04	9.666
457.39	9.257
457.74	11.036
458.09	9.321
458.44	9.967
458.79	9.549
459.14	8.729
459.49	10.419
459.84	9.837
460.19	9.944
460.54	9.972
460.89	10.021
461.24	9.794
461.59	10.317
461.94	9.870
462.29	9.954
462.64	10.490
462.99	10.045
463.34	10.499
463.69	11.192
464.04	10.535
464.39	9.960
464.74	9.672
465.09	9.808
465.44	9.521
465.79	9.363
466.14	9.857
466.49	9.821
466.84	9.922
467.19	9.842
467.54	9.910
467.89	10.446
468.24	9.612
468.59	9.881
468.94	9.964
469.29	10.202
469.64	11.125
469.99	10.861
470.34	10.436
470.68	10.483
471.03	10.207
471.38	10.795
471.73	10.189
472.08	10.176
472.43	10.615
472.78	10.883
473.13	9.887
473.48	9.841
473.83	10.012
474.17	9.666
474.52	11.552
474.87	9.608
475.22	10.166
475.57	9.601
475.92	9.607
476.27	9.358
476.61	9.383
476.96	10.084
477.31	9.974
477.66	10.038
478.01	9.954
478.36	9.887
478.70	9.677
479.05	9.310
479.40	10.268
479.75	10.228
480.10	10.213
480.45	9.757
480.79	10.184
481.14	9.891
481.49	9.561
481.84	9.719
482.19	9.520
482.53	9.398
482.88	9.991
483.23	9.427
483.58	10.054
483.92	10.101
484.27	10.274
484.62	9.508
484.97	9.505
485.31	8.999
485.66	8.645
486.01	8.296
486.36	8.156
486.70	7.940
487.05	8.670
487.40	8.737
487.75	8.947
488.09	9.062
488.44	9.178
488.79	9.233
489.13	9.257
489.48	9.748
489.83	9.591
490.17	9.496
490.52	10.078
490.87	9.914
491.22	9.752
491.56	9.838
491.91	9.633
492.26	10.200
492.60	9.522
492.95	9.832
493.30	9.873
493.64	9.838
493.99	9.928
494.34	9.682
494.68	10.314
495.03	10.507
495.37	10.896
495.72	10.117
496.07	9.524
496.41	9.861
496.76	9.709
497.11	9.726
497.45	10.127
497.80	10.102
498.14	9.801
498.49	10.121
498.84	10.093
499.18	9.963
499.53	10.106
499.87	10.153
500.22	10.041
500.56	10.260
500.91	10.436
501.26	10.152
501.60	9.335
501.95	9.588
502.29	9.822
502.64	9.396
502.98	9.649
503.33	10.200
503.67	10.022
504.02	9.942
504.36	10.136
504.71	10.076
505.06	10.089
505.40	9.920
505.75	9.822
506.09	11.059
506.44	10.244
506.78	10.066
507.13	9.840
507.47	9.995
507.82	10.852
508.16	10.779
508.51	9.903
508.85	10.304
509.19	9.300
509.54	10.596
509.88	10.990
510.23	10.637
510.57	10.087
510.92	10.490
511.26	9.940
511.61	10.044
511.95	10.652
512.30	10.000
512.64	10.852
512.98	10.302
513.33	10.246
513.67	10.461
514.02	10.597
514.36	9.709
514.70	10.080
515.05	10.762
515.39	10.143
515.74	10.771
516.08	10.839
516.42	11.639
516.77	10.080
517.11	10.880
517.46	11.207
517.80	10.486
518.14	10.535
518.49	11.136
518.83	10.110
519.17	10.704
519.52	10.486
519.86	10.518
520.20	11.342
520.55	10.288
520.89	10.805
521.23	10.981
521.58	11.073
521.92	10.554
522.26	10.071
522.61	11.289
522.95	11.051
523.29	10.760
523.64	9.711
523.98	10.681
524.32	10.784
524.66	11.536
525.01	10.710
525.35	10.784
525.69	11.198
526.04	11.243
526.38	10.771
526.72	11.158
527.06	10.526
527.41	12.757
527.75	11.382
528.09	10.596
528.43	11.531
528.78	10.912
529.12	11.379
529.46	10.637
529.80	11.273
530.15	11.373
530.49	10.289
530.83	11.517
531.17	11.193
531.51	11.281
531.86	10.628
532.20	10.260
532.54	10.483
532.88	11.243
533.22	11.213
533.57	10.250
533.91	10.431
534.25	10.560
534.59	10.994
534.93	10.751
535.27	10.245
535.62	10.968
535.96	10.697
536.30	11.274
536.64	10.062
536.98	10.887
537.32	10.938
537.66	10.906
538.01	11.331
538.35	11.416
538.69	10.133
539.03	10.261
539.37	11.165
539.71	11.296
540.05	10.892
540.39	10.881
540.73	10.823
541.07	10.916
541.42	10.510
541.76	11.097
542.10	10.543
542.44	10.411
542.78	10.321
543.12	10.184
543.46	10.652
543.80	10.213
544.14	10.402
544.48	10.645
544.82	10.153
545.16	10.140
545.50	10.756
545.84	11.048
546.18	12.094
546.52	10.426
546.86	11.219
547.20	9.819
547.54	10.386
547.88	10.888
548.22	10.322
548.56	10.136
548.90	10.735
549.24	10.486
549.58	11.082
549.92	10.544
550.26	10.548
550.60	10.912
550.94	10.923
551.28	11.724
551.62	12.000
551.96	11.014
552.30	9.888
552.64	10.874
552.98	10.374
553.32	11.076
553.66	10.163
554.00	11.133
554.34	11.318
554.68	11.761
555.02	11.541
555.36	10.971
555.69	10.275
556.03	10.510
556.37	10.835
556.71	10.561
557.05	10.550
557.39	11.200
557.73	11.388
558.07	10.865
558.41	10.761
558.75	11.833
559.08	12.223
559.42	11.382
559.76	11.262
560.10	11.149
560.44	10.551
560.78	10.678
561.12	10.744
561.45	10.451
561.79	10.861
562.13	9.792
562.47	10.123
562.81	10.475
563.15	10.730
563.48	10.000
563.82	10.293
564.16	11.443
564.50	9.825
564.84	10.821
565.17	9.745
565.51	10.099
565.85	10.549
566.19	11.310
566.52	9.868
566.86	11.559
567.20	10.843
567.54	10.426
567.88	10.381
568.21	10.035
568.55	9.533
568.89	9.535
569.23	9.577
569.56	9.305
569.90	9.235
570.24	8.825
570.57	8.598
570.91	8.799
571.25	8.571
571.59	8.404
571.92	8.423
572.26	8.032
572.60	7.942
572.93	9.028
573.27	8.644
573.61	8.311
573.95	8.317
574.28	8.483
574.62	8.104
574.96	7.731
575.29	8.014
575.63	8.151
575.97	7.960
576.30	8.428
576.64	8.246
576.98	8.150
577.31	8.376
577.65	8.142
577.98	7.754
578.32	7.659
578.66	7.834
578.99	7.950
579.33	8.322
579.67	7.847
580.00	7.888
580.34	8.002
580.67	8.076
581.01	8.054
581.35	7.851
581.68	7.649
582.02	7.452
582.35	7.596
582.69	7.679
583.02	7.501
583.36	7.931
583.70	8.231
584.03	8.253
584.37	8.304
584.70	8.211
585.04	7.852
585.37	7.958
585.71	8.135
586.04	7.800
586.38	7.661
586.72	8.263
587.05	8.518
587.39	8.470
587.72	8.148
588.06	8.145
588.39	8.112
588.73	8.199
589.06	8.491
589.40	8.795
589.73	8.522
590.07	8.854
590.40	8.780
590.73	9.291
591.07	9.374
591.40	8.862
591.74	8.888
592.07	9.151
592.41	8.953
592.74	8.202
593.08	8.529
593.41	8.019
593.75	8.346
594.08	8.562
594.41	8.244
594.75	8.664
595.08	8.779
595.42	8.624
595.75	8.983
596.09	8.481
596.42	8.521
596.75	9.054
597.09	9.616
597.42	8.816
597.75	9.087
598.09	8.822
598.42	9.180
598.76	8.867
599.09	9.452
599.42	8.824
599.76	9.023
600.09	8.542
600.42	8.736
600.76	8.260
601.09	8.906
601.42	9.117
601.76	8.557
602.09	8.867
602.42	8.725
602.76	8.880
603.09	9.201
603.42	8.991
603.76	9.074
604.09	8.180
604.42	8.475
604.76	8.811
605.09	9.061
605.42	9.630
605.75	8.725
606.09	8.761
606.42	8.944
606.75	8.706
607.09	8.448
607.42	8.919
607.75	9.037
608.08	9.342
608.42	9.228
608.75	8.900
609.08	8.799
609.41	9.591
609.75	9.478
610.08	9.442
610.41	9.310
610.74	9.307
611.07	9.413
611.41	9.222
611.74	9.465
612.07	9.441
612.40	9.308
612.73	9.286
613.07	9.427
613.40	9.323
613.73	8.937
614.06	9.250
614.39	10.253
614.72	9.442
615.06	9.397
615.39	9.802
615.72	8.906
616.05	9.342
616.38	9.335
616.71	9.658
617.05	9.171
617.38	9.551
617.71	10.011
618.04	9.815
618.37	9.616
618.70	9.988
619.03	9.341
619.36	10.930
619.69	10.158
620.03	9.915
620.36	10.340
620.69	10.536
621.02	10.802
621.35	10.602
621.68	10.177
622.01	11.365
622.34	9.468
622.67	10.674
623.00	11.368
623.33	10.729
623.66	10.446
623.99	10.137
624.32	9.824
624.65	10.138
624.99	10.277
625.32	10.087
625.65	10.138
625.98	10.321
626.31	10.386
626.64	10.858
626.97	11.247
627.30	10.404
627.63	11.303
627.96	10.720
628.29	9.983
628.62	10.950
628.95	12.145
629.28	11.919
629.61	10.018
629.94	12.187
630.26	11.785
630.59	12.057
630.92	10.314
631.25	12.330
631.58	12.536
631.91	10.752
632.24	10.787
632.57	11.002
632.90	13.043
633.23	12.592
633.56	12.118
633.89	12.433
634.22	11.841
634.55	11.720
634.88	13.801
635.20	12.444
635.53	12.544
635.86	13.535
636.19	11.560
636.52	12.108
636.85	11.327
637.18	13.326
637.51	11.285
637.83	11.670
638.16	13.951
638.49	13.653
638.82	12.559
639.15	12.221
639.48	14.455
639.81	13.553
640.13	13.129
640.46	13.401
640.79	13.394
641.12	12.467
641.45	14.230
641.77	13.474
642.10	15.127
642.43	12.518
642.76	13.352
643.09	12.824
643.41	12.342
643.74	13.957
644.07	13.274
644.40	12.130
644.73	14.715
645.05	15.156
645.38	14.089
645.71	13.809
646.04	15.573
646.36	12.833
646.69	13.280
647.02	14.880
647.35	14.173
647.67	14.263
648.00	14.658
648.33	15.940
648.66	13.030
648.98	12.029
649.31	11.876
649.64	12.448
649.96	12.233
650.29	12.571
650.62	15.169
650.94	14.759
651.27	15.789
651.60	13.772
651.92	16.129
652.25	12.126
652.58	13.901
652.90	14.820
653.23	13.146
653.56	14.095
653.88	14.097
654.21	14.809
654.54	13.470
654.86	13.717
655.19	13.720
655.52	10.051
655.84	6.896
656.17	7.197
656.49	10.506
656.82	11.508
657.15	9.273
657.47	7.134
657.80	5.491
658.13	4.462
658.45	6.122
658.78	7.641
659.10	7.977
659.43	8.299
659.75	8.589
660.08	9.461
660.41	9.982
660.73	12.171
661.06	14.565
661.38	15.503
661.71	13.489
662.03	14.829
662.36	15.048
662.68	13.780
663.01	18.198
663.33	14.528
663.66	14.398
663.98	15.675
664.31	17.724
664.63	15.326
664.96	15.009
665.28	13.559
665.61	15.472
665.93	13.585
666.26	13.832
666.58	16.881
666.91	14.286
667.23	15.863
667.56	16.016
667.88	16.805
668.21	15.779
668.53	15.524
668.86	18.637
669.18	16.090
669.50	15.083
669.83	15.400
670.15	15.800
670.48	15.625
670.80	15.936
671.13	15.139
671.45	16.633
671.77	16.141
672.10	13.465
672.42	12.993
672.75	14.082
673.07	13.355
673.39	13.898
673.72	15.225
674.04	13.620
674.37	16.152
674.69	14.498
675.01	14.739
675.34	13.566
675.66	16.406
675.98	15.385
676.31	17.600
676.63	14.712
676.95	15.873
677.28	14.402
677.60	16.097
677.92	15.873
678.25	14.922
678.57	16.015
678.89	16.094
679.22	13.235
679.54	15.836
679.86	16.754
680.18	13.181
680.51	12.935
680.83	12.669
681.15	15.945
681.48	15.625
681.80	15.937
682.12	16.090
682.44	13.694
682.77	14.057
683.09	13.398
683.41	14.898
683.73	16.142
684.06	14.286
684.38	14.922
684.70	13.669
685.02	14.410
685.34	13.732
685.67	15.113
685.99	13.300
686.31	12.943
686.63	14.146
686.96	14.706
687.28	13.926
687.60	13.993
687.92	14.573
688.24	17.759
688.56	15.658
688.89	12.046
689.21	16.378
689.53	12.846
689.85	13.008
690.17	16.505
690.49	15.524
690.82	12.395
691.14	14.545
691.46	15.811
691.78	15.010
692.10	14.504
692.42	13.975
692.74	15.310
693.06	14.147
693.39	12.846
693.71	15.324
694.03	16.371
694.35	16.867
694.67	15.479
694.99	17.295
695.31	16.667
695.63	16.516
695.95	14.706
696.27	18.584
696.59	15.990
696.91	16.709
697.23	16.968
697.56	13.278
697.88	9.581
698.20	16.604
698.52	13.619
698.84	14.374
699.16	17.910
699.48	15.466
699.80	18.301
700.12	18.707
700.44	15.654
700.76	16.706
701.08	16.188
701.40	16.883
701.72	17.647
702.04	16.531
702.36	19.086
702.68	16.755
703.00	13.784
703.32	18.610
703.64	17.380
703.96	17.187
704.28	16.931
704.60	19.155
704.91	16.246
705.23	17.330
705.55	20.475
705.87	20.317
706.19	19.122
706.51	21.944
706.83	18.879
707.15	19.251
707.47	18.644
707.79	17.011
708.11	15.646
708.43	16.404
708.74	17.873
709.06	16.977
709.38	16.129
709.70	14.986
710.02	16.304
710.34	17.127
710.66	19.444
710.98	19.126
711.29	16.713
711.61	18.663
711.93	18.237
712.25	17.470
712.57	19.936
712.89	20.000
713.20	18.530
713.52	16.511
713.84	19.335
714.16	14.203
714.48	16.715
714.80	16.802
715.11	17.021
715.43	13.687
715.75	17.183
716.07	17.341
716.39	16.286
716.70	16.822
717.02	17.845
717.34	21.942
717.66	23.958
717.97	23.485
718.29	21.479
718.61	14.865
718.93	16.263
719.24	16.107
719.56	17.586
719.88	16.879
720.20	19.032
720.51	17.647
720.83	20.401
721.15	20.408
721.46	19.178
721.78	16.376
722.10	19.792
722.42	18.395
722.73	18.773
723.05	23.158
723.37	24.735
723.68	18.750
724.00	24.621
724.32	23.954
724.63	15.769
724.95	25.490
725.27	18.959
725.58	18.750
725.90	14.085
726.22	18.493
726.53	17.726
726.85	22.476
727.16	23.490
727.48	15.947
727.80	21.223
728.11	16.786
728.43	14.493
728.74	19.930
729.06	12.186
729.38	20.702
729.69	20.333
730.01	18.750
730.32	19.463
730.64	20.266
730.96	20.120
731.27	16.208
731.59	13.506
731.90	16.992
732.22	17.143
732.53	17.094
732.85	20.760
733.16	15.964
733.48	19.122
733.80	18.551
734.11	19.939
734.43	13.450
734.74	16.354
735.06	15.608
735.37	14.691
735.69	13.623
736.00	18.349
736.32	14.242
736.63	16.088
736.95	16.460
737.26	19.207
737.58	15.951
737.89	15.361
738.21	15.563
738.52	16.722
738.83	21.245
739.15	19.512
739.46	18.966
739.78	15.646
740.09	18.950
740.41	19.939
740.72	20.952
741.04	25.524
741.35	21.875
741.66	20.553
741.98	23.605
742.29	18.056
742.61	21.681
742.92	17.797
743.23	20.400
743.55	21.887
743.86	18.431
744.18	19.492
744.49	19.835
744.80	25.806
745.12	25.446
745.43	25.234
745.74	23.556
746.06	21.491
746.37	21.860
746.68	23.894
747.00	23.767
747.31	20.168
747.62	18.443
747.94	20.172
748.25	19.455
748.56	23.729
748.88	23.214
749.19	18.605
749.50	20.548
749.82	17.284
750.13	20.949
750.44	18.333
750.75	19.128
751.07	17.434
751.38	16.832
751.69	21.212
752.01	19.930
752.32	17.940
752.63	21.141
752.94	19.231
753.26	19.922
753.57	19.844
753.88	17.603
754.19	20.939
754.51	21.595
754.82	15.772
755.13	21.622
755.44	20.000
755.75	20.275
756.07	23.288
756.38	17.647
756.69	19.063
757.00	18.694
757.31	16.338
757.63	11.019
757.94	15.160
758.25	15.217
758.56	15.103
758.87	16.541
759.18	17.151
759.50	18.541
759.81	17.211
760.12	19.101
760.43	15.126
760.74	17.722
761.05	15.385
761.36	13.542
761.67	15.633
761.99	19.155
762.30	16.720
762.61	21.875
762.92	18.561
763.23	20.755
763.54	18.846
763.85	19.066
764.16	23.264
764.47	19.257
764.78	18.241
765.10	16.159
765.41	15.909
765.72	15.746
766.03	16.918
766.34	19.861
766.65	17.110
766.96	19.028
767.27	23.832
767.58	26.238
767.89	28.177
768.20	28.659
768.51	19.388
768.82	19.737
769.13	22.353
769.44	18.797
769.75	21.723
770.06	22.269
770.37	17.105
770.68	20.000
770.99	22.881
771.30	24.686
771.61	18.462
771.92	19.847
772.23	19.758
772.54	23.111
772.85	24.257
773.16	22.283
773.47	21.667
773.78	22.277
774.09	27.273
774.39	28.485
774.70	20.588
775.01	19.079
775.32	25.466
775.63	30.822
775.94	32.099
776.25	28.276
776.56	30.534
776.87	33.588
777.18	28.788
777.48	39.370
777.79	32.308
778.10	30.303
778.41	31.343
778.72	31.579
779.03	25.641
779.34	27.703
779.65	28.571
779.95	27.950
780.26	34.524
780.57	34.014
780.88	38.298
781.19	35.000
781.50	29.586
781.80	31.694
782.11	25.926
782.42	24.713
782.73	25.989
783.04	25.806
783.34	25.581
783.65	24.490
783.96	28.387
784.27	25.166
784.57	23.026
784.88	31.884
785.19	34.167
785.50	34.483
785.81	34.884
786.11	36.296
786.42	37.008
786.73	35.135
787.04	33.962
787.34	21.951
787.65	39.394
787.96	30.303
788.26	29.921
788.57	29.927
788.88	29.577
789.19	34.351
789.49	39.865
789.80	35.156
790.11	42.149
790.41	36.111
790.72	31.481
791.03	40.385
791.33	48.485
791.64	40.000
791.95	31.579
792.25	36.458
792.56	42.000
792.87	48.780
793.17	48.864
793.48	45.882
793.79	54.023
794.09	38.636
794.40	37.931
794.70	28.571
795.01	30.769
795.32	26.718
795.62	33.333
795.93	40.336
796.23	39.837
796.54	44.898
796.85	43.182
797.15	62.338
797.46	53.659
797.76	41.250
798.07	48.000
798.37	52.500
798.68	38.750
798.99	50.000
799.29	44.000
799.60	29.070
799.90	46.053
800.21	40.909
800.51	56.338
800.82	62.069
801.12	52.308
801.43	64.000
801.73	50.000
802.04	41.558
802.34	52.055
802.65	74.510
802.95	69.565
803.26	62.903
803.56	66.667
803.87	62.687
804.17	42.857
804.48	52.830
804.78	59.722
805.09	75.758
805.39	66.667
805.70	61.404
806.00	47.143
806.30	57.813
806.61	52.941
806.91	43.333
807.22	34.783
807.52	34.211
807.83	57.895
808.13	50.725
808.43	45.161
808.74	54.795
809.04	67.857
809.35	61.765
809.65	57.576
809.95	72.549
810.26	68.519
810.56	70.313
810.86	65.306
811.17	59.649
811.47	67.391
811.77	68.966
812.08	44.828
812.38	64.286
812.69	88.095
812.99	64.444
813.29	85.714
813.59	83.871
813.90	58.621
814.20	72.131
814.50	44.000
814.81	43.860
815.11	83.333
815.41	58.929
815.72	96.429
816.02	76.000
816.32	85.366
816.62	68.966
816.93	100.000
817.23	90.244
817.53	75.000
817.84	60.000
818.14	85.714
818.44	93.750
818.74	58.491
819.04	64.103
819.35	106.061
819.65	92.308
819.95	96.296
820.25	87.234
820.56	105.405
820.86	63.158
821.16	59.574
821.46	86.842
821.76	80.000
822.07	73.810
822.37	76.316
822.67	111.628
822.97	76.316
823.27	106.522
823.57	87.500
823.88	87.179
824.18	87.879
824.48	117.391
824.78	102.778
825.08	78.261
825.38	106.897
825.69	61.765
825.99	78.723
826.29	75.000
826.59	114.286
826.89	83.333
827.19	82.857
827.49	109.677
827.79	138.462
828.09	78.571
828.39	83.333
828.70	64.865
829.00	110.714
829.30	168.750
829.60	94.444
829.90	100.000
830.20	81.818
830.50	127.027
830.80	158.333
831.10	150.000
831.40	109.524
831.70	133.333
832.00	100.000
832.30	91.304
832.60	145.833
832.90	93.939
833.20	170.000
833.50	118.421
833.80	82.353
834.10	76.316
834.40	136.842
834.70	90.000
835.00	88.000
835.30	75.676
835.60	128.125
835.90	124.324
836.20	107.692
836.50	131.818
836.80	92.683
837.10	130.435
837.40	200.000
837.70	126.316
838.00	126.667
838.30	120.833
838.60	160.000
838.90	320.000
839.19	162.500
839.49	133.333
839.79	124.138
840.09	111.538
840.39	146.667
840.69	157.895
840.99	100.000
841.29	160.870
841.59	195.000
841.88	152.000
842.18	333.333
842.48	121.429
842.78	137.037
843.08	184.615
843.38	150.000
843.68	321.429
843.97	385.714
844.27	152.174
844.57	1100.000
844.87	242.857
845.17	172.222
845.47	152.381
845.76	137.500
846.06	371.429
846.36	141.176
846.66	230.769
846.96	187.500
847.25	184.615
847.55	157.895
847.85	183.333
848.15	320.000
848.44	254.545
848.74	152.381
849.04	154.167
849.34	176.471
849.63	206.250
849.93	200.000
850.23	900.000
850.53	287.500
850.82	263.636
851.12	152.941
851.42	175.000
851.71	212.500
852.01	0.000
852.31	182.353
852.61	300.000
852.90	133.333
853.20	311.111
853.50	-1700.000
853.79	132.000
854.09	100.000
854.39	134.483
854.68	137.931
854.98	152.381
855.28	77.419
855.57	228.571
855.87	150.000
856.17	122.222
856.46	142.105
856.76	90.323
857.05	211.765
857.35	236.364
857.65	253.846
857.94	120.000
858.24	288.889
858.53	235.714
858.83	400.000
859.13	152.174
859.42	244.444
859.72	375.000
860.01	225.000
860.31	700.000
860.60	410.000
860.90	312.500
861.20	207.692
861.49	442.857
861.79	-1700.000
862.08	400.000
862.38	366.667
862.67	200.000
862.97	330.000
863.26	123.333
863.56	875.000
863.85	346.154
864.15	258.824
864.44	205.556
864.74	316.667
865.03	363.636
865.33	350.000
865.62	180.000
865.92	483.333
866.21	500.000
866.51	660.000
866.80	172.222
867.10	766.667
867.39	3900.000
867.69	460.000
867.98	475.000
868.27	161.905
868.57	253.333
868.86	725.000
869.16	142.857
869.45	2100.000
869.75	-316.667
870.04	650.000
870.33	540.000
870.63	325.000
870.92	176.471
871.22	575.000
871.51	500.000
871.80	291.667
872.10	238.462
>>>>>End Processed Spectral Data<<<<<
