SpectraSuite Data File
++++++++++++++++++++++++++++++++++++
Date: Tue May 12 16:05:30 PDT 2015
User: schluterlab
Dark Spectrum Present: Yes
Reference Spectrum Present: Yes
Number of Sampled Component Spectra: 1
Spectrometers: USB2E3373
Integration Time (usec): 3000 (USB2E3373)
Spectra Averaged: 3 (USB2E3373)
Boxcar Smoothing: 0 (USB2E3373)
Correct for Electrical Dark: No (USB2E3373)
Strobe/Lamp Enabled: No (USB2E3373)
Correct for Detector Non-linearity: No (USB2E3373)
Correct for Stray Light: No (USB2E3373)
Number of Pixels in Processed Spectrum: 2048
>>>>>Begin Processed Spectral Data<<<<<
178.53	0.000
178.91	-275.000
179.29	-725.000
179.67	-2900.000
180.04	-153.333
180.42	750.000
180.80	1700.000
181.18	0.000
181.56	-337.500
181.94	0.000
182.31	1466.667
182.69	-3500.000
183.07	671.429
183.45	-4000.000
183.83	-1350.000
184.20	320.000
184.58	557.143
184.96	-230.769
185.34	-250.000
185.72	1750.000
186.09	-975.000
186.47	-3300.000
186.85	1266.667
187.23	680.000
187.61	2100.000
187.98	525.000
188.36	264.286
188.74	333.333
189.12	341.667
189.49	1025.000
189.87	0.000
190.25	525.000
190.63	1800.000
191.00	-191.667
191.38	-3400.000
191.76	-950.000
192.14	562.500
192.51	-3300.000
192.89	2000.000
193.27	1200.000
193.65	-1000.000
194.02	-1060.000
194.40	542.857
194.78	-192.857
195.15	326.667
195.53	-3400.000
195.91	-600.000
196.29	4400.000
196.66	225.000
197.04	950.000
197.42	-1200.000
197.79	825.000
198.17	275.000
198.55	0.000
198.92	428.571
199.30	1166.667
199.68	1850.000
200.05	683.333
200.43	-600.000
200.81	222.222
201.18	2600.000
201.56	266.667
201.94	-775.000
202.31	-275.000
202.69	-400.000
203.07	3300.000
203.44	-650.000
203.82	391.667
204.19	760.000
204.57	-1350.000
204.95	-800.000
205.32	-660.000
205.70	650.000
206.08	1000.000
206.45	-766.667
206.83	388.889
207.20	194.737
207.58	300.000
207.96	740.000
208.33	0.000
208.71	528.571
209.08	660.000
209.46	-3900.000
209.84	-775.000
210.21	960.000
210.59	-620.000
210.96	391.667
211.34	-750.000
211.71	436.364
212.09	1050.000
212.46	1850.000
212.84	-433.333
213.22	433.333
213.59	-3600.000
213.97	440.000
214.34	950.000
214.72	1466.667
215.09	1066.667
215.47	-3000.000
215.84	-340.000
216.22	-362.500
216.59	0.000
216.97	0.000
217.34	1100.000
217.72	-1150.000
218.09	1433.333
218.47	525.000
218.84	950.000
219.22	1066.667
219.59	900.000
219.97	585.714
220.34	411.111
220.72	1700.000
221.09	3400.000
221.47	308.333
221.84	800.000
222.22	340.000
222.59	255.556
222.97	164.286
223.34	181.250
223.72	-1900.000
224.09	1633.333
224.46	276.923
224.84	-675.000
225.21	455.556
225.59	260.000
225.96	1300.000
226.34	-680.000
226.71	-550.000
227.08	-540.000
227.46	0.000
227.83	-600.000
228.21	-1750.000
228.58	308.333
228.95	925.000
229.33	455.556
229.70	1200.000
230.08	323.077
230.45	3000.000
230.82	-850.000
231.20	-1133.333
231.57	-1200.000
231.95	560.000
232.32	216.667
232.69	533.333
233.07	325.000
233.44	-1950.000
233.81	220.000
234.19	174.074
234.56	206.250
234.93	147.059
235.31	185.000
235.68	212.500
236.05	160.714
236.43	111.111
236.80	271.429
237.17	117.241
237.55	96.875
237.92	107.500
238.29	103.030
238.67	103.125
239.04	80.488
239.41	70.833
239.79	67.500
240.16	58.333
240.53	49.180
240.91	73.913
241.28	66.102
241.65	50.000
242.02	52.113
242.40	61.429
242.77	39.560
243.14	31.646
243.51	45.455
243.89	31.776
244.26	33.645
244.63	28.713
245.00	29.358
245.38	22.881
245.75	28.788
246.12	33.333
246.49	21.277
246.87	18.852
247.24	28.000
247.61	23.125
247.98	20.408
248.36	15.758
248.73	26.020
249.10	13.690
249.47	19.500
249.84	18.408
250.22	18.378
250.59	19.000
250.96	17.722
251.33	15.814
251.70	17.857
252.08	13.025
252.45	17.131
252.82	14.068
253.19	13.439
253.56	11.923
253.94	11.594
254.31	14.341
254.68	12.892
255.05	14.828
255.42	12.774
255.79	13.681
256.16	12.881
256.54	15.260
256.91	10.131
257.28	13.043
257.65	7.837
258.02	10.914
258.39	12.034
258.76	13.043
259.14	8.857
259.51	12.536
259.88	9.726
260.25	11.538
260.62	10.137
260.99	8.540
261.36	9.749
261.73	7.979
262.10	10.995
262.47	9.250
262.85	9.600
263.22	10.540
263.59	12.788
263.96	9.524
264.33	8.889
264.70	8.845
265.07	9.756
265.44	12.385
265.81	11.085
266.18	9.382
266.55	6.619
266.92	6.264
267.29	10.526
267.66	7.175
268.03	7.623
268.40	7.822
268.77	9.692
269.14	7.592
269.51	7.572
269.88	8.571
270.25	6.911
270.62	6.223
270.99	8.925
271.36	9.553
271.73	8.176
272.10	5.657
272.47	5.556
272.84	8.583
273.21	8.058
273.58	8.097
273.95	6.776
274.32	9.144
274.69	9.646
275.06	10.747
275.43	5.747
275.80	7.358
276.17	6.618
276.54	8.224
276.91	7.836
277.28	8.212
277.65	6.827
278.02	6.618
278.39	5.576
278.76	8.621
279.13	7.117
279.50	7.091
279.87	5.587
280.23	6.814
280.60	7.117
280.97	7.069
281.34	3.795
281.71	7.304
282.08	7.521
282.45	6.588
282.82	5.853
283.19	5.564
283.56	5.124
283.92	7.003
284.29	5.824
284.66	6.387
285.03	7.794
285.40	5.785
285.77	5.401
286.14	6.656
286.51	5.982
286.87	4.905
287.24	4.955
287.61	6.231
287.98	6.866
288.35	6.370
288.72	2.124
289.08	6.757
289.45	5.945
289.82	4.531
290.19	4.685
290.56	6.841
290.93	6.331
291.29	6.906
291.66	4.944
292.03	5.610
292.40	5.962
292.77	5.571
293.13	5.849
293.50	5.938
293.87	4.472
294.24	6.434
294.60	6.999
294.97	6.014
295.34	5.843
295.71	6.045
296.08	6.267
296.44	5.210
296.81	4.715
297.18	4.436
297.55	5.296
297.91	3.079
298.28	6.159
298.65	5.399
299.02	5.187
299.38	5.156
299.75	4.756
300.12	5.734
300.48	6.206
300.85	5.721
301.22	4.884
301.59	4.599
301.95	4.201
302.32	4.657
302.69	4.864
303.05	6.397
303.42	4.596
303.79	5.417
304.15	4.290
304.52	5.285
304.89	4.478
305.25	5.451
305.62	4.478
305.99	4.891
306.35	4.842
306.72	4.787
307.09	4.762
307.45	3.379
307.82	4.115
308.19	5.361
308.55	4.400
308.92	4.612
309.29	6.213
309.65	4.856
310.02	5.172
310.38	4.287
310.75	3.664
311.12	4.215
311.48	5.792
311.85	4.389
312.22	5.444
312.58	4.859
312.95	4.660
313.31	4.494
313.68	4.128
314.05	5.311
314.41	4.469
314.78	4.072
315.14	4.739
315.51	5.203
315.87	4.015
316.24	4.202
316.61	5.819
316.97	4.220
317.34	4.942
317.70	4.917
318.07	5.160
318.43	5.185
318.80	5.779
319.16	5.070
319.53	4.336
319.89	4.211
320.26	6.238
320.62	6.044
320.99	4.766
321.35	5.473
321.72	5.882
322.08	5.633
322.45	5.995
322.81	4.849
323.18	6.128
323.54	5.836
323.91	5.984
324.27	5.924
324.64	4.066
325.00	6.293
325.37	6.661
325.73	4.722
326.10	6.297
326.46	6.111
326.83	4.320
327.19	7.309
327.56	5.351
327.92	5.984
328.29	6.628
328.65	6.935
329.01	6.245
329.38	5.922
329.74	5.636
330.11	5.908
330.47	6.479
330.84	5.349
331.20	5.415
331.56	6.995
331.93	6.245
332.29	4.932
332.66	6.293
333.02	5.155
333.38	6.021
333.75	5.922
334.11	5.285
334.48	5.897
334.84	7.179
335.20	6.245
335.57	5.793
335.93	6.476
336.29	5.804
336.66	6.261
337.02	4.876
337.38	5.331
337.75	6.926
338.11	6.582
338.47	5.165
338.84	5.334
339.20	4.848
339.56	5.971
339.93	5.853
340.29	5.462
340.65	5.868
341.02	5.953
341.38	6.322
341.74	6.146
342.11	5.342
342.47	5.086
342.83	5.414
343.20	5.578
343.56	4.130
343.92	5.367
344.28	5.343
344.65	5.542
345.01	4.921
345.37	4.647
345.73	5.476
346.10	4.462
346.46	6.061
346.82	4.398
347.19	5.100
347.55	5.074
347.91	4.607
348.27	4.802
348.63	5.301
349.00	5.407
349.36	4.747
349.72	4.511
350.08	5.202
350.45	5.255
350.81	5.810
351.17	4.391
351.53	4.773
351.89	5.051
352.26	4.384
352.62	5.053
352.98	5.982
353.34	6.857
353.70	3.976
354.07	5.538
354.43	4.762
354.79	3.797
355.15	4.747
355.51	4.381
355.87	5.120
356.24	5.543
356.60	4.566
356.96	5.080
357.32	6.104
357.68	4.846
358.04	4.483
358.40	5.547
358.77	5.334
359.13	4.730
359.49	5.115
359.85	5.063
360.21	4.829
360.57	4.672
360.93	4.834
361.29	4.690
361.66	5.369
362.02	3.480
362.38	4.113
362.74	4.388
363.10	4.839
363.46	4.903
363.82	4.698
364.18	4.623
364.54	4.506
364.90	5.689
365.26	4.788
365.62	4.489
365.98	4.129
366.35	4.345
366.71	4.997
367.07	4.778
367.43	4.567
367.79	4.388
368.15	4.071
368.51	4.480
368.87	3.736
369.23	4.643
369.59	5.125
369.95	4.755
370.31	4.175
370.67	5.135
371.03	5.812
371.39	4.848
371.75	4.187
372.11	5.574
372.47	5.753
372.83	4.487
373.19	5.278
373.55	4.811
373.91	4.420
374.27	4.630
374.63	4.339
374.99	5.121
375.35	4.906
375.71	5.145
376.07	4.841
376.42	4.028
376.78	4.881
377.14	4.391
377.50	4.557
377.86	4.164
378.22	4.692
378.58	5.327
378.94	5.311
379.30	4.184
379.66	3.974
380.02	4.868
380.38	4.215
380.74	5.133
381.09	4.731
381.45	3.584
381.81	4.492
382.17	4.151
382.53	4.739
382.89	4.317
383.25	4.085
383.61	3.746
383.97	4.019
384.32	4.822
384.68	4.753
385.04	4.572
385.40	4.330
385.76	4.389
386.12	4.762
386.48	3.951
386.83	4.034
387.19	4.240
387.55	5.006
387.91	4.099
388.27	4.224
388.62	4.577
388.98	4.198
389.34	4.521
389.70	3.892
390.06	4.146
390.42	4.195
390.77	4.607
391.13	4.345
391.49	4.779
391.85	5.169
392.20	4.827
392.56	4.779
392.92	4.043
393.28	3.700
393.64	4.071
393.99	4.386
394.35	3.473
394.71	3.920
395.07	3.832
395.42	4.625
395.78	5.244
396.14	4.699
396.50	4.392
396.85	4.695
397.21	4.573
397.57	4.543
397.92	3.813
398.28	4.026
398.64	4.770
399.00	4.062
399.35	3.811
399.71	4.912
400.07	4.053
400.42	4.418
400.78	3.988
401.14	4.580
401.49	4.032
401.85	4.114
402.21	4.394
402.57	4.488
402.92	4.667
403.28	3.520
403.63	5.003
403.99	4.765
404.35	4.807
404.70	4.666
405.06	4.492
405.42	3.890
405.77	4.520
406.13	4.230
406.49	4.434
406.84	4.343
407.20	4.852
407.55	3.938
407.91	5.041
408.27	4.245
408.62	4.080
408.98	4.494
409.34	4.150
409.69	4.418
410.05	3.816
410.40	4.181
410.76	3.549
411.11	4.147
411.47	4.259
411.83	4.159
412.18	4.348
412.54	3.904
412.89	4.012
413.25	5.416
413.60	4.206
413.96	4.010
414.31	4.191
414.67	4.469
415.03	4.215
415.38	4.164
415.74	4.296
416.09	4.747
416.45	5.171
416.80	5.516
417.16	4.328
417.51	4.777
417.87	4.756
418.22	4.010
418.58	4.713
418.93	4.164
419.29	3.758
419.64	4.543
420.00	4.893
420.35	3.426
420.71	4.026
421.06	3.473
421.42	4.030
421.77	4.164
422.12	3.969
422.48	4.109
422.83	4.241
423.19	4.050
423.54	3.895
423.90	4.643
424.25	4.183
424.61	4.411
424.96	3.614
425.31	3.996
425.67	4.040
426.02	4.262
426.38	3.967
426.73	3.991
427.09	4.686
427.44	3.939
427.79	3.488
428.15	4.066
428.50	4.400
428.85	4.115
429.21	4.160
429.56	3.938
429.92	3.978
430.27	3.483
430.62	3.867
430.98	4.192
431.33	3.377
431.68	2.914
432.04	4.087
432.39	3.732
432.74	4.859
433.10	4.153
433.45	3.504
433.80	4.799
434.16	4.677
434.51	3.973
434.86	4.192
435.22	3.782
435.57	3.912
435.92	4.155
436.28	4.435
436.63	4.268
436.98	4.167
437.34	4.338
437.69	3.247
438.04	3.817
438.39	4.612
438.75	4.788
439.10	3.994
439.45	4.240
439.81	4.049
440.16	4.238
440.51	3.941
440.86	5.014
441.22	3.734
441.57	4.304
441.92	3.801
442.27	3.144
442.63	3.963
442.98	4.472
443.33	4.178
443.68	4.276
444.03	4.006
444.39	4.049
444.74	3.675
445.09	4.371
445.44	4.038
445.79	3.509
446.15	4.474
446.50	3.586
446.85	3.337
447.20	3.582
447.55	3.589
447.91	4.315
448.26	4.260
448.61	4.256
448.96	4.139
449.31	4.015
449.66	4.707
450.02	3.404
450.37	4.331
450.72	3.526
451.07	4.712
451.42	4.742
451.77	4.696
452.12	4.538
452.47	4.496
452.83	4.225
453.18	4.685
453.53	4.322
453.88	4.457
454.23	4.474
454.58	4.312
454.93	3.985
455.28	4.468
455.63	4.078
455.98	4.738
456.34	4.195
456.69	4.268
457.04	4.117
457.39	4.057
457.74	4.899
458.09	3.481
458.44	3.834
458.79	3.767
459.14	3.928
459.49	4.134
459.84	4.076
460.19	4.576
460.54	4.387
460.89	4.264
461.24	4.124
461.59	4.082
461.94	4.078
462.29	4.348
462.64	4.837
462.99	4.415
463.34	5.314
463.69	5.082
464.04	4.375
464.39	3.950
464.74	3.810
465.09	4.121
465.44	4.353
465.79	4.083
466.14	4.346
466.49	4.341
466.84	4.404
467.19	4.452
467.54	4.144
467.89	4.695
468.24	3.880
468.59	4.226
468.94	3.986
469.29	5.376
469.64	5.659
469.99	5.591
470.34	4.744
470.68	4.621
471.03	4.403
471.38	4.172
471.73	4.311
472.08	4.240
472.43	4.780
472.78	4.802
473.13	4.068
473.48	4.584
473.83	4.653
474.17	4.255
474.52	5.450
474.87	3.923
475.22	4.055
475.57	3.987
475.92	4.037
476.27	3.700
476.61	3.271
476.96	4.284
477.31	4.113
477.66	4.616
478.01	4.126
478.36	3.862
478.70	3.871
479.05	3.504
479.40	3.323
479.75	4.369
480.10	4.163
480.45	3.922
480.79	4.055
481.14	3.661
481.49	3.568
481.84	3.826
482.19	3.843
482.53	3.953
482.88	3.808
483.23	3.473
483.58	3.636
483.92	4.296
484.27	3.639
484.62	3.693
484.97	3.467
485.31	3.314
485.66	2.952
486.01	2.883
486.36	2.750
486.70	2.466
487.05	2.944
487.40	2.896
487.75	3.397
488.09	3.182
488.44	2.996
488.79	3.159
489.13	3.770
489.48	3.676
489.83	3.420
490.17	3.386
490.52	3.962
490.87	3.879
491.22	3.103
491.56	3.601
491.91	3.853
492.26	3.563
492.60	3.599
492.95	3.625
493.30	4.368
493.64	3.684
493.99	4.070
494.34	3.631
494.68	3.497
495.03	4.041
495.37	4.187
495.72	3.916
496.07	3.953
496.41	3.736
496.76	3.926
497.11	4.327
497.45	4.077
497.80	3.939
498.14	3.560
498.49	4.689
498.84	4.346
499.18	3.656
499.53	4.318
499.87	3.324
500.22	3.685
500.56	3.482
500.91	4.221
501.26	4.318
501.60	3.825
501.95	3.091
502.29	3.822
502.64	3.573
502.98	3.379
503.33	3.964
503.67	3.753
504.02	3.493
504.36	3.575
504.71	3.784
505.06	3.566
505.40	3.510
505.75	2.993
506.09	4.340
506.44	3.806
506.78	4.064
507.13	3.539
507.47	3.639
507.82	4.331
508.16	4.557
508.51	4.155
508.85	3.989
509.19	3.867
509.54	4.004
509.88	3.879
510.23	4.167
510.57	3.523
510.92	3.946
511.26	3.815
511.61	3.693
511.95	3.683
512.30	4.400
512.64	3.894
512.98	4.357
513.33	4.252
513.67	3.884
514.02	4.052
514.36	3.738
514.70	3.680
515.05	3.996
515.39	3.618
515.74	4.210
516.08	3.758
516.42	4.973
516.77	4.000
517.11	3.947
517.46	4.310
517.80	4.260
518.14	4.000
518.49	4.410
518.83	3.736
519.17	3.771
519.52	4.042
519.86	4.578
520.20	4.822
520.55	3.844
520.89	3.678
521.23	4.089
521.58	3.959
521.92	4.082
522.26	3.969
522.61	4.872
522.95	4.565
523.29	4.152
523.64	3.815
523.98	4.108
524.32	3.691
524.66	3.826
525.01	3.964
525.35	4.420
525.69	4.636
526.04	4.640
526.38	4.238
526.72	3.640
527.06	3.844
527.41	4.353
527.75	4.504
528.09	3.432
528.43	4.759
528.78	3.936
529.12	4.576
529.46	4.033
529.80	3.738
530.15	4.420
530.49	3.670
530.83	4.205
531.17	3.998
531.51	4.169
531.86	4.167
532.20	4.017
532.54	2.950
532.88	3.935
533.22	4.449
533.57	3.722
533.91	3.788
534.25	4.270
534.59	4.269
534.93	4.209
535.27	2.960
535.62	3.501
535.96	4.078
536.30	4.083
536.64	4.037
536.98	3.524
537.32	4.875
537.66	4.145
538.01	4.211
538.35	4.928
538.69	3.762
539.03	3.234
539.37	3.459
539.71	4.383
540.05	4.431
540.39	4.528
540.73	3.861
541.07	4.015
541.42	3.980
541.76	4.624
542.10	3.884
542.44	4.177
542.78	4.091
543.12	4.233
543.46	4.323
543.80	4.073
544.14	4.458
544.48	3.893
544.82	4.465
545.16	3.886
545.50	3.934
545.84	4.924
546.18	4.746
546.52	4.328
546.86	5.093
547.20	4.005
547.54	4.940
547.88	4.075
548.22	4.129
548.56	4.184
548.90	4.448
549.24	4.106
549.58	3.802
549.92	3.864
550.26	5.477
550.60	3.726
550.94	4.003
551.28	4.897
551.62	5.310
551.96	4.662
552.30	3.428
552.64	5.372
552.98	3.737
553.32	4.802
553.66	4.365
554.00	4.118
554.34	4.794
554.68	4.167
555.02	4.141
555.36	4.255
555.69	3.992
556.03	3.758
556.37	4.270
556.71	4.694
557.05	3.670
557.39	3.800
557.73	4.043
558.07	4.628
558.41	4.112
558.75	5.062
559.08	4.146
559.42	4.223
559.76	4.989
560.10	3.648
560.44	4.048
560.78	4.284
561.12	4.069
561.45	3.692
561.79	4.370
562.13	3.664
562.47	3.699
562.81	4.424
563.15	4.783
563.48	4.658
563.82	4.242
564.16	4.415
564.50	3.918
564.84	3.830
565.17	4.337
565.51	4.372
565.85	4.442
566.19	3.869
566.52	3.610
566.86	4.320
567.20	3.708
567.54	3.603
567.88	4.225
568.21	3.445
568.55	3.453
568.89	4.151
569.23	3.365
569.56	3.914
569.90	3.809
570.24	3.509
570.57	3.180
570.91	2.995
571.25	2.966
571.59	2.764
571.92	3.041
572.26	2.480
572.60	2.916
572.93	2.875
573.27	2.700
573.61	2.842
573.95	2.789
574.28	2.933
574.62	2.538
574.96	2.645
575.29	2.785
575.63	2.827
575.97	2.386
576.30	2.379
576.64	2.457
576.98	2.624
577.31	2.844
577.65	2.936
577.98	2.521
578.32	2.440
578.66	2.449
578.99	2.895
579.33	2.864
579.67	2.839
580.00	2.499
580.34	2.772
580.67	2.841
581.01	2.809
581.35	2.644
581.68	2.260
582.02	2.534
582.35	2.426
582.69	2.351
583.02	2.329
583.36	2.805
583.70	2.652
584.03	2.734
584.37	2.600
584.70	2.861
585.04	2.570
585.37	2.525
585.71	2.966
586.04	2.577
586.38	2.490
586.72	2.394
587.05	2.831
587.39	2.882
587.72	2.830
588.06	2.831
588.39	2.610
588.73	3.078
589.06	2.889
589.40	3.192
589.73	3.048
590.07	2.917
590.40	3.206
590.73	3.709
591.07	3.909
591.40	3.234
591.74	2.963
592.07	2.912
592.41	3.477
592.74	2.966
593.08	3.320
593.41	2.783
593.75	2.840
594.08	2.833
594.41	2.867
594.75	3.014
595.08	2.915
595.42	3.292
595.75	3.159
596.09	3.198
596.42	2.986
596.75	3.365
597.09	3.260
597.42	3.224
597.75	3.043
598.09	2.831
598.42	3.672
598.76	3.547
599.09	3.236
599.42	2.872
599.76	3.528
600.09	2.983
600.42	2.935
600.76	2.651
601.09	2.934
601.42	3.414
601.76	2.972
602.09	3.385
602.42	3.512
602.76	3.188
603.09	3.356
603.42	3.596
603.76	3.109
604.09	2.968
604.42	3.089
604.76	3.279
605.09	3.265
605.42	3.454
605.75	3.395
606.09	3.290
606.42	3.269
606.75	2.876
607.09	3.356
607.42	3.455
607.75	3.304
608.08	3.331
608.42	3.314
608.75	2.995
609.08	2.772
609.41	3.182
609.75	3.800
610.08	2.923
610.41	3.513
610.74	3.203
611.07	3.956
611.41	3.846
611.74	3.059
612.07	3.131
612.40	3.899
612.73	3.844
613.07	4.055
613.40	3.559
613.73	3.495
614.06	3.800
614.39	3.788
614.72	3.365
615.06	3.314
615.39	4.257
615.72	2.953
616.05	3.817
616.38	4.008
616.71	3.635
617.05	3.789
617.38	3.539
617.71	3.937
618.04	3.197
618.37	3.502
618.70	3.753
619.03	3.236
619.36	3.894
619.69	4.156
620.03	5.284
620.36	4.175
620.69	4.470
621.02	4.076
621.35	4.370
621.68	4.499
622.01	4.428
622.34	3.350
622.67	4.846
623.00	4.084
623.33	4.318
623.66	4.458
623.99	4.178
624.32	4.336
624.65	3.555
624.99	3.245
625.32	4.208
625.65	2.966
625.98	3.487
626.31	4.896
626.64	3.948
626.97	4.132
627.30	4.736
627.63	4.396
627.96	3.678
628.29	4.538
628.62	4.277
628.95	5.496
629.28	5.259
629.61	4.833
629.94	5.791
630.26	5.113
630.59	5.762
630.92	5.381
631.25	6.346
631.58	5.882
631.91	4.091
632.24	4.956
632.57	4.519
632.90	6.004
633.23	5.352
633.56	5.796
633.89	5.573
634.22	5.490
634.55	5.161
634.88	6.353
635.20	5.942
635.53	5.459
635.86	5.593
636.19	5.836
636.52	4.432
636.85	4.746
637.18	5.525
637.51	6.257
637.83	5.149
638.16	5.744
638.49	5.629
638.82	5.634
639.15	4.935
639.48	5.687
639.81	5.861
640.13	6.135
640.46	4.298
640.79	4.941
641.12	6.299
641.45	6.986
641.77	6.341
642.10	6.560
642.43	6.543
642.76	6.960
643.09	7.493
643.41	5.330
643.74	7.050
644.07	6.195
644.40	3.846
644.73	7.808
645.05	7.875
645.38	7.198
645.71	6.677
646.04	7.023
646.36	6.886
646.69	6.080
647.02	7.840
647.35	5.827
647.67	6.645
648.00	6.352
648.33	7.519
648.66	4.697
648.98	5.652
649.31	5.938
649.64	4.149
649.96	5.121
650.29	7.571
650.62	6.922
650.94	8.133
651.27	7.815
651.60	6.573
651.92	6.605
652.25	7.717
652.58	7.801
652.90	6.138
653.23	6.204
653.56	7.270
653.88	6.755
654.21	5.572
654.54	5.857
654.86	6.637
655.19	8.311
655.52	4.429
655.84	2.123
656.17	2.071
656.49	2.741
656.82	3.166
657.15	2.537
657.47	1.977
657.80	1.587
658.13	1.306
658.45	1.873
658.78	2.474
659.10	2.251
659.43	2.872
659.75	2.279
660.08	3.383
660.41	5.263
660.73	6.524
661.06	10.360
661.38	8.177
661.71	6.835
662.03	6.464
662.36	7.429
662.68	7.821
663.01	9.730
663.33	6.415
663.66	7.890
663.98	6.548
664.31	8.955
664.63	7.088
664.96	8.818
665.28	4.708
665.61	6.038
665.93	6.792
666.26	6.916
666.58	11.376
666.91	8.301
667.23	9.237
667.56	9.035
667.88	9.336
668.21	8.197
668.53	8.669
668.86	10.822
669.18	8.350
669.50	8.884
669.83	9.446
670.15	8.108
670.48	7.812
670.80	8.167
671.13	8.367
671.45	10.020
671.77	8.534
672.10	7.181
672.42	7.072
672.75	7.753
673.07	6.995
673.39	7.029
673.72	8.478
674.04	8.244
674.37	9.437
674.69	6.877
675.01	7.276
675.34	4.070
675.66	9.375
675.98	10.454
676.31	6.000
676.63	5.964
676.95	9.524
677.28	7.505
677.60	10.060
677.92	6.944
678.25	8.721
678.57	8.007
678.89	9.042
679.22	7.353
679.54	7.473
679.86	6.457
680.18	6.503
680.51	5.970
680.83	5.405
681.15	6.586
681.48	8.854
681.80	7.180
682.12	8.131
682.44	6.306
682.77	9.431
683.09	9.320
683.41	8.163
683.73	7.677
684.06	7.341
684.38	6.977
684.70	8.094
685.02	6.597
685.34	7.042
685.67	8.360
685.99	6.732
686.31	7.396
686.63	6.667
686.96	8.660
687.28	6.040
687.60	6.826
687.92	8.040
688.24	8.448
688.56	8.719
688.89	4.780
689.21	7.322
689.53	11.067
689.85	6.098
690.17	8.738
690.49	8.468
690.82	7.563
691.14	8.687
691.46	11.499
691.78	7.992
692.10	6.679
692.42	7.804
692.74	7.752
693.06	8.140
693.39	9.289
693.71	7.859
694.03	11.045
694.35	10.442
694.67	8.758
694.99	9.756
695.31	10.586
695.63	10.181
695.95	7.692
696.27	10.177
696.59	10.979
696.91	5.570
697.23	8.371
697.56	6.639
697.88	5.190
698.20	7.547
698.52	7.782
698.84	9.651
699.16	9.808
699.48	10.169
699.80	9.150
700.12	9.931
700.44	11.215
700.76	10.979
701.08	10.183
701.40	10.649
701.72	12.032
702.04	11.382
702.36	11.022
702.68	11.170
703.00	8.271
703.32	12.159
703.64	9.824
703.96	9.635
704.28	11.376
704.60	14.648
704.91	11.485
705.23	12.216
705.55	9.792
705.87	9.206
706.19	12.226
706.51	13.166
706.83	11.209
707.15	12.299
707.47	9.443
707.79	12.184
708.11	7.256
708.43	8.539
708.74	9.276
709.06	9.070
709.38	10.670
709.70	9.809
710.02	11.685
710.34	11.050
710.66	13.889
710.98	14.754
711.29	8.635
711.61	8.357
711.93	11.246
712.25	10.843
712.57	9.003
712.89	12.121
713.20	13.419
713.52	15.576
713.84	11.782
714.16	6.957
714.48	9.798
714.80	12.737
715.11	10.106
715.43	8.101
715.75	10.423
716.07	10.694
716.39	11.143
716.70	10.903
717.02	14.815
717.34	9.712
717.66	17.014
717.97	12.121
718.29	14.789
718.61	12.500
718.93	12.457
719.24	11.409
719.56	8.966
719.88	11.146
720.20	16.129
720.51	11.438
720.83	13.043
721.15	13.605
721.46	15.068
721.78	11.150
722.10	11.806
722.42	15.385
722.73	11.552
723.05	14.737
723.37	16.608
723.68	12.891
724.00	12.500
724.32	16.730
724.63	9.615
724.95	16.471
725.27	14.126
725.58	13.603
725.90	12.324
726.22	15.411
726.53	11.037
726.85	14.984
727.16	15.101
727.48	12.292
727.80	12.950
728.11	13.929
728.43	10.507
728.74	15.734
729.06	12.186
729.38	11.579
729.69	15.333
730.01	18.421
730.32	10.403
730.64	14.618
730.96	13.213
731.27	7.339
731.59	11.782
731.90	9.749
732.22	12.286
732.53	8.832
732.85	12.281
733.16	12.048
733.48	13.480
733.80	14.203
734.11	13.804
734.43	11.404
734.74	8.847
735.06	14.550
735.37	8.505
735.69	12.174
736.00	12.844
736.32	8.182
736.63	5.994
736.95	11.180
737.26	13.415
737.58	11.963
737.89	11.446
738.21	14.570
738.52	14.381
738.83	15.751
739.15	13.589
739.46	12.069
739.78	10.544
740.09	14.577
740.41	11.350
740.72	13.333
741.04	14.685
741.35	15.234
741.66	19.368
741.98	18.026
742.29	14.352
742.61	14.602
742.92	12.288
743.23	18.800
743.55	12.830
743.86	13.725
744.18	14.407
744.49	18.182
744.80	19.355
745.12	20.982
745.43	18.224
745.74	17.778
746.06	9.211
746.37	14.419
746.68	19.912
747.00	15.247
747.31	18.067
747.62	18.443
747.94	12.876
748.25	15.564
748.56	21.610
748.88	15.179
749.19	11.163
749.50	13.699
749.82	16.872
750.13	14.625
750.44	15.000
750.75	12.416
751.07	10.197
751.38	10.231
751.69	14.141
752.01	11.888
752.32	12.957
752.63	13.423
752.94	12.937
753.26	17.188
753.57	16.732
753.88	14.607
754.19	14.440
754.51	16.279
754.82	12.416
755.13	12.838
755.44	17.407
755.75	19.244
756.07	15.068
756.38	12.092
756.69	14.375
757.00	14.837
757.31	11.831
757.63	10.468
757.94	7.713
758.25	12.077
758.56	10.984
758.87	11.529
759.18	14.535
759.50	11.854
759.81	11.869
760.12	10.674
760.43	8.403
760.74	12.658
761.05	9.284
761.36	7.031
761.67	11.051
761.99	12.113
762.30	12.862
762.61	14.236
762.92	15.909
763.23	13.962
763.54	15.385
763.85	11.284
764.16	13.194
764.47	13.851
764.78	7.818
765.10	12.500
765.41	9.943
765.72	11.050
766.03	12.387
766.34	10.801
766.65	15.209
766.96	19.838
767.27	20.561
767.58	17.822
767.89	26.519
768.20	21.951
768.51	18.878
768.82	15.351
769.13	13.333
769.44	11.654
769.75	14.981
770.06	13.866
770.37	10.088
770.68	12.000
770.99	19.915
771.30	17.992
771.61	14.615
771.92	16.031
772.23	14.919
772.54	21.778
772.85	21.782
773.16	17.935
773.47	21.667
773.78	22.772
774.09	25.000
774.39	20.606
774.70	23.529
775.01	16.447
775.32	25.466
775.63	32.877
775.94	35.185
776.25	35.862
776.56	28.244
776.87	29.008
777.18	21.970
777.48	29.134
777.79	37.692
778.10	28.030
778.41	26.866
778.72	21.805
779.03	28.205
779.34	25.676
779.65	21.739
779.95	21.739
780.26	18.452
780.57	31.973
780.88	33.333
781.19	33.333
781.50	28.402
781.80	26.230
782.11	20.635
782.42	20.115
782.73	25.989
783.04	23.226
783.34	14.729
783.65	25.170
783.96	24.516
784.27	19.868
784.57	20.395
784.88	26.812
785.19	29.167
785.50	25.862
785.81	33.333
786.11	28.148
786.42	25.197
786.73	27.928
787.04	27.358
787.34	30.081
787.65	33.333
787.96	24.242
788.26	20.472
788.57	35.036
788.88	32.394
789.19	25.191
789.49	34.459
789.80	24.219
790.11	38.843
790.41	38.889
790.72	27.778
791.03	45.192
791.33	23.232
791.64	47.368
791.95	38.947
792.25	42.708
792.56	43.000
792.87	45.122
793.17	31.818
793.48	45.882
793.79	39.080
794.09	30.682
794.40	33.621
794.70	32.540
795.01	30.769
795.32	29.008
795.62	23.932
795.93	29.412
796.23	28.455
796.54	39.796
796.85	39.773
797.15	45.455
797.46	41.463
797.76	43.750
798.07	52.000
798.37	50.000
798.68	55.000
798.99	48.780
799.29	45.333
799.60	32.558
799.90	44.737
800.21	43.939
800.51	54.930
800.82	62.069
801.12	52.308
801.43	73.333
801.73	53.448
802.04	38.961
802.34	46.575
802.65	76.471
802.95	54.348
803.26	58.065
803.56	76.667
803.87	58.209
804.17	68.254
804.48	60.377
804.78	56.944
805.09	54.545
805.39	57.143
805.70	56.140
806.00	44.286
806.30	46.875
806.61	41.176
806.91	46.667
807.22	36.957
807.52	44.737
807.83	48.684
808.13	52.174
808.43	70.968
808.74	53.425
809.04	50.000
809.35	55.882
809.65	59.091
809.95	68.627
810.26	81.481
810.56	65.625
810.86	77.551
811.17	68.421
811.47	82.609
811.77	68.966
812.08	50.000
812.38	57.143
812.69	88.095
812.99	62.222
813.29	102.857
813.59	87.097
813.90	55.172
814.20	68.852
814.50	56.000
814.81	64.912
815.11	66.667
815.41	57.143
815.72	78.571
816.02	76.000
816.32	97.561
816.62	75.862
816.93	84.848
817.23	87.805
817.53	82.143
817.84	66.667
818.14	66.667
818.44	64.583
818.74	79.245
819.04	82.051
819.35	106.061
819.65	69.231
819.95	90.741
820.25	95.745
820.56	105.405
820.86	92.105
821.16	70.213
821.46	84.211
821.76	76.364
822.07	50.000
822.37	94.737
822.67	93.023
822.97	86.842
823.27	73.913
823.57	93.750
823.88	102.564
824.18	100.000
824.48	147.826
824.78	113.889
825.08	152.174
825.38	124.138
825.69	111.765
825.99	61.702
826.29	72.222
826.59	91.429
826.89	103.333
827.19	71.429
827.49	103.226
827.79	103.846
828.09	76.190
828.39	108.333
828.70	91.892
829.00	121.429
829.30	175.000
829.60	97.222
829.90	106.452
830.20	72.727
830.50	118.919
830.80	137.500
831.10	150.000
831.40	109.524
831.70	166.667
832.00	93.333
832.30	113.043
832.60	187.500
832.90	145.455
833.20	130.000
833.50	115.789
833.80	100.000
834.10	94.737
834.40	100.000
834.70	93.333
835.00	176.000
835.30	116.216
835.60	125.000
835.90	108.108
836.20	115.385
836.50	131.818
836.80	95.122
837.10	147.826
837.40	238.462
837.70	157.895
838.00	93.333
838.30	204.167
838.60	136.000
838.90	260.000
839.19	187.500
839.49	113.333
839.79	162.069
840.09	142.308
840.39	206.667
840.69	173.684
840.99	128.571
841.29	182.609
841.59	185.000
841.88	180.000
842.18	311.111
842.48	121.429
842.78	125.926
843.08	146.154
843.38	186.364
843.68	285.714
843.97	471.429
844.27	134.783
844.57	1750.000
844.87	235.714
845.17	188.889
845.47	109.524
845.76	195.833
846.06	428.571
846.36	164.706
846.66	261.538
846.96	275.000
847.25	207.692
847.55	236.842
847.85	183.333
848.15	480.000
848.44	281.818
848.74	200.000
849.04	150.000
849.34	164.706
849.63	218.750
849.93	181.250
850.23	1100.000
850.53	462.500
850.82	254.545
851.12	182.353
851.42	187.500
851.71	231.250
852.01	0.000
852.31	182.353
852.61	380.000
852.90	158.333
853.20	355.556
853.50	-1500.000
853.79	128.000
854.09	137.500
854.39	124.138
854.68	168.966
854.98	214.286
855.28	161.290
855.57	221.429
855.87	183.333
856.17	148.148
856.46	152.632
856.76	112.903
857.05	235.294
857.35	300.000
857.65	207.692
857.94	180.000
858.24	355.556
858.53	257.143
858.83	471.429
859.13	173.913
859.42	322.222
859.72	375.000
860.01	150.000
860.31	925.000
860.60	320.000
860.90	512.500
861.20	300.000
861.49	428.571
861.79	-2100.000
862.08	500.000
862.38	311.111
862.67	207.143
862.97	390.000
863.26	113.333
863.56	800.000
863.85	292.308
864.15	252.941
864.44	216.667
864.74	300.000
865.03	327.273
865.33	325.000
865.62	253.333
865.92	500.000
866.21	850.000
866.51	500.000
866.80	238.889
867.10	966.667
867.39	4100.000
867.69	760.000
867.98	700.000
868.27	142.857
868.57	333.333
868.86	900.000
869.16	147.619
869.45	3300.000
869.75	-566.667
870.04	725.000
870.33	680.000
870.63	312.500
870.92	170.588
871.22	725.000
871.51	414.286
871.80	441.667
872.10	330.769
>>>>>End Processed Spectral Data<<<<<
