SpectraSuite Data File
++++++++++++++++++++++++++++++++++++
Date: Tue May 12 16:25:44 PDT 2015
User: schluterlab
Dark Spectrum Present: Yes
Reference Spectrum Present: Yes
Number of Sampled Component Spectra: 1
Spectrometers: USB2E3373
Integration Time (usec): 3000 (USB2E3373)
Spectra Averaged: 3 (USB2E3373)
Boxcar Smoothing: 0 (USB2E3373)
Correct for Electrical Dark: No (USB2E3373)
Strobe/Lamp Enabled: No (USB2E3373)
Correct for Detector Non-linearity: No (USB2E3373)
Correct for Stray Light: No (USB2E3373)
Number of Pixels in Processed Spectrum: 2048
>>>>>Begin Processed Spectral Data<<<<<
178.53	0.000
178.91	-200.000
179.29	-675.000
179.67	-3700.000
180.04	-120.000
180.42	550.000
180.80	2000.000
181.18	0.000
181.56	-275.000
181.94	0.000
182.31	1233.333
182.69	-3100.000
183.07	528.571
183.45	-3400.000
183.83	-1300.000
184.20	380.000
184.58	542.857
184.96	-192.308
185.34	-141.667
185.72	1400.000
186.09	-750.000
186.47	-3200.000
186.85	1166.667
187.23	700.000
187.61	1550.000
187.98	512.500
188.36	314.286
188.74	283.333
189.12	316.667
189.49	925.000
189.87	0.000
190.25	625.000
190.63	2900.000
191.00	-208.333
191.38	-3300.000
191.76	-950.000
192.14	525.000
192.51	-2400.000
192.89	1500.000
193.27	833.333
193.65	-600.000
194.02	-540.000
194.40	442.857
194.78	-164.286
195.15	226.667
195.53	-3500.000
195.91	-480.000
196.29	4000.000
196.66	300.000
197.04	600.000
197.42	-1550.000
197.79	1000.000
198.17	275.000
198.55	0.000
198.92	514.286
199.30	1266.667
199.68	2350.000
200.05	700.000
200.43	-600.000
200.81	166.667
201.18	2600.000
201.56	316.667
201.94	-700.000
202.31	-300.000
202.69	-680.000
203.07	3400.000
203.44	-583.333
203.82	283.333
204.19	520.000
204.57	-900.000
204.95	-850.000
205.32	-720.000
205.70	483.333
206.08	850.000
206.45	-1133.333
206.83	344.444
207.20	226.316
207.58	366.667
207.96	820.000
208.33	0.000
208.71	614.286
209.08	780.000
209.46	-3900.000
209.84	-1075.000
210.21	780.000
210.59	-600.000
210.96	266.667
211.34	-875.000
211.71	390.909
212.09	950.000
212.46	1350.000
212.84	-316.667
213.22	522.222
213.59	-3900.000
213.97	300.000
214.34	875.000
214.72	1033.333
215.09	933.333
215.47	-3000.000
215.84	-350.000
216.22	-400.000
216.59	0.000
216.97	0.000
217.34	1250.000
217.72	-1650.000
218.09	1166.667
218.47	462.500
218.84	750.000
219.22	1066.667
219.59	1133.333
219.97	542.857
220.34	300.000
220.72	1800.000
221.09	3900.000
221.47	316.667
221.84	900.000
222.22	410.000
222.59	238.889
222.97	235.714
223.34	287.500
223.72	-1800.000
224.09	1333.333
224.46	330.769
224.84	-825.000
225.21	400.000
225.59	266.667
225.96	1466.667
226.34	-780.000
226.71	-450.000
227.08	-580.000
227.46	0.000
227.83	-516.667
228.21	-1400.000
228.58	383.333
228.95	1050.000
229.33	422.222
229.70	1050.000
230.08	376.923
230.45	3700.000
230.82	-725.000
231.20	-733.333
231.57	-733.333
231.95	580.000
232.32	266.667
232.69	550.000
233.07	341.667
233.44	-2000.000
233.81	306.667
234.19	192.593
234.56	268.750
234.93	241.176
235.31	220.000
235.68	250.000
236.05	164.286
236.43	185.185
236.80	378.571
237.17	162.069
237.55	187.500
237.92	135.000
238.29	154.545
238.67	137.500
239.04	153.659
239.41	93.750
239.79	122.500
240.16	87.500
240.53	88.525
240.91	86.957
241.28	100.000
241.65	83.333
242.02	94.366
242.40	91.429
242.77	70.330
243.14	70.886
243.51	86.869
243.89	79.439
244.26	57.944
244.63	80.198
245.00	71.560
245.38	63.559
245.75	63.636
246.12	74.074
246.49	69.504
246.87	65.574
247.24	69.333
247.61	66.250
247.98	72.789
248.36	61.212
248.73	58.673
249.10	61.905
249.47	58.500
249.84	59.701
250.22	71.351
250.59	60.000
250.96	57.806
251.33	62.791
251.70	54.911
252.08	57.143
252.45	50.996
252.82	53.232
253.19	55.336
253.56	51.154
253.94	51.449
254.31	54.264
254.68	56.794
255.05	54.483
255.42	52.920
255.79	52.769
256.16	53.898
256.54	53.571
256.91	51.961
257.28	55.184
257.65	48.276
258.02	49.558
258.39	51.576
258.76	55.362
259.14	47.714
259.51	50.146
259.88	51.976
260.25	53.022
260.62	51.507
260.99	50.138
261.36	52.089
261.73	52.660
262.10	53.927
262.47	48.500
262.85	52.533
263.22	51.928
263.59	47.570
263.96	53.634
264.33	47.407
264.70	52.580
265.07	50.976
265.44	51.376
265.81	52.830
266.18	50.801
266.55	50.591
266.92	49.888
267.29	49.561
267.66	48.206
268.03	48.206
268.40	48.203
268.77	50.661
269.14	48.373
269.51	47.439
269.88	47.551
270.25	44.060
270.62	49.356
270.99	49.493
271.36	49.797
271.73	47.589
272.10	44.646
272.47	46.429
272.84	45.309
273.21	46.488
273.58	47.773
273.95	45.996
274.32	46.887
274.69	48.228
275.06	45.173
275.43	45.594
275.80	45.660
276.17	46.140
276.54	47.664
276.91	48.881
277.28	43.796
277.65	46.494
278.02	46.507
278.39	43.165
278.76	46.207
279.13	44.484
279.50	46.182
279.87	43.762
280.23	47.330
280.60	47.993
280.97	44.310
281.34	43.399
281.71	44.522
282.08	45.641
282.45	44.088
282.82	44.983
283.19	44.038
283.56	43.140
283.92	45.114
284.29	42.429
284.66	41.849
285.03	44.444
285.40	41.818
285.77	43.364
286.14	41.486
286.51	42.485
286.87	42.880
287.24	42.943
287.61	41.793
287.98	41.642
288.35	40.593
288.72	41.123
289.08	39.339
289.45	41.768
289.82	40.625
290.19	40.556
290.56	38.282
290.93	40.719
291.29	40.331
291.66	38.418
292.03	38.008
292.40	38.618
292.77	38.162
293.13	37.946
293.50	35.223
293.87	35.637
294.24	37.762
294.60	35.666
294.97	37.483
295.34	37.981
295.71	36.794
296.08	35.867
296.44	36.086
296.81	35.732
297.18	33.460
297.55	35.345
297.91	33.867
298.28	33.454
298.65	33.620
299.02	34.620
299.38	34.532
299.75	33.049
300.12	33.028
300.48	33.958
300.85	32.896
301.22	35.000
301.59	33.726
301.95	30.572
302.32	32.247
302.69	32.240
303.05	34.905
303.42	31.390
303.79	31.528
304.15	32.123
304.52	31.818
304.89	31.770
305.25	32.258
305.62	33.689
305.99	29.457
306.35	32.211
306.72	31.426
307.09	31.884
307.45	29.989
307.82	31.276
308.19	31.649
308.55	30.500
308.92	32.188
309.29	32.249
309.65	30.823
310.02	31.744
310.38	31.206
310.75	30.955
311.12	31.130
311.48	32.336
311.85	31.489
312.22	31.328
312.58	30.515
312.95	31.359
313.31	31.929
313.68	32.552
314.05	32.875
314.41	32.682
314.78	33.049
315.14	32.701
315.51	33.491
315.87	32.847
316.24	33.147
316.61	33.751
316.97	33.761
317.34	34.861
317.70	36.260
318.07	35.854
318.43	34.886
318.80	36.953
319.16	35.927
319.53	35.221
319.89	36.470
320.26	40.130
320.62	37.546
320.99	36.988
321.35	38.312
321.72	40.607
322.08	39.797
322.45	39.873
322.81	40.073
323.18	40.142
323.54	42.160
323.91	42.883
324.27	42.352
324.64	42.734
325.00	44.914
325.37	45.110
325.73	45.531
326.10	46.230
326.46	46.491
326.83	44.720
327.19	47.229
327.56	46.805
327.92	49.016
328.29	51.309
328.65	51.027
329.01	51.069
329.38	50.338
329.74	51.494
330.11	51.434
330.47	53.879
330.84	51.337
331.20	53.215
331.56	52.850
331.93	53.550
332.29	53.316
332.66	55.102
333.02	52.234
333.38	54.276
333.75	52.877
334.11	53.859
334.48	55.128
334.84	54.223
335.20	55.689
335.57	53.904
335.93	53.911
336.29	54.312
336.66	56.518
337.02	54.149
337.38	54.600
337.75	57.179
338.11	55.612
338.47	56.393
338.84	56.224
339.20	55.844
339.56	55.929
339.93	55.686
340.29	55.378
340.65	55.742
341.02	56.396
341.38	56.404
341.74	57.641
342.11	56.845
342.47	57.014
342.83	56.604
343.20	57.154
343.56	54.964
343.92	57.473
344.28	56.938
344.65	58.761
345.01	55.635
345.37	56.811
345.73	57.063
346.10	55.618
346.46	57.337
346.82	55.941
347.19	57.651
347.55	56.753
347.91	57.024
348.27	57.552
348.63	58.544
349.00	55.674
349.36	58.210
349.72	58.486
350.08	58.385
350.45	57.959
350.81	58.486
351.17	59.091
351.53	57.968
351.89	57.110
352.26	56.387
352.62	57.768
352.98	59.202
353.34	58.860
353.70	57.492
354.07	57.231
354.43	58.602
354.79	57.707
355.15	59.265
355.51	60.121
355.87	58.961
356.24	59.507
356.60	58.219
356.96	59.666
357.32	59.382
357.68	58.003
358.04	60.030
358.40	59.070
358.77	61.082
359.13	60.435
359.49	60.119
359.85	59.270
360.21	58.915
360.57	60.000
360.93	59.957
361.29	59.957
361.66	61.223
362.02	61.009
362.38	60.534
362.74	59.236
363.10	61.571
363.46	59.530
363.82	62.482
364.18	60.526
364.54	62.876
364.90	62.048
365.26	62.457
365.62	62.638
365.98	61.046
366.35	60.897
366.71	61.554
367.07	61.433
367.43	62.861
367.79	61.636
368.15	62.890
368.51	62.578
368.87	63.043
369.23	63.756
369.59	63.385
369.95	63.427
370.31	62.765
370.67	64.261
371.03	64.146
371.39	63.643
371.75	63.294
372.11	63.902
372.47	64.658
372.83	65.058
373.19	63.811
373.55	63.574
373.91	64.572
374.27	63.823
374.63	64.339
374.99	64.286
375.35	64.583
375.71	65.369
376.07	64.721
376.42	64.386
376.78	66.153
377.14	66.252
377.50	64.856
377.86	66.047
378.22	64.839
378.58	65.617
378.94	66.144
379.30	65.676
379.66	66.406
380.02	65.396
380.38	65.222
380.74	66.609
381.09	66.005
381.45	65.087
381.81	66.726
382.17	67.033
382.53	66.527
382.89	65.760
383.25	67.259
383.61	65.706
383.97	67.606
384.32	67.812
384.68	68.330
385.04	66.061
385.40	66.429
385.76	67.349
386.12	67.471
386.48	67.112
386.83	68.582
387.19	67.609
387.55	67.962
387.91	66.917
388.27	69.244
388.62	66.843
388.98	66.939
389.34	68.531
389.70	66.450
390.06	68.780
390.42	66.872
390.77	67.383
391.13	67.592
391.49	67.090
391.85	66.892
392.20	67.700
392.56	68.459
392.92	66.648
393.28	67.152
393.64	67.718
393.99	67.813
394.35	67.275
394.71	67.431
395.07	68.127
395.42	68.033
395.78	70.204
396.14	69.157
396.50	68.351
396.85	68.537
397.21	68.051
397.57	68.858
397.92	67.187
398.28	67.237
398.64	69.168
399.00	68.680
399.35	68.223
399.71	68.764
400.07	67.466
400.42	67.881
400.78	67.801
401.14	68.761
401.49	68.779
401.85	68.946
402.21	68.190
402.57	68.941
402.92	69.636
403.28	66.826
403.63	66.686
403.99	67.973
404.35	67.468
404.70	68.872
405.06	67.771
405.42	69.180
405.77	67.365
406.13	66.649
406.49	67.140
406.84	68.472
407.20	69.349
407.55	68.800
407.91	69.177
408.27	68.890
408.62	69.545
408.98	68.125
409.34	66.978
409.69	66.708
410.05	67.621
410.40	67.138
410.76	66.342
411.11	67.950
411.47	67.469
411.83	66.432
412.18	67.512
412.54	67.147
412.89	67.375
413.25	68.187
413.60	67.815
413.96	67.923
414.31	67.414
414.67	68.281
415.03	67.305
415.38	67.697
415.74	68.983
416.09	67.645
416.45	68.003
416.80	68.698
417.16	67.473
417.51	67.962
417.87	68.586
418.22	68.773
418.58	68.981
418.93	67.817
419.29	68.084
419.64	68.443
420.00	68.198
420.35	69.164
420.71	68.845
421.06	68.158
421.42	68.394
421.77	69.684
422.12	68.467
422.48	68.053
422.83	68.638
423.19	68.521
423.54	67.636
423.90	68.800
424.25	69.400
424.61	69.008
424.96	69.113
425.31	68.199
425.67	70.314
426.02	69.153
426.38	69.662
426.73	70.156
427.09	70.996
427.44	69.837
427.79	70.669
428.15	71.420
428.50	70.514
428.85	70.958
429.21	69.476
429.56	68.445
429.92	68.473
430.27	69.182
430.62	68.527
430.98	69.711
431.33	69.607
431.68	68.099
432.04	69.891
432.39	70.801
432.74	70.667
433.10	70.930
433.45	71.970
433.80	72.973
434.16	71.098
434.51	70.898
434.86	71.475
435.22	72.339
435.57	72.792
435.92	71.258
436.28	72.062
436.63	71.043
436.98	72.860
437.34	71.005
437.69	70.493
438.04	70.753
438.39	72.096
438.75	71.047
439.10	70.966
439.45	70.548
439.81	73.048
440.16	71.326
440.51	72.354
440.86	72.650
441.22	70.671
441.57	72.021
441.92	70.681
442.27	71.856
442.63	71.646
442.98	71.067
443.33	71.398
443.68	71.026
444.03	72.290
444.39	71.987
444.74	71.325
445.09	73.407
445.44	70.988
445.79	72.758
446.15	71.368
446.50	71.888
446.85	72.161
447.20	71.343
447.55	73.736
447.91	71.337
448.26	71.938
448.61	72.637
448.96	74.020
449.31	72.662
449.66	71.595
450.02	70.989
450.37	72.793
450.72	73.719
451.07	72.193
451.42	73.385
451.77	72.967
452.12	71.072
452.47	71.871
452.83	73.465
453.18	73.453
453.53	74.600
453.88	72.686
454.23	73.911
454.58	73.135
454.93	71.429
455.28	72.338
455.63	73.463
455.98	72.081
456.34	73.556
456.69	75.183
457.04	72.673
457.39	72.343
457.74	72.804
458.09	71.757
458.44	71.249
458.79	72.573
459.14	71.686
459.49	71.065
459.84	72.989
460.19	71.864
460.54	71.111
460.89	72.281
461.24	70.389
461.59	72.222
461.94	71.868
462.29	71.739
462.64	72.802
462.99	72.681
463.34	72.521
463.69	72.716
464.04	72.251
464.39	70.750
464.74	71.864
465.09	71.097
465.44	71.110
465.79	70.876
466.14	69.740
466.49	70.700
466.84	70.680
467.19	72.115
467.54	70.030
467.89	72.183
468.24	72.496
468.59	70.833
468.94	72.101
469.29	71.533
469.64	71.383
469.99	71.144
470.34	71.664
470.68	71.379
471.03	73.115
471.38	72.848
471.73	71.587
472.08	73.059
472.43	72.874
472.78	70.935
473.13	71.402
473.48	72.005
473.83	71.555
474.17	71.672
474.52	70.557
474.87	70.381
475.22	70.588
475.57	70.672
475.92	70.925
476.27	68.825
476.61	70.617
476.96	70.899
477.31	71.517
477.66	70.853
478.01	70.242
478.36	70.803
478.70	70.323
479.05	71.600
479.40	70.585
479.75	71.251
480.10	70.184
480.45	71.195
480.79	68.618
481.14	69.995
481.49	69.259
481.84	70.361
482.19	69.825
482.53	69.346
482.88	70.072
483.23	69.463
483.58	69.973
483.92	70.567
484.27	70.077
484.62	69.270
484.97	67.589
485.31	67.876
485.66	66.131
486.01	64.472
486.36	64.471
486.70	63.932
487.05	64.731
487.40	66.382
487.75	66.520
488.09	66.790
488.44	67.878
488.79	67.928
489.13	68.384
489.48	68.718
489.83	68.098
490.17	67.382
490.52	69.121
490.87	68.405
491.22	70.213
491.56	68.819
491.91	69.265
492.26	68.998
492.60	69.932
492.95	68.691
493.30	69.245
493.64	69.272
493.99	68.739
494.34	68.669
494.68	68.747
495.03	69.376
495.37	68.528
495.72	69.417
496.07	68.374
496.41	68.288
496.76	68.679
497.11	68.209
497.45	68.610
497.80	69.555
498.14	68.423
498.49	68.431
498.84	69.299
499.18	67.962
499.53	68.810
499.87	67.880
500.22	69.507
500.56	68.942
500.91	69.852
501.26	68.902
501.60	69.035
501.95	69.041
502.29	68.400
502.64	67.358
502.98	67.852
503.33	68.731
503.67	67.594
504.02	67.801
504.36	67.149
504.71	69.442
505.06	69.263
505.40	69.864
505.75	67.680
506.09	68.455
506.44	68.938
506.78	68.856
507.13	69.656
507.47	68.268
507.82	69.246
508.16	70.162
508.51	68.116
508.85	68.376
509.19	69.261
509.54	70.117
509.88	68.523
510.23	69.657
510.57	68.243
510.92	70.380
511.26	70.030
511.61	68.144
511.95	68.890
512.30	68.850
512.64	69.626
512.98	69.349
513.33	69.570
513.67	69.394
514.02	69.922
514.36	69.938
514.70	70.133
515.05	70.698
515.39	71.053
515.74	72.553
516.08	71.187
516.42	72.623
516.77	71.733
517.11	71.093
517.46	70.097
517.80	71.983
518.14	72.620
518.49	70.562
518.83	71.154
519.17	71.547
519.52	72.146
519.86	72.153
520.20	71.616
520.55	71.170
520.89	71.782
521.23	71.846
521.58	71.429
521.92	73.061
522.26	72.334
522.61	73.797
522.95	72.132
523.29	72.573
523.64	72.139
523.98	72.829
524.32	72.318
524.66	72.696
525.01	72.367
525.35	72.422
525.69	74.353
526.04	73.349
526.38	72.925
526.72	71.659
527.06	71.674
527.41	74.002
527.75	73.463
528.09	73.390
528.43	72.788
528.78	73.643
529.12	74.533
529.46	71.245
529.80	72.021
530.15	71.715
530.49	72.864
530.83	73.126
531.17	73.801
531.51	73.145
531.86	72.222
532.20	72.744
532.54	73.697
532.88	73.704
533.22	73.065
533.57	74.741
533.91	71.154
534.25	71.437
534.59	72.456
534.93	71.559
535.27	70.575
535.62	71.587
535.96	71.690
536.30	73.492
536.64	73.540
536.98	73.191
537.32	73.875
537.66	72.704
538.01	73.994
538.35	74.423
538.69	71.238
539.03	72.139
539.37	72.209
539.71	73.642
540.05	73.231
540.39	74.088
540.73	73.354
541.07	72.898
541.42	72.512
541.76	72.626
542.10	72.935
542.44	73.878
542.78	73.820
543.12	72.577
543.46	72.431
543.80	74.311
544.14	73.003
544.48	72.324
544.82	72.844
545.16	71.585
545.50	72.096
545.84	73.169
546.18	76.073
546.52	74.623
546.86	72.598
547.20	72.868
547.54	72.641
547.88	72.141
548.22	73.710
548.56	72.658
548.90	70.937
549.24	72.457
549.58	74.034
549.92	74.394
550.26	75.930
550.60	75.183
550.94	75.848
551.28	75.172
551.62	75.724
551.96	73.446
552.30	72.643
552.64	74.693
552.98	73.260
553.32	73.431
553.66	73.420
554.00	73.810
554.34	74.234
554.68	74.395
555.02	74.745
555.36	73.471
555.69	74.542
556.03	72.484
556.37	73.486
556.71	74.772
557.05	73.132
557.39	74.867
557.73	74.326
558.07	74.313
558.41	74.229
558.75	74.419
559.08	75.768
559.42	75.018
559.76	76.835
560.10	74.880
560.44	72.595
560.78	75.767
561.12	74.444
561.45	73.279
561.79	73.658
562.13	73.026
562.47	74.951
562.81	75.862
563.15	73.368
563.48	72.360
563.82	73.175
564.16	73.507
564.50	72.212
564.84	73.191
565.17	71.301
565.51	75.000
565.85	74.213
566.19	71.607
566.52	72.924
566.86	73.847
567.20	71.742
567.54	72.271
567.88	73.187
568.21	69.646
568.55	70.623
568.89	69.434
569.23	68.982
569.56	70.048
569.90	67.589
570.24	67.394
570.57	67.002
570.91	66.646
571.25	66.429
571.59	65.849
571.92	64.397
572.26	64.205
572.60	65.371
572.93	65.354
573.27	64.991
573.61	64.591
573.95	64.442
574.28	64.954
574.62	63.717
574.96	63.517
575.29	62.984
575.63	63.675
575.97	63.169
576.30	63.225
576.64	64.048
576.98	64.244
577.31	64.927
577.65	63.453
577.98	62.594
578.32	62.193
578.66	63.666
578.99	63.205
579.33	64.321
579.67	63.974
580.00	64.114
580.34	64.394
580.67	63.490
581.01	63.792
581.35	63.009
581.68	62.640
582.02	62.371
582.35	63.008
582.69	63.033
583.02	62.989
583.36	64.396
583.70	64.653
584.03	66.170
584.37	65.573
584.70	65.066
585.04	64.216
585.37	63.819
585.71	65.124
586.04	63.984
586.38	64.975
586.72	64.505
587.05	64.977
587.39	65.259
587.72	65.333
588.06	65.408
588.39	65.558
588.73	65.241
589.06	66.064
589.40	66.886
589.73	66.634
590.07	68.806
590.40	67.770
590.73	68.821
591.07	68.767
591.40	68.383
591.74	68.425
592.07	67.221
592.41	68.665
592.74	67.814
593.08	66.374
593.41	66.098
593.75	65.037
594.08	66.954
594.41	66.471
594.75	66.815
595.08	67.695
595.42	66.820
595.75	67.029
596.09	68.335
596.42	67.480
596.75	69.671
597.09	68.634
597.42	68.041
597.75	68.073
598.09	67.419
598.42	67.279
598.76	67.001
599.09	68.444
599.42	66.574
599.76	67.469
600.09	66.576
600.42	65.988
600.76	67.539
601.09	67.518
601.42	66.631
601.76	68.099
602.09	68.102
602.42	66.433
602.76	67.704
603.09	68.477
603.42	68.000
603.76	67.607
604.09	68.657
604.42	68.249
604.76	67.918
605.09	68.408
605.42	68.184
605.75	66.917
606.09	67.406
606.42	67.644
606.75	67.470
607.09	67.114
607.42	67.376
607.75	68.033
608.08	67.953
608.42	69.253
608.75	68.335
609.08	68.104
609.41	70.364
609.75	70.604
610.08	69.649
610.41	68.775
610.74	68.831
611.07	70.168
611.41	70.297
611.74	70.363
612.07	69.750
612.40	71.442
612.73	69.795
613.07	71.161
613.40	70.777
613.73	71.792
614.06	69.300
614.39	70.253
614.72	70.065
615.06	70.326
615.39	69.604
615.72	70.039
616.05	70.718
616.38	69.762
616.71	70.320
617.05	71.170
617.38	72.303
617.71	71.991
618.04	72.855
618.37	71.429
618.70	72.748
619.03	72.589
619.36	73.304
619.69	73.747
620.03	74.951
620.36	74.053
620.69	73.883
621.02	75.000
621.35	73.997
621.68	75.442
622.01	75.941
622.34	75.965
622.67	75.702
623.00	73.179
623.33	75.034
623.66	73.919
623.99	75.548
624.32	73.916
624.65	73.206
624.99	75.592
625.32	73.480
625.65	73.034
625.98	74.547
626.31	76.780
626.64	75.475
626.97	76.588
627.30	76.630
627.63	78.022
627.96	75.509
628.29	78.630
628.62	78.700
628.95	79.433
629.28	80.543
629.61	79.525
629.94	79.170
630.26	77.470
630.59	78.280
630.92	78.655
631.25	77.516
631.58	82.160
631.91	82.588
632.24	80.078
632.57	79.371
632.90	83.540
633.23	80.902
633.56	81.243
633.89	82.637
634.22	82.992
634.55	81.075
634.88	82.804
635.20	83.632
635.53	85.714
635.86	84.228
636.19	84.961
636.52	80.216
636.85	81.661
637.18	81.690
637.51	83.017
637.83	82.380
638.16	84.408
638.49	85.389
638.82	85.446
639.15	81.669
639.48	83.768
639.81	83.272
640.13	84.908
640.46	83.818
640.79	86.996
641.12	85.433
641.45	85.252
641.77	87.847
642.10	86.078
642.43	89.900
642.76	82.528
643.09	86.455
643.41	83.450
643.74	86.619
644.07	88.201
644.40	86.834
644.73	88.889
645.05	90.788
645.38	90.965
645.71	86.646
646.04	87.939
646.36	93.427
646.69	88.160
647.02	90.560
647.35	88.031
647.67	88.817
648.00	92.508
648.33	84.662
648.66	90.455
648.98	85.362
649.31	83.401
649.64	83.817
649.96	84.780
650.29	85.143
650.62	87.482
650.94	87.952
651.27	88.676
651.60	88.732
651.92	88.172
652.25	90.866
652.58	84.397
652.90	88.922
653.23	87.149
653.56	85.312
653.88	86.637
654.21	85.777
654.54	84.480
654.86	86.726
655.19	83.905
655.52	72.913
655.84	61.151
656.17	70.169
656.49	98.014
656.82	100.000
657.15	96.988
657.47	67.637
657.80	51.078
658.13	40.733
658.45	55.717
658.78	66.964
659.10	67.996
659.43	69.864
659.75	73.444
660.08	74.624
660.41	77.949
660.73	87.704
661.06	87.688
661.38	88.756
661.71	90.827
662.03	91.635
662.36	91.429
662.68	90.689
663.01	90.991
663.33	88.491
663.66	94.477
663.98	95.635
664.31	91.418
664.63	91.762
664.96	93.996
665.28	87.759
665.61	90.377
665.93	89.623
666.26	92.897
666.58	90.826
666.91	90.541
667.23	92.771
667.56	90.965
667.88	98.548
668.21	94.877
668.53	93.548
668.86	89.579
669.18	92.668
669.50	93.595
669.83	94.661
670.15	90.852
670.48	86.523
670.80	91.434
671.13	90.837
671.45	92.385
671.77	90.167
672.10	89.946
672.42	86.513
672.75	87.025
673.07	86.169
673.39	83.866
673.72	89.792
674.04	90.681
674.37	86.933
674.69	86.989
675.01	86.194
675.34	85.465
675.66	91.211
675.98	91.321
676.31	92.200
676.63	89.264
676.95	91.865
677.28	91.481
677.60	88.531
677.92	87.103
678.25	89.729
678.57	86.034
678.89	87.342
679.22	86.765
679.54	85.053
679.86	88.307
680.18	88.401
680.51	85.075
680.83	88.176
681.15	84.055
681.48	85.069
681.80	81.961
682.12	85.467
682.44	84.505
682.77	82.028
683.09	87.767
683.41	91.429
683.73	87.205
684.06	87.500
684.38	90.698
684.70	84.353
685.02	84.375
685.34	86.268
685.67	82.797
685.99	83.580
686.31	81.510
686.63	84.065
686.96	84.477
687.28	81.040
687.60	85.154
687.92	84.255
688.24	86.724
688.56	85.053
688.89	85.468
689.21	86.705
689.53	88.735
689.85	89.024
690.17	87.379
690.49	88.710
690.82	90.126
691.14	89.495
691.46	90.760
691.78	86.355
692.10	91.031
692.42	81.670
692.74	88.372
693.06	85.853
693.39	86.957
693.71	82.908
694.03	89.546
694.35	89.157
694.67	82.281
694.99	87.805
695.31	87.613
695.63	89.819
695.95	91.403
696.27	87.611
696.59	90.453
696.91	94.684
697.23	85.747
697.56	86.515
697.88	82.834
698.20	81.132
698.52	83.658
698.84	86.448
699.16	87.633
699.48	87.288
699.80	89.325
700.12	87.760
700.44	90.888
700.76	86.874
701.08	94.256
701.40	90.649
701.72	94.118
702.04	92.954
702.36	92.742
702.68	93.085
703.00	86.967
703.32	90.074
703.64	88.413
703.96	92.708
704.28	91.534
704.60	98.310
704.91	97.199
705.23	95.455
705.55	94.659
705.87	100.000
706.19	98.433
706.51	96.552
706.83	93.510
707.15	88.503
707.47	89.588
707.79	87.816
708.11	88.209
708.43	84.270
708.74	82.353
709.06	84.651
709.38	88.586
709.70	92.916
710.02	87.228
710.34	94.475
710.66	90.278
710.98	91.530
711.29	89.415
711.61	93.593
711.93	95.441
712.25	93.373
712.57	98.392
712.89	86.667
713.20	95.527
713.52	93.458
713.84	96.375
714.16	84.638
714.48	89.625
714.80	86.179
715.11	86.968
715.43	85.475
715.75	85.634
716.07	91.329
716.39	86.286
716.70	88.785
717.02	102.694
717.34	98.201
717.66	97.917
717.97	99.621
718.29	94.014
718.61	88.176
718.93	98.616
719.24	97.315
719.56	94.138
719.88	89.490
720.20	90.323
720.51	89.542
720.83	94.649
721.15	91.837
721.46	92.808
721.78	93.728
722.10	86.458
722.42	93.311
722.73	96.029
723.05	89.474
723.37	93.286
723.68	95.312
724.00	98.864
724.32	96.198
724.63	91.538
724.95	99.216
725.27	92.193
725.58	88.603
725.90	90.493
726.22	90.753
726.53	89.298
726.85	90.879
727.16	91.946
727.48	89.701
727.80	94.604
728.11	91.429
728.43	87.681
728.74	93.007
729.06	86.022
729.38	95.789
729.69	91.000
730.01	88.816
730.32	90.604
730.64	90.365
730.96	82.583
731.27	81.957
731.59	81.322
731.90	84.958
732.22	86.000
732.53	83.191
732.85	83.041
733.16	81.627
733.48	89.028
733.80	81.739
734.11	86.503
734.43	84.503
734.74	82.306
735.06	82.804
735.37	78.608
735.69	81.449
736.00	86.239
736.32	86.364
736.63	84.858
736.95	86.646
737.26	85.366
737.58	85.890
737.89	84.639
738.21	91.060
738.52	85.953
738.83	91.209
739.15	90.592
739.46	80.345
739.78	87.415
740.09	81.050
740.41	88.957
740.72	87.302
741.04	87.063
741.35	91.406
741.66	80.632
741.98	93.133
742.29	97.222
742.61	96.018
742.92	94.068
743.23	92.000
743.55	82.642
743.86	85.882
744.18	92.373
744.49	90.496
744.80	93.548
745.12	96.875
745.43	102.336
745.74	91.556
746.06	96.930
746.37	97.674
746.68	100.000
747.00	93.722
747.31	90.336
747.62	86.885
747.94	92.704
748.25	86.770
748.56	91.949
748.88	98.214
749.19	93.023
749.50	93.607
749.82	92.593
750.13	87.352
750.44	80.667
750.75	88.255
751.07	84.211
751.38	82.508
751.69	83.838
752.01	82.517
752.32	85.050
752.63	88.926
752.94	89.161
753.26	92.969
753.57	87.938
753.88	88.764
754.19	88.087
754.51	84.053
754.82	82.886
755.13	82.095
755.44	87.778
755.75	90.034
756.07	86.986
756.38	80.392
756.69	79.063
757.00	83.680
757.31	80.000
757.63	79.614
757.94	77.660
758.25	78.502
758.56	72.998
758.87	77.945
759.18	88.081
759.50	82.979
759.81	79.822
760.12	78.933
760.43	78.992
760.74	78.228
761.05	79.576
761.36	77.865
761.67	77.628
761.99	75.211
762.30	81.350
762.61	75.347
762.92	84.091
763.23	84.151
763.54	86.154
763.85	83.658
764.16	83.681
764.47	81.081
764.78	80.456
765.10	81.402
765.41	79.545
765.72	74.586
766.03	76.435
766.34	83.972
766.65	87.452
766.96	90.283
767.27	94.860
767.58	93.564
767.89	97.238
768.20	100.610
768.51	90.306
768.82	87.281
769.13	83.529
769.44	83.083
769.75	78.652
770.06	87.815
770.37	82.456
770.68	81.333
770.99	87.288
771.30	86.611
771.61	85.000
771.92	78.626
772.23	86.290
772.54	90.222
772.85	95.050
773.16	93.478
773.47	93.889
773.78	92.079
774.09	95.455
774.39	96.364
774.70	85.294
775.01	93.421
775.32	100.000
775.63	99.315
775.94	100.617
776.25	96.552
776.56	100.763
776.87	102.290
777.18	95.455
777.48	114.173
777.79	103.846
778.10	100.758
778.41	112.687
778.72	103.008
779.03	88.462
779.34	93.919
779.65	92.547
779.95	100.000
780.26	88.690
780.57	100.000
780.88	97.163
781.19	111.667
781.50	92.899
781.80	84.699
782.11	83.598
782.42	87.356
782.73	87.571
783.04	93.548
783.34	94.574
783.65	84.354
783.96	96.129
784.27	88.742
784.57	89.474
784.88	92.029
785.19	94.167
785.50	100.862
785.81	106.202
786.11	94.815
786.42	100.000
786.73	102.703
787.04	108.491
787.34	100.813
787.65	90.152
787.96	93.939
788.26	101.575
788.57	98.540
788.88	87.324
789.19	89.313
789.49	96.622
789.80	96.875
790.11	105.785
790.41	90.741
790.72	93.519
791.03	97.115
791.33	94.949
791.64	109.474
791.95	108.421
792.25	98.958
792.56	101.000
792.87	112.195
793.17	110.227
793.48	118.824
793.79	113.793
794.09	121.591
794.40	97.414
794.70	92.857
795.01	88.462
795.32	87.023
795.62	99.145
795.93	94.958
796.23	91.870
796.54	108.163
796.85	117.045
797.15	119.481
797.46	119.512
797.76	100.000
798.07	129.333
798.37	113.750
798.68	130.000
798.99	114.634
799.29	106.667
799.60	93.023
799.90	115.789
800.21	140.909
800.51	112.676
800.82	132.759
801.12	138.462
801.43	124.000
801.73	139.655
802.04	118.182
802.34	110.959
802.65	129.412
802.95	158.696
803.26	148.387
803.56	150.000
803.87	116.418
804.17	123.810
804.48	130.189
804.78	122.222
805.09	121.212
805.39	123.810
805.70	128.070
806.00	94.286
806.30	131.250
806.61	105.882
806.91	110.000
807.22	96.739
807.52	105.263
807.83	128.947
808.13	113.043
808.43	119.355
808.74	105.479
809.04	133.929
809.35	130.882
809.65	116.667
809.95	150.980
810.26	133.333
810.56	129.688
810.86	146.939
811.17	128.070
811.47	128.261
811.77	122.414
812.08	110.345
812.38	150.000
812.69	154.762
812.99	151.111
813.29	168.571
813.59	180.645
813.90	117.241
814.20	129.508
814.50	136.000
814.81	122.807
815.11	125.926
815.41	123.214
815.72	126.786
816.02	116.000
816.32	175.610
816.62	113.793
816.93	166.667
817.23	156.098
817.53	123.214
817.84	124.444
818.14	147.619
818.44	129.167
818.74	139.623
819.04	120.513
819.35	187.879
819.65	128.846
819.95	144.444
820.25	146.809
820.56	156.757
820.86	152.632
821.16	100.000
821.46	176.316
821.76	136.364
822.07	104.762
822.37	139.474
822.67	141.860
822.97	147.368
823.27	139.130
823.57	162.500
823.88	148.718
824.18	181.818
824.48	186.957
824.78	152.778
825.08	217.391
825.38	203.448
825.69	135.294
825.99	127.660
826.29	108.333
826.59	148.571
826.89	173.333
827.19	162.857
827.49	167.742
827.79	184.615
828.09	142.857
828.39	141.667
828.70	129.730
829.00	192.857
829.30	331.250
829.60	144.444
829.90	177.419
830.20	145.455
830.50	164.865
830.80	229.167
831.10	223.077
831.40	223.810
831.70	225.000
832.00	173.333
832.30	213.043
832.60	245.833
832.90	172.727
833.20	230.000
833.50	155.263
833.80	150.000
834.10	134.211
834.40	231.579
834.70	193.333
835.00	180.000
835.30	129.730
835.60	165.625
835.90	145.946
836.20	211.538
836.50	181.818
836.80	131.707
837.10	217.391
837.40	392.308
837.70	200.000
838.00	160.000
838.30	204.167
838.60	188.000
838.90	450.000
839.19	331.250
839.49	173.333
839.79	162.069
840.09	226.923
840.39	293.333
840.69	247.368
840.99	200.000
841.29	247.826
841.59	265.000
841.88	240.000
842.18	444.444
842.48	178.571
842.78	174.074
843.08	261.538
843.38	231.818
843.68	328.571
843.97	557.143
844.27	226.087
844.57	2150.000
844.87	335.714
845.17	211.111
845.47	176.190
845.76	208.333
846.06	700.000
846.36	229.412
846.66	392.308
846.96	275.000
847.25	238.462
847.55	189.474
847.85	166.667
848.15	640.000
848.44	445.455
848.74	200.000
849.04	241.667
849.34	194.118
849.63	312.500
849.93	256.250
850.23	1166.667
850.53	412.500
850.82	327.273
851.12	211.765
851.42	237.500
851.71	281.250
852.01	0.000
852.31	229.412
852.61	470.000
852.90	241.667
853.20	400.000
853.50	-2400.000
853.79	172.000
854.09	162.500
854.39	162.069
854.68	182.759
854.98	214.286
855.28	161.290
855.57	342.857
855.87	227.778
856.17	151.852
856.46	252.632
856.76	148.387
857.05	276.471
857.35	381.818
857.65	300.000
857.94	170.000
858.24	477.778
858.53	314.286
858.83	585.714
859.13	226.087
859.42	422.222
859.72	387.500
860.01	333.333
860.31	775.000
860.60	420.000
860.90	400.000
861.20	361.538
861.49	600.000
861.79	-3400.000
862.08	514.286
862.38	444.444
862.67	314.286
862.97	370.000
863.26	160.000
863.56	950.000
863.85	307.692
864.15	294.118
864.44	216.667
864.74	450.000
865.03	345.455
865.33	400.000
865.62	286.667
865.92	750.000
866.21	900.000
866.51	840.000
866.80	261.111
867.10	900.000
867.39	3700.000
867.69	620.000
867.98	1125.000
868.27	204.762
868.57	320.000
868.86	950.000
869.16	152.381
869.45	3400.000
869.75	-500.000
870.04	850.000
870.33	480.000
870.63	412.500
870.92	258.824
871.22	800.000
871.51	400.000
871.80	333.333
872.10	361.538
>>>>>End Processed Spectral Data<<<<<
