SpectraSuite Data File
++++++++++++++++++++++++++++++++++++
Date: Tue May 12 17:01:07 PDT 2015
User: schluterlab
Dark Spectrum Present: Yes
Reference Spectrum Present: Yes
Number of Sampled Component Spectra: 1
Spectrometers: USB2E3373
Integration Time (usec): 3000 (USB2E3373)
Spectra Averaged: 3 (USB2E3373)
Boxcar Smoothing: 0 (USB2E3373)
Correct for Electrical Dark: No (USB2E3373)
Strobe/Lamp Enabled: No (USB2E3373)
Correct for Detector Non-linearity: No (USB2E3373)
Correct for Stray Light: No (USB2E3373)
Number of Pixels in Processed Spectrum: 2048
>>>>>Begin Processed Spectral Data<<<<<
178.53	0.000
178.91	-241.667
179.29	-750.000
179.67	-2900.000
180.04	-160.000
180.42	650.000
180.80	1850.000
181.18	0.000
181.56	-237.500
181.94	0.000
182.31	1266.667
182.69	-3100.000
183.07	614.286
183.45	-3800.000
183.83	-1100.000
184.20	410.000
184.58	357.143
184.96	-230.769
185.34	-208.333
185.72	1800.000
186.09	-650.000
186.47	-4300.000
186.85	1066.667
187.23	680.000
187.61	1650.000
187.98	562.500
188.36	250.000
188.74	283.333
189.12	341.667
189.49	925.000
189.87	0.000
190.25	500.000
190.63	2800.000
191.00	-200.000
191.38	-3800.000
191.76	-725.000
192.14	500.000
192.51	-2600.000
192.89	1950.000
193.27	966.667
193.65	-1166.667
194.02	-780.000
194.40	614.286
194.78	-264.286
195.15	253.333
195.53	-3100.000
195.91	-620.000
196.29	4300.000
196.66	268.750
197.04	925.000
197.42	-1850.000
197.79	750.000
198.17	375.000
198.55	0.000
198.92	400.000
199.30	1100.000
199.68	1900.000
200.05	766.667
200.43	-566.667
200.81	172.222
201.18	3400.000
201.56	275.000
201.94	-900.000
202.31	-250.000
202.69	-440.000
203.07	3500.000
203.44	-283.333
203.82	400.000
204.19	560.000
204.57	-1300.000
204.95	-875.000
205.32	-700.000
205.70	566.667
206.08	725.000
206.45	-1066.667
206.83	400.000
207.20	252.632
207.58	308.333
207.96	540.000
208.33	0.000
208.71	614.286
209.08	740.000
209.46	-2500.000
209.84	-825.000
210.21	820.000
210.59	-560.000
210.96	291.667
211.34	-975.000
211.71	372.727
212.09	1075.000
212.46	1450.000
212.84	-466.667
213.22	477.778
213.59	-2400.000
213.97	330.000
214.34	1050.000
214.72	1366.667
215.09	966.667
215.47	-2600.000
215.84	-220.000
216.22	-412.500
216.59	0.000
216.97	0.000
217.34	1800.000
217.72	-1800.000
218.09	1100.000
218.47	412.500
218.84	800.000
219.22	800.000
219.59	700.000
219.97	514.286
220.34	422.222
220.72	1750.000
221.09	3400.000
221.47	358.333
221.84	966.667
222.22	400.000
222.59	233.333
222.97	157.143
223.34	275.000
223.72	-1700.000
224.09	1133.333
224.46	315.385
224.84	-850.000
225.21	411.111
225.59	260.000
225.96	1066.667
226.34	-800.000
226.71	-700.000
227.08	-780.000
227.46	0.000
227.83	-666.667
228.21	-1450.000
228.58	408.333
228.95	1000.000
229.33	300.000
229.70	1000.000
230.08	323.077
230.45	3300.000
230.82	-875.000
231.20	-600.000
231.57	-1200.000
231.95	620.000
232.32	350.000
232.69	566.667
233.07	291.667
233.44	-1800.000
233.81	286.667
234.19	185.185
234.56	243.750
234.93	211.765
235.31	200.000
235.68	231.250
236.05	203.571
236.43	159.259
236.80	257.143
237.17	196.552
237.55	131.250
237.92	130.000
238.29	154.545
238.67	143.750
239.04	148.780
239.41	102.083
239.79	122.500
240.16	104.167
240.53	109.836
240.91	98.551
241.28	113.559
241.65	92.424
242.02	109.859
242.40	87.143
242.77	83.516
243.14	96.203
243.51	87.879
243.89	69.159
244.26	81.308
244.63	79.208
245.00	80.734
245.38	72.881
245.75	66.667
246.12	78.519
246.49	67.376
246.87	73.770
247.24	68.667
247.61	67.500
247.98	74.150
248.36	67.879
248.73	65.306
249.10	66.071
249.47	62.500
249.84	69.154
250.22	68.108
250.59	66.000
250.96	59.072
251.33	66.512
251.70	62.946
252.08	62.185
252.45	58.566
252.82	60.837
253.19	59.289
253.56	61.538
253.94	58.333
254.31	65.504
254.68	61.672
255.05	64.138
255.42	56.569
255.79	58.632
256.16	61.695
256.54	59.740
256.91	58.497
257.28	59.532
257.65	57.053
258.02	56.047
258.39	57.020
258.76	56.812
259.14	55.714
259.51	60.350
259.88	62.918
260.25	56.319
260.62	53.151
260.99	57.576
261.36	58.496
261.73	56.383
262.10	57.068
262.47	51.250
262.85	56.533
263.22	55.013
263.59	55.499
263.96	54.887
264.33	55.062
264.70	55.037
265.07	56.341
265.44	57.339
265.81	58.726
266.18	51.945
266.55	54.846
266.92	51.678
267.29	55.702
267.66	54.484
268.03	55.381
268.40	52.854
268.77	55.507
269.14	53.362
269.51	55.011
269.88	53.878
270.25	53.564
270.62	57.725
270.99	53.955
271.36	54.878
271.73	53.669
272.10	53.939
272.47	51.786
272.84	52.295
273.21	51.033
273.58	54.858
273.95	53.593
274.32	52.918
274.69	55.118
275.06	52.641
275.43	50.766
275.80	50.943
276.17	52.390
276.54	51.402
276.91	55.037
277.28	53.650
277.65	53.875
278.02	52.574
278.39	51.799
278.76	50.517
279.13	49.288
279.50	53.091
279.87	49.534
280.23	49.355
280.60	53.102
280.97	50.862
281.34	50.825
281.71	50.957
282.08	50.598
282.45	48.986
282.82	51.003
283.19	47.854
283.56	51.570
283.92	51.140
284.29	49.418
284.66	48.235
285.03	49.088
285.40	48.430
285.77	46.605
286.14	47.368
286.51	48.313
286.87	47.785
287.24	46.697
287.61	48.176
287.98	47.015
288.35	46.074
288.72	47.344
289.08	46.847
289.45	48.323
289.82	46.250
290.19	42.899
290.56	47.016
290.93	46.619
291.29	43.923
291.66	43.785
292.03	44.180
292.40	44.173
292.77	44.290
293.13	42.939
293.50	42.780
293.87	41.734
294.24	43.357
294.60	43.069
294.97	42.657
295.34	42.098
295.71	41.393
296.08	41.067
296.44	39.390
296.81	40.447
297.18	39.037
297.55	39.163
297.91	39.778
298.28	38.043
298.65	38.160
299.02	36.912
299.38	39.568
299.75	39.146
300.12	38.073
300.48	39.696
300.85	39.452
301.22	38.721
301.59	35.849
301.95	36.989
302.32	37.835
302.69	38.235
303.05	37.374
303.42	33.969
303.79	35.753
304.15	36.084
304.52	35.518
304.89	36.887
305.25	36.819
305.62	36.567
305.99	35.543
306.35	34.316
306.72	35.900
307.09	35.093
307.45	34.424
307.82	35.185
308.19	35.155
308.55	34.100
308.92	34.642
309.29	34.024
309.65	34.490
310.02	34.990
310.38	34.596
310.75	34.041
311.12	33.238
311.48	34.942
311.85	34.065
312.22	34.766
312.58	33.625
312.95	34.757
313.31	33.521
313.68	33.114
314.05	33.059
314.41	34.730
314.78	34.848
315.14	34.882
315.51	35.478
315.87	33.212
316.24	33.520
316.61	33.483
316.97	32.661
317.34	34.142
317.70	33.626
318.07	33.986
318.43	33.831
318.80	34.851
319.16	33.217
319.53	33.717
319.89	31.272
320.26	34.916
320.62	34.524
320.99	34.032
321.35	32.931
321.72	35.294
322.08	32.779
322.45	32.970
322.81	33.028
323.18	32.860
323.54	34.146
323.91	33.726
324.27	33.422
324.64	32.007
325.00	32.586
325.37	32.293
325.73	33.221
326.10	33.554
326.46	33.609
326.83	32.240
327.19	33.735
327.56	32.907
327.92	34.426
328.29	32.897
328.65	33.562
329.01	32.763
329.38	31.557
329.74	30.999
330.11	31.712
330.47	33.589
330.84	32.355
331.20	31.557
331.56	32.470
331.93	33.362
332.29	31.803
332.66	32.568
333.02	30.842
333.38	32.810
333.75	32.777
334.11	32.550
334.48	32.222
334.84	31.250
335.20	32.164
335.57	32.494
335.93	31.371
336.29	30.265
336.66	32.333
337.02	31.309
337.38	31.298
337.75	32.348
338.11	31.646
338.47	30.821
338.84	30.821
339.20	30.390
339.56	30.530
339.93	31.020
340.29	30.336
340.65	32.020
341.02	31.054
341.38	30.378
341.74	31.645
342.11	30.384
342.47	31.009
342.83	32.240
343.20	31.124
343.56	29.230
343.92	30.636
344.28	30.223
344.65	31.459
345.01	30.397
345.37	29.647
345.73	30.079
346.10	30.040
346.46	30.303
346.82	28.472
347.19	30.757
347.55	29.664
347.91	30.287
348.27	30.132
348.63	30.063
349.00	29.246
349.36	30.428
349.72	30.352
350.08	30.745
350.45	30.388
350.81	29.511
351.17	29.045
351.53	29.561
351.89	29.371
352.26	30.083
352.62	29.864
352.98	29.755
353.34	28.428
353.70	28.899
354.07	28.846
354.43	28.725
354.79	28.929
355.15	29.862
355.51	29.154
355.87	28.916
356.24	28.637
356.60	28.311
356.96	28.431
357.32	30.219
357.68	29.736
358.04	29.027
358.40	29.010
358.77	28.926
359.13	29.730
359.49	28.836
359.85	28.742
360.21	28.900
360.57	28.905
360.93	28.716
361.29	28.499
361.66	29.903
362.02	28.267
362.38	29.365
362.74	28.238
363.10	27.489
363.46	27.486
363.82	28.050
364.18	29.303
364.54	28.898
364.90	28.380
365.26	29.146
365.62	27.901
365.98	27.392
366.35	27.862
366.71	28.175
367.07	27.782
367.43	27.871
367.79	28.059
368.15	27.408
368.51	27.567
368.87	27.446
369.23	27.789
369.59	27.984
369.95	27.902
370.31	26.557
370.67	27.828
371.03	28.081
371.39	28.947
371.75	27.565
372.11	27.464
372.47	28.288
372.83	27.260
373.19	27.964
373.55	27.835
373.91	26.865
374.27	26.653
374.63	27.119
374.99	27.224
375.35	28.024
375.71	27.111
376.07	27.387
376.42	27.046
376.78	28.131
377.14	27.654
377.50	27.715
377.86	27.995
378.22	26.325
378.58	28.087
378.94	27.640
379.30	27.653
379.66	27.393
380.02	27.390
380.38	26.522
380.74	27.970
381.09	27.862
381.45	27.399
381.81	26.064
382.17	27.534
382.53	27.175
382.89	26.552
383.25	26.584
383.61	27.205
383.97	26.755
384.32	26.643
384.68	28.699
385.04	26.846
385.40	27.936
385.76	27.443
386.12	27.520
386.48	27.599
386.83	26.773
387.19	26.384
387.55	27.974
387.91	28.002
388.27	27.781
388.62	26.643
388.98	26.647
389.34	27.305
389.70	26.297
390.06	27.622
390.42	27.390
390.77	26.413
391.13	27.218
391.49	26.860
391.85	27.877
392.20	27.175
392.56	28.315
392.92	26.614
393.28	26.906
393.64	26.204
393.99	26.141
394.35	25.721
394.71	26.116
395.07	27.555
395.42	26.581
395.78	26.835
396.14	27.048
396.50	27.256
396.85	26.890
397.21	27.377
397.57	26.360
397.92	26.459
398.28	25.758
398.64	27.807
399.00	25.869
399.35	25.980
399.71	26.766
400.07	27.055
400.42	26.687
400.78	26.217
401.14	27.540
401.49	26.843
401.85	27.231
402.21	26.655
402.57	27.349
402.92	27.212
403.28	26.551
403.63	27.075
403.99	27.081
404.35	26.671
404.70	26.521
405.06	27.063
405.42	26.272
405.77	26.847
406.13	26.139
406.49	26.094
406.84	26.396
407.20	26.712
407.55	26.769
407.91	26.228
408.27	26.683
408.62	26.848
408.98	26.257
409.34	26.359
409.69	26.198
410.05	25.939
410.40	25.913
410.76	25.930
411.11	26.185
411.47	27.160
411.83	26.303
412.18	26.268
412.54	26.186
412.89	26.726
413.25	26.454
413.60	26.811
413.96	25.793
414.31	26.564
414.67	26.319
415.03	26.501
415.38	25.615
415.74	26.785
416.09	26.921
416.45	27.731
416.80	26.940
417.16	26.735
417.51	25.860
417.87	25.282
418.22	26.245
418.58	26.242
418.93	26.353
419.29	25.693
419.64	26.045
420.00	26.253
420.35	25.726
420.71	26.079
421.06	25.721
421.42	25.676
421.77	26.485
422.12	25.689
422.48	26.091
422.83	26.953
423.19	25.432
423.54	25.562
423.90	26.161
424.25	25.702
424.61	25.827
424.96	25.466
425.31	25.999
425.67	26.207
426.02	26.080
426.38	25.963
426.73	26.200
427.09	25.741
427.44	26.111
427.79	26.644
428.15	25.987
428.50	26.400
428.85	25.985
429.21	25.392
429.56	25.922
429.92	26.106
430.27	25.641
430.62	24.425
430.98	25.449
431.33	24.899
431.68	24.741
432.04	25.918
432.39	25.960
432.74	25.644
433.10	24.917
433.45	26.422
433.80	25.869
434.16	25.539
434.51	25.697
434.86	26.184
435.22	26.094
435.57	26.141
435.92	26.636
436.28	25.806
436.63	25.986
436.98	26.014
437.34	25.228
437.69	24.580
438.04	25.806
438.39	25.219
438.75	25.891
439.10	25.094
439.45	25.834
439.81	25.853
440.16	26.032
440.51	26.014
440.86	26.211
441.22	24.946
441.57	25.407
441.92	25.025
442.27	25.206
442.63	24.898
442.98	24.569
443.33	25.656
443.68	26.258
444.03	25.542
444.39	25.847
444.74	26.501
445.09	25.382
445.44	25.133
445.79	25.292
446.15	24.842
446.50	25.527
446.85	25.647
447.20	25.274
447.55	24.959
447.91	25.466
448.26	25.240
448.61	25.871
448.96	25.763
449.31	25.688
449.66	25.415
450.02	25.392
450.37	25.486
450.72	26.391
451.07	25.654
451.42	26.260
451.77	25.716
452.12	26.149
452.47	25.516
452.83	25.915
453.18	25.646
453.53	25.459
453.88	25.600
454.23	26.031
454.58	25.350
454.93	25.690
455.28	26.438
455.63	25.000
455.98	24.422
456.34	25.593
456.69	25.488
457.04	25.179
457.39	25.600
457.74	26.464
458.09	24.818
458.44	26.013
458.79	24.987
459.14	24.823
459.49	25.821
459.84	25.707
460.19	24.972
460.54	26.154
460.89	24.787
461.24	25.372
461.59	25.737
461.94	24.764
462.29	25.629
462.64	25.754
462.99	25.528
463.34	25.470
463.69	25.771
464.04	25.331
464.39	25.129
464.74	24.502
465.09	26.233
465.44	24.973
465.79	24.442
466.14	24.430
466.49	25.502
466.84	24.693
467.19	25.249
467.54	24.565
467.89	25.704
468.24	25.246
468.59	24.226
468.94	25.000
469.29	25.290
469.64	25.466
469.99	25.707
470.34	25.047
470.68	24.276
471.03	24.216
471.38	24.238
471.73	25.016
472.08	25.179
472.43	25.140
472.78	25.672
473.13	24.781
473.48	25.428
473.83	25.029
474.17	24.377
474.52	24.763
474.87	24.105
475.22	24.672
475.57	24.292
475.92	24.170
476.27	24.429
476.61	24.450
476.96	24.869
477.31	24.319
477.66	25.658
478.01	23.930
478.36	24.614
478.70	24.318
479.05	23.640
479.40	24.653
479.75	24.677
480.10	24.927
480.45	24.230
480.79	24.194
481.14	23.490
481.49	23.879
481.84	24.362
482.19	25.240
482.53	24.067
482.88	24.642
483.23	24.267
483.58	24.820
483.92	24.909
484.27	24.272
484.62	24.660
484.97	23.997
485.31	23.648
485.66	24.170
486.01	24.461
486.36	24.359
486.70	23.919
487.05	23.695
487.40	23.837
487.75	23.963
488.09	23.920
488.44	24.442
488.79	24.332
489.13	24.300
489.48	23.851
489.83	23.186
490.17	23.576
490.52	24.160
490.87	23.448
491.22	23.493
491.56	23.891
491.91	23.835
492.26	23.563
492.60	23.417
492.95	22.972
493.30	24.067
493.64	23.495
493.99	23.837
494.34	23.711
494.68	23.285
495.03	23.664
495.37	23.638
495.72	24.009
496.07	23.315
496.41	24.023
496.76	23.512
497.11	23.736
497.45	23.411
497.80	23.818
498.14	23.532
498.49	23.677
498.84	24.112
499.18	23.218
499.53	23.702
499.87	23.360
500.22	23.676
500.56	23.398
500.91	24.026
501.26	23.886
501.60	23.179
501.95	23.342
502.29	23.156
502.64	23.026
502.98	22.454
503.33	23.296
503.67	23.400
504.02	23.466
504.36	23.665
504.71	24.030
505.06	23.088
505.40	23.538
505.75	22.919
506.09	23.332
506.44	23.872
506.78	24.244
507.13	23.606
507.47	22.902
507.82	23.552
508.16	23.175
508.51	23.671
508.85	22.412
509.19	24.131
509.54	22.412
509.88	23.272
510.23	23.088
510.57	22.442
510.92	23.776
511.26	23.243
511.61	22.895
511.95	22.001
512.30	23.200
512.64	22.845
512.98	22.399
513.33	23.002
513.67	23.097
514.02	22.597
514.36	22.430
514.70	22.667
515.05	21.950
515.39	23.026
515.74	23.018
516.08	22.712
516.42	23.880
516.77	22.347
517.11	22.613
517.46	22.252
517.80	22.174
518.14	23.324
518.49	22.161
518.83	22.418
519.17	23.017
519.52	22.010
519.86	22.343
520.20	23.068
520.55	22.612
520.89	21.782
521.23	22.839
521.58	22.146
521.92	22.449
522.26	22.393
522.61	23.351
522.95	21.922
523.29	22.339
523.64	22.023
523.98	22.829
524.32	22.434
524.66	22.029
525.01	22.189
525.35	22.157
525.69	22.095
526.04	23.438
526.38	22.896
526.72	21.659
527.06	22.235
527.41	21.765
527.75	22.459
528.09	22.396
528.43	22.758
528.78	22.242
529.12	22.818
529.46	22.560
529.80	22.196
530.15	22.864
530.49	23.105
530.83	22.182
531.17	22.509
531.51	22.808
531.86	22.524
532.20	21.632
532.54	22.159
532.88	22.798
533.22	23.278
533.57	23.185
533.91	22.261
534.25	22.216
534.59	22.924
534.93	22.071
535.27	22.482
535.62	22.229
535.96	21.395
536.30	22.913
536.64	22.112
536.98	21.963
537.32	22.688
537.66	21.046
538.01	22.910
538.35	22.583
538.69	21.359
539.03	21.331
539.37	21.905
539.71	22.531
540.05	21.662
540.39	23.145
540.73	22.278
541.07	22.208
541.42	22.077
541.76	22.873
542.10	21.455
542.44	23.192
542.78	22.467
543.12	21.227
543.46	22.744
543.80	21.992
544.14	22.229
544.48	21.837
544.82	22.752
545.16	22.040
545.50	22.618
545.84	23.359
546.18	23.732
546.52	22.492
546.86	22.566
547.20	21.576
547.54	22.609
547.88	22.506
548.22	22.222
548.56	22.510
548.90	22.657
549.24	22.489
549.58	21.843
549.92	22.069
550.26	22.853
550.60	21.424
550.94	23.270
551.28	22.552
551.62	22.690
551.96	22.568
552.30	22.544
552.64	23.172
552.98	22.680
553.32	21.639
553.66	21.694
554.00	22.716
554.34	23.236
554.68	22.715
555.02	22.607
555.36	22.207
555.69	22.317
556.03	22.102
556.37	22.498
556.71	22.751
557.05	21.298
557.39	23.200
557.73	22.574
558.07	22.535
558.41	23.098
558.75	22.572
559.08	22.445
559.42	21.904
559.76	21.953
560.10	22.574
560.44	22.628
560.78	23.146
561.12	23.077
561.45	22.778
561.79	22.347
562.13	21.541
562.47	22.648
562.81	21.731
563.15	22.301
563.48	21.553
563.82	23.518
564.16	22.948
564.50	22.001
564.84	22.432
565.17	21.985
565.51	23.153
565.85	23.134
566.19	22.679
566.52	21.961
566.86	23.001
567.20	23.034
567.54	22.489
567.88	23.944
568.21	22.566
568.55	24.173
568.89	23.130
569.23	22.994
569.56	23.642
569.90	23.608
570.24	23.475
570.57	23.232
570.91	23.307
571.25	23.428
571.59	23.068
571.92	23.681
572.26	23.423
572.60	22.966
572.93	23.548
573.27	23.320
573.61	23.091
573.95	23.904
574.28	23.534
574.62	23.638
574.96	23.259
575.29	23.364
575.63	23.180
575.97	23.320
576.30	22.678
576.64	23.863
576.98	23.241
577.31	23.583
577.65	23.574
577.98	23.744
578.32	23.935
578.66	23.698
578.99	24.313
579.33	23.342
579.67	23.402
580.00	23.183
580.34	23.335
580.67	23.535
581.01	24.621
581.35	23.375
581.68	23.309
582.02	24.075
582.35	23.774
582.69	23.890
583.02	23.745
583.36	23.539
583.70	23.934
584.03	23.540
584.37	23.423
584.70	24.061
585.04	23.364
585.37	23.399
585.71	24.202
586.04	23.378
586.38	23.725
586.72	23.578
587.05	23.520
587.39	23.287
587.72	23.811
588.06	23.591
588.39	23.439
588.73	23.808
589.06	23.169
589.40	23.568
589.73	23.763
590.07	23.850
590.40	23.763
590.73	24.458
591.07	23.947
591.40	22.794
591.74	23.904
592.07	23.087
592.41	23.381
592.74	22.849
593.08	23.438
593.41	23.279
593.75	23.250
594.08	22.944
594.41	23.297
594.75	23.630
595.08	22.325
595.42	23.404
595.75	22.902
596.09	23.462
596.42	23.161
596.75	24.319
597.09	23.359
597.42	23.714
597.75	22.799
598.09	22.938
598.42	23.174
598.76	22.860
599.09	22.803
599.42	23.114
599.76	23.474
600.09	23.424
600.42	22.963
600.76	22.978
601.09	23.680
601.42	22.527
601.76	22.879
602.09	23.252
602.42	22.662
602.76	23.150
603.09	23.492
603.42	23.633
603.76	22.957
604.09	23.127
604.42	22.524
604.76	22.955
605.09	23.143
605.42	23.080
605.75	23.056
606.09	23.259
606.42	23.300
606.75	23.241
607.09	23.095
607.42	23.624
607.75	23.527
608.08	22.949
608.42	23.406
608.75	22.850
609.08	22.525
609.41	23.273
609.75	22.802
610.08	22.887
610.41	22.661
610.74	23.506
611.07	23.147
611.41	23.448
611.74	23.375
612.07	23.362
612.40	22.856
612.73	24.114
613.07	22.909
613.40	23.409
613.73	23.515
614.06	22.250
614.39	23.333
614.72	23.204
615.06	22.008
615.39	22.624
615.72	22.604
616.05	23.405
616.38	23.491
616.71	22.463
617.05	22.515
617.38	23.034
617.71	23.060
618.04	22.658
618.37	22.401
618.70	22.517
619.03	22.772
619.36	22.173
619.69	22.559
620.03	23.614
620.36	23.314
620.69	24.138
621.02	22.758
621.35	22.923
621.68	22.788
622.01	23.321
622.34	22.724
622.67	22.402
623.00	22.805
623.33	23.077
623.66	22.754
623.99	22.671
624.32	22.154
624.65	22.646
624.99	22.989
625.32	21.844
625.65	21.862
625.98	21.478
626.31	22.849
626.64	23.311
626.97	21.576
627.30	22.050
627.63	22.292
627.96	21.440
628.29	22.607
628.62	21.386
628.95	22.163
629.28	22.787
629.61	22.935
629.94	21.867
630.26	22.790
630.59	22.695
630.92	21.435
631.25	21.487
631.58	22.662
631.91	21.123
632.24	21.574
632.57	21.316
632.90	22.464
633.23	23.190
633.56	22.023
633.89	21.651
634.22	21.744
634.55	22.473
634.88	23.439
635.20	21.749
635.53	22.184
635.86	22.371
636.19	22.222
636.52	20.216
636.85	22.330
637.18	22.102
637.51	21.341
637.83	21.625
638.16	22.392
638.49	21.677
638.82	22.418
639.15	21.269
639.48	21.564
639.81	22.100
640.13	22.577
640.46	21.997
640.79	21.326
641.12	21.522
641.45	22.251
641.77	23.118
642.10	21.285
642.43	23.329
642.76	21.307
643.09	22.767
643.41	21.739
643.74	21.439
644.07	23.009
644.40	22.633
644.73	23.123
645.05	23.923
645.38	21.593
645.71	23.065
646.04	23.664
646.36	22.066
646.69	23.680
647.02	22.080
647.35	20.945
647.67	21.556
648.00	20.195
648.33	22.556
648.66	22.879
648.98	23.188
649.31	22.537
649.64	23.651
649.96	21.337
650.29	19.857
650.62	22.386
650.94	22.741
651.27	22.807
651.60	23.474
651.92	24.117
652.25	24.252
652.58	21.844
652.90	22.904
653.23	23.486
653.56	22.255
653.88	21.880
654.21	23.754
654.54	23.426
654.86	24.484
655.19	23.483
655.52	22.317
655.84	21.583
656.17	26.733
656.49	38.433
656.82	44.233
657.15	34.606
657.47	25.959
657.80	18.885
658.13	14.887
658.45	20.352
658.78	24.545
659.10	24.664
659.43	24.961
659.75	25.723
660.08	24.687
660.41	24.682
660.73	26.349
661.06	23.273
661.38	22.828
661.71	21.043
662.03	23.384
662.36	23.048
662.68	21.415
663.01	24.144
663.33	22.642
663.66	24.260
663.98	24.008
664.31	23.881
664.63	24.521
664.96	25.704
665.28	22.599
665.61	21.321
665.93	24.717
666.26	22.617
666.58	24.404
666.91	24.324
667.23	24.498
667.56	24.025
667.88	22.199
668.21	24.795
668.53	23.185
668.86	25.050
669.18	25.866
669.50	19.835
669.83	23.203
670.15	24.116
670.48	22.266
670.80	24.303
671.13	24.502
671.45	24.449
671.77	23.377
672.10	24.057
672.42	23.520
672.75	24.842
673.07	23.052
673.39	23.003
673.72	23.356
674.04	23.656
674.37	22.505
674.69	24.535
675.01	21.828
675.34	21.705
675.66	25.391
675.98	24.063
676.31	22.600
676.63	21.272
676.95	24.603
677.28	23.124
677.60	23.944
677.92	24.603
678.25	22.868
678.57	25.698
678.89	25.316
679.22	22.243
679.54	23.665
679.86	24.782
680.18	24.253
680.51	21.393
680.83	21.115
681.15	22.704
681.48	25.174
681.80	24.518
682.12	24.221
682.44	21.802
682.77	22.064
683.09	23.107
683.41	25.510
683.73	22.441
684.06	22.024
684.38	26.163
684.70	25.000
685.02	22.569
685.34	26.056
685.67	25.402
685.99	25.452
686.31	23.267
686.63	23.577
686.96	24.510
687.28	22.987
687.60	22.184
687.92	24.958
688.24	25.690
688.56	25.801
688.89	23.709
689.21	26.397
689.53	24.308
689.85	23.171
690.17	22.913
690.49	25.202
690.82	23.109
691.14	23.434
691.46	26.078
691.78	26.121
692.10	21.947
692.42	22.142
692.74	24.419
693.06	21.899
693.39	23.123
693.71	23.772
694.03	24.063
694.35	26.305
694.67	24.440
694.99	23.282
695.31	25.450
695.63	24.208
695.95	23.982
696.27	23.894
696.59	26.730
696.91	23.291
697.23	26.018
697.56	24.274
697.88	22.954
698.20	23.585
698.52	23.541
698.84	25.051
699.16	26.226
699.48	24.364
699.80	28.540
700.12	24.711
700.44	25.234
700.76	27.685
701.08	26.893
701.40	23.377
701.72	27.807
702.04	27.913
702.36	25.806
702.68	24.734
703.00	24.060
703.32	28.288
703.64	24.181
703.96	25.521
704.28	27.778
704.60	25.352
704.91	26.331
705.23	25.284
705.55	25.816
705.87	26.667
706.19	31.661
706.51	26.959
706.83	30.678
707.15	27.540
707.47	27.119
707.79	25.747
708.11	25.397
708.43	26.067
708.74	28.281
709.06	26.744
709.38	28.288
709.70	28.338
710.02	25.543
710.34	24.862
710.66	27.222
710.98	25.956
711.29	26.741
711.61	30.084
711.93	29.179
712.25	25.904
712.57	28.296
712.89	26.970
713.20	30.990
713.52	28.660
713.84	27.190
714.16	25.507
714.48	23.055
714.80	28.455
715.11	27.926
715.43	26.536
715.75	24.789
716.07	26.879
716.39	29.429
716.70	25.234
717.02	30.976
717.34	29.137
717.66	32.639
717.97	35.985
718.29	29.225
718.61	25.000
718.93	27.336
719.24	27.852
719.56	26.552
719.88	26.433
720.20	29.355
720.51	29.085
720.83	27.759
721.15	30.612
721.46	31.507
721.78	29.617
722.10	30.903
722.42	32.107
722.73	29.603
723.05	32.632
723.37	32.509
723.68	33.203
724.00	31.061
724.32	33.080
724.63	28.077
724.95	32.549
725.27	30.483
725.58	33.456
725.90	32.042
726.22	28.767
726.53	28.763
726.85	29.316
727.16	31.879
727.48	27.907
727.80	28.058
728.11	29.643
728.43	33.333
728.74	29.021
729.06	26.165
729.38	32.632
729.69	36.667
730.01	33.553
730.32	33.221
730.64	31.229
730.96	30.931
731.27	23.853
731.59	22.414
731.90	28.134
732.22	31.143
732.53	27.066
732.85	30.409
733.16	30.723
733.48	29.781
733.80	29.855
734.11	31.288
734.43	28.363
734.74	29.491
735.06	31.481
735.37	26.289
735.69	27.536
736.00	32.110
736.32	26.667
736.63	25.868
736.95	31.056
737.26	30.183
737.58	31.595
737.89	29.518
738.21	26.490
738.52	30.100
738.83	33.700
739.15	32.056
739.46	28.276
739.78	29.592
740.09	30.904
740.41	29.755
740.72	33.651
741.04	31.119
741.35	28.906
741.66	31.621
741.98	38.197
742.29	36.111
742.61	27.434
742.92	30.085
743.23	36.800
743.55	29.434
743.86	30.980
744.18	30.085
744.49	33.471
744.80	31.336
745.12	33.929
745.43	33.645
745.74	28.889
746.06	27.193
746.37	34.419
746.68	37.611
747.00	33.184
747.31	32.773
747.62	30.738
747.94	34.764
748.25	31.128
748.56	33.051
748.88	33.482
749.19	34.884
749.50	26.027
749.82	33.333
750.13	31.621
750.44	31.333
750.75	36.577
751.07	30.592
751.38	29.043
751.69	32.660
752.01	30.420
752.32	31.561
752.63	31.544
752.94	31.469
753.26	32.422
753.57	35.409
753.88	29.588
754.19	31.769
754.51	31.561
754.82	29.530
755.13	32.432
755.44	28.889
755.75	35.739
756.07	30.822
756.38	31.373
756.69	28.750
757.00	31.157
757.31	34.648
757.63	30.854
757.94	28.989
758.25	28.019
758.56	27.918
758.87	29.825
759.18	29.651
759.50	28.267
759.81	31.157
760.12	30.056
760.43	28.571
760.74	32.152
761.05	28.117
761.36	31.510
761.67	29.919
761.99	33.239
762.30	30.547
762.61	28.472
762.92	29.545
763.23	33.208
763.54	33.462
763.85	28.405
764.16	33.681
764.47	31.757
764.78	29.967
765.10	34.146
765.41	29.261
765.72	32.044
766.03	29.909
766.34	33.798
766.65	32.319
766.96	34.818
767.27	34.579
767.58	34.653
767.89	34.807
768.20	39.634
768.51	35.204
768.82	32.018
769.13	34.902
769.44	29.699
769.75	35.206
770.06	29.832
770.37	33.772
770.68	33.778
770.99	33.475
771.30	35.146
771.61	35.000
771.92	37.023
772.23	33.065
772.54	35.111
772.85	36.139
773.16	41.304
773.47	32.222
773.78	34.653
774.09	42.045
774.39	40.000
774.70	35.882
775.01	29.605
775.32	34.783
775.63	35.616
775.94	50.617
776.25	44.138
776.56	51.908
776.87	42.748
777.18	49.242
777.48	50.394
777.79	36.923
778.10	40.909
778.41	48.507
778.72	42.857
779.03	39.744
779.34	37.838
779.65	43.478
779.95	46.584
780.26	37.500
780.57	50.340
780.88	45.390
781.19	43.333
781.50	46.154
781.80	39.344
782.11	41.270
782.42	37.356
782.73	40.113
783.04	38.065
783.34	45.736
783.65	42.177
783.96	36.129
784.27	39.735
784.57	40.789
784.88	47.101
785.19	32.500
785.50	43.103
785.81	46.512
786.11	42.963
786.42	48.819
786.73	47.748
787.04	55.660
787.34	44.715
787.65	53.030
787.96	51.515
788.26	55.118
788.57	53.285
788.88	43.662
789.19	51.145
789.49	43.243
789.80	47.656
790.11	42.975
790.41	48.148
790.72	50.000
791.03	54.808
791.33	55.556
791.64	56.842
791.95	53.684
792.25	53.125
792.56	58.000
792.87	57.317
793.17	50.000
793.48	56.471
793.79	64.368
794.09	57.955
794.40	58.621
794.70	43.651
795.01	43.846
795.32	43.511
795.62	38.462
795.93	45.378
796.23	51.220
796.54	64.286
796.85	65.909
797.15	61.039
797.46	73.171
797.76	55.000
798.07	69.333
798.37	63.750
798.68	65.000
798.99	69.512
799.29	62.667
799.60	55.814
799.90	65.789
800.21	63.636
800.51	70.423
800.82	84.483
801.12	72.308
801.43	74.667
801.73	79.310
802.04	61.039
802.34	46.575
802.65	80.392
802.95	78.261
803.26	80.645
803.56	103.333
803.87	65.672
804.17	68.254
804.48	75.472
804.78	63.889
805.09	77.273
805.39	73.016
805.70	73.684
806.00	57.143
806.30	79.687
806.61	76.471
806.91	63.333
807.22	51.087
807.52	55.263
807.83	80.263
808.13	71.014
808.43	91.935
808.74	75.342
809.04	69.643
809.35	80.882
809.65	72.727
809.95	92.157
810.26	83.333
810.56	78.125
810.86	104.082
811.17	85.965
811.47	89.130
811.77	72.414
812.08	58.621
812.38	73.810
812.69	92.857
812.99	93.333
813.29	108.571
813.59	125.806
813.90	70.690
814.20	80.328
814.50	88.000
814.81	54.386
815.11	90.741
815.41	85.714
815.72	100.000
816.02	108.000
816.32	119.512
816.62	91.379
816.93	133.333
817.23	126.829
817.53	87.500
817.84	84.444
818.14	109.524
818.44	85.417
818.74	103.774
819.04	102.564
819.35	121.212
819.65	111.538
819.95	109.259
820.25	93.617
820.56	132.432
820.86	110.526
821.16	80.851
821.46	97.368
821.76	92.727
822.07	83.333
822.37	105.263
822.67	109.302
822.97	81.579
823.27	95.652
823.57	121.875
823.88	89.744
824.18	109.091
824.48	147.826
824.78	127.778
825.08	178.261
825.38	155.172
825.69	120.588
825.99	87.234
826.29	91.667
826.59	117.143
826.89	146.667
827.19	100.000
827.49	132.258
827.79	119.231
828.09	104.762
828.39	133.333
828.70	83.784
829.00	128.571
829.30	150.000
829.60	108.333
829.90	96.774
830.20	106.061
830.50	118.919
830.80	200.000
831.10	150.000
831.40	176.190
831.70	175.000
832.00	150.000
832.30	160.870
832.60	191.667
832.90	142.424
833.20	220.000
833.50	113.158
833.80	117.647
834.10	94.737
834.40	163.158
834.70	113.333
835.00	160.000
835.30	97.297
835.60	134.375
835.90	102.703
836.20	146.154
836.50	154.545
836.80	97.561
837.10	160.870
837.40	315.385
837.70	173.684
838.00	133.333
838.30	166.667
838.60	144.000
838.90	350.000
839.19	118.750
839.49	140.000
839.79	120.690
840.09	161.538
840.39	206.667
840.69	226.316
840.99	161.905
841.29	200.000
841.59	200.000
841.88	192.000
842.18	344.444
842.48	146.429
842.78	170.370
843.08	107.692
843.38	227.273
843.68	235.714
843.97	400.000
844.27	134.783
844.57	1250.000
844.87	250.000
845.17	222.222
845.47	128.571
845.76	154.167
846.06	485.714
846.36	241.176
846.66	253.846
846.96	212.500
847.25	184.615
847.55	205.263
847.85	177.778
848.15	480.000
848.44	290.909
848.74	161.905
849.04	170.833
849.34	241.176
849.63	218.750
849.93	231.250
850.23	533.333
850.53	400.000
850.82	263.636
851.12	176.471
851.42	191.667
851.71	212.500
852.01	0.000
852.31	182.353
852.61	360.000
852.90	158.333
853.20	300.000
853.50	-1900.000
853.79	164.000
854.09	137.500
854.39	124.138
854.68	158.621
854.98	223.810
855.28	151.613
855.57	185.714
855.87	200.000
856.17	159.259
856.46	205.263
856.76	132.258
857.05	223.529
857.35	200.000
857.65	261.538
857.94	145.000
858.24	477.778
858.53	314.286
858.83	485.714
859.13	139.130
859.42	200.000
859.72	387.500
860.01	250.000
860.31	825.000
860.60	360.000
860.90	350.000
861.20	246.154
861.49	500.000
861.79	-3600.000
862.08	571.429
862.38	433.333
862.67	157.143
862.97	340.000
863.26	146.667
863.56	925.000
863.85	338.462
864.15	305.882
864.44	227.778
864.74	366.667
865.03	318.182
865.33	425.000
865.62	240.000
865.92	583.333
866.21	775.000
866.51	560.000
866.80	227.778
867.10	733.333
867.39	4000.000
867.69	540.000
867.98	1175.000
868.27	152.381
868.57	273.333
868.86	875.000
869.16	195.238
869.45	3000.000
869.75	-433.333
870.04	575.000
870.33	820.000
870.63	587.500
870.92	176.471
871.22	750.000
871.51	457.143
871.80	416.667
872.10	269.231
>>>>>End Processed Spectral Data<<<<<
