SpectraSuite Data File
++++++++++++++++++++++++++++++++++++
Date: Tue May 12 16:39:51 PDT 2015
User: schluterlab
Dark Spectrum Present: Yes
Reference Spectrum Present: Yes
Number of Sampled Component Spectra: 1
Spectrometers: USB2E3373
Integration Time (usec): 3000 (USB2E3373)
Spectra Averaged: 3 (USB2E3373)
Boxcar Smoothing: 0 (USB2E3373)
Correct for Electrical Dark: No (USB2E3373)
Strobe/Lamp Enabled: No (USB2E3373)
Correct for Detector Non-linearity: No (USB2E3373)
Correct for Stray Light: No (USB2E3373)
Number of Pixels in Processed Spectrum: 2048
>>>>>Begin Processed Spectral Data<<<<<
178.53	0.000
178.91	-183.333
179.29	-600.000
179.67	-4500.000
180.04	-140.000
180.42	475.000
180.80	800.000
181.18	0.000
181.56	-375.000
181.94	0.000
182.31	1133.333
182.69	-3000.000
183.07	600.000
183.45	-3400.000
183.83	-1550.000
184.20	430.000
184.58	385.714
184.96	-215.385
185.34	-141.667
185.72	1450.000
186.09	-725.000
186.47	-2400.000
186.85	1000.000
187.23	700.000
187.61	1600.000
187.98	550.000
188.36	257.143
188.74	258.333
189.12	333.333
189.49	775.000
189.87	0.000
190.25	462.500
190.63	2600.000
191.00	-233.333
191.38	-2900.000
191.76	-625.000
192.14	437.500
192.51	-3200.000
192.89	1550.000
193.27	666.667
193.65	-1133.333
194.02	-560.000
194.40	571.429
194.78	-121.429
195.15	260.000
195.53	-3800.000
195.91	-540.000
196.29	3100.000
196.66	218.750
197.04	775.000
197.42	-1550.000
197.79	725.000
198.17	258.333
198.55	0.000
198.92	385.714
199.30	1266.667
199.68	1850.000
200.05	516.667
200.43	-416.667
200.81	183.333
201.18	2300.000
201.56	291.667
201.94	-650.000
202.31	-325.000
202.69	-500.000
203.07	2800.000
203.44	-233.333
203.82	325.000
204.19	500.000
204.57	-1550.000
204.95	-700.000
205.32	-640.000
205.70	516.667
206.08	675.000
206.45	-733.333
206.83	255.556
207.20	163.158
207.58	225.000
207.96	720.000
208.33	0.000
208.71	557.143
209.08	660.000
209.46	-3900.000
209.84	-800.000
210.21	860.000
210.59	-460.000
210.96	316.667
211.34	-850.000
211.71	381.818
212.09	925.000
212.46	2150.000
212.84	-383.333
213.22	522.222
213.59	-1900.000
213.97	270.000
214.34	825.000
214.72	1133.333
215.09	900.000
215.47	-2700.000
215.84	-290.000
216.22	-375.000
216.59	0.000
216.97	0.000
217.34	1900.000
217.72	-1550.000
218.09	1133.333
218.47	362.500
218.84	925.000
219.22	1166.667
219.59	833.333
219.97	414.286
220.34	400.000
220.72	1850.000
221.09	3500.000
221.47	200.000
221.84	933.333
222.22	330.000
222.59	222.222
222.97	171.429
223.34	218.750
223.72	-1800.000
224.09	1033.333
224.46	253.846
224.84	-825.000
225.21	388.889
225.59	313.333
225.96	1533.333
226.34	-580.000
226.71	-650.000
227.08	-440.000
227.46	0.000
227.83	-416.667
228.21	-1800.000
228.58	358.333
228.95	850.000
229.33	433.333
229.70	1175.000
230.08	261.538
230.45	2400.000
230.82	-775.000
231.20	-700.000
231.57	-733.333
231.95	500.000
232.32	308.333
232.69	483.333
233.07	250.000
233.44	-1250.000
233.81	253.333
234.19	159.259
234.56	187.500
234.93	182.353
235.31	200.000
235.68	262.500
236.05	139.286
236.43	162.963
236.80	250.000
237.17	158.621
237.55	121.875
237.92	117.500
238.29	136.364
238.67	156.250
239.04	124.390
239.41	75.000
239.79	100.000
240.16	85.417
240.53	72.131
240.91	66.667
241.28	86.441
241.65	83.333
242.02	81.690
242.40	74.286
242.77	76.923
243.14	50.633
243.51	64.646
243.89	64.486
244.26	65.421
244.63	66.337
245.00	54.128
245.38	51.695
245.75	50.758
246.12	63.704
246.49	53.191
246.87	45.082
247.24	55.333
247.61	50.625
247.98	53.061
248.36	44.242
248.73	49.490
249.10	52.381
249.47	50.000
249.84	45.771
250.22	50.270
250.59	47.000
250.96	46.835
251.33	45.116
251.70	50.000
252.08	44.538
252.45	40.239
252.82	39.163
253.19	43.083
253.56	44.231
253.94	43.116
254.31	39.535
254.68	44.599
255.05	45.517
255.42	39.416
255.79	46.254
256.16	43.051
256.54	43.506
256.91	46.405
257.28	42.809
257.65	35.423
258.02	41.593
258.39	44.126
258.76	42.609
259.14	39.714
259.51	43.440
259.88	42.857
260.25	40.934
260.62	39.452
260.99	38.017
261.36	41.226
261.73	38.032
262.10	44.764
262.47	37.750
262.85	41.867
263.22	38.560
263.59	39.130
263.96	40.100
264.33	35.802
264.70	39.312
265.07	38.537
265.44	41.055
265.81	41.274
266.18	40.275
266.55	37.352
266.92	38.255
267.29	39.254
267.66	37.444
268.03	35.426
268.40	38.055
268.77	38.987
269.14	37.961
269.51	36.748
269.88	41.020
270.25	35.205
270.62	36.481
270.99	36.714
271.36	38.415
271.73	37.945
272.10	35.758
272.47	37.500
272.84	34.132
273.21	36.364
273.58	37.045
273.95	37.988
274.32	38.327
274.69	37.205
275.06	36.066
275.43	36.782
275.80	36.226
276.17	36.397
276.54	37.757
276.91	38.433
277.28	35.401
277.65	37.638
278.02	36.765
278.39	35.072
278.76	35.172
279.13	35.943
279.50	36.182
279.87	35.009
280.23	35.175
280.60	37.044
280.97	35.345
281.34	34.818
281.71	34.435
282.08	36.923
282.45	34.628
282.82	32.274
283.19	34.976
283.56	35.702
283.92	33.388
284.29	33.777
284.66	33.782
285.03	32.836
285.40	31.901
285.77	34.568
286.14	33.901
286.51	32.822
286.87	31.646
287.24	30.781
287.61	32.523
287.98	32.687
288.35	31.704
288.72	30.804
289.08	32.583
289.45	31.555
289.82	32.500
290.19	31.186
290.56	32.460
290.93	30.504
291.29	30.387
291.66	31.356
292.03	30.856
292.40	29.268
292.77	30.084
293.13	31.098
293.50	27.395
293.87	26.965
294.24	28.671
294.60	29.610
294.97	29.371
295.34	29.084
295.71	26.938
296.08	28.800
296.44	26.429
296.81	27.419
297.18	27.883
297.55	27.463
297.91	25.123
298.28	25.966
298.65	26.503
299.02	24.970
299.38	28.417
299.75	25.610
300.12	25.688
300.48	27.049
300.85	26.579
301.22	25.581
301.59	26.179
301.95	25.671
302.32	25.262
302.69	25.792
303.05	25.028
303.42	23.879
303.79	26.111
304.15	26.073
304.52	25.899
304.89	24.094
305.25	25.806
305.62	24.947
305.99	24.565
306.35	23.053
306.72	25.182
307.09	23.499
307.45	23.337
307.82	23.663
308.19	23.711
308.55	23.400
308.92	23.847
309.29	25.247
309.65	22.597
310.02	23.327
310.38	21.635
310.75	23.240
311.12	23.563
311.48	24.421
311.85	22.615
312.22	22.923
312.58	22.935
312.95	23.107
313.31	23.596
313.68	22.889
314.05	22.894
314.41	23.277
314.78	24.621
315.14	23.602
315.51	24.314
315.87	22.354
316.24	23.716
316.61	23.187
316.97	23.028
317.34	23.450
317.70	23.354
318.07	24.199
318.43	23.462
318.80	23.468
319.16	23.514
319.53	21.681
319.89	21.326
320.26	23.464
320.62	23.901
320.99	23.451
321.35	24.212
321.72	24.004
322.08	23.361
322.45	22.252
322.81	23.513
323.18	23.446
323.54	23.780
323.91	23.391
324.27	22.281
324.64	23.097
325.00	23.707
325.37	24.199
325.73	23.103
326.10	24.689
326.46	22.626
326.83	22.640
327.19	23.454
327.56	22.923
327.92	23.361
328.29	24.386
328.65	25.000
329.01	23.268
329.38	22.927
329.74	22.545
330.11	22.850
330.47	23.188
330.84	22.519
331.20	23.942
331.56	23.834
331.93	22.156
332.29	21.769
332.66	23.469
333.02	22.251
333.38	23.473
333.75	22.852
334.11	23.070
334.48	22.650
334.84	21.875
335.20	23.695
335.57	23.426
335.93	22.372
336.29	22.139
336.66	23.413
337.02	22.926
337.38	23.044
337.75	21.875
338.11	22.785
338.47	21.761
338.84	22.947
339.20	20.779
339.56	22.288
339.93	21.656
340.29	22.017
340.65	22.716
341.02	22.928
341.38	21.593
341.74	21.512
342.11	21.619
342.47	21.083
342.83	22.231
343.20	22.474
343.56	20.016
343.92	21.387
344.28	21.372
344.65	21.516
345.01	21.905
345.37	20.673
345.73	20.635
346.10	21.355
346.46	22.488
346.82	20.448
347.19	22.102
347.55	22.170
347.91	20.242
348.27	20.294
348.63	21.835
349.00	20.640
349.36	20.311
349.72	21.101
350.08	21.118
350.45	21.554
350.81	21.636
351.17	20.493
351.53	20.631
351.89	20.047
352.26	19.577
352.62	21.116
352.98	20.629
353.34	21.495
353.70	20.336
354.07	20.077
354.43	21.198
354.79	19.058
355.15	21.133
355.51	20.015
355.87	21.386
356.24	20.785
356.60	20.396
356.96	20.773
357.32	20.045
357.68	20.044
358.04	20.821
358.40	20.465
358.77	21.187
359.13	20.345
359.49	19.348
359.85	20.179
360.21	20.431
360.57	20.438
360.93	20.274
361.29	20.346
361.66	19.687
362.02	19.744
362.38	20.779
362.74	20.028
363.10	20.477
363.46	19.890
363.82	20.196
364.18	20.626
364.54	21.245
364.90	19.946
365.26	20.541
365.62	20.649
365.98	19.270
366.35	19.379
366.71	20.680
367.07	20.683
367.43	20.215
367.79	20.080
368.15	17.978
368.51	20.400
368.87	19.497
369.23	19.196
369.59	19.353
369.95	19.371
370.31	19.507
370.67	19.500
371.03	20.238
371.39	19.391
371.75	19.191
372.11	19.850
372.47	21.027
372.83	19.850
373.19	20.356
373.55	19.656
373.91	18.785
374.27	18.849
374.63	20.407
374.99	18.733
375.35	19.960
375.71	19.591
376.07	20.093
376.42	18.990
376.78	19.653
377.14	19.987
377.50	18.914
377.86	18.962
378.22	19.439
378.58	18.947
378.94	20.217
379.30	19.406
379.66	18.724
380.02	20.293
380.38	18.852
380.74	20.069
381.09	18.984
381.45	18.497
381.81	18.913
382.17	19.475
382.53	18.776
382.89	19.338
383.25	18.769
383.61	19.424
383.97	19.076
384.32	18.987
384.68	19.964
385.04	18.406
385.40	18.743
385.76	18.666
386.12	19.666
386.48	18.541
386.83	19.682
387.19	18.846
387.55	19.199
387.91	19.053
388.27	19.393
388.62	19.131
388.98	19.184
389.34	19.096
389.70	18.219
390.06	19.634
390.42	19.186
390.77	18.735
391.13	18.890
391.49	18.391
391.85	19.569
392.20	18.415
392.56	19.415
392.92	18.360
393.28	18.498
393.64	17.603
393.99	18.198
394.35	18.481
394.71	18.999
395.07	18.735
395.42	18.618
395.78	18.939
396.14	19.518
396.50	18.291
396.85	18.902
397.21	18.712
397.57	19.068
397.92	18.255
398.28	17.871
398.64	19.779
399.00	18.439
399.35	18.196
399.71	18.653
400.07	19.235
400.42	19.045
400.78	18.710
401.14	18.908
401.49	18.664
401.85	19.119
402.21	17.926
402.57	19.330
402.92	19.394
403.28	18.377
403.63	17.893
403.99	18.215
404.35	19.695
404.70	19.079
405.06	18.922
405.42	18.731
405.77	17.861
406.13	18.438
406.49	18.022
406.84	18.556
407.20	19.863
407.55	18.400
407.91	19.400
408.27	18.739
408.62	19.101
408.98	18.510
409.34	18.527
409.69	18.108
410.05	17.352
410.40	18.080
410.76	18.145
411.11	18.780
411.47	17.901
411.83	18.219
412.18	18.478
412.54	18.679
412.89	17.935
413.25	19.156
413.60	18.633
413.96	18.492
414.31	18.064
414.67	18.063
415.03	18.327
415.38	18.927
415.74	18.509
416.09	19.613
416.45	19.910
416.80	19.628
417.16	18.269
417.51	18.599
417.87	18.148
418.22	18.104
418.58	17.771
418.93	18.144
419.29	17.745
419.64	18.716
420.00	18.795
420.35	18.525
420.71	17.503
421.06	17.481
421.42	18.135
421.77	19.045
422.12	18.357
422.48	18.233
422.83	17.634
423.19	18.467
423.54	17.883
423.90	18.460
424.25	18.657
424.61	18.572
424.96	18.690
425.31	18.008
425.67	18.013
426.02	18.789
426.38	18.261
426.73	17.235
427.09	18.505
427.44	18.233
427.79	18.411
428.15	19.093
428.50	19.543
428.85	18.401
429.21	18.476
429.56	17.797
429.92	18.449
430.27	17.852
430.62	18.111
430.98	18.263
431.33	18.044
431.68	17.630
432.04	17.900
432.39	18.551
432.74	18.618
433.10	18.328
433.45	18.438
433.80	18.367
434.16	17.604
434.51	18.369
434.86	18.835
435.22	17.396
435.57	18.020
435.92	18.384
436.28	19.124
436.63	18.422
436.98	18.581
437.34	18.493
437.69	18.029
438.04	18.925
438.39	18.914
438.75	17.539
439.10	18.187
439.45	18.542
439.81	18.392
440.16	18.162
440.51	17.455
440.86	18.462
441.22	18.561
441.57	18.688
441.92	18.411
442.27	17.577
442.63	18.648
442.98	17.834
443.33	18.640
443.68	17.857
444.03	18.285
444.39	18.738
444.74	18.375
445.09	18.536
445.44	18.650
445.79	18.372
446.15	17.947
446.50	17.932
446.85	18.177
447.20	17.562
447.55	17.727
447.91	18.700
448.26	18.477
448.61	18.076
448.96	18.137
449.31	18.372
449.66	18.162
450.02	17.936
450.37	19.267
450.72	19.063
451.07	19.023
451.42	18.731
451.77	18.213
452.12	18.945
452.47	18.469
452.83	19.155
453.18	19.039
453.53	19.538
453.88	18.400
454.23	19.175
454.58	18.590
454.93	18.884
455.28	19.094
455.63	18.440
455.98	18.331
456.34	18.663
456.69	17.744
457.04	17.959
457.39	18.914
457.74	19.200
458.09	17.855
458.44	19.222
458.79	18.143
459.14	17.294
459.49	19.083
459.84	18.587
460.19	18.927
460.54	18.291
460.89	18.337
461.24	17.812
461.59	17.800
461.94	18.853
462.29	19.451
462.64	19.347
462.99	18.106
463.34	19.313
463.69	19.540
464.04	18.365
464.39	18.260
464.74	18.581
465.09	18.108
465.44	18.444
465.79	18.454
466.14	18.018
466.49	17.851
466.84	18.506
467.19	18.512
467.54	18.919
467.89	18.369
468.24	18.413
468.59	18.333
468.94	19.022
469.29	19.243
469.64	18.778
469.99	19.409
470.34	19.102
470.68	18.138
471.03	19.280
471.38	19.205
471.73	18.354
472.08	19.113
472.43	18.994
472.78	19.014
473.13	19.024
473.48	18.765
473.83	17.845
474.17	18.480
474.52	18.780
474.87	17.908
475.22	19.417
475.57	18.363
475.92	18.293
476.27	17.356
476.61	17.962
476.96	18.339
477.31	18.098
477.66	18.733
478.01	18.102
478.36	18.280
478.70	17.866
479.05	17.573
479.40	17.510
479.75	19.414
480.10	19.022
480.45	18.114
480.79	18.203
481.14	18.069
481.49	18.115
481.84	18.162
482.19	18.646
482.53	18.401
482.88	18.235
483.23	17.546
483.58	17.953
483.92	18.327
484.27	17.851
484.62	18.591
484.97	18.076
485.31	16.882
485.66	17.211
486.01	16.667
486.36	16.467
486.70	16.242
487.05	16.873
487.40	17.593
487.75	17.583
488.09	17.557
488.44	17.941
488.79	17.667
489.13	17.842
489.48	18.418
489.83	18.307
490.17	18.208
490.52	18.174
490.87	18.017
491.22	18.218
491.56	18.050
491.91	18.593
492.26	18.352
492.60	18.132
492.95	18.215
493.30	18.699
493.64	17.835
493.99	18.336
494.34	18.243
494.68	17.840
495.03	18.366
495.37	18.550
495.72	18.135
496.07	17.610
496.41	17.897
496.76	18.067
497.11	18.081
497.45	17.229
497.80	18.304
498.14	18.354
498.49	18.384
498.84	18.925
499.18	18.144
499.53	18.098
499.87	17.925
500.22	17.734
500.56	17.874
500.91	19.063
501.26	18.833
501.60	18.124
501.95	17.384
502.29	18.400
502.64	18.527
502.98	18.008
503.33	17.951
503.67	18.411
504.02	17.644
504.36	17.647
504.71	18.780
505.06	18.020
505.40	18.156
505.75	17.633
506.09	18.665
506.44	18.280
506.78	17.864
507.13	18.274
507.47	18.049
507.82	18.054
508.16	17.932
508.51	17.923
508.85	18.044
509.19	17.768
509.54	18.848
509.88	19.244
510.23	18.284
510.57	17.423
510.92	18.132
511.26	19.327
511.61	18.759
511.95	17.870
512.30	19.050
512.64	17.705
512.98	17.632
513.33	18.955
513.67	18.436
514.02	18.494
514.36	18.744
514.70	18.027
515.05	18.167
515.39	18.640
515.74	19.574
516.08	18.192
516.42	19.290
516.77	18.240
517.11	18.933
517.46	18.373
517.80	18.405
518.14	19.380
518.49	18.412
518.83	17.692
519.17	18.358
519.52	19.170
519.86	18.256
520.20	19.342
520.55	18.655
520.89	18.563
521.23	19.276
521.58	18.072
521.92	18.776
522.26	18.483
522.61	18.598
522.95	19.159
523.29	19.357
523.64	18.960
523.98	18.369
524.32	18.800
524.66	18.725
525.01	18.580
525.35	18.385
525.69	19.928
526.04	19.453
526.38	19.070
526.72	18.556
527.06	18.865
527.41	20.133
527.75	18.503
528.09	18.784
528.43	19.158
528.78	19.201
529.12	19.326
529.46	17.767
529.80	18.984
530.15	18.621
530.49	18.532
530.83	19.013
531.17	18.819
531.51	18.210
531.86	18.720
532.20	18.480
532.54	18.770
532.88	18.426
533.22	18.464
533.57	18.304
533.91	17.832
534.25	18.638
534.59	18.947
534.93	17.975
535.27	17.644
535.62	18.145
535.96	17.849
536.30	19.257
536.64	18.758
536.98	18.691
537.32	18.750
537.66	18.176
538.01	19.381
538.35	19.401
538.69	18.811
539.03	17.600
539.37	17.961
539.71	18.457
540.05	18.400
540.39	18.931
540.73	19.620
541.07	18.632
541.42	18.657
541.76	18.372
542.10	18.126
542.44	19.202
542.78	18.691
543.12	17.914
543.46	17.481
543.80	18.296
544.14	18.452
544.48	18.431
544.82	18.777
545.16	18.094
545.50	18.316
545.84	19.066
546.18	20.026
546.52	18.098
546.86	19.407
547.20	18.411
547.54	18.619
547.88	18.066
548.22	18.094
548.56	18.503
548.90	18.743
549.24	17.941
549.58	17.912
549.92	18.468
550.26	19.202
550.60	19.494
550.94	18.996
551.28	20.207
551.62	18.690
551.96	18.649
552.30	18.128
552.64	19.288
552.98	18.686
553.32	18.630
553.66	18.241
554.00	18.790
554.34	19.241
554.68	19.086
555.02	18.534
555.36	19.348
555.69	19.764
556.03	18.344
556.37	19.184
556.71	18.905
557.05	18.021
557.39	19.133
557.73	18.464
558.07	18.377
558.41	18.711
558.75	18.605
559.08	19.585
559.42	18.969
559.76	18.603
560.10	18.513
560.44	18.713
560.78	18.798
561.12	17.546
561.45	18.085
561.79	18.352
562.13	17.941
562.47	18.494
562.81	18.608
563.15	18.358
563.48	17.081
563.82	18.029
564.16	19.092
564.50	17.842
564.84	18.663
565.17	17.469
565.51	18.781
565.85	18.630
566.19	17.976
566.52	17.690
566.86	17.805
567.20	18.539
567.54	17.959
567.88	18.310
568.21	16.875
568.55	17.169
568.89	17.929
569.23	17.213
569.56	17.133
569.90	17.176
570.24	17.138
570.57	17.229
570.91	16.037
571.25	16.192
571.59	16.695
571.92	16.389
572.26	15.876
572.60	16.634
572.93	16.532
573.27	16.686
573.61	16.486
573.95	16.534
574.28	16.384
574.62	15.813
574.96	15.936
575.29	16.233
575.63	15.830
575.97	15.847
576.30	15.844
576.64	16.225
576.98	15.742
577.31	16.349
577.65	16.306
577.98	15.740
578.32	15.825
578.66	16.038
578.99	16.111
579.33	16.328
579.67	16.063
580.00	16.028
580.34	16.048
580.67	15.973
581.01	15.932
581.35	15.842
581.68	15.515
582.02	15.839
582.35	15.744
582.69	15.967
583.02	15.766
583.36	16.051
583.70	16.440
584.03	16.629
584.37	16.431
584.70	16.472
585.04	16.036
585.37	15.419
585.71	16.202
586.04	16.120
586.38	15.753
586.72	16.139
587.05	16.521
587.39	16.258
587.72	16.004
588.06	16.116
588.39	16.121
588.73	16.862
589.06	16.370
589.40	16.620
589.73	16.978
590.07	17.124
590.40	16.620
590.73	17.297
591.07	17.381
591.40	16.846
591.74	16.802
592.07	16.764
592.41	16.067
592.74	16.734
593.08	16.081
593.41	16.278
593.75	16.018
594.08	16.600
594.41	16.585
594.75	16.712
595.08	16.975
595.42	16.754
595.75	16.683
596.09	16.719
596.42	16.570
596.75	16.506
597.09	17.334
597.42	16.571
597.75	16.268
598.09	16.865
598.42	16.524
598.76	16.461
599.09	16.771
599.42	16.194
599.76	16.248
600.09	16.339
600.42	16.851
600.76	16.417
601.09	16.258
601.42	16.403
601.76	16.434
602.09	16.446
602.42	16.340
602.76	16.509
603.09	16.252
603.42	16.954
603.76	16.088
604.09	16.757
604.42	16.234
604.76	17.384
605.09	16.776
605.42	16.782
605.75	16.542
606.09	17.062
606.42	16.498
606.75	16.984
607.09	16.305
607.42	16.312
607.75	16.799
608.08	16.369
608.42	16.988
608.75	16.217
609.08	17.114
609.41	16.636
609.75	17.033
610.08	17.266
610.41	16.733
610.74	17.229
611.07	17.099
611.41	16.960
611.74	17.304
612.07	16.859
612.40	17.300
612.73	17.624
613.07	17.182
613.40	17.594
613.73	17.224
614.06	16.450
614.39	17.677
614.72	17.177
615.06	16.617
615.39	17.030
615.72	17.038
616.05	16.976
616.38	17.707
616.71	16.441
617.05	17.738
617.38	16.124
617.71	16.873
618.04	17.162
618.37	17.065
618.70	17.206
619.03	16.972
619.36	17.839
619.69	18.206
620.03	17.939
620.36	18.048
620.69	18.455
621.02	17.731
621.35	17.049
621.68	17.625
622.01	19.262
622.34	18.281
622.67	17.978
623.00	17.086
623.33	17.611
623.66	17.232
623.99	17.466
624.32	17.412
624.65	17.577
624.99	18.526
625.32	17.969
625.65	18.000
625.98	17.434
626.31	18.027
626.64	18.223
626.97	17.674
627.30	18.711
627.63	19.074
627.96	18.545
628.29	18.234
628.62	18.135
628.95	18.972
629.28	18.668
629.61	17.926
629.94	17.978
630.26	19.237
630.59	18.972
630.92	17.489
631.25	19.583
631.58	18.611
631.91	18.649
632.24	18.367
632.57	19.253
632.90	18.737
633.23	20.252
633.56	19.073
633.89	20.793
634.22	19.376
634.55	19.355
634.88	20.263
635.20	20.852
635.53	19.977
635.86	20.246
636.19	20.202
636.52	19.351
636.85	19.202
637.18	20.043
637.51	18.547
637.83	18.192
638.16	19.812
638.49	19.401
638.82	20.775
639.15	18.331
639.48	20.498
639.81	21.734
640.13	19.387
640.46	19.595
640.79	19.506
641.12	19.029
641.45	20.440
641.77	21.532
642.10	19.143
642.43	20.626
642.76	19.602
643.09	20.317
643.41	20.196
643.74	20.288
644.07	19.912
644.40	19.822
644.73	22.673
645.05	21.842
645.38	20.368
645.71	20.941
646.04	22.748
646.36	20.814
646.69	21.440
647.02	21.760
647.35	18.740
647.67	22.042
648.00	21.498
648.33	20.752
648.66	18.939
648.98	20.870
649.31	19.433
649.64	19.225
649.96	18.919
650.29	18.571
650.62	21.355
650.94	21.988
651.27	21.531
651.60	20.188
651.92	21.198
652.25	20.945
652.58	19.716
652.90	18.713
653.23	19.055
653.56	20.623
653.88	20.117
654.21	20.968
654.54	19.473
654.86	20.059
655.19	20.053
655.52	16.865
655.84	13.774
656.17	16.201
656.49	23.439
656.82	26.453
657.15	21.150
657.47	15.923
657.80	12.052
658.13	9.653
658.45	13.209
658.78	15.974
659.10	15.733
659.43	16.283
659.75	17.046
660.08	17.105
660.41	18.966
660.73	21.205
661.06	19.069
661.38	21.635
661.71	20.504
662.03	23.004
662.36	21.143
662.68	21.415
663.01	22.162
663.33	21.887
663.66	21.105
663.98	21.230
664.31	22.575
664.63	24.138
664.96	22.514
665.28	20.151
665.61	19.811
665.93	23.019
666.26	21.495
666.58	25.321
666.91	22.394
667.23	20.683
667.56	20.945
667.88	23.237
668.21	22.541
668.53	21.774
668.86	23.647
669.18	21.996
669.50	22.934
669.83	22.587
670.15	24.324
670.48	19.141
670.80	22.709
671.13	22.311
671.45	22.044
671.77	22.635
672.10	22.262
672.42	19.901
672.75	21.044
673.07	19.873
673.39	20.927
673.72	21.107
674.04	22.043
674.37	20.327
674.69	24.164
675.01	18.470
675.34	20.930
675.66	20.508
675.98	22.682
676.31	23.200
676.63	20.676
676.95	23.810
677.28	20.690
677.60	23.139
677.92	19.841
678.25	21.318
678.57	22.160
678.89	24.051
679.22	20.588
679.54	22.242
679.86	22.688
680.18	20.738
680.51	18.242
680.83	18.581
681.15	20.451
681.48	20.833
681.80	18.914
682.12	21.626
682.44	18.559
682.77	20.819
683.09	21.165
683.41	22.041
683.73	20.669
684.06	20.238
684.38	24.031
684.70	21.223
685.02	19.271
685.34	20.423
685.67	21.865
685.99	20.197
686.31	19.260
686.63	19.512
686.96	20.098
687.28	19.128
687.60	20.137
687.92	20.436
688.24	23.448
688.56	20.996
688.89	21.989
689.21	21.965
689.53	21.937
689.85	20.935
690.17	20.194
690.49	22.177
690.82	22.059
691.14	22.020
691.46	21.971
691.78	21.442
692.10	23.092
692.42	19.782
692.74	21.899
693.06	21.705
693.39	21.146
693.71	19.843
694.03	23.471
694.35	22.490
694.67	21.385
694.99	23.282
695.31	22.072
695.63	23.529
695.95	22.172
696.27	26.106
696.59	22.196
696.91	21.519
697.23	23.756
697.56	19.710
697.88	17.764
698.20	21.509
698.52	19.261
698.84	21.150
699.16	24.094
699.48	22.246
699.80	23.965
700.12	23.788
700.44	21.729
700.76	24.344
701.08	22.715
701.40	24.156
701.72	24.064
702.04	26.016
702.36	25.000
702.68	24.202
703.00	23.058
703.32	24.814
703.64	21.411
703.96	24.479
704.28	25.132
704.60	21.408
704.91	22.409
705.23	23.011
705.55	25.519
705.87	25.397
706.19	26.019
706.51	26.646
706.83	27.434
707.15	26.203
707.47	21.792
707.79	23.218
708.11	20.635
708.43	22.472
708.74	21.493
709.06	23.023
709.38	24.069
709.70	22.888
710.02	24.457
710.34	26.243
710.66	23.889
710.98	25.683
711.29	24.513
711.61	24.513
711.93	22.188
712.25	24.398
712.57	22.508
712.89	24.848
713.20	24.601
713.52	23.676
713.84	22.356
714.16	22.029
714.48	21.902
714.80	21.951
715.11	22.872
715.43	24.860
715.75	23.662
716.07	26.301
716.39	28.286
716.70	22.430
717.02	29.630
717.34	25.180
717.66	25.000
717.97	31.061
718.29	28.169
718.61	23.649
718.93	22.491
719.24	30.201
719.56	19.310
719.88	21.019
720.20	27.419
720.51	21.242
720.83	24.415
721.15	26.871
721.46	21.918
721.78	27.178
722.10	27.083
722.42	24.080
722.73	24.910
723.05	26.316
723.37	26.855
723.68	26.953
724.00	29.167
724.32	29.658
724.63	26.538
724.95	28.235
725.27	24.164
725.58	26.471
725.90	25.000
726.22	25.000
726.53	28.428
726.85	25.733
727.16	26.174
727.48	25.914
727.80	26.978
728.11	27.143
728.43	24.638
728.74	26.224
729.06	24.731
729.38	26.667
729.69	29.667
730.01	28.618
730.32	23.490
730.64	26.578
730.96	23.123
731.27	22.324
731.59	22.414
731.90	20.613
732.22	26.000
732.53	23.077
732.85	26.023
733.16	21.687
733.48	23.197
733.80	24.348
734.11	24.540
734.43	26.608
734.74	21.984
735.06	21.958
735.37	23.454
735.69	20.290
736.00	24.159
736.32	22.121
736.63	20.189
736.95	24.534
737.26	24.085
737.58	23.620
737.89	21.988
738.21	20.861
738.52	27.090
738.83	32.601
739.15	22.300
739.46	24.483
739.78	27.211
740.09	25.656
740.41	23.313
740.72	28.254
741.04	29.720
741.35	25.391
741.66	28.458
741.98	29.614
742.29	25.926
742.61	27.876
742.92	25.424
743.23	27.600
743.55	23.396
743.86	20.784
744.18	29.237
744.49	28.099
744.80	31.797
745.12	29.911
745.43	34.112
745.74	32.889
746.06	30.263
746.37	26.977
746.68	38.496
747.00	30.493
747.31	29.412
747.62	26.639
747.94	32.189
748.25	26.848
748.56	33.898
748.88	26.339
749.19	28.372
749.50	25.114
749.82	27.984
750.13	24.111
750.44	26.000
750.75	24.832
751.07	25.000
751.38	22.772
751.69	21.549
752.01	25.175
752.32	24.917
752.63	27.517
752.94	26.573
753.26	27.344
753.57	28.405
753.88	25.094
754.19	27.437
754.51	21.595
754.82	20.470
755.13	26.351
755.44	25.926
755.75	26.460
756.07	29.110
756.38	25.163
756.69	23.750
757.00	25.223
757.31	26.197
757.63	22.314
757.94	22.606
758.25	21.981
758.56	22.197
758.87	23.810
759.18	23.837
759.50	24.316
759.81	25.519
760.12	23.034
760.43	22.689
760.74	24.557
761.05	23.607
761.36	20.573
761.67	22.911
761.99	24.507
762.30	20.900
762.61	29.861
762.92	24.242
763.23	28.302
763.54	25.385
763.85	21.401
764.16	31.250
764.47	24.662
764.78	24.430
765.10	23.476
765.41	21.875
765.72	24.862
766.03	25.378
766.34	21.603
766.65	25.095
766.96	25.101
767.27	31.776
767.58	30.693
767.89	27.624
768.20	35.976
768.51	28.571
768.82	30.702
769.13	29.020
769.44	26.692
769.75	25.094
770.06	29.832
770.37	21.930
770.68	27.111
770.99	25.424
771.30	30.544
771.61	29.231
771.92	25.191
772.23	28.226
772.54	31.111
772.85	37.624
773.16	35.326
773.47	29.444
773.78	35.644
774.09	39.205
774.39	31.515
774.70	31.765
775.01	34.211
775.32	32.298
775.63	39.041
775.94	43.210
776.25	37.931
776.56	33.588
776.87	35.878
777.18	40.909
777.48	44.882
777.79	35.385
778.10	37.879
778.41	38.060
778.72	33.083
779.03	30.128
779.34	35.135
779.65	36.646
779.95	31.677
780.26	36.905
780.57	41.497
780.88	37.589
781.19	47.500
781.50	34.911
781.80	30.055
782.11	33.333
782.42	37.356
782.73	31.073
783.04	36.129
783.34	31.008
783.65	34.014
783.96	30.968
784.27	34.437
784.57	34.211
784.88	41.304
785.19	28.333
785.50	36.207
785.81	55.039
786.11	40.000
786.42	41.732
786.73	42.342
787.04	41.509
787.34	34.959
787.65	31.818
787.96	45.455
788.26	39.370
788.57	42.336
788.88	39.437
789.19	35.115
789.49	46.622
789.80	39.844
790.11	32.231
790.41	48.148
790.72	46.296
791.03	44.231
791.33	43.434
791.64	50.526
791.95	40.000
792.25	43.750
792.56	42.000
792.87	50.000
793.17	53.409
793.48	57.647
793.79	51.724
794.09	50.000
794.40	46.552
794.70	36.508
795.01	37.692
795.32	41.221
795.62	41.026
795.93	52.941
796.23	38.211
796.54	47.959
796.85	51.136
797.15	55.844
797.46	68.293
797.76	50.000
798.07	57.333
798.37	61.250
798.68	63.750
798.99	54.878
799.29	58.667
799.60	34.884
799.90	47.368
800.21	62.121
800.51	53.521
800.82	58.621
801.12	69.231
801.43	70.667
801.73	60.345
802.04	63.636
802.34	60.274
802.65	66.667
802.95	78.261
803.26	70.968
803.56	85.000
803.87	50.746
804.17	55.556
804.48	66.038
804.78	56.944
805.09	56.061
805.39	76.190
805.70	77.193
806.00	48.571
806.30	70.312
806.61	52.941
806.91	52.222
807.22	35.870
807.52	50.000
807.83	73.684
808.13	49.275
808.43	61.290
808.74	42.466
809.04	71.429
809.35	63.235
809.65	48.485
809.95	74.510
810.26	87.037
810.56	57.812
810.86	69.388
811.17	77.193
811.47	73.913
811.77	68.966
812.08	50.000
812.38	66.667
812.69	71.429
812.99	40.000
813.29	65.714
813.59	74.194
813.90	67.241
814.20	73.770
814.50	50.000
814.81	57.895
815.11	81.481
815.41	67.857
815.72	94.643
816.02	86.000
816.32	85.366
816.62	75.862
816.93	103.030
817.23	85.366
817.53	69.643
817.84	71.111
818.14	78.571
818.44	64.583
818.74	75.472
819.04	87.179
819.35	130.303
819.65	75.000
819.95	98.148
820.25	82.979
820.56	94.595
820.86	105.263
821.16	55.319
821.46	94.737
821.76	76.364
822.07	54.762
822.37	89.474
822.67	72.093
822.97	78.947
823.27	91.304
823.57	93.750
823.88	71.795
824.18	118.182
824.48	152.174
824.78	88.889
825.08	104.348
825.38	127.586
825.69	102.941
825.99	80.851
826.29	91.667
826.59	114.286
826.89	120.000
827.19	102.857
827.49	112.903
827.79	111.538
828.09	88.095
828.39	88.889
828.70	91.892
829.00	135.714
829.30	175.000
829.60	111.111
829.90	132.258
830.20	81.818
830.50	118.919
830.80	100.000
831.10	153.846
831.40	133.333
831.70	141.667
832.00	116.667
832.30	108.696
832.60	145.833
832.90	142.424
833.20	190.000
833.50	94.737
833.80	129.412
834.10	84.211
834.40	147.368
834.70	120.000
835.00	124.000
835.30	83.784
835.60	140.625
835.90	108.108
836.20	150.000
836.50	150.000
836.80	97.561
837.10	91.304
837.40	246.154
837.70	115.789
838.00	140.000
838.30	141.667
838.60	128.000
838.90	390.000
839.19	256.250
839.49	123.333
839.79	106.897
840.09	115.385
840.39	173.333
840.69	184.211
840.99	114.286
841.29	143.478
841.59	170.000
841.88	144.000
842.18	311.111
842.48	150.000
842.78	162.963
843.08	184.615
843.38	172.727
843.68	214.286
843.97	428.571
844.27	139.130
844.57	1700.000
844.87	264.286
845.17	183.333
845.47	109.524
845.76	187.500
846.06	414.286
846.36	194.118
846.66	246.154
846.96	237.500
847.25	169.231
847.55	163.158
847.85	183.333
848.15	380.000
848.44	290.909
848.74	128.571
849.04	170.833
849.34	200.000
849.63	212.500
849.93	231.250
850.23	766.667
850.53	412.500
850.82	327.273
851.12	164.706
851.42	145.833
851.71	237.500
852.01	0.000
852.31	182.353
852.61	370.000
852.90	116.667
853.20	288.889
853.50	-1100.000
853.79	148.000
854.09	146.875
854.39	141.379
854.68	144.828
854.98	133.333
855.28	70.968
855.57	192.857
855.87	111.111
856.17	122.222
856.46	147.368
856.76	135.484
857.05	229.412
857.35	236.364
857.65	223.077
857.94	165.000
858.24	400.000
858.53	264.286
858.83	500.000
859.13	130.435
859.42	188.889
859.72	337.500
860.01	150.000
860.31	925.000
860.60	290.000
860.90	262.500
861.20	284.615
861.49	342.857
861.79	-3600.000
862.08	428.571
862.38	300.000
862.67	221.429
862.97	330.000
863.26	133.333
863.56	1000.000
863.85	269.231
864.15	247.059
864.44	177.778
864.74	283.333
865.03	263.636
865.33	325.000
865.62	186.667
865.92	600.000
866.21	750.000
866.51	500.000
866.80	227.778
867.10	633.333
867.39	3900.000
867.69	900.000
867.98	700.000
868.27	157.143
868.57	293.333
868.86	1100.000
869.16	152.381
869.45	3400.000
869.75	-450.000
870.04	725.000
870.33	620.000
870.63	350.000
870.92	152.941
871.22	650.000
871.51	314.286
871.80	341.667
872.10	238.462
>>>>>End Processed Spectral Data<<<<<
