SpectraSuite Data File
++++++++++++++++++++++++++++++++++++
Date: Tue May 12 15:22:55 PDT 2015
User: schluterlab
Dark Spectrum Present: Yes
Reference Spectrum Present: Yes
Number of Sampled Component Spectra: 1
Spectrometers: USB2E3373
Integration Time (usec): 3000 (USB2E3373)
Spectra Averaged: 3 (USB2E3373)
Boxcar Smoothing: 0 (USB2E3373)
Correct for Electrical Dark: No (USB2E3373)
Strobe/Lamp Enabled: No (USB2E3373)
Correct for Detector Non-linearity: No (USB2E3373)
Correct for Stray Light: No (USB2E3373)
Number of Pixels in Processed Spectrum: 2048
>>>>>Begin Processed Spectral Data<<<<<
178.53	0.000
178.91	-250.000
179.29	-575.000
179.67	-3900.000
180.04	-140.000
180.42	525.000
180.80	1500.000
181.18	0.000
181.56	-425.000
181.94	0.000
182.31	1300.000
182.69	-3100.000
183.07	457.143
183.45	-3300.000
183.83	-1150.000
184.20	360.000
184.58	500.000
184.96	-153.846
185.34	-183.333
185.72	1650.000
186.09	-775.000
186.47	-1900.000
186.85	1066.667
187.23	600.000
187.61	2150.000
187.98	387.500
188.36	214.286
188.74	366.667
189.12	291.667
189.49	925.000
189.87	0.000
190.25	487.500
190.63	3100.000
191.00	-291.667
191.38	-3100.000
191.76	-875.000
192.14	675.000
192.51	-3000.000
192.89	1750.000
193.27	733.333
193.65	-966.667
194.02	-660.000
194.40	457.143
194.78	-185.714
195.15	280.000
195.53	-2900.000
195.91	-580.000
196.29	3800.000
196.66	225.000
197.04	600.000
197.42	-1200.000
197.79	525.000
198.17	325.000
198.55	0.000
198.92	457.143
199.30	966.667
199.68	1950.000
200.05	583.333
200.43	-400.000
200.81	233.333
201.18	3000.000
201.56	258.333
201.94	-800.000
202.31	-225.000
202.69	-540.000
203.07	2800.000
203.44	-416.667
203.82	291.667
204.19	820.000
204.57	-950.000
204.95	-800.000
205.32	-700.000
205.70	383.333
206.08	725.000
206.45	-966.667
206.83	388.889
207.20	163.158
207.58	325.000
207.96	660.000
208.33	0.000
208.71	542.857
209.08	820.000
209.46	-3200.000
209.84	-775.000
210.21	780.000
210.59	-600.000
210.96	300.000
211.34	-925.000
211.71	427.273
212.09	875.000
212.46	2000.000
212.84	-566.667
213.22	311.111
213.59	-2100.000
213.97	380.000
214.34	850.000
214.72	900.000
215.09	1333.333
215.47	-2600.000
215.84	-340.000
216.22	-337.500
216.59	0.000
216.97	0.000
217.34	1650.000
217.72	-1800.000
218.09	1133.333
218.47	412.500
218.84	775.000
219.22	1066.667
219.59	1000.000
219.97	457.143
220.34	288.889
220.72	1250.000
221.09	3400.000
221.47	283.333
221.84	1300.000
222.22	390.000
222.59	205.556
222.97	200.000
223.34	243.750
223.72	-1850.000
224.09	1100.000
224.46	276.923
224.84	-925.000
225.21	511.111
225.59	286.667
225.96	1300.000
226.34	-640.000
226.71	-525.000
227.08	-520.000
227.46	0.000
227.83	-600.000
228.21	-1400.000
228.58	341.667
228.95	800.000
229.33	344.444
229.70	1175.000
230.08	300.000
230.45	3000.000
230.82	-1175.000
231.20	-533.333
231.57	-833.333
231.95	480.000
232.32	291.667
232.69	683.333
233.07	241.667
233.44	-1400.000
233.81	246.667
234.19	148.148
234.56	175.000
234.93	176.471
235.31	180.000
235.68	168.750
236.05	135.714
236.43	111.111
236.80	128.571
237.17	151.724
237.55	100.000
237.92	102.500
238.29	124.242
238.67	106.250
239.04	85.366
239.41	64.583
239.79	37.500
240.16	75.000
240.53	65.574
240.91	34.783
241.28	47.458
241.65	50.000
242.02	59.155
242.40	44.286
242.77	38.462
243.14	27.848
243.51	43.434
243.89	30.841
244.26	32.710
244.63	31.683
245.00	34.862
245.38	21.186
245.75	31.818
246.12	31.111
246.49	26.241
246.87	17.213
247.24	22.667
247.61	24.375
247.98	23.810
248.36	23.030
248.73	23.980
249.10	14.286
249.47	20.500
249.84	18.905
250.22	20.000
250.59	16.000
250.96	19.409
251.33	17.209
251.70	18.750
252.08	22.269
252.45	14.741
252.82	11.027
253.19	14.625
253.56	14.231
253.94	15.217
254.31	13.566
254.68	13.240
255.05	18.276
255.42	13.139
255.79	12.052
256.16	11.864
256.54	13.961
256.91	11.438
257.28	13.378
257.65	8.150
258.02	13.569
258.39	14.327
258.76	12.464
259.14	8.571
259.51	9.329
259.88	11.854
260.25	9.066
260.62	11.781
260.99	7.989
261.36	10.306
261.73	10.372
262.10	11.518
262.47	10.000
262.85	9.333
263.22	11.568
263.59	10.230
263.96	9.273
264.33	8.889
264.70	9.091
265.07	10.488
265.44	10.092
265.81	8.491
266.18	8.467
266.55	9.693
266.92	8.054
267.29	10.526
267.66	10.314
268.03	7.175
268.40	9.937
268.77	11.894
269.14	9.111
269.51	7.350
269.88	10.000
270.25	7.559
270.62	7.725
270.99	10.142
271.36	11.382
271.73	7.547
272.10	6.667
272.47	6.151
272.84	8.184
273.21	7.851
273.58	9.312
273.95	5.339
274.32	10.117
274.69	10.039
275.06	9.472
275.43	8.429
275.80	7.358
276.17	7.904
276.54	7.850
276.91	8.769
277.28	8.029
277.65	8.303
278.02	7.169
278.39	6.835
278.76	9.310
279.13	8.007
279.50	6.545
279.87	8.007
280.23	7.366
280.60	8.577
280.97	7.586
281.34	7.921
281.71	8.522
282.08	9.402
282.45	7.264
282.82	7.191
283.19	8.903
283.56	8.430
283.92	6.515
284.29	5.990
284.66	5.714
285.03	8.955
285.40	7.273
285.77	5.401
286.14	8.514
286.51	7.669
286.87	5.380
287.24	4.655
287.61	6.535
287.98	7.463
288.35	7.111
288.72	6.980
289.08	7.057
289.45	8.841
289.82	7.344
290.19	7.321
290.56	9.461
290.93	6.475
291.29	6.768
291.66	7.062
292.03	8.696
292.40	6.911
292.77	6.546
293.13	7.846
293.50	7.827
293.87	7.046
294.24	7.972
294.60	8.210
294.97	8.671
295.34	7.039
295.71	8.541
296.08	8.667
296.44	8.005
296.81	8.065
297.18	7.098
297.55	7.389
297.91	6.527
298.28	8.213
298.65	9.448
299.02	7.358
299.38	8.633
299.75	8.415
300.12	8.945
300.48	10.890
300.85	7.747
301.22	9.302
301.59	7.547
301.95	8.751
302.32	9.430
302.69	9.389
303.05	9.091
303.42	10.090
303.79	9.751
304.15	10.451
304.52	9.302
304.89	10.661
305.25	9.789
305.62	10.021
305.99	8.478
306.35	8.737
306.72	10.094
307.09	10.041
307.45	9.504
307.82	10.288
308.19	10.103
308.55	10.100
308.92	11.776
309.29	12.032
309.65	10.605
310.02	10.953
310.38	10.369
310.75	11.668
311.12	10.632
311.48	13.320
311.85	11.832
312.22	12.607
312.58	11.565
312.95	12.233
313.31	11.704
313.68	13.321
314.05	12.088
314.41	12.756
314.78	12.879
315.14	15.071
315.51	13.718
315.87	12.682
316.24	13.912
316.61	13.697
316.97	14.312
317.34	15.004
317.70	15.540
318.07	15.747
318.43	15.641
318.80	14.098
319.16	15.559
319.53	16.460
319.89	15.054
320.26	17.412
320.62	15.934
320.99	16.778
321.35	17.069
321.72	18.691
322.08	17.636
322.45	18.529
322.81	18.390
323.18	17.940
323.54	18.641
323.91	18.858
324.27	18.921
324.64	19.983
325.00	20.345
325.37	20.236
325.73	21.079
326.10	21.624
326.46	21.718
326.83	22.240
327.19	21.606
327.56	22.045
327.92	23.607
328.29	23.241
328.65	24.658
329.01	24.636
329.38	24.196
329.74	24.936
330.11	25.804
330.47	26.087
330.84	24.418
331.20	25.465
331.56	27.202
331.93	26.091
332.29	24.660
332.66	26.871
333.02	24.399
333.38	26.091
333.75	27.023
334.11	25.839
334.48	27.094
334.84	25.929
335.20	27.545
335.57	24.853
335.93	27.923
336.29	24.710
336.66	27.358
337.02	25.577
337.38	25.193
337.75	26.014
338.11	26.498
338.47	27.688
338.84	26.418
339.20	25.455
339.56	25.904
339.93	26.421
340.29	26.218
340.65	26.907
341.02	27.595
341.38	25.944
341.74	26.329
342.11	25.793
342.47	25.021
342.83	26.661
343.20	26.192
343.56	25.814
343.92	26.342
344.28	26.156
344.65	26.650
345.01	25.397
345.37	25.080
345.73	25.794
346.10	25.737
346.46	26.077
346.82	24.923
347.19	26.430
347.55	25.995
347.91	25.831
348.27	25.329
348.63	26.661
349.00	26.733
349.36	25.525
349.72	25.535
350.08	26.009
350.45	25.286
350.81	25.765
351.17	24.807
351.53	26.636
351.89	25.641
352.26	24.868
352.62	26.094
352.98	26.687
353.34	26.888
353.70	25.535
354.07	25.846
354.43	27.573
354.79	25.437
355.15	26.799
355.51	26.511
355.87	25.904
356.24	27.098
356.60	26.788
356.96	25.625
357.32	26.375
357.68	25.991
358.04	26.976
358.40	26.537
358.77	27.273
359.13	25.150
359.49	26.835
359.85	26.731
360.21	25.706
360.57	26.934
360.93	26.984
361.29	25.758
361.66	27.293
362.02	25.923
362.38	26.840
362.74	26.044
363.10	26.578
363.46	26.243
363.82	26.367
364.18	26.600
364.54	26.681
364.90	26.573
365.26	27.065
365.62	27.072
365.98	25.396
366.35	26.552
366.71	27.273
367.07	26.485
367.43	26.864
367.79	26.396
368.15	25.170
368.51	27.567
368.87	26.291
369.23	26.473
369.59	26.568
369.95	28.042
370.31	25.941
370.67	27.342
371.03	27.941
371.39	28.116
371.75	26.448
372.11	26.852
372.47	26.781
372.83	26.852
373.19	27.690
373.55	26.873
373.91	26.036
374.27	26.587
374.63	28.339
374.99	26.617
375.35	27.487
375.71	27.704
376.07	26.592
376.42	25.831
376.78	27.103
377.14	26.606
377.50	26.904
377.86	27.546
378.22	27.422
378.58	27.482
378.94	27.158
379.30	26.622
379.66	27.634
380.02	26.862
380.38	27.225
380.74	28.431
381.09	28.096
381.45	26.763
381.81	26.478
382.17	26.129
382.53	26.575
382.89	27.025
383.25	26.525
383.61	26.571
383.97	26.995
384.32	26.462
384.68	28.402
385.04	26.612
385.40	27.699
385.76	26.975
386.12	27.087
386.48	27.477
386.83	27.445
387.19	26.266
387.55	26.737
387.91	27.252
388.27	26.413
388.62	26.937
388.98	26.531
389.34	25.699
389.70	25.943
390.06	26.524
390.42	26.280
390.77	26.413
391.13	25.709
391.49	26.437
391.85	26.769
392.20	26.162
392.56	27.838
392.92	25.884
393.28	26.009
393.64	26.147
393.99	25.845
394.35	25.368
394.71	25.754
395.07	26.338
395.42	26.639
395.78	26.897
396.14	27.410
396.50	25.572
396.85	25.854
397.21	26.655
397.57	26.360
397.92	25.188
398.28	25.427
398.64	26.236
399.00	25.548
399.35	24.691
399.71	25.276
400.07	24.600
400.42	25.970
400.78	25.455
401.14	26.072
401.49	25.346
401.85	25.087
402.21	25.249
402.57	25.913
402.92	25.394
403.28	24.702
403.63	25.250
403.99	24.910
404.35	26.026
404.70	25.399
405.06	24.761
405.42	23.818
405.77	24.476
406.13	25.325
406.49	25.185
406.84	24.760
407.20	25.913
407.55	24.862
407.91	25.590
408.27	25.470
408.62	25.429
408.98	24.305
409.34	24.547
409.69	24.518
410.05	23.971
410.40	23.793
410.76	24.098
411.11	23.993
411.47	23.765
411.83	23.902
412.18	24.275
412.54	24.204
412.89	23.304
413.25	24.743
413.60	23.890
413.96	24.417
414.31	25.030
414.67	24.705
415.03	24.010
415.38	25.615
415.74	24.447
416.09	25.297
416.45	25.339
416.80	25.016
417.16	25.334
417.51	25.287
417.87	24.906
418.22	24.909
418.58	25.414
418.93	25.877
419.29	25.015
419.64	25.863
420.00	26.134
420.35	25.610
420.71	25.904
421.06	24.662
421.42	25.964
421.77	25.541
422.12	26.185
422.48	25.116
422.83	26.395
423.19	25.918
423.54	25.727
423.90	26.897
424.25	26.582
424.61	26.872
424.96	27.216
425.31	26.108
425.67	27.441
426.02	26.697
426.38	26.779
426.73	27.588
427.09	27.402
427.44	27.743
427.79	27.787
428.15	29.169
428.50	28.229
428.85	28.748
429.21	28.417
429.56	28.066
429.92	29.339
430.27	28.786
430.62	27.215
430.98	28.842
431.33	28.226
431.68	27.358
432.04	29.074
432.39	28.869
432.74	30.562
433.10	29.291
433.45	29.868
433.80	30.778
434.16	29.375
434.51	30.031
434.86	30.484
435.22	30.470
435.57	30.765
435.92	31.019
436.28	30.933
436.63	30.416
436.98	31.363
437.34	31.393
437.69	30.683
438.04	31.398
438.39	31.349
438.75	31.570
439.10	30.977
439.45	31.204
439.81	32.042
440.16	32.361
440.51	32.376
440.86	32.593
441.22	32.413
441.57	33.123
441.92	32.823
442.27	31.701
442.63	32.368
442.98	32.435
443.33	32.566
443.68	31.891
444.03	33.412
444.39	32.486
444.74	33.023
445.09	33.228
445.44	33.156
445.79	33.626
446.15	33.684
446.50	33.228
446.85	33.416
447.20	32.587
447.55	35.073
447.91	34.417
448.26	34.505
448.61	35.379
448.96	34.477
449.31	34.048
449.66	34.551
450.02	35.116
450.37	34.870
450.72	35.427
451.07	35.079
451.42	35.625
451.77	35.395
452.12	34.487
452.47	35.966
452.83	35.718
453.18	36.036
453.53	36.412
453.88	35.886
454.23	36.200
454.58	35.723
454.93	35.684
455.28	36.903
455.63	36.584
455.98	35.759
456.34	36.413
456.69	36.585
457.04	36.516
457.39	36.400
457.74	37.050
458.09	35.205
458.44	35.871
458.79	36.499
459.14	36.388
459.49	36.863
459.84	37.283
460.19	36.836
460.54	36.638
460.89	36.674
461.24	35.739
461.59	37.472
461.94	36.879
462.29	37.986
462.64	38.003
462.99	37.364
463.34	37.395
463.69	37.326
464.04	38.054
464.39	36.920
464.74	36.166
465.09	36.274
465.44	36.670
465.79	37.343
466.14	35.718
466.49	36.734
466.84	36.065
467.19	37.024
467.54	36.396
467.89	37.911
468.24	36.827
468.59	36.190
468.94	37.560
469.29	37.752
469.64	37.556
469.99	37.532
470.34	38.014
470.68	37.034
471.03	38.559
471.38	37.881
471.73	38.080
472.08	39.400
472.43	38.175
472.78	39.437
473.13	38.110
473.48	37.286
473.83	38.221
474.17	38.055
474.52	37.500
474.87	37.408
475.22	37.407
475.57	37.251
475.92	37.200
476.27	36.561
476.61	38.123
476.96	37.409
477.31	38.098
477.66	39.184
478.01	38.112
478.36	37.848
478.70	38.065
479.05	38.180
479.40	37.996
479.75	38.282
480.10	37.851
480.45	37.862
480.79	37.650
481.14	37.423
481.49	37.054
481.84	36.719
482.19	37.555
482.53	37.198
482.88	37.410
483.23	36.942
483.58	37.433
483.92	38.254
484.27	37.842
484.62	37.351
484.97	37.125
485.31	35.717
485.66	35.793
486.01	34.766
486.36	33.789
486.70	33.010
487.05	33.746
487.40	34.520
487.75	35.036
488.09	35.398
488.44	36.010
488.79	36.064
489.13	37.215
489.48	37.515
489.83	36.489
490.17	36.953
490.52	37.855
490.87	37.284
491.22	38.298
491.56	37.681
491.91	36.335
492.26	37.283
492.60	38.178
492.95	37.200
493.30	37.989
493.64	36.703
493.99	37.299
494.34	37.382
494.68	37.760
495.03	37.494
495.37	37.686
495.72	38.182
496.07	37.466
496.41	37.228
496.76	37.104
497.11	37.961
497.45	37.133
497.80	37.488
498.14	37.772
498.49	37.558
498.84	37.850
499.18	37.706
499.53	37.023
499.87	35.984
500.22	37.494
500.56	37.604
500.91	38.358
501.26	36.748
501.60	36.612
501.95	36.783
502.29	36.400
502.64	36.612
502.98	36.461
503.33	36.481
503.67	36.556
504.02	36.453
504.36	36.154
504.71	37.133
505.06	36.321
505.40	36.079
505.75	36.763
506.09	36.398
506.44	37.500
506.78	37.429
507.13	37.809
507.47	36.681
507.82	37.664
508.16	36.894
508.51	37.101
508.85	37.322
509.19	37.102
509.54	36.426
509.88	37.742
510.23	37.549
510.57	36.438
510.92	37.163
511.26	37.701
511.61	35.844
511.95	36.287
512.30	37.400
512.64	36.968
512.98	36.853
513.33	36.936
513.67	36.302
514.02	37.714
514.36	36.916
514.70	38.453
515.05	37.080
515.39	38.048
515.74	37.562
516.08	36.874
516.42	38.798
516.77	37.173
517.11	36.693
517.46	36.584
517.80	36.537
518.14	37.746
518.49	36.439
518.83	36.868
519.17	36.828
519.52	37.466
519.86	36.512
520.20	36.603
520.55	35.726
520.89	37.241
521.23	36.799
521.58	36.833
521.92	36.501
522.26	38.507
522.61	37.136
522.95	36.937
523.29	37.193
523.64	36.474
523.98	37.559
524.32	36.275
524.66	37.275
525.01	36.864
525.35	35.474
525.69	37.387
526.04	36.883
526.38	36.257
526.72	36.396
527.06	36.310
527.41	37.001
527.75	35.484
528.09	35.039
528.43	36.547
528.78	36.434
529.12	35.942
529.46	34.132
529.80	35.280
530.15	36.123
530.49	35.319
530.83	34.674
531.17	35.793
531.51	36.358
531.86	34.722
532.20	34.981
532.54	35.342
532.88	35.790
533.22	35.466
533.57	34.594
533.91	34.324
534.25	33.583
534.59	34.854
534.93	34.585
535.27	33.295
535.62	33.489
535.96	33.688
536.30	35.344
536.64	34.348
536.98	34.361
537.32	35.062
537.66	34.311
538.01	33.932
538.35	33.999
538.69	33.738
539.03	33.458
539.37	32.100
539.71	33.765
540.05	32.985
540.39	32.767
540.73	34.557
541.07	33.940
541.42	32.836
541.76	33.600
542.10	33.046
542.44	33.292
542.78	32.662
543.12	32.638
543.46	32.769
543.80	32.456
544.14	33.251
544.48	33.151
544.82	33.333
545.16	31.330
545.50	32.084
545.84	33.018
546.18	33.550
546.52	33.574
546.86	33.398
547.20	32.106
547.54	32.489
547.88	33.029
548.22	32.362
548.56	32.174
548.90	32.088
549.24	32.217
549.58	32.474
549.92	32.286
550.26	32.860
550.60	31.603
550.94	32.768
551.28	33.241
551.62	33.724
551.96	33.176
552.30	31.180
552.64	32.362
552.98	31.443
553.32	31.690
553.66	32.443
554.00	32.432
554.34	33.688
554.68	32.191
555.02	31.704
555.36	33.112
555.69	31.872
556.03	32.484
556.37	32.314
556.71	32.138
557.05	30.734
557.39	31.133
557.73	32.210
558.07	32.260
558.41	32.694
558.75	31.327
559.08	32.952
559.42	31.711
559.76	31.932
560.10	31.315
560.44	31.188
560.78	31.650
561.12	30.960
561.45	29.912
561.79	30.524
562.13	29.627
562.47	31.408
562.81	30.579
563.15	30.899
563.48	29.441
563.82	30.630
564.16	30.535
564.50	29.415
564.84	30.152
565.17	31.075
565.51	29.803
565.85	30.845
566.19	28.929
566.52	29.663
566.86	29.656
567.20	30.169
567.54	28.821
567.88	28.951
568.21	27.758
568.55	28.551
568.89	28.878
569.23	27.912
569.56	27.796
569.90	26.374
570.24	27.325
570.57	26.314
570.91	26.708
571.25	26.216
571.59	25.494
571.92	25.269
572.26	24.771
572.60	25.243
572.93	25.704
573.27	25.617
573.61	25.149
573.95	24.851
574.28	24.867
574.62	24.546
574.96	23.983
575.29	24.202
575.63	23.958
575.97	24.148
576.30	24.450
576.64	23.984
576.98	24.100
577.31	24.211
577.65	24.115
577.98	23.648
578.32	23.597
578.66	24.028
578.99	23.684
579.33	24.290
579.67	24.371
580.00	23.435
580.34	23.603
580.67	23.468
581.01	23.919
581.35	23.812
581.68	23.255
582.02	23.158
582.35	23.206
582.69	23.524
583.02	23.478
583.36	23.898
583.70	23.841
584.03	24.534
584.37	24.281
584.70	24.110
585.04	23.840
585.37	23.918
585.71	23.663
586.04	23.400
586.38	23.677
586.72	23.912
587.05	24.395
587.39	24.349
587.72	24.250
588.06	24.460
588.39	24.079
588.73	24.489
589.06	24.686
589.40	24.945
589.73	24.680
590.07	25.360
590.40	25.714
590.73	25.854
591.07	25.731
591.40	25.429
591.74	25.041
592.07	25.000
592.41	25.100
592.74	24.570
593.08	24.056
593.41	23.698
593.75	23.719
594.08	24.885
594.41	24.829
594.75	24.281
595.08	24.348
595.42	25.115
595.75	24.218
596.09	24.713
596.42	24.909
596.75	25.921
597.09	25.134
597.42	24.776
597.75	24.057
598.09	24.579
598.42	24.439
598.76	24.248
599.09	24.347
599.42	23.772
599.76	23.745
600.09	23.220
600.42	23.688
600.76	24.099
601.09	24.094
601.42	24.076
601.76	23.881
602.09	24.172
602.42	23.845
602.76	23.985
603.09	24.962
603.42	24.661
603.76	23.355
604.09	23.561
604.42	23.578
604.76	24.022
605.09	24.204
605.42	23.324
605.75	23.766
606.09	23.910
606.42	23.976
606.75	24.058
607.09	24.398
607.42	23.584
607.75	23.328
608.08	23.599
608.42	24.203
608.75	23.663
609.08	23.889
609.41	25.000
609.75	24.588
610.08	23.786
610.41	24.726
610.74	24.026
611.07	24.420
611.41	24.467
611.74	24.092
612.07	23.892
612.40	24.269
612.73	25.062
613.07	24.987
613.40	24.862
613.73	23.764
614.06	24.300
614.39	23.939
614.72	23.958
615.06	23.937
615.39	23.861
615.72	23.427
616.05	24.661
616.38	23.643
616.71	24.525
617.05	24.876
617.38	23.820
617.71	24.184
618.04	24.509
618.37	23.402
618.70	23.557
619.03	23.932
619.36	25.188
619.69	24.406
620.03	25.114
620.36	24.855
620.69	25.926
621.02	24.660
621.35	24.713
621.68	25.590
622.01	26.052
622.34	24.545
622.67	25.562
623.00	25.391
623.33	24.359
623.66	24.152
623.99	24.658
624.32	25.203
624.65	24.358
624.99	24.341
625.32	23.981
625.65	24.276
625.98	24.686
626.31	25.890
626.64	24.525
626.97	24.254
627.30	25.699
627.63	24.961
627.96	24.883
628.29	25.330
628.62	24.380
628.95	26.862
629.28	24.890
629.61	25.659
629.94	25.238
630.26	25.737
630.59	26.862
630.92	25.112
631.25	25.476
631.58	26.133
631.91	26.166
632.24	26.045
632.57	25.246
632.90	26.812
633.23	26.758
633.56	26.133
633.89	27.224
634.22	26.480
634.55	26.129
634.88	27.930
635.20	26.345
635.53	26.945
635.86	27.181
636.19	25.253
636.52	26.162
636.85	24.703
637.18	26.977
637.51	26.704
637.83	27.574
638.16	25.791
638.49	25.150
638.82	26.526
639.15	25.264
639.48	25.948
639.81	26.252
640.13	27.853
640.46	26.675
640.79	26.398
641.12	25.066
641.45	26.132
641.77	27.081
642.10	26.640
642.43	28.450
642.76	26.278
643.09	26.225
643.41	27.209
643.74	26.763
644.07	26.696
644.40	26.331
644.73	28.829
645.05	27.489
645.38	27.565
645.71	28.225
646.04	30.229
646.36	26.448
646.69	27.680
647.02	27.200
647.35	27.874
647.67	27.553
648.00	29.316
648.33	27.669
648.66	28.939
648.98	25.072
649.31	25.236
649.64	24.343
649.96	27.169
650.29	26.000
650.62	26.657
650.94	28.614
651.27	27.592
651.60	27.856
651.92	28.879
652.25	28.031
652.58	25.816
652.90	28.293
653.23	24.225
653.56	27.745
653.88	24.670
654.21	26.686
654.54	24.451
654.86	26.254
655.19	24.934
655.52	21.721
655.84	17.161
656.17	19.554
656.49	28.573
656.82	32.224
657.15	25.969
657.47	19.477
657.80	14.599
658.13	11.621
658.45	15.698
658.78	19.161
659.10	19.281
659.43	20.385
659.75	21.341
660.08	21.930
660.41	23.503
660.73	25.345
661.06	26.426
661.38	27.768
661.71	27.158
662.03	26.996
662.36	29.333
662.68	26.629
663.01	28.108
663.33	25.472
663.66	30.375
663.98	27.778
664.31	30.410
664.63	27.778
664.96	31.144
665.28	27.684
665.61	25.094
665.93	27.358
666.26	28.972
666.58	26.055
666.91	29.344
667.23	27.711
667.56	28.953
667.88	28.216
668.21	25.205
668.53	26.815
668.86	29.860
669.18	28.310
669.50	25.826
669.83	29.979
670.15	30.353
670.48	26.953
670.80	29.681
671.13	26.096
671.45	29.259
671.77	27.644
672.10	24.776
672.42	26.151
672.75	25.158
673.07	26.073
673.39	24.920
673.72	23.702
674.04	26.165
674.37	27.405
674.69	26.580
675.01	25.373
675.34	24.612
675.66	27.344
675.98	26.824
676.31	28.000
676.63	26.044
676.95	28.571
677.28	27.383
677.60	24.145
677.92	25.397
678.25	28.876
678.57	27.374
678.89	25.859
679.22	25.000
679.54	23.665
679.86	24.607
680.18	25.835
680.51	25.041
680.83	22.973
681.15	25.477
681.48	26.042
681.80	24.518
682.12	22.837
682.44	25.766
682.77	26.690
683.09	26.990
683.41	28.571
683.73	26.969
684.06	24.802
684.38	27.519
684.70	25.360
685.02	23.264
685.34	25.352
685.67	24.920
685.99	24.466
686.31	24.345
686.63	25.528
686.96	25.000
687.28	23.490
687.60	24.915
687.92	24.288
688.24	25.862
688.56	24.733
688.89	23.709
689.21	24.855
689.53	24.506
689.85	25.203
690.17	24.854
690.49	24.798
690.82	25.840
691.14	27.071
691.46	24.846
691.78	25.731
692.10	24.809
692.42	22.686
692.74	26.938
693.06	25.581
693.39	25.099
693.71	24.165
694.03	26.233
694.35	27.711
694.67	24.033
694.99	25.721
695.31	28.378
695.63	27.149
695.95	26.471
696.27	27.434
696.59	26.014
696.91	26.329
697.23	26.923
697.56	25.311
697.88	24.152
698.20	24.340
698.52	22.763
698.84	24.641
699.16	25.160
699.48	25.000
699.80	27.015
700.12	27.945
700.44	27.804
700.76	27.924
701.08	25.587
701.40	27.792
701.72	30.214
702.04	26.558
702.36	29.032
702.68	30.851
703.00	25.313
703.32	25.558
703.64	27.960
703.96	26.823
704.28	28.836
704.60	29.014
704.91	31.092
705.23	29.830
705.55	32.047
705.87	26.667
706.19	32.915
706.51	31.348
706.83	30.383
707.15	27.273
707.47	27.361
707.79	25.977
708.11	24.943
708.43	25.843
708.74	23.982
709.06	26.977
709.38	24.814
709.70	26.158
710.02	27.174
710.34	24.033
710.66	27.778
710.98	26.503
711.29	26.184
711.61	31.198
711.93	26.748
712.25	27.108
712.57	27.010
712.89	31.515
713.20	30.990
713.52	31.153
713.84	25.378
714.16	26.087
714.48	23.055
714.80	24.932
715.11	23.670
715.43	25.978
715.75	27.042
716.07	26.590
716.39	27.143
716.70	26.791
717.02	25.926
717.34	26.978
717.66	32.639
717.97	31.818
718.29	29.930
718.61	26.689
718.93	27.336
719.24	32.215
719.56	27.931
719.88	26.433
720.20	27.097
720.51	29.739
720.83	28.094
721.15	29.932
721.46	24.658
721.78	26.829
722.10	27.431
722.42	27.425
722.73	27.798
723.05	28.772
723.37	31.802
723.68	28.125
724.00	27.273
724.32	33.080
724.63	31.538
724.95	33.333
725.27	31.227
725.58	30.515
725.90	25.352
726.22	29.452
726.53	30.100
726.85	27.036
727.16	31.208
727.48	30.897
727.80	25.899
728.11	29.643
728.43	23.551
728.74	30.769
729.06	29.749
729.38	29.825
729.69	32.000
730.01	28.289
730.32	27.517
730.64	28.904
730.96	28.228
731.27	23.242
731.59	24.713
731.90	24.513
732.22	26.286
732.53	20.798
732.85	25.731
733.16	27.410
733.48	25.392
733.80	26.087
734.11	29.448
734.43	25.439
734.74	24.933
735.06	27.513
735.37	21.649
735.69	22.029
736.00	27.523
736.32	23.636
736.63	25.868
736.95	21.118
737.26	25.610
737.58	23.006
737.89	27.410
738.21	27.152
738.52	22.742
738.83	30.769
739.15	31.359
739.46	25.517
739.78	26.531
740.09	26.531
740.41	23.006
740.72	32.381
741.04	29.720
741.35	28.516
741.66	29.249
741.98	26.180
742.29	29.167
742.61	27.876
742.92	30.085
743.23	26.800
743.55	24.906
743.86	27.451
744.18	32.627
744.49	27.273
744.80	30.876
745.12	31.250
745.43	32.710
745.74	26.667
746.06	22.368
746.37	28.837
746.68	32.743
747.00	27.803
747.31	30.252
747.62	25.410
747.94	28.755
748.25	27.237
748.56	34.322
748.88	27.232
749.19	26.512
749.50	30.137
749.82	33.333
750.13	29.249
750.44	27.000
750.75	29.866
751.07	23.684
751.38	28.383
751.69	27.609
752.01	26.573
752.32	26.246
752.63	27.852
752.94	28.322
753.26	32.031
753.57	28.794
753.88	26.217
754.19	29.964
754.51	26.910
754.82	24.161
755.13	25.000
755.44	26.667
755.75	27.491
756.07	26.370
756.38	22.549
756.69	23.125
757.00	30.861
757.31	23.099
757.63	23.967
757.94	21.543
758.25	23.430
758.56	21.510
758.87	25.815
759.18	22.965
759.50	27.052
759.81	28.783
760.12	24.157
760.43	26.891
760.74	26.582
761.05	20.690
761.36	19.792
761.67	26.415
761.99	26.479
762.30	27.974
762.61	22.917
762.92	25.000
763.23	30.189
763.54	25.000
763.85	27.626
764.16	28.125
764.47	26.689
764.78	27.687
765.10	21.341
765.41	21.307
765.72	25.414
766.03	22.961
766.34	27.178
766.65	26.996
766.96	30.769
767.27	28.037
767.58	31.683
767.89	34.254
768.20	31.707
768.51	30.102
768.82	31.579
769.13	27.451
769.44	25.564
769.75	22.846
770.06	28.151
770.37	25.439
770.68	23.111
770.99	29.237
771.30	30.126
771.61	27.308
771.92	30.534
772.23	29.032
772.54	33.778
772.85	33.168
773.16	29.348
773.47	32.222
773.78	34.653
774.09	37.500
774.39	34.545
774.70	28.235
775.01	27.632
775.32	36.025
775.63	32.877
775.94	45.062
776.25	37.931
776.56	37.405
776.87	40.458
777.18	50.000
777.48	48.031
777.79	46.923
778.10	35.606
778.41	42.537
778.72	42.857
779.03	35.897
779.34	33.784
779.65	39.752
779.95	37.888
780.26	33.929
780.57	40.816
780.88	41.844
781.19	35.833
781.50	39.053
781.80	30.055
782.11	36.508
782.42	33.333
782.73	30.508
783.04	31.613
783.34	42.636
783.65	29.252
783.96	33.548
784.27	29.801
784.57	32.895
784.88	39.130
785.19	39.167
785.50	41.379
785.81	47.287
786.11	36.296
786.42	42.520
786.73	43.243
787.04	46.226
787.34	38.211
787.65	42.424
787.96	43.939
788.26	40.945
788.57	47.445
788.88	28.169
789.19	36.641
789.49	41.892
789.80	43.750
790.11	38.017
790.41	49.074
790.72	47.222
791.03	55.769
791.33	48.485
791.64	42.105
791.95	47.368
792.25	42.708
792.56	41.000
792.87	48.780
793.17	51.136
793.48	51.765
793.79	52.874
794.09	46.591
794.40	50.000
794.70	46.825
795.01	36.923
795.32	37.405
795.62	25.641
795.93	42.857
796.23	46.341
796.54	53.061
796.85	40.909
797.15	54.545
797.46	69.512
797.76	45.000
798.07	69.333
798.37	57.500
798.68	60.000
798.99	58.537
799.29	53.333
799.60	38.372
799.90	53.947
800.21	63.636
800.51	50.704
800.82	70.690
801.12	63.077
801.43	57.333
801.73	51.724
802.04	51.948
802.34	54.795
802.65	84.314
802.95	86.957
803.26	72.581
803.56	83.333
803.87	62.687
804.17	71.429
804.48	50.943
804.78	62.500
805.09	62.121
805.39	68.254
805.70	77.193
806.00	51.429
806.30	64.062
806.61	43.529
806.91	55.556
807.22	43.478
807.52	36.842
807.83	75.000
808.13	49.275
808.43	62.903
808.74	58.904
809.04	67.857
809.35	77.941
809.65	77.273
809.95	68.627
810.26	72.222
810.56	65.625
810.86	75.510
811.17	66.667
811.47	95.652
811.77	72.414
812.08	53.448
812.38	80.952
812.69	85.714
812.99	60.000
813.29	94.286
813.59	90.323
813.90	60.345
814.20	80.328
814.50	94.000
814.81	59.649
815.11	87.037
815.41	87.500
815.72	92.857
816.02	94.000
816.32	104.878
816.62	65.517
816.93	118.182
817.23	107.317
817.53	71.429
817.84	53.333
818.14	95.238
818.44	97.917
818.74	84.906
819.04	61.538
819.35	121.212
819.65	92.308
819.95	100.000
820.25	93.617
820.56	97.297
820.86	92.105
821.16	82.979
821.46	92.105
821.76	72.727
822.07	85.714
822.37	84.211
822.67	90.698
822.97	73.684
823.27	84.783
823.57	90.625
823.88	97.436
824.18	100.000
824.48	126.087
824.78	97.222
825.08	152.174
825.38	100.000
825.69	105.882
825.99	78.723
826.29	75.000
826.59	100.000
826.89	133.333
827.19	88.571
827.49	138.710
827.79	123.077
828.09	78.571
828.39	113.889
828.70	89.189
829.00	117.857
829.30	156.250
829.60	102.778
829.90	145.161
830.20	72.727
830.50	118.919
830.80	129.167
831.10	103.846
831.40	166.667
831.70	166.667
832.00	106.667
832.30	147.826
832.60	154.167
832.90	172.727
833.20	185.000
833.50	123.684
833.80	97.059
834.10	110.526
834.40	200.000
834.70	123.333
835.00	156.000
835.30	78.378
835.60	168.750
835.90	105.405
836.20	130.769
836.50	136.364
836.80	95.122
837.10	143.478
837.40	292.308
837.70	110.526
838.00	106.667
838.30	170.833
838.60	144.000
838.90	340.000
839.19	193.750
839.49	153.333
839.79	79.310
840.09	130.769
840.39	166.667
840.69	173.684
840.99	133.333
841.29	160.870
841.59	190.000
841.88	180.000
842.18	400.000
842.48	157.143
842.78	162.963
843.08	207.692
843.38	154.545
843.68	278.571
843.97	585.714
844.27	126.087
844.57	1650.000
844.87	300.000
845.17	227.778
845.47	133.333
845.76	158.333
846.06	385.714
846.36	170.588
846.66	253.846
846.96	212.500
847.25	323.077
847.55	152.632
847.85	166.667
848.15	400.000
848.44	236.364
848.74	171.429
849.04	187.500
849.34	176.471
849.63	206.250
849.93	237.500
850.23	900.000
850.53	387.500
850.82	327.273
851.12	217.647
851.42	137.500
851.71	225.000
852.01	0.000
852.31	235.294
852.61	360.000
852.90	116.667
853.20	377.778
853.50	-2000.000
853.79	124.000
854.09	128.125
854.39	113.793
854.68	144.828
854.98	176.190
855.28	106.452
855.57	264.286
855.87	183.333
856.17	114.815
856.46	152.632
856.76	122.581
857.05	241.176
857.35	263.636
857.65	192.308
857.94	125.000
858.24	344.444
858.53	264.286
858.83	385.714
859.13	204.348
859.42	388.889
859.72	400.000
860.01	250.000
860.31	950.000
860.60	420.000
860.90	412.500
861.20	315.385
861.49	557.143
861.79	-2700.000
862.08	514.286
862.38	344.444
862.67	164.286
862.97	320.000
863.26	136.667
863.56	825.000
863.85	300.000
864.15	235.294
864.44	172.222
864.74	300.000
865.03	272.727
865.33	462.500
865.62	280.000
865.92	500.000
866.21	675.000
866.51	520.000
866.80	194.444
867.10	866.667
867.39	2700.000
867.69	520.000
867.98	750.000
868.27	185.714
868.57	300.000
868.86	925.000
869.16	109.524
869.45	2100.000
869.75	-383.333
870.04	675.000
870.33	780.000
870.63	437.500
870.92	176.471
871.22	900.000
871.51	442.857
871.80	400.000
872.10	284.615
>>>>>End Processed Spectral Data<<<<<
