SpectraSuite Data File
++++++++++++++++++++++++++++++++++++
Date: Tue May 12 15:15:52 PDT 2015
User: schluterlab
Dark Spectrum Present: Yes
Reference Spectrum Present: Yes
Number of Sampled Component Spectra: 1
Spectrometers: USB2E3373
Integration Time (usec): 3000 (USB2E3373)
Spectra Averaged: 3 (USB2E3373)
Boxcar Smoothing: 0 (USB2E3373)
Correct for Electrical Dark: No (USB2E3373)
Strobe/Lamp Enabled: No (USB2E3373)
Correct for Detector Non-linearity: No (USB2E3373)
Correct for Stray Light: No (USB2E3373)
Number of Pixels in Processed Spectrum: 2048
>>>>>Begin Processed Spectral Data<<<<<
178.53	0.000
178.91	-200.000
179.29	-725.000
179.67	-2600.000
180.04	-126.667
180.42	450.000
180.80	1450.000
181.18	0.000
181.56	-112.500
181.94	0.000
182.31	933.333
182.69	-2300.000
183.07	457.143
183.45	-3400.000
183.83	-1350.000
184.20	290.000
184.58	414.286
184.96	-184.615
185.34	-141.667
185.72	1500.000
186.09	-575.000
186.47	-3200.000
186.85	900.000
187.23	500.000
187.61	1350.000
187.98	412.500
188.36	214.286
188.74	233.333
189.12	308.333
189.49	700.000
189.87	0.000
190.25	350.000
190.63	1700.000
191.00	-116.667
191.38	-3500.000
191.76	-625.000
192.14	437.500
192.51	-2000.000
192.89	1300.000
193.27	866.667
193.65	-1033.333
194.02	-580.000
194.40	328.571
194.78	-121.429
195.15	186.667
195.53	-1900.000
195.91	-420.000
196.29	3100.000
196.66	193.750
197.04	575.000
197.42	-650.000
197.79	375.000
198.17	225.000
198.55	0.000
198.92	314.286
199.30	966.667
199.68	1850.000
200.05	583.333
200.43	-266.667
200.81	172.222
201.18	2800.000
201.56	250.000
201.94	-550.000
202.31	-262.500
202.69	-320.000
203.07	1800.000
203.44	-300.000
203.82	258.333
204.19	360.000
204.57	-1300.000
204.95	-475.000
205.32	-500.000
205.70	500.000
206.08	625.000
206.45	-800.000
206.83	366.667
207.20	152.632
207.58	150.000
207.96	620.000
208.33	0.000
208.71	300.000
209.08	680.000
209.46	-3100.000
209.84	-725.000
210.21	880.000
210.59	-560.000
210.96	208.333
211.34	-600.000
211.71	327.273
212.09	850.000
212.46	800.000
212.84	-266.667
213.22	344.444
213.59	-1800.000
213.97	230.000
214.34	575.000
214.72	900.000
215.09	566.667
215.47	-2300.000
215.84	-320.000
216.22	-425.000
216.59	0.000
216.97	0.000
217.34	800.000
217.72	-1100.000
218.09	1000.000
218.47	362.500
218.84	850.000
219.22	833.333
219.59	800.000
219.97	485.714
220.34	322.222
220.72	1400.000
221.09	2700.000
221.47	275.000
221.84	766.667
222.22	310.000
222.59	194.444
222.97	128.571
223.34	162.500
223.72	-750.000
224.09	700.000
224.46	230.769
224.84	-625.000
225.21	433.333
225.59	220.000
225.96	1033.333
226.34	-480.000
226.71	-350.000
227.08	-380.000
227.46	0.000
227.83	-450.000
228.21	-1350.000
228.58	333.333
228.95	725.000
229.33	366.667
229.70	900.000
230.08	292.308
230.45	2800.000
230.82	-875.000
231.20	-566.667
231.57	-400.000
231.95	580.000
232.32	266.667
232.69	250.000
233.07	158.333
233.44	-1400.000
233.81	166.667
234.19	144.444
234.56	156.250
234.93	182.353
235.31	155.000
235.68	237.500
236.05	100.000
236.43	96.296
236.80	200.000
237.17	103.448
237.55	90.625
237.92	65.000
238.29	90.909
238.67	109.375
239.04	65.854
239.41	47.917
239.79	32.500
240.16	64.583
240.53	45.902
240.91	30.435
241.28	47.458
241.65	56.061
242.02	53.521
242.40	37.143
242.77	26.374
243.14	20.253
243.51	34.343
243.89	27.103
244.26	29.907
244.63	20.792
245.00	23.853
245.38	15.254
245.75	23.485
246.12	27.407
246.49	17.021
246.87	16.393
247.24	18.667
247.61	21.875
247.98	23.810
248.36	12.727
248.73	23.469
249.10	13.095
249.47	15.000
249.84	17.910
250.22	22.162
250.59	14.000
250.96	16.034
251.33	15.349
251.70	17.411
252.08	12.185
252.45	9.163
252.82	11.027
253.19	12.253
253.56	9.615
253.94	14.855
254.31	11.240
254.68	11.847
255.05	11.034
255.42	9.124
255.79	9.121
256.16	16.271
256.54	12.338
256.91	9.804
257.28	10.702
257.65	7.524
258.02	9.440
258.39	12.894
258.76	9.275
259.14	6.000
259.51	7.872
259.88	8.207
260.25	7.143
260.62	7.671
260.99	6.887
261.36	8.357
261.73	7.447
262.10	7.592
262.47	8.250
262.85	6.133
263.22	10.797
263.59	9.974
263.96	9.273
264.33	8.148
264.70	10.319
265.07	9.024
265.44	8.716
265.81	8.491
266.18	7.780
266.55	6.619
266.92	6.935
267.29	6.360
267.66	7.623
268.03	5.157
268.40	7.822
268.77	7.930
269.14	6.725
269.51	8.018
269.88	7.755
270.25	5.184
270.62	4.292
270.99	9.736
271.36	8.537
271.73	6.289
272.10	6.465
272.47	6.349
272.84	4.990
273.21	5.992
273.58	8.097
273.95	4.312
274.32	7.004
274.69	9.055
275.06	8.743
275.43	6.130
275.80	6.226
276.17	7.353
276.54	8.224
276.91	8.022
277.28	7.299
277.65	4.982
278.02	6.801
278.39	6.475
278.76	8.103
279.13	4.448
279.50	6.364
279.87	4.097
280.23	5.157
280.60	4.197
280.97	5.345
281.34	6.106
281.71	5.739
282.08	7.863
282.45	5.743
282.82	6.187
283.19	6.518
283.56	5.124
283.92	5.537
284.29	5.324
284.66	6.050
285.03	5.804
285.40	6.942
285.77	4.938
286.14	6.192
286.51	5.828
286.87	3.323
287.24	3.003
287.61	5.167
287.98	5.821
288.35	5.333
288.72	3.794
289.08	4.805
289.45	5.488
289.82	3.906
290.19	5.710
290.56	6.696
290.93	5.036
291.29	4.144
291.66	5.650
292.03	4.488
292.40	6.098
292.77	5.292
293.13	3.138
293.50	5.803
293.87	5.962
294.24	3.916
294.60	5.922
294.97	4.895
295.34	5.578
295.71	4.862
296.08	4.933
296.44	4.828
296.81	5.211
297.18	4.309
297.55	6.158
297.91	2.956
298.28	5.314
298.65	4.540
299.02	4.343
299.38	5.396
299.75	3.780
300.12	4.014
300.48	5.855
300.85	5.483
301.22	4.884
301.59	3.066
301.95	3.967
302.32	5.704
302.69	3.846
303.05	5.612
303.42	3.251
303.79	4.767
304.15	4.840
304.52	4.440
304.89	6.077
305.25	4.116
305.62	5.117
305.99	5.000
306.35	3.158
306.72	3.850
307.09	4.555
307.45	3.273
307.82	4.012
308.19	4.433
308.55	4.400
308.92	4.612
309.29	5.523
309.65	3.568
310.02	4.868
310.38	4.786
310.75	3.279
311.12	3.831
311.48	5.116
311.85	4.580
312.22	4.298
312.58	3.110
312.95	4.078
313.31	5.805
313.68	4.034
314.05	5.220
314.41	4.655
314.78	3.977
315.14	5.687
315.51	5.109
315.87	4.562
316.24	4.015
316.61	4.208
316.97	3.670
317.34	5.301
317.70	5.092
318.07	4.537
318.43	4.833
318.80	4.904
319.16	5.070
319.53	3.894
319.89	3.943
320.26	5.121
320.62	4.579
320.99	4.004
321.35	4.545
321.72	4.554
322.08	4.986
322.45	3.906
322.81	3.202
323.18	4.707
323.54	5.401
323.91	5.712
324.27	4.598
324.64	2.682
325.00	4.914
325.37	4.300
325.73	4.975
326.10	4.971
326.46	4.211
326.83	3.840
327.19	4.578
327.56	4.073
327.92	4.590
328.29	5.155
328.65	5.051
329.01	4.192
329.38	4.738
329.74	4.184
330.11	4.692
330.47	5.286
330.84	4.228
331.20	4.738
331.56	5.613
331.93	5.817
332.29	4.167
332.66	5.782
333.02	4.210
333.38	4.538
333.75	5.004
334.11	5.789
334.48	5.641
334.84	4.476
335.20	5.475
335.57	4.114
335.93	3.953
336.29	4.975
336.66	5.317
337.02	3.678
337.38	4.815
337.75	4.392
338.11	4.219
338.47	4.572
338.84	4.488
339.20	4.329
339.56	4.289
339.93	4.599
340.29	4.118
340.65	5.197
341.02	6.034
341.38	5.337
341.74	3.571
342.11	4.424
342.47	4.266
342.83	5.414
343.20	5.255
343.56	4.210
343.92	4.707
344.28	3.828
344.65	4.319
345.01	4.206
345.37	3.526
345.73	3.571
346.10	3.506
346.46	4.545
346.82	3.704
347.19	5.255
347.55	4.137
347.91	4.079
348.27	3.486
348.63	4.351
349.00	3.427
349.36	4.358
349.72	4.893
350.08	4.658
350.45	3.732
350.81	4.587
351.17	4.237
351.53	3.464
351.89	4.274
352.26	3.855
352.62	4.299
352.98	4.985
353.34	5.393
353.70	3.670
354.07	4.846
354.43	5.069
354.79	4.176
355.15	3.752
355.51	3.248
355.87	4.443
356.24	3.849
356.60	4.033
356.96	3.184
357.32	5.426
357.68	4.772
358.04	4.407
358.40	4.648
358.77	4.433
359.13	3.979
359.49	4.003
359.85	4.393
360.21	3.046
360.57	4.234
360.93	4.473
361.29	4.257
361.66	4.251
362.02	3.480
362.38	3.968
362.74	4.105
363.10	3.927
363.46	3.246
363.82	4.348
364.18	4.196
364.54	3.791
364.90	4.618
365.26	4.094
365.62	4.006
365.98	4.061
366.35	3.724
366.71	3.886
367.07	3.549
367.43	3.895
367.79	4.787
368.15	2.646
368.51	4.686
368.87	2.717
369.23	3.950
369.59	4.248
369.95	4.056
370.31	3.080
370.67	4.025
371.03	4.832
371.39	3.116
371.75	3.280
372.11	4.419
372.47	3.904
372.83	3.671
373.19	4.112
373.55	4.399
373.91	2.970
374.27	4.034
374.63	3.932
374.99	3.774
375.35	3.427
375.71	3.892
376.07	3.581
376.42	3.708
376.78	3.340
377.14	3.473
377.50	4.057
377.86	3.075
378.22	3.473
378.58	3.935
378.94	3.742
379.30	3.335
379.66	4.154
380.02	3.988
380.38	2.810
380.74	4.152
381.09	4.264
381.45	2.775
381.81	3.014
382.17	3.053
382.53	3.419
382.89	3.430
383.25	3.730
383.61	3.689
383.97	3.119
384.32	3.496
384.68	3.446
385.04	3.400
385.40	3.796
385.76	2.867
386.12	3.834
386.48	3.222
386.83	3.545
387.19	3.357
387.55	4.005
387.91	3.811
388.27	3.391
388.62	4.225
388.98	3.440
389.34	3.510
389.70	3.184
390.06	3.232
390.42	3.085
390.77	3.624
391.13	4.406
391.49	3.811
391.85	4.123
392.20	3.874
392.56	4.122
392.92	3.481
393.28	3.643
393.64	2.982
393.99	3.912
394.35	3.649
394.71	3.016
395.07	3.893
395.42	3.571
395.78	3.886
396.14	4.157
396.50	3.670
396.85	3.537
397.21	3.189
397.57	4.363
397.92	2.946
398.28	3.034
398.64	4.305
399.00	3.153
399.35	3.382
399.71	3.918
400.07	2.968
400.42	3.224
400.78	3.578
401.14	3.406
401.49	3.283
401.85	3.418
402.21	3.398
402.57	3.770
402.92	3.091
403.28	2.745
403.63	3.943
403.99	3.860
404.35	4.279
404.70	3.426
405.06	2.976
405.42	3.411
405.77	3.308
406.13	3.254
406.49	2.615
406.84	2.933
407.20	3.253
407.55	3.692
407.91	4.084
408.27	4.184
408.62	3.489
408.98	2.661
409.34	3.448
409.69	2.862
410.05	3.160
410.40	3.004
410.76	2.919
411.11	3.318
411.47	3.457
411.83	3.105
412.18	2.597
412.54	4.024
412.89	2.832
413.25	3.478
413.60	3.213
413.96	3.710
414.31	2.834
414.67	3.973
415.03	3.448
415.38	3.218
415.74	3.474
416.09	4.372
416.45	3.814
416.80	4.298
417.16	3.183
417.51	3.376
417.87	3.630
418.22	3.159
418.58	2.803
418.93	3.510
419.29	3.266
419.64	3.513
420.00	4.177
420.35	3.310
420.71	3.209
421.06	2.590
421.42	2.994
421.77	2.998
422.12	3.473
422.48	3.749
422.83	3.571
423.19	2.754
423.54	3.401
423.90	3.851
424.25	3.082
424.61	3.540
424.96	2.993
425.31	2.737
425.67	3.143
426.02	3.421
426.38	2.684
426.73	2.545
427.09	3.440
427.44	2.926
427.79	2.344
428.15	3.418
428.50	3.486
428.85	3.057
429.21	3.404
429.56	3.240
429.92	2.884
430.27	3.000
430.62	2.937
430.98	3.244
431.33	2.722
431.68	2.370
432.04	3.156
432.39	3.348
432.74	3.220
433.10	2.436
433.45	2.814
433.80	4.192
434.16	3.100
434.51	2.683
434.86	2.831
435.22	2.809
435.57	3.734
435.92	3.984
436.28	3.802
436.63	3.133
436.98	2.759
437.34	3.596
437.69	2.464
438.04	3.118
438.39	3.444
438.75	3.285
439.10	3.130
439.45	2.883
439.81	3.065
440.16	3.467
440.51	2.984
440.86	3.647
441.22	3.626
441.57	3.360
441.92	2.863
442.27	2.629
442.63	2.591
442.98	3.017
443.33	3.482
443.68	3.169
444.03	3.157
444.39	3.013
444.74	3.106
445.09	2.896
445.44	3.454
445.79	3.070
446.15	2.842
446.50	2.690
446.85	2.839
447.20	2.587
447.55	2.229
447.91	3.410
448.26	3.035
448.61	2.819
448.96	2.560
449.31	2.585
449.66	4.208
450.02	2.809
450.37	2.832
450.72	3.085
451.07	3.432
451.42	3.616
451.77	2.921
452.12	3.120
452.47	3.645
452.83	3.211
453.18	3.063
453.53	3.138
453.88	3.200
454.23	3.021
454.58	3.438
454.93	3.188
455.28	3.182
455.63	3.901
455.98	2.594
456.34	3.404
456.69	2.561
457.04	2.685
457.39	2.743
457.74	4.223
458.09	2.807
458.44	3.724
458.79	3.395
459.14	2.728
459.49	3.737
459.84	2.772
460.19	3.051
460.54	3.134
460.89	3.252
461.24	3.265
461.59	3.401
461.94	4.019
462.29	3.089
462.64	4.020
462.99	2.943
463.34	4.277
463.69	3.932
464.04	3.569
464.39	3.148
464.74	2.521
465.09	3.482
465.44	3.373
465.79	2.667
466.14	3.127
466.49	2.984
466.84	2.787
467.19	4.335
467.54	3.063
467.89	3.462
468.24	2.953
468.59	2.798
468.94	3.442
469.29	3.543
469.64	3.794
469.99	3.149
470.34	2.720
470.68	3.103
471.03	3.469
471.38	3.444
471.73	3.201
472.08	3.392
472.43	3.290
472.78	3.585
473.13	3.191
473.48	2.934
473.83	3.239
474.17	3.161
474.52	3.851
474.87	2.786
475.22	3.084
475.57	2.938
475.92	2.913
476.27	1.959
476.61	2.520
476.96	3.083
477.31	2.622
477.66	3.918
478.01	3.146
478.36	2.884
478.70	2.928
479.05	2.615
479.40	3.274
479.75	3.178
480.10	2.904
480.45	2.381
480.79	2.995
481.14	2.473
481.49	2.516
481.84	2.902
482.19	2.969
482.53	2.591
482.88	2.688
483.23	2.346
483.58	2.648
483.92	3.428
484.27	3.425
484.62	2.716
484.97	2.844
485.31	2.197
485.66	2.451
486.01	2.232
486.36	2.237
486.70	1.825
487.05	2.254
487.40	2.160
487.75	2.360
488.09	2.415
488.44	2.454
488.79	2.187
489.13	2.165
489.48	3.076
489.83	2.168
490.17	2.766
490.52	2.842
490.87	3.362
491.22	2.482
491.56	2.899
491.91	2.509
492.26	2.762
492.60	3.007
492.95	2.673
493.30	2.866
493.64	2.381
493.99	3.399
494.34	2.420
494.68	2.612
495.03	3.009
495.37	3.467
495.72	2.611
496.07	2.381
496.41	3.519
496.76	2.955
497.11	3.213
497.45	3.200
497.80	3.197
498.14	3.098
498.49	2.368
498.84	3.037
499.18	2.697
499.53	2.848
499.87	2.471
500.22	2.672
500.56	2.553
500.91	3.386
501.26	2.986
501.60	2.505
501.95	2.643
502.29	3.644
502.64	2.955
502.98	2.801
503.33	2.895
503.67	3.179
504.02	2.463
504.36	2.534
504.71	2.649
505.06	2.769
505.40	2.808
505.75	2.526
506.09	3.360
506.44	2.726
506.78	2.836
507.13	2.278
507.47	2.863
507.82	3.163
508.16	3.283
508.51	2.899
508.85	3.086
509.19	3.035
509.54	3.076
509.88	3.829
510.23	2.549
510.57	2.896
510.92	2.947
511.26	2.861
511.61	3.200
511.95	3.086
512.30	3.450
512.64	2.440
512.98	2.922
513.33	3.023
513.67	3.625
514.02	3.481
514.36	2.908
514.70	2.933
515.05	2.557
515.39	2.412
515.74	3.171
516.08	3.050
516.42	3.333
516.77	3.413
517.11	3.093
517.46	3.233
517.80	2.731
518.14	3.268
518.49	3.252
518.83	2.418
519.17	3.217
519.52	3.004
519.86	3.433
520.20	3.781
520.55	3.166
520.89	3.218
521.23	2.921
521.58	3.098
521.92	3.149
522.26	2.607
522.61	3.327
522.95	3.183
523.29	3.450
523.64	2.543
523.98	2.934
524.32	3.230
524.66	3.536
525.01	2.959
525.35	2.652
525.69	3.010
526.04	4.164
526.38	3.119
526.72	2.983
527.06	3.075
527.41	4.051
527.75	3.591
528.09	2.529
528.43	3.539
528.78	2.803
529.12	3.191
529.46	2.922
529.80	3.096
530.15	3.418
530.49	3.008
530.83	3.108
531.17	3.075
531.51	4.108
531.86	3.623
532.20	3.461
532.54	1.946
532.88	3.123
533.22	4.022
533.57	2.746
533.91	3.089
534.25	3.405
534.59	4.094
534.93	3.299
535.27	2.960
535.62	2.684
535.96	2.719
536.30	3.839
536.64	2.112
536.98	3.335
537.32	3.875
537.66	2.997
538.01	3.220
538.35	3.369
538.69	2.791
539.03	2.612
539.37	3.155
539.71	2.963
540.05	1.969
540.39	3.019
540.73	3.671
541.07	2.196
541.42	3.358
541.76	3.268
542.10	3.206
542.44	2.494
542.78	2.895
543.12	2.638
543.46	3.383
543.80	3.383
544.14	3.096
544.48	3.224
544.82	2.202
545.16	2.247
545.50	3.565
545.84	3.220
546.18	3.706
546.52	3.279
546.86	4.062
547.20	3.359
547.54	2.977
547.88	2.920
548.22	2.429
548.56	3.830
548.90	3.321
549.24	3.474
549.58	2.964
549.92	3.798
550.26	3.110
550.60	3.526
550.94	2.849
551.28	4.069
551.62	3.586
551.96	2.703
552.30	2.703
552.64	4.466
552.98	2.320
553.32	2.817
553.66	3.388
554.00	2.317
554.34	3.395
554.68	3.965
555.02	3.191
555.36	3.324
555.69	3.010
556.03	3.758
556.37	2.741
556.71	3.716
557.05	2.228
557.39	3.000
557.73	3.571
558.07	3.823
558.41	3.427
558.75	3.830
559.08	3.145
559.42	3.794
559.76	3.564
560.10	2.891
560.44	3.384
560.78	3.389
561.12	3.115
561.45	3.066
561.79	2.996
562.13	2.653
562.47	2.271
562.81	2.928
563.15	3.943
563.48	3.106
563.82	3.306
564.16	3.047
564.50	3.436
564.84	2.857
565.17	3.327
565.51	3.202
565.85	3.331
566.19	2.560
566.52	2.888
566.86	3.678
567.20	3.427
567.54	2.675
567.88	2.660
568.21	2.646
568.55	3.453
568.89	2.920
569.23	2.675
569.56	2.676
569.90	2.515
570.24	2.624
570.57	2.920
570.91	2.090
571.25	2.402
571.59	2.312
571.92	2.503
572.26	1.941
572.60	2.083
572.93	2.415
573.27	2.183
573.61	2.084
573.95	2.241
574.28	2.521
574.62	2.329
574.96	1.921
575.29	2.128
575.63	2.214
575.97	1.996
576.30	2.303
576.64	2.189
576.98	2.043
577.31	2.172
577.65	2.582
577.98	2.001
578.32	2.046
578.66	1.925
578.99	2.287
579.33	2.120
579.67	2.169
580.00	2.018
580.34	2.146
580.67	2.282
581.01	2.458
581.35	2.008
581.68	1.917
582.02	1.967
582.35	1.891
582.69	2.211
583.02	2.004
583.36	2.151
583.70	2.536
584.03	2.461
584.37	2.246
584.70	2.389
585.04	2.022
585.37	1.961
585.71	2.427
586.04	2.080
586.38	2.226
586.72	2.136
587.05	2.625
587.39	2.149
587.72	2.147
588.06	2.235
588.39	1.970
588.73	2.234
589.06	2.364
589.40	2.410
589.73	2.163
590.07	2.711
590.40	2.683
590.73	2.864
591.07	2.808
591.40	2.555
591.74	2.719
592.07	2.413
592.41	2.478
592.74	2.270
593.08	2.181
593.41	2.124
593.75	2.225
594.08	2.341
594.41	2.313
594.75	2.671
595.08	2.366
595.42	2.699
595.75	2.270
596.09	2.815
596.42	2.258
596.75	2.885
597.09	2.683
597.42	2.449
597.75	2.475
598.09	2.503
598.42	2.897
598.76	2.506
599.09	2.795
599.42	2.353
599.76	3.155
600.09	2.712
600.42	2.590
600.76	2.447
601.09	2.002
601.42	2.464
601.76	2.363
602.09	2.244
602.42	2.329
602.76	2.581
603.09	2.262
603.42	2.862
603.76	2.386
604.09	2.570
604.42	2.486
604.76	2.766
605.09	2.612
605.42	2.601
605.75	2.645
606.09	2.869
606.42	2.555
606.75	2.565
607.09	2.606
607.42	2.411
607.75	2.667
608.08	2.640
608.42	2.601
608.75	2.182
609.08	2.288
609.41	3.182
609.75	3.297
610.08	2.923
610.41	2.503
610.74	2.554
611.07	2.683
611.41	2.410
611.74	3.059
612.07	2.938
612.40	2.193
612.73	2.097
613.07	2.129
613.40	2.707
613.73	2.646
614.06	2.350
614.39	2.980
614.72	3.014
615.06	2.967
615.39	2.921
615.72	2.565
616.05	2.913
616.38	2.943
616.71	2.333
617.05	2.801
617.38	3.090
617.71	3.206
618.04	2.973
618.37	2.501
618.70	2.252
619.03	3.175
619.36	3.769
619.69	2.770
620.03	3.457
620.36	3.340
620.69	3.576
621.02	3.193
621.35	2.364
621.68	2.802
622.01	3.690
622.34	2.986
622.67	2.879
623.00	4.357
623.33	3.576
623.66	3.194
623.99	2.945
624.32	3.184
624.65	3.489
624.99	3.110
625.32	3.674
625.65	2.759
625.98	3.487
626.31	2.819
626.64	3.569
626.97	3.213
627.30	2.873
627.63	3.061
627.96	2.817
628.29	2.145
628.62	3.507
628.95	3.989
629.28	3.681
629.61	2.373
629.94	3.371
630.26	4.419
630.59	5.053
630.92	3.498
631.25	4.170
631.58	4.436
631.91	3.520
632.24	2.818
632.57	2.259
632.90	3.830
633.23	4.302
633.56	4.004
633.89	4.609
634.22	4.629
634.55	2.796
634.88	5.476
635.20	4.709
635.53	4.646
635.86	5.593
636.19	3.479
636.52	2.811
636.85	3.776
637.18	4.767
637.51	3.240
637.83	3.432
638.16	5.393
638.49	3.832
638.82	4.812
639.15	3.643
639.48	4.739
639.81	3.663
640.13	4.540
640.46	3.793
640.79	3.251
641.12	2.756
641.45	5.175
641.77	5.680
642.10	5.087
642.43	3.556
642.76	3.835
643.09	4.467
643.41	5.189
643.74	5.180
644.07	4.572
644.40	3.994
644.73	4.655
645.05	5.646
645.38	4.900
645.71	4.401
646.04	6.260
646.36	3.912
646.69	5.280
647.02	5.280
647.35	5.354
647.67	5.186
648.00	5.537
648.33	6.015
648.66	4.848
648.98	4.058
649.31	4.184
649.64	3.596
649.96	2.703
650.29	4.714
650.62	5.891
650.94	7.530
651.27	5.901
651.60	6.573
651.92	6.144
652.25	4.409
652.58	5.674
652.90	5.539
653.23	4.874
653.56	5.786
653.88	4.993
654.21	5.132
654.54	4.978
654.86	5.310
655.19	5.673
655.52	3.407
655.84	1.842
656.17	1.952
656.49	2.554
656.82	2.860
657.15	2.392
657.47	1.824
657.80	1.290
658.13	1.060
658.45	1.663
658.78	2.257
659.10	1.835
659.43	2.398
659.75	2.892
660.08	2.632
660.41	4.628
660.73	4.768
661.06	5.706
661.38	6.644
661.71	5.576
662.03	4.943
662.36	7.238
662.68	5.587
663.01	10.090
663.33	5.660
663.66	6.706
663.98	6.746
664.31	7.463
664.63	10.153
664.96	8.255
665.28	6.215
665.61	4.340
665.93	5.472
666.26	4.860
666.58	7.156
666.91	6.757
667.23	5.221
667.56	8.008
667.88	6.017
668.21	7.992
668.53	5.847
668.86	7.816
669.18	6.110
669.50	5.579
669.83	7.392
670.15	7.692
670.48	5.273
670.80	5.976
671.13	5.378
671.45	7.415
671.77	9.091
672.10	5.566
672.42	6.250
672.75	4.747
673.07	6.041
673.39	4.633
673.72	6.055
674.04	5.556
674.37	4.537
674.69	4.647
675.01	6.530
675.34	6.977
675.66	6.836
675.98	5.523
676.31	6.400
676.63	3.579
676.95	7.738
677.28	6.897
677.60	6.640
677.92	7.341
678.25	6.008
678.57	6.518
678.89	8.318
679.22	5.882
679.54	5.338
679.86	6.632
680.18	5.097
680.51	4.975
680.83	5.574
681.15	5.546
681.48	6.597
681.80	6.655
682.12	5.709
682.44	3.964
682.77	6.584
683.09	5.243
683.41	7.755
683.73	9.252
684.06	5.556
684.38	7.364
684.70	6.835
685.02	3.993
685.34	4.577
685.67	5.145
685.99	4.105
686.31	5.393
686.63	5.041
686.96	7.516
687.28	5.201
687.60	5.119
687.92	6.365
688.24	7.931
688.56	7.117
688.89	6.119
689.21	6.358
689.53	7.510
689.85	6.301
690.17	5.631
690.49	5.242
690.82	5.462
691.14	7.677
691.46	8.214
691.78	6.823
692.10	6.679
692.42	4.900
692.74	8.915
693.06	7.752
693.39	5.534
693.71	6.680
694.03	6.114
694.35	8.233
694.67	8.147
694.99	5.543
695.31	8.784
695.63	6.561
695.95	7.240
696.27	8.407
696.59	7.876
696.91	5.823
697.23	5.430
697.56	5.187
697.88	5.589
698.20	5.849
698.52	4.864
698.84	5.339
699.16	8.316
699.48	6.356
699.80	7.843
700.12	9.700
700.44	9.346
700.76	7.637
701.08	9.399
701.40	5.714
701.72	12.834
702.04	9.485
702.36	8.871
702.68	10.638
703.00	8.020
703.32	11.414
703.64	9.320
703.96	7.812
704.28	10.053
704.60	7.606
704.91	8.403
705.23	6.534
705.55	10.682
705.87	8.889
706.19	5.956
706.51	14.420
706.83	7.965
707.15	8.824
707.47	10.169
707.79	8.736
708.11	5.896
708.43	7.865
708.74	6.335
709.06	6.977
709.38	7.444
709.70	7.357
710.02	8.152
710.34	11.878
710.66	8.889
710.98	10.656
711.29	8.078
711.61	10.864
711.93	11.550
712.25	6.627
712.57	6.752
712.89	10.909
713.20	9.585
713.52	8.411
713.84	9.366
714.16	7.246
714.48	6.340
714.80	10.027
715.11	7.979
715.43	7.542
715.75	6.761
716.07	10.116
716.39	8.857
716.70	6.854
717.02	10.101
717.34	8.993
717.66	9.722
717.97	16.288
718.29	11.268
718.61	4.392
718.93	10.035
719.24	11.745
719.56	6.207
719.88	7.006
720.20	9.355
720.51	9.477
720.83	12.375
721.15	13.605
721.46	10.959
721.78	8.014
722.10	9.028
722.42	11.706
722.73	11.552
723.05	11.579
723.37	13.074
723.68	10.547
724.00	9.470
724.32	11.787
724.63	8.846
724.95	13.333
725.27	11.896
725.58	12.132
725.90	8.099
726.22	9.932
726.53	6.355
726.85	9.446
727.16	13.758
727.48	11.296
727.80	9.353
728.11	11.786
728.43	11.232
728.74	11.538
729.06	5.735
729.38	12.632
729.69	15.000
730.01	15.461
730.32	11.409
730.64	11.296
730.96	10.511
731.27	5.199
731.59	8.621
731.90	8.914
732.22	9.429
732.53	7.692
732.85	11.111
733.16	6.928
733.48	7.524
733.80	11.304
734.11	11.656
734.43	9.064
734.74	8.847
735.06	10.847
735.37	9.278
735.69	5.507
736.00	10.092
736.32	10.606
736.63	6.309
736.95	9.006
737.26	12.195
737.58	6.135
737.89	10.241
738.21	7.285
738.52	8.027
738.83	13.553
739.15	12.892
739.46	7.586
739.78	6.122
740.09	13.994
740.41	11.656
740.72	14.286
741.04	14.336
741.35	12.500
741.66	11.462
741.98	17.597
742.29	15.741
742.61	11.504
742.92	11.441
743.23	10.400
743.55	12.453
743.86	11.373
744.18	13.559
744.49	13.636
744.80	13.825
745.12	11.161
745.43	14.953
745.74	14.667
746.06	9.211
746.37	9.302
746.68	15.487
747.00	11.659
747.31	11.345
747.62	12.705
747.94	15.021
748.25	12.062
748.56	16.949
748.88	11.607
749.19	13.023
749.50	12.785
749.82	13.580
750.13	7.905
750.44	8.000
750.75	7.718
751.07	11.513
751.38	9.901
751.69	8.754
752.01	10.140
752.32	9.302
752.63	8.054
752.94	12.587
753.26	12.891
753.57	14.397
753.88	10.487
754.19	11.913
754.51	12.957
754.82	10.738
755.13	10.811
755.44	8.148
755.75	16.151
756.07	11.644
756.38	6.863
756.69	13.438
757.00	11.573
757.31	10.141
757.63	8.815
757.94	5.585
758.25	9.420
758.56	7.551
758.87	9.774
759.18	10.756
759.50	8.815
759.81	13.650
760.12	12.921
760.43	8.123
760.74	8.354
761.05	8.753
761.36	5.469
761.67	8.356
761.99	11.268
762.30	9.646
762.61	9.722
762.92	12.500
763.23	13.585
763.54	10.385
763.85	8.171
764.16	11.111
764.47	12.162
764.78	6.189
765.10	8.537
765.41	6.534
765.72	4.972
766.03	9.366
766.34	10.801
766.65	12.167
766.96	12.955
767.27	8.411
767.58	15.842
767.89	19.337
768.20	18.293
768.51	9.694
768.82	13.596
769.13	11.765
769.44	12.030
769.75	10.487
770.06	13.025
770.37	10.088
770.68	12.000
770.99	16.525
771.30	11.297
771.61	14.615
771.92	12.214
772.23	12.903
772.54	15.556
772.85	19.802
773.16	10.870
773.47	13.333
773.78	20.792
774.09	16.477
774.39	17.576
774.70	18.824
775.01	9.211
775.32	14.907
775.63	15.753
775.94	28.395
776.25	19.310
776.56	24.427
776.87	24.427
777.18	12.879
777.48	30.709
777.79	18.462
778.10	21.970
778.41	23.881
778.72	19.549
779.03	17.949
779.34	16.892
779.65	18.634
779.95	16.770
780.26	18.452
780.57	24.490
780.88	21.277
781.19	16.667
781.50	20.118
781.80	23.497
782.11	17.460
782.42	15.517
782.73	22.034
783.04	18.065
783.34	16.279
783.65	18.367
783.96	19.355
784.27	13.907
784.57	12.500
784.88	17.391
785.19	26.667
785.50	24.138
785.81	25.581
786.11	23.704
786.42	33.071
786.73	22.523
787.04	23.585
787.34	21.951
787.65	26.515
787.96	28.788
788.26	25.984
788.57	24.818
788.88	21.127
789.19	18.321
789.49	22.297
789.80	28.125
790.11	23.140
790.41	22.222
790.72	41.667
791.03	31.731
791.33	34.343
791.64	36.842
791.95	31.579
792.25	25.000
792.56	32.000
792.87	26.829
793.17	35.227
793.48	37.647
793.79	20.690
794.09	27.273
794.40	29.310
794.70	17.460
795.01	12.308
795.32	18.321
795.62	17.949
795.93	26.891
796.23	31.707
796.54	24.490
796.85	29.545
797.15	37.662
797.46	41.463
797.76	32.500
798.07	41.333
798.37	33.750
798.68	45.000
798.99	47.561
799.29	36.000
799.60	13.953
799.90	34.211
800.21	45.455
800.51	39.437
800.82	29.310
801.12	55.385
801.43	57.333
801.73	43.103
802.04	41.558
802.34	41.096
802.65	52.941
802.95	32.609
803.26	58.065
803.56	48.333
803.87	40.299
804.17	58.730
804.48	33.962
804.78	34.722
805.09	57.576
805.39	41.270
805.70	56.140
806.00	25.714
806.30	40.625
806.61	38.824
806.91	40.000
807.22	23.913
807.52	23.684
807.83	56.579
808.13	42.029
808.43	27.419
808.74	39.726
809.04	33.929
809.35	47.059
809.65	33.333
809.95	56.863
810.26	57.407
810.56	64.063
810.86	44.898
811.17	43.860
811.47	58.696
811.77	25.862
812.08	55.172
812.38	69.048
812.69	57.143
812.99	60.000
813.29	40.000
813.59	93.548
813.90	43.103
814.20	54.098
814.50	46.000
814.81	47.368
815.11	57.407
815.41	60.714
815.72	55.357
816.02	60.000
816.32	58.537
816.62	72.414
816.93	87.879
817.23	80.488
817.53	60.714
817.84	62.222
818.14	64.286
818.44	72.917
818.74	69.811
819.04	66.667
819.35	81.818
819.65	80.769
819.95	94.444
820.25	59.574
820.56	105.405
820.86	107.895
821.16	65.957
821.46	63.158
821.76	63.636
822.07	30.952
822.37	68.421
822.67	88.372
822.97	42.105
823.27	71.739
823.57	71.875
823.88	87.179
824.18	90.909
824.48	91.304
824.78	77.778
825.08	91.304
825.38	93.103
825.69	67.647
825.99	61.702
826.29	63.889
826.59	71.429
826.89	86.667
827.19	42.857
827.49	103.226
827.79	107.692
828.09	57.143
828.39	63.889
828.70	62.162
829.00	96.429
829.30	131.250
829.60	55.556
829.90	96.774
830.20	48.485
830.50	51.351
830.80	141.667
831.10	134.615
831.40	90.476
831.70	125.000
832.00	120.000
832.30	86.957
832.60	129.167
832.90	106.061
833.20	150.000
833.50	94.737
833.80	67.647
834.10	76.316
834.40	105.263
834.70	80.000
835.00	136.000
835.30	48.649
835.60	103.125
835.90	89.189
836.20	76.923
836.50	59.091
836.80	68.293
837.10	121.739
837.40	215.385
837.70	94.737
838.00	113.333
838.30	120.833
838.60	148.000
838.90	220.000
839.19	143.750
839.49	133.333
839.79	100.000
840.09	107.692
840.39	160.000
840.69	136.842
840.99	133.333
841.29	126.087
841.59	95.000
841.88	164.000
842.18	177.778
842.48	117.857
842.78	140.741
843.08	153.846
843.38	163.636
843.68	135.714
843.97	328.571
844.27	130.435
844.57	1500.000
844.87	235.714
845.17	161.111
845.47	100.000
845.76	150.000
846.06	428.571
846.36	111.765
846.66	146.154
846.96	218.750
847.25	146.154
847.55	168.421
847.85	122.222
848.15	560.000
848.44	154.545
848.74	123.810
849.04	175.000
849.34	105.882
849.63	193.750
849.93	237.500
850.23	633.333
850.53	375.000
850.82	136.364
851.12	129.412
851.42	183.333
851.71	200.000
852.01	0.000
852.31	152.941
852.61	250.000
852.90	133.333
853.20	288.889
853.50	-1300.000
853.79	96.000
854.09	96.875
854.39	82.759
854.68	117.241
854.98	133.333
855.28	100.000
855.57	221.429
855.87	116.667
856.17	107.407
856.46	157.895
856.76	109.677
857.05	170.588
857.35	172.727
857.65	238.462
857.94	130.000
858.24	300.000
858.53	235.714
858.83	557.143
859.13	139.130
859.42	166.667
859.72	262.500
860.01	208.333
860.31	600.000
860.60	200.000
860.90	237.500
861.20	200.000
861.49	385.714
861.79	-1800.000
862.08	357.143
862.38	277.778
862.67	128.571
862.97	290.000
863.26	150.000
863.56	500.000
863.85	192.308
864.15	211.765
864.44	161.111
864.74	225.000
865.03	245.455
865.33	362.500
865.62	186.667
865.92	400.000
866.21	400.000
866.51	440.000
866.80	188.889
867.10	466.667
867.39	2000.000
867.69	440.000
867.98	625.000
868.27	161.905
868.57	260.000
868.86	700.000
869.16	142.857
869.45	2200.000
869.75	-500.000
870.04	900.000
870.33	580.000
870.63	350.000
870.92	164.706
871.22	675.000
871.51	328.571
871.80	241.667
872.10	176.923
>>>>>End Processed Spectral Data<<<<<
