SpectraSuite Data File
++++++++++++++++++++++++++++++++++++
Date: Tue May 12 16:47:33 PDT 2015
User: schluterlab
Dark Spectrum Present: Yes
Reference Spectrum Present: Yes
Number of Sampled Component Spectra: 1
Spectrometers: USB2E3373
Integration Time (usec): 3000 (USB2E3373)
Spectra Averaged: 3 (USB2E3373)
Boxcar Smoothing: 0 (USB2E3373)
Correct for Electrical Dark: No (USB2E3373)
Strobe/Lamp Enabled: No (USB2E3373)
Correct for Detector Non-linearity: No (USB2E3373)
Correct for Stray Light: No (USB2E3373)
Number of Pixels in Processed Spectrum: 2048
>>>>>Begin Processed Spectral Data<<<<<
178.53	0.000
178.91	-133.333
179.29	-825.000
179.67	-3200.000
180.04	-100.000
180.42	675.000
180.80	1450.000
181.18	0.000
181.56	-350.000
181.94	0.000
182.31	1133.333
182.69	-2800.000
183.07	457.143
183.45	-3900.000
183.83	-1550.000
184.20	460.000
184.58	514.286
184.96	-300.000
185.34	-166.667
185.72	1600.000
186.09	-675.000
186.47	-3300.000
186.85	666.667
187.23	640.000
187.61	1900.000
187.98	500.000
188.36	292.857
188.74	366.667
189.12	341.667
189.49	1025.000
189.87	0.000
190.25	512.500
190.63	2600.000
191.00	-200.000
191.38	-3500.000
191.76	-900.000
192.14	462.500
192.51	-2900.000
192.89	1450.000
193.27	1100.000
193.65	-833.333
194.02	-700.000
194.40	557.143
194.78	-214.286
195.15	320.000
195.53	-3700.000
195.91	-400.000
196.29	3900.000
196.66	306.250
197.04	975.000
197.42	-1250.000
197.79	550.000
198.17	333.333
198.55	0.000
198.92	585.714
199.30	1366.667
199.68	2150.000
200.05	633.333
200.43	-500.000
200.81	211.111
201.18	3100.000
201.56	308.333
201.94	-1050.000
202.31	-300.000
202.69	-620.000
203.07	3000.000
203.44	-550.000
203.82	325.000
204.19	860.000
204.57	-850.000
204.95	-650.000
205.32	-660.000
205.70	466.667
206.08	650.000
206.45	-1000.000
206.83	344.444
207.20	178.947
207.58	283.333
207.96	540.000
208.33	0.000
208.71	542.857
209.08	620.000
209.46	-2200.000
209.84	-875.000
210.21	920.000
210.59	-660.000
210.96	316.667
211.34	-750.000
211.71	390.909
212.09	750.000
212.46	1900.000
212.84	-233.333
213.22	266.667
213.59	-2300.000
213.97	370.000
214.34	875.000
214.72	966.667
215.09	833.333
215.47	-3500.000
215.84	-250.000
216.22	-512.500
216.59	0.000
216.97	0.000
217.34	1150.000
217.72	-950.000
218.09	1166.667
218.47	437.500
218.84	675.000
219.22	1066.667
219.59	1133.333
219.97	628.571
220.34	522.222
220.72	1750.000
221.09	3600.000
221.47	241.667
221.84	966.667
222.22	210.000
222.59	266.667
222.97	264.286
223.34	250.000
223.72	-1650.000
224.09	1200.000
224.46	284.615
224.84	-900.000
225.21	344.444
225.59	273.333
225.96	1133.333
226.34	-680.000
226.71	-575.000
227.08	-700.000
227.46	0.000
227.83	-450.000
228.21	-1400.000
228.58	383.333
228.95	1025.000
229.33	333.333
229.70	1075.000
230.08	276.923
230.45	2600.000
230.82	-975.000
231.20	-466.667
231.57	-1100.000
231.95	620.000
232.32	208.333
232.69	550.000
233.07	208.333
233.44	-1450.000
233.81	240.000
234.19	144.444
234.56	212.500
234.93	147.059
235.31	160.000
235.68	162.500
236.05	178.571
236.43	129.630
236.80	214.286
237.17	120.690
237.55	109.375
237.92	112.500
238.29	130.303
238.67	162.500
239.04	104.878
239.41	66.667
239.79	100.000
240.16	66.667
240.53	68.852
240.91	73.913
241.28	64.407
241.65	63.636
242.02	76.056
242.40	65.714
242.77	62.637
243.14	58.228
243.51	51.515
243.89	49.533
244.26	40.187
244.63	50.495
245.00	44.037
245.38	33.898
245.75	39.394
246.12	41.481
246.49	36.170
246.87	44.262
247.24	42.667
247.61	39.375
247.98	43.537
248.36	30.909
248.73	38.776
249.10	35.119
249.47	38.500
249.84	33.831
250.22	33.514
250.59	35.000
250.96	35.021
251.33	34.884
251.70	29.464
252.08	28.151
252.45	28.287
252.82	27.376
253.19	28.063
253.56	25.000
253.94	29.348
254.31	29.457
254.68	29.617
255.05	30.690
255.42	28.467
255.79	28.664
256.16	29.831
256.54	29.545
256.91	28.431
257.28	26.087
257.65	23.824
258.02	26.254
258.39	27.221
258.76	30.725
259.14	24.000
259.51	24.781
259.88	29.483
260.25	25.000
260.62	27.123
260.99	22.590
261.36	25.348
261.73	24.202
262.10	26.963
262.47	25.500
262.85	23.200
263.22	28.278
263.59	24.041
263.96	24.561
264.33	21.728
264.70	27.027
265.07	26.585
265.44	25.688
265.81	24.528
266.18	26.545
266.55	23.404
266.92	23.490
267.29	22.368
267.66	24.215
268.03	23.991
268.40	23.256
268.77	22.247
269.14	22.777
269.51	20.267
269.88	22.041
270.25	21.382
270.62	23.391
270.99	24.746
271.36	23.171
271.73	20.964
272.10	24.646
272.47	23.413
272.84	22.355
273.21	22.727
273.58	21.660
273.95	23.203
274.32	22.374
274.69	25.197
275.06	24.408
275.43	20.881
275.80	21.132
276.17	24.816
276.54	22.430
276.91	22.015
277.28	22.263
277.65	21.033
278.02	22.610
278.39	22.662
278.76	21.724
279.13	20.819
279.50	21.455
279.87	21.788
280.23	21.179
280.60	23.175
280.97	22.241
281.34	19.802
281.71	21.913
282.08	21.368
282.45	20.439
282.82	20.736
283.19	19.237
283.56	19.835
283.92	21.498
284.29	21.797
284.66	20.840
285.03	20.232
285.40	19.504
285.77	18.364
286.14	20.743
286.51	20.092
286.87	18.513
287.24	19.670
287.61	17.933
287.98	17.463
288.35	18.370
288.72	20.334
289.08	19.069
289.45	18.750
289.82	17.344
290.19	17.423
290.56	20.087
290.93	19.137
291.29	17.127
291.66	17.373
292.03	18.233
292.40	18.157
292.77	17.131
293.13	17.261
293.50	16.734
293.87	15.583
294.24	18.042
294.60	17.631
294.97	18.462
295.34	17.397
295.71	16.426
296.08	16.933
296.44	17.281
296.81	16.377
297.18	14.702
297.55	15.764
297.91	16.502
298.28	16.787
298.65	16.196
299.02	16.164
299.38	15.947
299.75	14.390
300.12	15.826
300.48	16.393
300.85	16.329
301.22	15.349
301.59	14.033
301.95	15.286
302.32	14.203
302.69	15.045
303.05	15.488
303.42	14.910
303.79	15.926
304.15	14.741
304.52	15.645
304.89	14.819
305.25	15.017
305.62	15.245
305.99	14.239
306.35	14.526
306.72	14.776
307.09	15.114
307.45	13.833
307.82	15.123
308.19	14.536
308.55	13.800
308.92	13.739
309.29	15.286
309.65	13.380
310.02	15.213
310.38	14.058
310.75	13.790
311.12	13.697
311.48	15.251
311.85	15.363
312.22	15.091
312.58	13.800
312.95	14.175
313.31	13.951
313.68	14.822
314.05	14.927
314.41	13.687
314.78	14.583
315.14	14.123
315.51	14.475
315.87	14.325
316.24	14.566
316.61	15.130
316.97	13.670
317.34	14.106
317.70	14.574
318.07	15.125
318.43	14.499
318.80	14.799
319.16	14.860
319.53	14.336
319.89	13.799
320.26	14.991
320.62	15.476
320.99	14.776
321.35	14.564
321.72	16.319
322.08	15.605
322.45	14.896
322.81	14.547
323.18	14.476
323.54	15.070
323.91	15.413
324.27	15.738
324.64	14.360
325.00	15.172
325.37	14.587
325.73	14.924
326.10	15.079
326.46	14.946
326.83	14.240
327.19	14.618
327.56	14.537
327.92	15.492
328.29	15.630
328.65	15.240
329.01	15.825
329.38	14.129
329.74	13.664
330.11	15.378
330.47	15.431
330.84	14.150
331.20	13.790
331.56	15.199
331.93	14.457
332.29	13.435
332.66	15.561
333.02	15.034
333.38	14.485
333.75	14.762
334.11	14.346
334.48	14.701
334.84	15.372
335.20	14.115
335.57	15.281
335.93	14.130
336.29	14.179
336.66	15.094
337.02	14.542
337.38	15.305
337.75	14.274
338.11	14.599
338.47	13.971
338.84	13.633
339.20	14.199
339.56	14.298
339.93	14.465
340.29	13.277
340.65	14.920
341.02	14.883
341.38	15.599
341.74	14.120
342.11	13.356
342.47	13.618
342.83	15.012
343.20	14.875
343.56	13.106
343.92	13.212
344.28	13.477
344.65	15.077
345.01	13.492
345.37	14.343
345.73	13.810
346.10	13.865
346.46	13.477
346.82	12.654
347.19	14.219
347.55	13.817
347.91	13.822
348.27	12.161
348.63	13.608
349.00	14.090
349.36	14.086
349.72	13.991
350.08	14.053
350.45	14.699
350.81	14.220
351.17	11.710
351.53	12.625
351.89	13.209
352.26	13.303
352.62	13.198
352.98	13.804
353.34	13.790
353.70	12.997
354.07	12.846
354.43	13.134
354.79	11.693
355.15	13.553
355.51	12.991
355.87	14.307
356.24	13.087
356.60	13.394
356.96	12.889
357.32	12.735
357.68	13.436
358.04	12.842
358.40	13.643
358.77	14.050
359.13	12.613
359.49	12.009
359.85	13.179
360.21	12.630
360.57	13.577
360.93	13.564
361.29	13.781
361.66	13.497
362.02	12.287
362.38	12.554
362.74	13.163
363.10	13.604
363.46	12.638
363.82	12.623
364.18	12.447
364.54	13.019
364.90	13.722
365.26	14.018
365.62	12.431
365.98	11.975
366.35	12.621
366.71	12.630
367.07	12.628
367.43	13.298
367.79	13.763
368.15	12.008
368.51	12.543
368.87	12.160
369.23	12.682
369.59	12.879
369.95	12.378
370.31	12.799
370.67	12.908
371.03	13.515
371.39	13.089
371.75	13.119
372.11	12.984
372.47	13.151
372.83	12.576
373.19	12.680
373.55	12.715
373.91	12.086
374.27	12.103
374.63	12.746
374.99	13.477
375.35	13.239
375.71	12.797
376.07	12.003
376.42	11.381
376.78	12.974
377.14	11.730
377.50	11.548
377.86	12.684
378.22	11.944
378.58	13.075
378.94	13.036
379.30	12.310
379.66	12.462
380.02	12.786
380.38	11.710
380.74	13.033
381.09	12.500
381.45	11.734
381.81	12.648
382.17	12.271
382.53	12.657
382.89	11.354
383.25	12.256
383.61	12.334
383.97	11.458
384.32	12.779
384.68	13.369
385.04	12.251
385.40	12.456
385.76	12.054
386.12	12.801
386.48	12.340
386.83	12.042
387.19	11.896
387.55	12.544
387.91	12.702
388.27	12.255
388.62	12.207
388.98	12.595
389.34	12.314
389.70	12.087
390.06	12.500
390.42	11.659
390.77	11.916
391.13	11.768
391.49	12.160
391.85	13.108
392.20	12.813
392.56	12.246
392.92	11.735
393.28	12.332
393.64	11.525
393.99	12.211
394.35	11.360
394.71	11.460
395.07	12.044
395.42	12.178
395.78	12.523
396.14	12.289
396.50	13.237
396.85	12.073
397.21	11.853
397.57	11.536
397.92	11.496
398.28	11.473
398.64	11.926
399.00	11.919
399.35	11.165
399.71	11.700
400.07	11.929
400.42	11.582
400.78	11.672
401.14	11.744
401.49	11.118
401.85	12.341
402.21	11.599
402.57	11.789
402.92	11.273
403.28	11.158
403.63	11.948
403.99	12.244
404.35	12.544
404.70	12.227
405.06	11.567
405.42	12.089
405.77	11.963
406.13	11.605
406.49	11.086
406.84	11.562
407.20	11.473
407.55	12.246
407.91	12.699
408.27	11.886
408.62	11.709
408.98	10.585
409.34	11.806
409.69	11.388
410.05	11.509
410.40	11.543
410.76	10.933
411.11	11.256
411.47	10.494
411.83	11.365
412.18	11.051
412.54	11.652
412.89	11.504
413.25	12.030
413.60	11.741
413.96	10.952
414.31	11.924
414.67	12.042
415.03	11.558
415.38	11.924
415.74	11.497
416.09	11.805
416.45	11.959
416.80	11.546
417.16	11.267
417.51	11.783
417.87	11.765
418.22	12.151
418.58	11.529
418.93	11.838
419.29	10.967
419.64	11.508
420.00	12.530
420.35	11.324
420.71	11.377
421.06	11.301
421.42	10.766
421.77	11.716
422.12	10.695
422.48	11.094
422.83	11.663
423.19	11.285
423.54	11.355
423.90	11.552
424.25	12.108
424.61	12.246
424.96	11.293
425.31	11.658
425.67	11.279
426.02	11.554
426.38	10.852
426.73	12.319
427.09	12.752
427.44	10.748
427.79	11.378
428.15	11.844
428.50	11.886
428.85	11.817
429.21	10.967
429.56	11.316
429.92	11.139
430.27	10.837
430.62	10.524
430.98	11.627
431.33	10.786
431.68	10.568
432.04	11.381
432.39	11.361
432.74	12.119
433.10	11.462
433.45	11.200
433.80	11.969
434.16	11.613
434.51	11.455
434.86	12.412
435.22	11.291
435.57	10.907
435.92	12.294
436.28	11.866
436.63	11.831
436.98	11.712
437.34	11.587
437.69	10.974
438.04	12.043
438.39	11.617
438.75	11.804
439.10	11.927
439.45	11.984
439.81	12.319
440.16	12.218
440.51	11.486
440.86	12.194
441.22	11.255
441.57	11.864
441.92	11.797
442.27	11.495
442.63	11.382
442.98	11.961
443.33	11.676
443.68	11.519
444.03	11.404
444.39	11.111
444.74	11.335
445.09	11.269
445.44	11.637
445.79	11.550
446.15	11.421
446.50	11.762
446.85	10.906
447.20	11.144
447.55	11.691
447.91	12.840
448.26	11.874
448.61	11.885
448.96	12.200
449.31	11.551
449.66	12.846
450.02	11.507
450.37	11.605
450.72	12.176
451.07	12.391
451.42	11.559
451.77	12.085
452.12	12.252
452.47	12.454
452.83	12.056
453.18	12.132
453.53	11.782
453.88	11.829
454.23	11.912
454.58	11.538
454.93	11.956
455.28	13.035
455.63	11.998
455.98	12.014
456.34	12.644
456.69	11.402
457.04	12.291
457.39	11.543
457.74	12.838
458.09	11.847
458.44	11.774
458.79	12.414
459.14	11.893
459.49	12.288
459.84	12.337
460.19	11.299
460.54	11.966
460.89	12.313
461.24	12.199
461.59	13.152
461.94	12.293
462.29	12.529
462.64	12.186
462.99	11.836
463.34	13.415
463.69	13.249
464.04	13.414
464.39	11.792
464.74	11.899
465.09	12.594
465.44	11.915
465.79	11.922
466.14	11.553
466.49	11.991
466.84	11.594
467.19	13.474
467.54	11.471
467.89	12.148
468.24	11.812
468.59	11.905
468.94	12.198
469.29	12.279
469.64	13.441
469.99	13.625
470.34	12.460
470.68	12.483
471.03	12.542
471.38	12.583
471.73	12.802
472.08	12.981
472.43	13.656
472.78	12.612
473.13	11.890
473.48	12.164
473.83	12.485
474.17	12.036
474.52	12.441
474.87	11.768
475.22	12.107
475.57	11.962
475.92	12.366
476.27	11.425
476.61	11.528
476.96	12.226
477.31	12.905
477.66	12.238
478.01	11.655
478.36	12.101
478.70	11.663
479.05	11.663
479.40	12.103
479.75	11.966
480.10	11.713
480.45	11.251
480.79	12.028
481.14	11.317
481.49	11.162
481.84	11.829
482.19	11.790
482.53	11.858
482.88	11.649
483.23	11.998
483.58	11.715
483.92	12.706
484.27	12.372
484.62	12.733
484.97	12.076
485.31	10.813
485.66	10.648
486.01	10.193
486.36	10.393
486.70	9.896
487.05	10.680
487.40	11.016
487.75	11.281
488.09	11.023
488.44	11.313
488.79	11.316
489.13	11.683
489.48	11.386
489.83	11.426
490.17	11.230
490.52	11.972
490.87	12.155
491.22	11.968
491.56	12.385
491.91	12.052
492.26	11.893
492.60	11.982
492.95	11.781
493.30	11.647
493.64	11.815
493.99	11.628
494.34	12.013
494.68	11.819
495.03	11.944
495.37	12.427
495.72	12.261
496.07	11.680
496.41	12.033
496.76	12.030
497.11	12.511
497.45	11.925
497.80	12.280
498.14	11.373
498.49	11.931
498.84	12.757
499.18	11.517
499.53	12.081
499.87	12.040
500.22	12.114
500.56	12.024
500.91	12.523
501.26	12.173
501.60	12.022
501.95	11.156
502.29	12.089
502.64	12.086
502.98	11.472
503.33	11.759
503.67	12.406
504.02	12.270
504.36	12.217
504.71	12.062
505.06	12.529
505.40	11.792
505.75	12.067
506.09	13.066
506.44	12.406
506.78	12.382
507.13	12.409
507.47	12.033
507.82	12.555
508.16	13.033
508.51	11.643
508.85	12.773
509.19	12.237
509.54	12.939
509.88	12.481
510.23	12.108
510.57	12.017
510.92	12.138
511.26	12.550
511.61	12.408
511.95	12.494
512.30	13.350
512.64	12.513
512.98	12.558
513.33	12.807
513.67	12.843
514.02	12.416
514.36	12.046
514.70	12.373
515.05	12.786
515.39	12.610
515.74	13.013
516.08	12.636
516.42	12.896
516.77	12.693
517.11	12.107
517.46	13.200
517.80	12.343
518.14	12.507
518.49	12.404
518.83	12.143
519.17	13.200
519.52	12.507
519.86	12.643
520.20	13.534
520.55	13.284
520.89	13.046
521.23	12.500
521.58	12.737
521.92	12.478
522.26	12.855
522.61	12.597
522.95	12.853
523.29	13.216
523.64	13.064
523.98	13.204
524.32	12.918
524.66	13.159
525.01	12.959
525.35	13.023
525.69	13.365
526.04	13.563
526.38	13.067
526.72	12.411
527.06	12.596
527.41	13.603
527.75	13.512
528.09	12.944
528.43	13.118
528.78	13.059
529.12	14.028
529.46	12.507
529.80	13.551
530.15	13.553
530.49	12.274
530.83	13.406
531.17	12.854
531.51	12.753
531.86	12.862
532.20	13.041
532.54	13.057
532.88	12.367
533.22	13.224
533.57	13.179
533.91	12.879
534.25	12.810
534.59	13.392
534.93	13.311
535.27	12.521
535.62	12.602
535.96	12.884
536.30	13.041
536.64	12.547
536.98	12.712
537.32	13.750
537.66	12.181
538.01	14.241
538.35	13.288
538.69	12.439
539.03	12.127
539.37	12.197
539.71	12.778
540.05	12.615
540.39	13.396
540.73	12.595
541.07	13.363
541.42	12.065
541.76	12.700
542.10	13.009
542.44	12.531
542.78	13.090
543.12	11.840
543.46	12.594
543.80	12.218
544.14	11.889
544.48	12.895
544.82	13.456
545.16	12.811
545.50	13.030
545.84	13.005
546.18	13.589
546.52	12.787
546.86	13.411
547.20	12.597
547.54	13.680
547.88	13.443
548.22	12.933
548.56	12.846
548.90	13.049
549.24	14.087
549.58	11.985
549.92	12.967
550.26	12.914
550.60	12.109
550.94	13.704
551.28	12.828
551.62	13.241
551.96	13.311
552.30	13.514
552.64	13.333
552.98	12.564
553.32	12.356
553.66	12.313
554.00	12.934
554.34	13.116
554.68	13.508
555.02	12.492
555.36	12.633
555.69	12.827
556.03	12.611
556.37	12.237
556.71	13.625
557.05	12.123
557.39	12.933
557.73	13.208
558.07	14.219
558.41	13.639
558.75	14.501
559.08	12.795
559.42	13.028
559.76	14.398
560.10	12.319
560.44	13.404
560.78	13.555
561.12	12.460
561.45	12.140
561.79	11.860
562.13	11.876
562.47	13.238
562.81	12.752
563.15	12.864
563.48	11.801
563.82	13.974
564.16	12.873
564.50	12.719
564.84	13.131
565.17	12.121
565.51	13.424
565.85	12.832
566.19	13.036
566.52	12.635
566.86	12.318
567.20	12.753
567.54	12.445
567.88	12.572
568.21	11.982
568.55	12.160
568.89	12.089
569.23	11.562
569.56	11.701
569.90	11.498
570.24	11.175
570.57	10.967
570.91	10.827
571.25	10.706
571.59	10.462
571.92	11.060
572.26	10.512
572.60	10.497
572.93	10.753
573.27	11.143
573.61	10.233
573.95	10.657
574.28	10.543
574.62	10.247
574.96	10.081
575.29	10.256
575.63	10.459
575.97	10.175
576.30	10.251
576.64	10.533
576.98	10.448
577.31	10.437
577.65	10.204
577.98	9.987
578.32	9.780
578.66	9.914
578.99	10.489
579.33	10.194
579.67	10.224
580.00	10.342
580.34	10.326
580.67	10.067
581.01	10.599
581.35	10.396
581.68	9.819
582.02	10.020
582.35	9.838
582.69	10.117
583.02	10.250
583.36	10.420
583.70	10.606
584.03	10.639
584.37	10.828
584.70	10.450
585.04	10.255
585.37	10.077
585.71	10.427
586.04	10.219
586.38	10.462
586.72	10.734
587.05	10.757
587.39	10.190
587.72	10.734
588.06	10.380
588.39	10.722
588.73	10.542
589.06	10.592
589.40	10.704
589.73	11.013
590.07	11.290
590.40	11.603
590.73	11.752
591.07	11.613
591.40	11.297
591.74	11.404
592.07	10.899
592.41	10.911
592.74	10.729
593.08	10.645
593.41	10.652
593.75	10.454
594.08	10.872
594.41	11.176
594.75	11.027
595.08	10.940
595.42	11.323
595.75	10.990
596.09	11.505
596.42	11.143
596.75	12.019
597.09	11.308
597.42	10.939
597.75	11.359
598.09	11.120
598.42	11.261
598.76	11.411
599.09	11.438
599.42	11.073
599.76	11.024
600.09	10.644
600.42	11.740
600.76	10.843
601.09	11.115
601.42	11.334
601.76	10.992
602.09	11.221
602.42	10.721
602.76	11.233
603.09	11.727
603.42	11.633
603.76	11.316
604.09	11.111
604.42	10.772
604.76	11.576
605.09	11.633
605.42	11.581
605.75	11.567
606.09	11.324
606.42	11.499
606.75	11.310
607.09	11.094
607.42	10.968
607.75	11.505
608.08	11.170
608.42	11.032
608.75	10.954
609.08	10.779
609.41	12.045
609.75	11.722
610.08	11.691
610.41	11.375
610.74	11.861
611.07	11.369
611.41	11.260
611.74	11.472
612.07	11.705
612.40	11.062
612.73	11.932
613.07	12.620
613.40	11.679
613.73	11.682
614.06	11.000
614.39	12.071
614.72	11.853
615.06	11.672
615.39	11.832
615.72	11.278
616.05	11.401
616.38	12.126
616.71	11.232
617.05	11.752
617.38	11.742
617.71	12.655
618.04	12.002
618.37	12.173
618.70	11.605
619.03	12.271
619.36	12.312
619.69	12.401
620.03	13.307
620.36	13.166
620.69	13.155
621.02	12.772
621.35	12.679
621.68	12.832
622.01	13.653
622.34	12.454
622.67	12.711
623.00	12.526
623.33	13.563
623.66	12.508
623.99	12.877
624.32	12.737
624.65	12.772
624.99	12.441
625.32	12.425
625.65	12.345
625.98	12.413
626.31	13.650
626.64	12.301
626.97	12.777
627.30	13.354
627.63	13.501
627.96	12.050
628.29	12.376
628.62	12.489
628.95	13.475
629.28	15.600
629.61	13.445
629.94	12.965
630.26	14.038
630.59	14.982
630.92	13.632
631.25	14.959
631.58	15.429
631.91	13.035
632.24	13.897
632.57	13.851
632.90	14.803
633.23	14.795
633.56	14.436
633.89	14.898
634.22	15.070
634.55	16.237
634.88	15.005
635.20	14.910
635.53	13.705
635.86	14.206
636.19	15.825
636.52	13.514
636.85	14.132
637.18	14.410
637.51	12.961
637.83	14.645
638.16	15.475
638.49	14.970
638.82	16.667
639.15	13.984
639.48	16.351
639.81	14.530
640.13	15.460
640.46	15.676
640.79	15.865
641.12	15.617
641.45	16.300
641.77	16.116
642.10	16.064
642.43	15.363
642.76	15.625
643.09	14.553
643.41	15.007
643.74	15.540
644.07	17.404
644.40	15.237
644.73	16.667
645.05	16.939
645.38	16.080
645.71	15.630
646.04	18.931
646.36	14.554
646.69	13.920
647.02	16.320
647.35	13.701
647.67	15.559
648.00	15.798
648.33	17.895
648.66	17.273
648.98	13.333
649.31	14.710
649.64	13.278
649.96	14.083
650.29	15.571
650.62	17.968
650.94	16.416
651.27	17.863
651.60	16.432
651.92	17.051
652.25	17.480
652.58	15.745
652.90	17.964
653.23	15.066
653.56	17.062
653.88	14.391
654.21	15.396
654.54	14.641
654.86	14.897
655.19	15.963
655.52	12.181
655.84	8.598
656.17	9.896
656.49	14.129
656.82	16.201
657.15	12.514
657.47	9.544
657.80	7.511
658.13	5.972
658.45	8.317
658.78	10.333
659.10	10.619
659.43	10.666
659.75	11.744
660.08	12.155
660.41	13.249
660.73	15.433
661.06	17.417
661.38	17.888
661.71	16.906
662.03	17.490
662.36	16.571
662.68	18.250
663.01	18.018
663.33	14.717
663.66	16.963
663.98	19.048
664.31	19.216
664.63	16.475
664.96	18.949
665.28	15.254
665.61	15.660
665.93	16.604
666.26	16.262
666.58	19.266
666.91	17.954
667.23	17.269
667.56	18.686
667.88	17.427
668.21	17.623
668.53	16.129
668.86	19.639
669.18	18.534
669.50	17.149
669.83	16.838
670.15	17.672
670.48	15.820
670.80	16.135
671.13	16.534
671.45	18.236
671.77	18.182
672.10	17.056
672.42	16.612
672.75	15.981
673.07	16.534
673.39	17.891
673.72	15.744
674.04	19.355
674.37	17.241
674.69	16.171
675.01	16.791
675.34	15.116
675.66	17.969
675.98	16.568
676.31	17.200
676.63	13.917
676.95	14.087
677.28	17.241
677.60	19.718
677.92	15.079
678.25	19.574
678.57	15.642
678.89	17.360
679.22	18.750
679.54	17.972
679.86	17.627
680.18	15.290
680.51	15.589
680.83	15.709
681.15	15.771
681.48	16.840
681.80	18.039
682.12	16.436
682.44	14.595
682.77	16.192
683.09	19.612
683.41	17.551
683.73	16.929
684.06	16.865
684.38	19.186
684.70	16.727
685.02	13.889
685.34	17.606
685.67	18.650
685.99	15.764
686.31	16.025
686.63	14.634
686.96	17.320
687.28	14.094
687.60	16.724
687.92	17.253
688.24	16.724
688.56	17.082
688.89	16.826
689.21	15.992
689.53	19.170
689.85	14.431
690.17	17.864
690.49	17.339
690.82	16.387
691.14	16.364
691.46	17.248
691.78	18.519
692.10	19.466
692.42	17.423
692.74	16.860
693.06	18.411
693.39	16.403
693.71	18.271
694.03	18.343
694.35	20.884
694.67	17.312
694.99	17.517
695.31	18.243
695.63	18.552
695.95	16.968
696.27	19.690
696.59	17.900
696.91	19.747
697.23	19.457
697.56	15.975
697.88	13.972
698.20	16.226
698.52	14.202
698.84	18.891
699.16	19.616
699.48	18.856
699.80	21.569
700.12	19.861
700.44	17.991
700.76	19.570
701.08	18.799
701.40	17.143
701.72	24.064
702.04	20.325
702.36	21.237
702.68	21.543
703.00	17.043
703.32	20.099
703.64	16.121
703.96	20.312
704.28	19.841
704.60	21.127
704.91	17.087
705.23	20.170
705.55	18.991
705.87	19.365
706.19	26.019
706.51	24.765
706.83	20.059
707.15	20.856
707.47	14.528
707.79	20.460
708.11	14.512
708.43	17.303
708.74	17.647
709.06	19.767
709.38	19.603
709.70	19.074
710.02	17.935
710.34	19.890
710.66	22.500
710.98	21.585
711.29	17.827
711.61	24.234
711.93	19.757
712.25	16.867
712.57	24.437
712.89	21.515
713.20	21.725
713.52	23.053
713.84	22.659
714.16	17.971
714.48	15.562
714.80	23.035
715.11	18.085
715.43	20.391
715.75	20.000
716.07	18.497
716.39	21.143
716.70	20.561
717.02	21.549
717.34	22.662
717.66	24.306
717.97	25.758
718.29	25.704
718.61	19.932
718.93	22.491
719.24	23.154
719.56	21.379
719.88	19.108
720.20	24.516
720.51	20.588
720.83	23.746
721.15	22.449
721.46	24.315
721.78	22.300
722.10	23.611
722.42	25.753
722.73	22.383
723.05	23.509
723.37	25.442
723.68	17.969
724.00	28.030
724.32	23.954
724.63	24.615
724.95	25.882
725.27	23.048
725.58	25.735
725.90	17.254
726.22	18.836
726.53	21.739
726.85	26.059
727.16	27.181
727.48	21.262
727.80	22.302
728.11	22.857
728.43	21.014
728.74	21.329
729.06	17.563
729.38	23.509
729.69	26.000
730.01	21.053
730.32	22.483
730.64	22.591
730.96	19.820
731.27	14.679
731.59	16.667
731.90	20.613
732.22	18.571
732.53	19.658
732.85	21.345
733.16	19.880
733.48	23.197
733.80	22.609
734.11	27.607
734.43	18.129
734.74	21.180
735.06	23.280
735.37	17.526
735.69	18.261
736.00	21.101
736.32	19.697
736.63	18.612
736.95	18.012
737.26	24.695
737.58	19.632
737.89	21.084
738.21	21.523
738.52	23.746
738.83	21.978
739.15	20.906
739.46	24.138
739.78	20.408
740.09	25.364
740.41	21.472
740.72	23.810
741.04	26.923
741.35	26.172
741.66	23.715
741.98	20.601
742.29	28.704
742.61	24.336
742.92	22.458
743.23	27.200
743.55	18.491
743.86	22.745
744.18	22.458
744.49	24.793
744.80	29.032
745.12	25.446
745.43	26.168
745.74	28.000
746.06	23.684
746.37	23.256
746.68	29.646
747.00	21.076
747.31	23.529
747.62	22.951
747.94	25.751
748.25	21.401
748.56	25.847
748.88	23.661
749.19	24.651
749.50	21.005
749.82	21.399
750.13	18.182
750.44	18.667
750.75	21.141
751.07	22.039
751.38	20.462
751.69	20.202
752.01	22.727
752.32	21.595
752.63	21.477
752.94	22.028
753.26	21.484
753.57	24.514
753.88	23.596
754.19	22.022
754.51	20.266
754.82	19.128
755.13	22.297
755.44	21.852
755.75	23.711
756.07	26.712
756.38	20.588
756.69	19.688
757.00	22.849
757.31	22.254
757.63	21.763
757.94	17.819
758.25	20.290
758.56	20.137
758.87	20.551
759.18	21.512
759.50	19.149
759.81	22.255
760.12	21.910
760.43	14.846
760.74	20.506
761.05	19.894
761.36	19.271
761.67	17.520
761.99	21.972
762.30	20.257
762.61	17.708
762.92	23.864
763.23	24.528
763.54	26.923
763.85	21.790
764.16	22.569
764.47	21.959
764.78	21.824
765.10	21.646
765.41	20.170
765.72	18.785
766.03	20.846
766.34	18.815
766.65	20.532
766.96	24.696
767.27	30.374
767.58	23.762
767.89	29.282
768.20	34.146
768.51	23.980
768.82	29.386
769.13	20.000
769.44	24.060
769.75	21.348
770.06	23.109
770.37	28.509
770.68	18.222
770.99	27.966
771.30	26.360
771.61	24.615
771.92	21.374
772.23	24.194
772.54	30.222
772.85	28.218
773.16	25.543
773.47	21.111
773.78	29.703
774.09	30.114
774.39	32.727
774.70	24.706
775.01	25.658
775.32	32.919
775.63	32.877
775.94	37.654
776.25	38.621
776.56	31.298
776.87	33.588
777.18	38.636
777.48	49.606
777.79	36.923
778.10	34.091
778.41	39.552
778.72	24.812
779.03	24.359
779.34	29.730
779.65	31.056
779.95	35.404
780.26	30.357
780.57	37.415
780.88	34.752
781.19	34.167
781.50	34.911
781.80	36.066
782.11	30.688
782.42	28.161
782.73	29.379
783.04	24.516
783.34	25.581
783.65	28.571
783.96	30.323
784.27	35.099
784.57	28.289
784.88	36.232
785.19	33.333
785.50	39.655
785.81	38.760
786.11	37.778
786.42	30.709
786.73	47.748
787.04	40.566
787.34	30.081
787.65	43.182
787.96	31.818
788.26	37.795
788.57	45.985
788.88	29.577
789.19	32.824
789.49	33.784
789.80	33.594
790.11	43.802
790.41	35.185
790.72	38.889
791.03	53.846
791.33	49.495
791.64	44.211
791.95	46.316
792.25	38.542
792.56	41.000
792.87	42.683
793.17	47.727
793.48	41.176
793.79	42.529
794.09	46.591
794.40	43.103
794.70	48.413
795.01	30.000
795.32	35.878
795.62	33.333
795.93	41.176
796.23	33.333
796.54	41.837
796.85	40.909
797.15	48.052
797.46	65.854
797.76	42.500
798.07	48.000
798.37	72.500
798.68	66.250
798.99	50.000
799.29	60.000
799.60	38.372
799.90	50.000
800.21	46.970
800.51	69.014
800.82	50.000
801.12	64.615
801.43	69.333
801.73	53.448
802.04	53.247
802.34	47.945
802.65	45.098
802.95	56.522
803.26	74.194
803.56	73.333
803.87	59.701
804.17	52.381
804.48	58.491
804.78	48.611
805.09	62.121
805.39	60.317
805.70	63.158
806.00	61.429
806.30	64.062
806.61	48.235
806.91	52.222
807.22	45.652
807.52	51.316
807.83	60.526
808.13	47.826
808.43	58.065
808.74	64.384
809.04	71.429
809.35	58.824
809.65	54.545
809.95	70.588
810.26	68.519
810.56	84.375
810.86	67.347
811.17	68.421
811.47	67.391
811.77	56.897
812.08	65.517
812.38	66.667
812.69	61.905
812.99	68.889
813.29	108.571
813.59	106.452
813.90	77.586
814.20	72.131
814.50	64.000
814.81	70.175
815.11	90.741
815.41	82.143
815.72	85.714
816.02	122.000
816.32	100.000
816.62	98.276
816.93	93.939
817.23	80.488
817.53	91.071
817.84	66.667
818.14	73.810
818.44	81.250
818.74	92.453
819.04	79.487
819.35	106.061
819.65	103.846
819.95	90.741
820.25	80.851
820.56	81.081
820.86	102.632
821.16	68.085
821.46	76.316
821.76	72.727
822.07	64.286
822.37	86.842
822.67	81.395
822.97	73.684
823.27	126.087
823.57	90.625
823.88	92.308
824.18	115.152
824.48	108.696
824.78	94.444
825.08	182.609
825.38	134.483
825.69	120.588
825.99	82.979
826.29	80.556
826.59	97.143
826.89	126.667
827.19	82.857
827.49	103.226
827.79	115.385
828.09	73.810
828.39	108.333
828.70	70.270
829.00	139.286
829.30	131.250
829.60	100.000
829.90	125.806
830.20	87.879
830.50	124.324
830.80	175.000
831.10	119.231
831.40	114.286
831.70	179.167
832.00	93.333
832.30	139.130
832.60	145.833
832.90	121.212
833.20	165.000
833.50	118.421
833.80	105.882
834.10	94.737
834.40	189.474
834.70	113.333
835.00	116.000
835.30	94.595
835.60	128.125
835.90	110.811
836.20	142.308
836.50	136.364
836.80	92.683
837.10	108.696
837.40	276.923
837.70	94.737
838.00	150.000
838.30	191.667
838.60	132.000
838.90	220.000
839.19	181.250
839.49	126.667
839.79	124.138
840.09	138.462
840.39	200.000
840.69	247.368
840.99	147.619
841.29	169.565
841.59	160.000
841.88	156.000
842.18	211.111
842.48	132.143
842.78	114.815
843.08	200.000
843.38	136.364
843.68	235.714
843.97	428.571
844.27	160.870
844.57	1400.000
844.87	250.000
845.17	183.333
845.47	109.524
845.76	175.000
846.06	471.429
846.36	164.706
846.66	323.077
846.96	312.500
847.25	161.538
847.55	126.316
847.85	155.556
848.15	720.000
848.44	254.545
848.74	166.667
849.04	158.333
849.34	182.353
849.63	193.750
849.93	212.500
850.23	966.667
850.53	362.500
850.82	300.000
851.12	164.706
851.42	158.333
851.71	275.000
852.01	0.000
852.31	194.118
852.61	410.000
852.90	158.333
853.20	344.444
853.50	-600.000
853.79	128.000
854.09	121.875
854.39	103.448
854.68	144.828
854.98	166.667
855.28	109.677
855.57	228.571
855.87	177.778
856.17	133.333
856.46	189.474
856.76	125.806
857.05	217.647
857.35	227.273
857.65	284.615
857.94	140.000
858.24	388.889
858.53	271.429
858.83	542.857
859.13	165.217
859.42	288.889
859.72	337.500
860.01	250.000
860.31	975.000
860.60	370.000
860.90	350.000
861.20	223.077
861.49	485.714
861.79	-3600.000
862.08	457.143
862.38	311.111
862.67	271.429
862.97	360.000
863.26	140.000
863.56	675.000
863.85	338.462
864.15	252.941
864.44	188.889
864.74	325.000
865.03	272.727
865.33	312.500
865.62	206.667
865.92	433.333
866.21	625.000
866.51	700.000
866.80	233.333
867.10	933.333
867.39	2700.000
867.69	440.000
867.98	725.000
868.27	200.000
868.57	220.000
868.86	825.000
869.16	157.143
869.45	3000.000
869.75	-650.000
870.04	775.000
870.33	840.000
870.63	312.500
870.92	229.412
871.22	825.000
871.51	528.571
871.80	383.333
872.10	315.385
>>>>>End Processed Spectral Data<<<<<
