SpectraSuite Data File
++++++++++++++++++++++++++++++++++++
Date: Tue May 12 15:16:34 PDT 2015
User: schluterlab
Dark Spectrum Present: Yes
Reference Spectrum Present: Yes
Number of Sampled Component Spectra: 1
Spectrometers: USB2E3373
Integration Time (usec): 3000 (USB2E3373)
Spectra Averaged: 3 (USB2E3373)
Boxcar Smoothing: 0 (USB2E3373)
Correct for Electrical Dark: No (USB2E3373)
Strobe/Lamp Enabled: No (USB2E3373)
Correct for Detector Non-linearity: No (USB2E3373)
Correct for Stray Light: No (USB2E3373)
Number of Pixels in Processed Spectrum: 2048
>>>>>Begin Processed Spectral Data<<<<<
178.53	0.000
178.91	-250.000
179.29	-775.000
179.67	-4300.000
180.04	-86.667
180.42	525.000
180.80	1150.000
181.18	0.000
181.56	-150.000
181.94	0.000
182.31	1133.333
182.69	-1700.000
183.07	500.000
183.45	-3500.000
183.83	-1500.000
184.20	360.000
184.58	328.571
184.96	-192.308
185.34	-191.667
185.72	1750.000
186.09	-750.000
186.47	-3000.000
186.85	833.333
187.23	680.000
187.61	1450.000
187.98	325.000
188.36	185.714
188.74	266.667
189.12	300.000
189.49	825.000
189.87	0.000
190.25	462.500
190.63	2500.000
191.00	-133.333
191.38	-2700.000
191.76	-775.000
192.14	562.500
192.51	-3000.000
192.89	1250.000
193.27	1033.333
193.65	-800.000
194.02	-720.000
194.40	485.714
194.78	-157.143
195.15	253.333
195.53	-1900.000
195.91	-620.000
196.29	3800.000
196.66	181.250
197.04	600.000
197.42	-1350.000
197.79	375.000
198.17	291.667
198.55	0.000
198.92	428.571
199.30	1133.333
199.68	1750.000
200.05	583.333
200.43	-366.667
200.81	194.444
201.18	2800.000
201.56	283.333
201.94	-950.000
202.31	-262.500
202.69	-380.000
203.07	2700.000
203.44	-450.000
203.82	291.667
204.19	840.000
204.57	-1300.000
204.95	-500.000
205.32	-480.000
205.70	483.333
206.08	725.000
206.45	-666.667
206.83	377.778
207.20	157.895
207.58	191.667
207.96	620.000
208.33	0.000
208.71	571.429
209.08	500.000
209.46	-1300.000
209.84	-400.000
210.21	660.000
210.59	-460.000
210.96	316.667
211.34	-900.000
211.71	381.818
212.09	925.000
212.46	1900.000
212.84	-516.667
213.22	322.222
213.59	-3100.000
213.97	350.000
214.34	775.000
214.72	1066.667
215.09	1066.667
215.47	-2800.000
215.84	-270.000
216.22	-312.500
216.59	0.000
216.97	0.000
217.34	1600.000
217.72	-1050.000
218.09	900.000
218.47	287.500
218.84	750.000
219.22	1033.333
219.59	633.333
219.97	514.286
220.34	366.667
220.72	1300.000
221.09	3100.000
221.47	258.333
221.84	1100.000
222.22	410.000
222.59	233.333
222.97	207.143
223.34	156.250
223.72	-1300.000
224.09	1000.000
224.46	184.615
224.84	-850.000
225.21	300.000
225.59	293.333
225.96	1200.000
226.34	-600.000
226.71	-625.000
227.08	-640.000
227.46	0.000
227.83	-500.000
228.21	-1200.000
228.58	358.333
228.95	975.000
229.33	366.667
229.70	1175.000
230.08	346.154
230.45	3400.000
230.82	-650.000
231.20	-533.333
231.57	-733.333
231.95	560.000
232.32	300.000
232.69	416.667
233.07	258.333
233.44	-1750.000
233.81	226.667
234.19	151.852
234.56	262.500
234.93	158.824
235.31	240.000
235.68	287.500
236.05	207.143
236.43	125.926
236.80	257.143
237.17	155.172
237.55	106.250
237.92	132.500
238.29	151.515
238.67	137.500
239.04	102.439
239.41	75.000
239.79	100.000
240.16	91.667
240.53	80.328
240.91	81.159
241.28	111.864
241.65	87.879
242.02	98.592
242.40	102.857
242.77	72.527
243.14	84.810
243.51	81.818
243.89	76.636
244.26	72.897
244.63	71.287
245.00	76.147
245.38	60.169
245.75	68.182
246.12	69.630
246.49	65.248
246.87	68.852
247.24	68.000
247.61	61.875
247.98	67.347
248.36	60.000
248.73	60.204
249.10	60.119
249.47	57.500
249.84	60.199
250.22	60.000
250.59	59.000
250.96	56.962
251.33	60.000
251.70	58.482
252.08	55.882
252.45	49.801
252.82	51.711
253.19	54.150
253.56	54.615
253.94	56.522
254.31	53.876
254.68	53.310
255.05	53.793
255.42	55.109
255.79	55.049
256.16	51.864
256.54	51.299
256.91	54.575
257.28	52.508
257.65	49.216
258.02	52.507
258.39	51.289
258.76	49.855
259.14	50.000
259.51	51.312
259.88	54.711
260.25	48.352
260.62	49.589
260.99	42.975
261.36	54.596
261.73	50.000
262.10	54.974
262.47	48.500
262.85	50.667
263.22	48.586
263.59	48.849
263.96	51.378
264.33	48.148
264.70	52.580
265.07	49.024
265.44	49.312
265.81	51.179
266.18	51.259
266.55	50.591
266.92	48.322
267.29	48.465
267.66	50.000
268.03	46.637
268.40	47.992
268.77	49.780
269.14	47.505
269.51	48.330
269.88	48.367
270.25	43.413
270.62	48.927
270.99	47.262
271.36	48.577
271.73	46.122
272.10	45.455
272.47	44.841
272.84	43.912
273.21	45.661
273.58	47.166
273.95	46.201
274.32	49.027
274.69	50.197
275.06	48.087
275.43	43.487
275.80	45.660
276.17	47.794
276.54	46.168
276.91	49.440
277.28	44.891
277.65	46.310
278.02	46.691
278.39	46.043
278.76	45.517
279.13	44.128
279.50	46.545
279.87	45.438
280.23	44.383
280.60	44.708
280.97	45.517
281.34	44.389
281.71	44.174
282.08	43.077
282.45	44.426
282.82	43.645
283.19	43.084
283.56	43.140
283.92	45.603
284.29	43.760
284.66	44.034
285.03	44.444
285.40	42.810
285.77	42.284
286.14	42.415
286.51	42.025
286.87	41.930
287.24	41.141
287.61	42.553
287.98	40.896
288.35	43.259
288.72	39.302
289.08	42.492
289.45	42.835
289.82	42.031
290.19	40.264
290.56	42.358
290.93	41.151
291.29	41.436
291.66	40.960
292.03	41.094
292.40	41.734
292.77	39.554
293.13	40.514
293.50	39.946
293.87	41.599
294.24	40.699
294.60	40.511
294.97	40.979
295.34	38.778
295.71	38.108
296.08	39.600
296.44	39.517
296.81	39.578
297.18	39.163
297.55	40.271
297.91	37.685
298.28	39.010
298.65	38.282
299.02	38.118
299.38	39.448
299.75	37.317
300.12	41.170
300.48	39.930
300.85	38.260
301.22	37.209
301.59	38.797
301.95	38.156
302.32	39.115
302.69	39.367
303.05	39.506
303.42	39.238
303.79	40.087
304.15	39.494
304.52	37.526
304.89	38.806
305.25	39.043
305.62	38.806
305.99	38.804
306.35	39.158
306.72	39.126
307.09	38.302
307.45	39.704
307.82	38.272
308.19	40.206
308.55	38.800
308.92	38.665
309.29	39.645
309.65	40.040
310.02	41.075
310.38	38.584
310.75	39.537
311.12	39.655
311.48	43.629
311.85	40.267
312.22	40.592
312.58	41.399
312.95	41.650
313.31	42.790
313.68	40.150
314.05	42.216
314.41	40.689
314.78	42.140
315.14	43.791
315.51	42.384
315.87	42.883
316.24	43.044
316.61	42.167
316.97	42.110
317.34	43.486
317.70	45.040
318.07	43.683
318.43	43.673
318.80	44.921
319.16	44.056
319.53	44.071
319.89	44.713
320.26	46.462
320.62	44.597
320.99	45.281
321.35	45.733
321.72	46.679
322.08	45.983
322.45	45.777
322.81	46.112
323.18	46.359
323.54	48.345
323.91	48.232
324.27	47.745
324.64	47.491
325.00	48.276
325.37	48.651
325.73	48.651
326.10	49.130
326.46	47.977
326.83	48.720
327.19	50.040
327.56	48.243
327.92	50.738
328.29	49.264
328.65	48.373
329.01	48.760
329.38	50.508
329.74	49.616
330.11	49.870
330.47	50.298
330.84	48.749
331.20	49.492
331.56	49.568
331.93	50.214
332.29	48.724
332.66	51.446
333.02	48.883
333.38	51.134
333.75	49.708
334.11	49.077
334.48	48.718
334.84	47.804
335.20	50.043
335.57	49.202
335.93	47.855
336.29	47.347
336.66	50.343
337.02	47.733
337.38	49.355
337.75	49.578
338.11	49.451
338.47	49.026
338.84	46.655
339.20	48.571
339.56	48.612
339.93	48.829
340.29	47.395
340.65	48.617
341.02	48.270
341.38	48.522
341.74	47.757
342.11	48.915
342.47	47.908
342.83	49.959
343.20	48.504
343.56	46.386
343.92	48.637
344.28	48.485
344.65	47.922
345.01	48.333
345.37	47.276
345.73	48.333
346.10	47.171
346.46	48.485
346.82	47.994
347.19	48.454
347.55	47.463
347.91	47.130
348.27	47.792
348.63	48.418
349.00	46.763
349.36	48.716
349.72	47.706
350.08	48.292
350.45	48.210
350.81	47.401
351.17	47.072
351.53	47.421
351.89	48.174
352.26	49.509
352.62	46.833
352.98	48.543
353.34	47.535
353.70	48.471
354.07	48.692
354.43	47.849
354.79	47.380
355.15	46.861
355.51	48.187
355.87	49.247
356.24	47.883
356.60	47.945
356.96	47.915
357.32	47.777
357.68	48.238
358.04	48.176
358.40	48.726
358.77	48.610
359.13	48.498
359.49	46.775
359.85	47.506
360.21	48.068
360.57	48.102
360.93	47.908
361.29	48.846
361.66	49.515
362.02	46.307
362.38	48.918
362.74	48.408
363.10	48.527
363.46	48.481
363.82	48.317
364.18	48.720
364.54	49.857
364.90	48.728
365.26	48.855
365.62	49.171
365.98	48.796
366.35	49.586
366.71	49.757
367.07	49.283
367.43	49.429
367.79	49.003
368.15	48.847
368.51	49.759
368.87	48.845
369.23	50.104
369.59	48.887
369.95	49.860
370.31	48.871
370.67	49.480
371.03	49.650
371.39	49.861
371.75	49.546
372.11	50.102
372.47	50.548
372.83	51.054
373.19	51.268
373.55	50.653
373.91	49.378
374.27	49.735
374.63	50.102
374.99	52.291
375.35	50.874
375.71	50.396
376.07	50.464
376.42	49.680
376.78	50.225
377.14	50.786
377.50	49.813
377.86	51.634
378.22	51.066
378.58	51.998
378.94	51.720
379.30	52.032
379.66	52.077
380.02	52.551
380.38	51.054
380.74	53.172
381.09	52.745
381.45	52.197
381.81	52.009
382.17	51.832
382.53	52.609
382.89	52.632
383.25	51.155
383.61	51.816
383.97	51.290
384.32	53.406
384.68	54.189
385.04	52.110
385.40	52.906
385.76	53.657
386.12	52.999
386.48	53.617
386.83	54.156
387.19	53.887
387.55	52.238
387.91	53.233
388.27	52.945
388.62	53.404
388.98	51.603
389.34	51.755
389.70	52.889
390.06	52.927
390.42	51.820
390.77	52.887
391.13	54.134
391.49	53.418
391.85	54.154
392.20	52.861
392.56	53.883
392.92	52.667
393.28	52.410
393.64	52.466
393.99	54.179
394.35	52.501
394.71	54.162
395.07	53.467
395.42	53.923
395.78	53.856
396.14	54.398
396.50	53.369
396.85	53.232
397.21	53.490
397.57	55.051
397.92	53.033
398.28	53.889
398.64	53.578
399.00	53.234
399.35	53.408
399.71	52.925
400.07	53.082
400.42	53.433
400.78	53.607
401.14	53.670
401.49	52.535
401.85	54.114
402.21	53.017
402.57	54.638
402.92	53.212
403.28	53.103
403.63	53.090
403.99	52.774
404.35	55.334
404.70	54.164
405.06	53.509
405.42	53.082
405.77	53.638
406.13	51.573
406.49	52.700
406.84	52.284
407.20	52.683
407.55	52.615
407.91	54.116
408.27	53.244
408.62	52.691
408.98	53.046
409.34	52.367
409.69	53.267
410.05	51.699
410.40	53.298
410.76	51.689
411.11	52.666
411.47	51.667
411.83	50.908
412.18	52.657
412.54	52.553
412.89	52.625
413.25	52.109
413.60	52.336
413.96	51.825
414.31	52.952
414.67	53.383
415.03	52.618
415.38	53.565
415.74	52.495
416.09	53.716
416.45	53.717
416.80	54.650
417.16	53.724
417.51	52.866
417.87	53.379
418.22	51.580
418.58	53.694
418.93	52.945
419.29	52.126
419.64	51.423
420.00	53.699
420.35	53.078
420.71	52.392
421.06	52.501
421.42	52.619
421.77	54.081
422.12	52.591
422.48	52.953
422.83	53.683
423.19	52.646
423.54	51.728
423.90	53.001
424.25	52.394
424.61	53.976
424.96	52.569
425.31	53.366
425.67	54.377
426.02	53.225
426.38	53.617
426.73	53.557
427.09	53.618
427.44	52.729
427.79	53.059
428.15	54.154
428.50	53.657
428.85	52.910
429.21	52.512
429.56	53.440
429.92	53.655
430.27	52.975
430.62	51.884
430.98	53.244
431.33	52.520
431.68	52.790
432.04	52.561
432.39	54.501
432.74	53.337
433.10	53.876
433.45	53.590
433.80	54.881
434.16	53.022
434.51	53.354
434.86	53.729
435.22	53.539
435.57	54.653
435.92	55.037
436.28	53.111
436.63	52.782
436.98	53.604
437.34	54.053
437.69	52.240
438.04	54.247
438.39	53.999
438.75	53.786
439.10	53.643
439.45	52.346
439.81	53.904
440.16	53.054
440.51	53.547
440.86	53.504
441.22	52.976
441.57	53.491
441.92	53.801
442.27	54.330
442.63	52.795
442.98	53.017
443.33	53.723
443.68	54.074
444.03	53.393
444.39	53.814
444.74	52.950
445.09	52.923
445.44	53.507
445.79	53.509
446.15	53.053
446.50	53.428
446.85	53.635
447.20	51.841
447.55	54.323
447.91	53.383
448.26	53.088
448.61	54.837
448.96	53.976
449.31	54.290
449.66	53.156
450.02	52.026
450.37	54.581
450.72	53.333
451.07	52.356
451.42	53.823
451.77	53.265
452.12	53.148
452.47	53.767
452.83	53.634
453.18	53.934
453.53	54.233
453.88	53.714
454.23	53.341
454.58	52.564
454.93	52.912
455.28	53.917
455.63	53.723
455.98	53.412
456.34	54.347
456.69	53.232
457.04	53.162
457.39	53.029
457.74	52.984
458.09	52.330
458.44	52.519
458.79	52.626
459.14	52.646
459.49	52.152
459.84	52.880
460.19	52.316
460.54	52.593
460.89	52.186
461.24	52.405
461.59	53.288
461.94	53.014
462.29	52.174
462.64	52.638
462.99	53.551
463.34	52.106
463.69	52.390
464.04	53.368
464.39	52.089
464.74	52.286
465.09	51.480
465.44	52.067
465.79	51.551
466.14	50.450
466.49	52.415
466.84	51.449
467.19	50.674
467.54	50.931
467.89	51.761
468.24	50.492
468.59	51.131
468.94	52.295
469.29	51.924
469.64	50.740
469.99	51.864
470.34	51.676
470.68	51.793
471.03	52.435
471.38	51.788
471.73	51.339
472.08	52.316
472.43	50.900
472.78	51.985
473.13	50.188
473.48	50.000
473.83	50.824
474.17	50.395
474.52	49.171
474.87	50.199
475.22	50.771
475.57	49.580
475.92	49.719
476.27	50.109
476.61	49.383
476.96	49.739
477.31	51.260
477.66	50.993
478.01	50.593
478.36	49.794
478.70	49.876
479.05	50.575
479.40	49.752
479.75	49.901
480.10	51.258
480.45	50.373
480.79	49.539
481.14	49.691
481.49	48.582
481.84	48.813
482.19	49.738
482.53	48.924
482.88	49.059
483.23	48.669
483.58	48.294
483.92	49.909
484.27	48.716
484.62	49.363
484.97	48.461
485.31	48.622
485.66	49.763
486.01	48.940
486.36	47.802
486.70	47.000
487.05	46.355
487.40	47.317
487.75	48.237
488.09	47.614
488.44	48.184
488.79	47.206
489.13	47.742
489.48	48.422
489.83	47.540
490.17	47.192
490.52	48.105
490.87	47.586
491.22	48.094
491.56	47.563
491.91	47.043
492.26	47.171
492.60	46.834
492.95	46.579
493.30	47.589
493.64	46.181
493.99	46.199
494.34	46.526
494.68	46.259
495.03	46.924
495.37	45.790
495.72	47.086
496.07	46.226
496.41	46.438
496.76	45.631
497.11	47.001
497.45	45.419
497.80	46.386
498.14	45.446
498.49	46.147
498.84	47.290
499.18	45.384
499.53	46.532
499.87	45.867
500.22	46.292
500.56	46.007
500.91	46.521
501.26	45.659
501.60	45.719
501.95	44.803
502.29	45.111
502.64	44.596
502.98	45.087
503.33	46.147
503.67	44.592
504.02	45.186
504.36	46.109
504.71	44.371
505.06	44.955
505.40	45.484
505.75	44.528
506.09	45.030
506.44	45.019
506.78	45.274
507.13	45.225
507.47	45.415
507.82	46.180
508.16	45.811
508.51	45.894
508.85	44.634
509.19	45.228
509.54	44.189
509.88	45.400
510.23	43.922
510.57	43.678
510.92	44.456
511.26	44.980
511.61	43.427
511.95	44.052
512.30	43.200
512.64	43.198
512.98	43.414
513.33	43.852
513.67	43.708
514.02	44.052
514.36	42.991
514.70	44.160
515.05	43.953
515.39	44.189
515.74	44.286
516.08	44.390
516.42	44.098
516.77	42.293
517.11	43.253
517.46	43.050
517.80	42.873
518.14	43.493
518.49	42.337
518.83	42.418
519.17	43.039
519.52	43.637
519.86	42.943
520.20	44.493
520.55	42.679
520.89	42.529
521.23	43.166
521.58	41.939
521.92	42.974
522.26	42.832
522.61	43.137
522.95	43.844
523.29	42.865
523.64	41.850
523.98	42.371
524.32	42.215
524.66	42.493
525.01	41.953
525.35	41.544
525.69	43.227
526.04	41.880
526.38	41.495
526.72	41.408
527.06	41.573
527.41	42.745
527.75	42.362
528.09	41.842
528.43	42.465
528.78	41.383
529.12	42.384
529.46	41.204
529.80	41.238
530.15	41.544
530.49	40.854
530.83	42.413
531.17	41.574
531.51	41.447
531.86	40.700
532.20	40.420
532.54	42.624
532.88	41.661
533.22	40.098
533.57	41.733
533.91	40.443
534.25	39.642
534.59	41.754
534.93	40.273
535.27	39.158
535.62	40.373
535.96	40.721
536.30	41.743
536.64	38.571
536.98	39.899
537.32	40.437
537.66	39.860
538.01	40.062
538.35	40.611
538.69	39.078
539.03	38.806
539.37	38.471
539.71	40.988
540.05	39.938
540.39	40.818
540.73	39.367
541.07	39.084
541.42	39.552
541.76	40.259
542.10	38.533
542.44	38.903
542.78	39.270
543.12	38.773
543.46	39.160
543.80	39.348
544.14	40.619
544.48	39.355
544.82	38.349
545.16	38.494
545.50	39.029
545.84	38.384
546.18	40.702
546.52	39.082
546.86	38.556
547.20	38.372
547.54	38.569
547.88	38.869
548.22	39.830
548.56	37.890
548.90	37.960
549.24	37.840
549.58	37.113
549.92	37.983
550.26	38.742
550.60	37.991
550.94	40.163
551.28	39.379
551.62	38.828
551.96	37.432
552.30	38.102
552.64	38.382
552.98	37.371
553.32	36.492
553.66	37.655
554.00	36.873
554.34	38.415
554.68	37.634
555.02	36.660
555.36	36.636
555.69	36.257
556.03	36.178
556.37	37.030
556.71	37.614
557.05	36.239
557.39	36.467
557.73	36.388
558.07	36.486
558.41	37.423
558.75	37.209
559.08	38.385
559.42	37.294
559.76	36.422
560.10	36.958
560.44	37.359
560.78	37.660
561.12	38.080
561.45	36.170
561.79	36.267
562.13	36.197
562.47	36.210
562.81	36.695
563.15	36.652
563.48	35.031
563.82	36.681
564.16	37.065
564.50	35.624
564.84	35.988
565.17	34.997
565.51	36.515
565.85	36.891
566.19	36.310
566.52	36.282
566.86	36.894
567.20	36.685
567.54	35.590
567.88	36.724
568.21	34.548
568.55	37.305
568.89	36.314
569.23	35.418
569.56	36.302
569.90	35.825
570.24	36.218
570.57	35.951
570.91	34.977
571.25	35.231
571.59	34.490
571.92	34.715
572.26	34.798
572.60	34.213
572.93	35.566
573.27	35.238
573.61	34.867
573.95	34.736
574.28	34.876
574.62	34.583
574.96	33.996
575.29	33.937
575.63	33.545
575.97	33.569
576.30	33.586
576.64	34.031
576.98	34.316
577.31	35.140
577.65	34.361
577.98	34.424
578.32	34.090
578.66	33.942
578.99	33.648
579.33	34.010
579.67	33.787
580.00	33.272
580.34	34.108
580.67	33.400
581.01	34.409
581.35	33.512
581.68	33.599
582.02	33.461
582.35	33.478
582.69	33.815
583.02	33.518
583.36	33.854
583.70	33.941
584.03	34.352
584.37	33.746
584.70	33.765
585.04	33.286
585.37	32.867
585.71	33.798
586.04	33.100
586.38	33.469
586.72	33.333
587.05	33.042
587.39	33.401
587.72	33.520
588.06	33.077
588.39	32.881
588.73	32.689
589.06	33.790
589.40	33.615
589.73	33.071
590.07	33.905
590.40	33.693
590.73	34.337
591.07	33.397
591.40	33.932
591.74	32.995
592.07	33.486
592.41	33.094
592.74	33.687
593.08	33.138
593.41	32.436
593.75	32.562
594.08	33.415
594.41	32.128
594.75	33.151
595.08	33.402
595.42	33.246
595.75	32.906
596.09	32.916
596.42	32.739
596.75	33.694
597.09	33.430
597.42	32.531
597.75	32.617
598.09	32.417
598.42	32.477
598.76	32.190
599.09	32.549
599.42	31.938
599.76	31.682
600.09	31.763
600.42	32.597
600.76	32.019
601.09	32.793
601.42	32.137
601.76	32.044
602.09	32.634
602.42	31.534
602.76	32.486
603.09	32.428
603.42	33.064
603.76	31.923
604.09	32.030
604.42	31.111
604.76	32.082
605.09	32.531
605.42	31.979
605.75	31.702
606.09	32.479
606.42	31.567
606.75	31.442
607.09	30.951
607.42	31.820
607.75	31.728
608.08	30.544
608.42	32.173
608.75	31.408
609.08	31.588
609.41	32.000
609.75	32.189
610.08	31.924
610.41	31.313
610.74	32.381
611.07	31.924
611.41	31.557
611.74	31.262
612.07	31.792
612.40	31.823
612.73	32.302
613.07	31.424
613.40	31.729
613.73	31.802
614.06	30.050
614.39	31.465
614.72	31.241
615.06	30.514
615.39	31.188
615.72	30.929
616.05	31.944
616.38	31.659
616.71	31.145
617.05	31.301
617.38	30.225
617.71	32.340
618.04	31.520
618.37	31.907
618.70	31.582
619.03	31.258
619.36	30.528
619.69	30.739
620.03	31.311
620.36	31.278
620.69	31.481
621.02	31.861
621.35	29.871
621.68	31.342
622.01	31.956
622.34	30.663
622.67	31.812
623.00	30.769
623.33	30.297
623.66	29.541
623.99	30.890
624.32	30.759
624.65	31.007
624.99	31.102
625.32	31.597
625.65	30.690
625.98	29.358
626.31	31.973
626.64	30.372
626.97	30.451
627.30	30.668
627.63	32.025
627.96	29.969
628.29	32.508
628.62	30.197
628.95	30.585
629.28	31.464
629.61	30.931
629.94	30.251
630.26	30.503
630.59	31.294
630.92	30.583
631.25	30.462
631.58	30.376
631.91	29.781
632.24	31.487
632.57	30.059
632.90	30.849
633.23	31.480
633.56	31.507
633.89	31.618
634.22	31.432
634.55	31.183
634.88	31.325
635.20	29.260
635.53	30.778
635.86	31.096
636.19	31.089
636.52	29.405
636.85	28.695
637.18	29.144
637.51	29.944
637.83	29.519
638.16	31.419
638.49	30.898
638.82	30.751
639.15	29.495
639.48	29.028
639.81	28.938
640.13	31.288
640.46	29.583
640.79	30.299
641.12	30.446
641.45	30.660
641.77	32.365
642.10	28.782
642.43	31.437
642.76	29.687
643.09	30.115
643.41	28.892
643.74	31.079
644.07	30.826
644.40	31.509
644.73	31.231
645.05	32.392
645.38	29.862
645.71	30.956
646.04	31.145
646.36	30.360
646.69	29.760
647.02	32.640
647.35	29.134
647.67	30.146
648.00	29.642
648.33	29.173
648.66	30.455
648.98	29.710
649.31	29.150
649.64	29.461
649.96	29.018
650.29	29.143
650.62	32.401
650.94	32.530
651.27	31.419
651.60	28.951
651.92	31.183
652.25	33.701
652.58	29.787
652.90	31.587
653.23	30.724
653.56	30.712
653.88	29.222
654.21	26.979
654.54	29.283
654.86	30.531
655.19	31.266
655.52	27.257
655.84	26.373
656.17	31.376
656.49	45.706
656.82	51.905
657.15	40.884
657.47	30.573
657.80	22.755
658.13	18.008
658.45	24.434
658.78	29.078
659.10	29.410
659.43	29.662
659.75	30.894
660.08	31.767
660.41	31.851
660.73	30.991
661.06	31.231
661.38	30.835
661.71	31.295
662.03	30.418
662.36	30.476
662.68	28.678
663.01	29.550
663.33	29.811
663.66	29.586
663.98	30.556
664.31	33.209
664.63	30.077
664.96	31.707
665.28	30.320
665.61	27.925
665.93	30.189
666.26	30.841
666.58	31.009
666.91	31.853
667.23	30.321
667.56	32.033
667.88	31.328
668.21	29.918
668.53	28.024
668.86	31.463
669.18	30.754
669.50	30.992
669.83	31.417
670.15	29.730
670.48	29.883
670.80	31.275
671.13	31.076
671.45	32.265
671.77	31.169
672.10	29.623
672.42	27.632
672.75	30.854
673.07	30.048
673.39	29.553
673.72	31.488
674.04	30.645
674.37	31.760
674.69	28.625
675.01	29.291
675.34	29.651
675.66	31.250
675.98	30.769
676.31	29.400
676.63	29.026
676.95	29.563
677.28	30.020
677.60	28.571
677.92	29.365
678.25	30.426
678.57	27.561
678.89	32.188
679.22	30.515
679.54	31.317
679.86	29.145
680.18	29.701
680.51	27.363
680.83	27.534
681.15	30.503
681.48	30.382
681.80	29.947
682.12	29.758
682.44	29.550
682.77	30.783
683.09	32.427
683.41	30.408
683.73	31.299
684.06	29.762
684.38	30.814
684.70	28.957
685.02	27.257
685.34	30.986
685.67	29.100
685.99	29.392
686.31	28.043
686.63	30.244
686.96	28.431
687.28	28.523
687.60	27.474
687.92	31.491
688.24	29.655
688.56	29.715
688.89	29.828
689.21	26.590
689.53	29.842
689.85	26.626
690.17	31.650
690.49	31.855
690.82	31.933
691.14	32.121
691.46	32.238
691.78	30.409
692.10	32.252
692.42	27.768
692.74	30.426
693.06	31.589
693.39	29.447
693.71	29.666
694.03	29.783
694.35	33.133
694.67	27.699
694.99	32.151
695.31	30.180
695.63	31.448
695.95	30.995
696.27	30.752
696.59	31.265
696.91	27.342
697.23	29.864
697.56	28.423
697.88	27.345
698.20	31.321
698.52	28.405
698.84	30.390
699.16	30.490
699.48	30.720
699.80	31.590
700.12	32.794
700.44	29.673
700.76	31.265
701.08	31.854
701.40	30.909
701.72	33.957
702.04	31.707
702.36	31.452
702.68	32.979
703.00	29.073
703.32	27.792
703.64	34.005
703.96	28.646
704.28	32.011
704.60	35.493
704.91	31.373
705.23	30.398
705.55	33.234
705.87	29.841
706.19	35.737
706.51	35.423
706.83	33.038
707.15	33.690
707.47	30.751
707.79	31.264
708.11	29.252
708.43	30.112
708.74	30.317
709.06	30.000
709.38	30.769
709.70	30.245
710.02	27.174
710.34	34.254
710.66	29.722
710.98	31.694
711.29	32.033
711.61	32.312
711.93	35.866
712.25	28.614
712.57	33.762
712.89	35.758
713.20	34.185
713.52	33.645
713.84	30.816
714.16	26.087
714.48	29.395
714.80	31.978
715.11	27.394
715.43	31.564
715.75	32.676
716.07	34.682
716.39	32.000
716.70	30.218
717.02	34.343
717.34	35.971
717.66	37.847
717.97	39.394
718.29	36.268
718.61	29.392
718.93	34.602
719.24	35.235
719.56	31.379
719.88	30.573
720.20	34.516
720.51	33.660
720.83	32.107
721.15	32.313
721.46	33.219
721.78	31.010
722.10	37.847
722.42	31.104
722.73	33.213
723.05	36.140
723.37	32.155
723.68	30.859
724.00	34.091
724.32	33.080
724.63	33.846
724.95	36.471
725.27	31.599
725.58	31.985
725.90	33.451
726.22	29.795
726.53	32.107
726.85	35.505
727.16	33.893
727.48	34.551
727.80	36.331
728.11	32.500
728.43	35.507
728.74	36.014
729.06	30.824
729.38	32.982
729.69	35.333
730.01	33.553
730.32	35.235
730.64	31.229
730.96	33.934
731.27	29.664
731.59	28.736
731.90	32.033
732.22	30.857
732.53	32.194
732.85	35.965
733.16	32.530
733.48	31.975
733.80	35.072
734.11	34.969
734.43	27.193
734.74	31.903
735.06	33.598
735.37	30.412
735.69	31.304
736.00	33.333
736.32	27.879
736.63	30.599
736.95	31.056
737.26	32.927
737.58	32.209
737.89	30.120
738.21	30.795
738.52	30.769
738.83	37.729
739.15	32.056
739.46	34.483
739.78	33.333
740.09	35.277
740.41	33.742
740.72	33.016
741.04	34.965
741.35	32.031
741.66	38.735
741.98	34.764
742.29	37.963
742.61	31.858
742.92	36.017
743.23	35.600
743.55	32.075
743.86	32.941
744.18	34.322
744.49	33.471
744.80	35.945
745.12	36.161
745.43	36.449
745.74	33.778
746.06	34.649
746.37	38.140
746.68	34.956
747.00	34.529
747.31	37.815
747.62	36.066
747.94	35.622
748.25	35.409
748.56	34.322
748.88	35.268
749.19	30.698
749.50	33.790
749.82	35.802
750.13	33.597
750.44	31.333
750.75	33.893
751.07	31.908
751.38	30.693
751.69	35.690
752.01	32.168
752.32	32.890
752.63	34.899
752.94	36.713
753.26	33.984
753.57	40.078
753.88	31.835
754.19	32.130
754.51	32.226
754.82	26.174
755.13	31.757
755.44	31.111
755.75	33.333
756.07	34.589
756.38	31.699
756.69	30.625
757.00	35.905
757.31	33.239
757.63	30.854
757.94	31.117
758.25	31.159
758.56	29.748
758.87	33.333
759.18	32.267
759.50	33.435
759.81	33.828
760.12	29.494
760.43	31.653
760.74	29.114
761.05	30.504
761.36	30.208
761.67	32.615
761.99	31.268
762.30	29.904
762.61	31.597
762.92	29.545
763.23	35.094
763.54	36.538
763.85	35.409
764.16	30.903
764.47	33.446
764.78	30.293
765.10	30.488
765.41	30.682
765.72	30.110
766.03	32.628
766.34	30.662
766.65	35.741
766.96	37.247
767.27	39.720
767.58	38.614
767.89	33.702
768.20	42.073
768.51	30.612
768.82	35.965
769.13	34.118
769.44	37.594
769.75	31.835
770.06	34.874
770.37	32.895
770.68	37.333
770.99	38.136
771.30	36.820
771.61	37.692
771.92	34.351
772.23	33.065
772.54	37.778
772.85	40.099
773.16	31.522
773.47	37.778
773.78	36.634
774.09	38.636
774.39	41.212
774.70	36.471
775.01	38.158
775.32	41.615
775.63	40.411
775.94	45.062
776.25	46.897
776.56	45.802
776.87	50.382
777.18	42.424
777.48	51.181
777.79	47.692
778.10	40.909
778.41	46.269
778.72	39.098
779.03	35.897
779.34	43.919
779.65	41.615
779.95	44.720
780.26	35.714
780.57	43.537
780.88	45.390
781.19	49.167
781.50	38.462
781.80	39.344
782.11	38.095
782.42	33.333
782.73	42.938
783.04	41.290
783.34	38.760
783.65	40.136
783.96	41.935
784.27	43.709
784.57	47.368
784.88	51.449
785.19	43.333
785.50	47.414
785.81	50.388
786.11	45.926
786.42	44.882
786.73	53.153
787.04	41.509
787.34	39.024
787.65	46.970
787.96	43.182
788.26	53.543
788.57	50.365
788.88	40.845
789.19	38.168
789.49	50.000
789.80	44.531
790.11	43.802
790.41	55.556
790.72	46.296
791.03	42.308
791.33	56.566
791.64	53.684
791.95	47.368
792.25	46.875
792.56	51.000
792.87	56.098
793.17	52.273
793.48	58.824
793.79	57.471
794.09	55.682
794.40	54.310
794.70	48.413
795.01	43.846
795.32	57.252
795.62	34.188
795.93	47.059
796.23	45.528
796.54	50.000
796.85	54.545
797.15	76.623
797.46	58.537
797.76	47.500
798.07	58.667
798.37	67.500
798.68	56.250
798.99	63.415
799.29	50.667
799.60	31.395
799.90	55.263
800.21	51.515
800.51	59.155
800.82	41.379
801.12	67.692
801.43	56.000
801.73	53.448
802.04	58.442
802.34	60.274
802.65	78.431
802.95	80.435
803.26	80.645
803.56	98.333
803.87	65.672
804.17	73.016
804.48	64.151
804.78	70.833
805.09	56.061
805.39	61.905
805.70	87.719
806.00	64.286
806.30	53.125
806.61	64.706
806.91	56.667
807.22	55.435
807.52	63.158
807.83	75.000
808.13	76.812
808.43	74.194
808.74	65.753
809.04	60.714
809.35	67.647
809.65	57.576
809.95	74.510
810.26	81.481
810.56	87.500
810.86	89.796
811.17	94.737
811.47	73.913
811.77	65.517
812.08	56.897
812.38	76.190
812.69	64.286
812.99	93.333
813.29	94.286
813.59	112.903
813.90	58.621
814.20	73.770
814.50	86.000
814.81	43.860
815.11	83.333
815.41	83.929
815.72	82.143
816.02	80.000
816.32	107.317
816.62	84.483
816.93	100.000
817.23	97.561
817.53	80.357
817.84	97.778
818.14	90.476
818.44	95.833
818.74	81.132
819.04	84.615
819.35	84.848
819.65	101.923
819.95	103.704
820.25	97.872
820.56	127.027
820.86	97.368
821.16	59.574
821.46	94.737
821.76	83.636
822.07	88.095
822.37	94.737
822.67	130.233
822.97	107.895
823.27	102.174
823.57	121.875
823.88	94.872
824.18	100.000
824.48	117.391
824.78	102.778
825.08	156.522
825.38	124.138
825.69	117.647
825.99	59.574
826.29	91.667
826.59	85.714
826.89	100.000
827.19	102.857
827.49	122.581
827.79	126.923
828.09	83.333
828.39	116.667
828.70	100.000
829.00	142.857
829.30	225.000
829.60	86.111
829.90	119.355
830.20	109.091
830.50	129.730
830.80	179.167
831.10	173.077
831.40	128.571
831.70	175.000
832.00	126.667
832.30	178.261
832.60	137.500
832.90	118.182
833.20	155.000
833.50	126.316
833.80	102.941
834.10	94.737
834.40	147.368
834.70	90.000
835.00	148.000
835.30	97.297
835.60	131.250
835.90	105.405
836.20	126.923
836.50	145.455
836.80	100.000
837.10	147.826
837.40	300.000
837.70	136.842
838.00	130.000
838.30	162.500
838.60	156.000
838.90	240.000
839.19	181.250
839.49	123.333
839.79	100.000
840.09	153.846
840.39	186.667
840.69	168.421
840.99	128.571
841.29	134.783
841.59	195.000
841.88	164.000
842.18	255.556
842.48	142.857
842.78	166.667
843.08	215.385
843.38	145.455
843.68	228.571
843.97	457.143
844.27	130.435
844.57	1100.000
844.87	278.571
845.17	211.111
845.47	138.095
845.76	183.333
846.06	471.429
846.36	164.706
846.66	284.615
846.96	187.500
847.25	184.615
847.55	194.737
847.85	216.667
848.15	420.000
848.44	190.909
848.74	190.476
849.04	125.000
849.34	158.824
849.63	175.000
849.93	212.500
850.23	1000.000
850.53	300.000
850.82	209.091
851.12	205.882
851.42	175.000
851.71	225.000
852.01	0.000
852.31	147.059
852.61	330.000
852.90	162.500
853.20	200.000
853.50	-2400.000
853.79	148.000
854.09	131.250
854.39	124.138
854.68	134.483
854.98	238.095
855.28	129.032
855.57	250.000
855.87	183.333
856.17	133.333
856.46	152.632
856.76	116.129
857.05	200.000
857.35	272.727
857.65	123.077
857.94	145.000
858.24	333.333
858.53	171.429
858.83	514.286
859.13	165.217
859.42	366.667
859.72	362.500
860.01	266.667
860.31	875.000
860.60	320.000
860.90	262.500
861.20	238.462
861.49	400.000
861.79	-2100.000
862.08	371.429
862.38	311.111
862.67	235.714
862.97	390.000
863.26	123.333
863.56	575.000
863.85	315.385
864.15	229.412
864.44	183.333
864.74	308.333
865.03	318.182
865.33	387.500
865.62	200.000
865.92	433.333
866.21	675.000
866.51	520.000
866.80	222.222
867.10	766.667
867.39	2400.000
867.69	420.000
867.98	825.000
868.27	161.905
868.57	206.667
868.86	825.000
869.16	114.286
869.45	4300.000
869.75	-316.667
870.04	550.000
870.33	500.000
870.63	312.500
870.92	164.706
871.22	700.000
871.51	457.143
871.80	366.667
872.10	261.538
>>>>>End Processed Spectral Data<<<<<
