SpectraSuite Data File
++++++++++++++++++++++++++++++++++++
Date: Tue May 12 16:49:55 PDT 2015
User: schluterlab
Dark Spectrum Present: Yes
Reference Spectrum Present: Yes
Number of Sampled Component Spectra: 1
Spectrometers: USB2E3373
Integration Time (usec): 3000 (USB2E3373)
Spectra Averaged: 3 (USB2E3373)
Boxcar Smoothing: 0 (USB2E3373)
Correct for Electrical Dark: No (USB2E3373)
Strobe/Lamp Enabled: No (USB2E3373)
Correct for Detector Non-linearity: No (USB2E3373)
Correct for Stray Light: No (USB2E3373)
Number of Pixels in Processed Spectrum: 2048
>>>>>Begin Processed Spectral Data<<<<<
178.53	0.000
178.91	-275.000
179.29	-1025.000
179.67	-4200.000
180.04	-200.000
180.42	850.000
180.80	1850.000
181.18	0.000
181.56	-362.500
181.94	0.000
182.31	1200.000
182.69	-4100.000
183.07	557.143
183.45	-3400.000
183.83	-1550.000
184.20	450.000
184.58	485.714
184.96	-238.462
185.34	-233.333
185.72	1500.000
186.09	-800.000
186.47	-3300.000
186.85	1033.333
187.23	640.000
187.61	1500.000
187.98	500.000
188.36	350.000
188.74	391.667
189.12	325.000
189.49	1000.000
189.87	0.000
190.25	500.000
190.63	2600.000
191.00	-266.667
191.38	-3200.000
191.76	-900.000
192.14	625.000
192.51	-1900.000
192.89	1850.000
193.27	1066.667
193.65	-1400.000
194.02	-920.000
194.40	471.429
194.78	-164.286
195.15	286.667
195.53	-3300.000
195.91	-460.000
196.29	4700.000
196.66	250.000
197.04	800.000
197.42	-1550.000
197.79	700.000
198.17	333.333
198.55	0.000
198.92	471.429
199.30	1433.333
199.68	2000.000
200.05	733.333
200.43	-450.000
200.81	211.111
201.18	3500.000
201.56	266.667
201.94	-675.000
202.31	-387.500
202.69	-440.000
203.07	4200.000
203.44	-516.667
203.82	366.667
204.19	620.000
204.57	-1100.000
204.95	-900.000
205.32	-600.000
205.70	600.000
206.08	975.000
206.45	-466.667
206.83	411.111
207.20	231.579
207.58	258.333
207.96	760.000
208.33	0.000
208.71	557.143
209.08	720.000
209.46	-3000.000
209.84	-900.000
210.21	960.000
210.59	-640.000
210.96	275.000
211.34	-950.000
211.71	418.182
212.09	825.000
212.46	2100.000
212.84	-300.000
213.22	411.111
213.59	-3000.000
213.97	260.000
214.34	1025.000
214.72	900.000
215.09	900.000
215.47	-3400.000
215.84	-280.000
216.22	-462.500
216.59	0.000
216.97	0.000
217.34	1650.000
217.72	-1850.000
218.09	1033.333
218.47	362.500
218.84	800.000
219.22	1166.667
219.59	1033.333
219.97	657.143
220.34	344.444
220.72	1400.000
221.09	3700.000
221.47	233.333
221.84	900.000
222.22	400.000
222.59	255.556
222.97	300.000
223.34	181.250
223.72	-1600.000
224.09	1033.333
224.46	246.154
224.84	-725.000
225.21	333.333
225.59	273.333
225.96	1266.667
226.34	-660.000
226.71	-700.000
227.08	-740.000
227.46	0.000
227.83	-566.667
228.21	-1350.000
228.58	383.333
228.95	1075.000
229.33	300.000
229.70	1025.000
230.08	369.231
230.45	3600.000
230.82	-1000.000
231.20	-766.667
231.57	-1166.667
231.95	660.000
232.32	283.333
232.69	633.333
233.07	308.333
233.44	-1700.000
233.81	253.333
234.19	140.741
234.56	281.250
234.93	188.235
235.31	230.000
235.68	300.000
236.05	153.571
236.43	129.630
236.80	228.571
237.17	151.724
237.55	106.250
237.92	97.500
238.29	133.333
238.67	137.500
239.04	102.439
239.41	75.000
239.79	97.500
240.16	102.083
240.53	75.410
240.91	68.116
241.28	69.492
241.65	66.667
242.02	78.873
242.40	70.000
242.77	64.835
243.14	48.101
243.51	57.576
243.89	53.271
244.26	43.925
244.63	51.485
245.00	43.119
245.38	44.068
245.75	45.455
246.12	50.370
246.49	50.355
246.87	40.164
247.24	45.333
247.61	41.250
247.98	42.177
248.36	38.182
248.73	42.857
249.10	39.286
249.47	35.500
249.84	31.343
250.22	35.135
250.59	31.500
250.96	35.443
251.33	29.302
251.70	33.036
252.08	35.294
252.45	31.474
252.82	30.798
253.19	25.296
253.56	29.615
253.94	33.696
254.31	32.946
254.68	30.662
255.05	32.759
255.42	31.752
255.79	32.248
256.16	29.153
256.54	32.468
256.91	29.412
257.28	28.428
257.65	28.213
258.02	28.614
258.39	32.665
258.76	30.145
259.14	25.429
259.51	30.904
259.88	29.787
260.25	27.473
260.62	29.315
260.99	27.273
261.36	29.805
261.73	30.053
262.10	25.393
262.47	27.750
262.85	25.600
263.22	26.992
263.59	28.645
263.96	29.825
264.33	27.654
264.70	27.518
265.07	27.805
265.44	25.917
265.81	28.066
266.18	24.714
266.55	23.877
266.92	23.043
267.29	27.412
267.66	24.664
268.03	22.646
268.40	25.159
268.77	25.110
269.14	25.813
269.51	23.831
269.88	25.714
270.25	22.246
270.62	22.747
270.99	25.963
271.36	24.797
271.73	22.222
272.10	24.444
272.47	24.405
272.84	22.555
273.21	24.380
273.58	23.684
273.95	21.355
274.32	24.903
274.69	26.575
275.06	23.679
275.43	24.713
275.80	22.453
276.17	22.794
276.54	22.056
276.91	24.254
277.28	22.445
277.65	24.354
278.02	21.875
278.39	22.662
278.76	22.931
279.13	23.132
279.50	22.909
279.87	20.298
280.23	20.810
280.60	21.715
280.97	20.690
281.34	22.112
281.71	21.217
282.08	22.735
282.45	21.115
282.82	23.411
283.19	22.893
283.56	22.479
283.92	20.847
284.29	22.962
284.66	20.672
285.03	21.725
285.40	21.157
285.77	19.753
286.14	21.053
286.51	22.086
286.87	19.937
287.24	21.171
287.61	19.909
287.98	21.045
288.35	20.889
288.72	19.423
289.08	21.471
289.45	22.713
289.82	21.250
290.19	20.791
290.56	21.689
290.93	20.288
291.29	18.370
291.66	16.808
292.03	19.074
292.40	19.241
292.77	20.195
293.13	18.402
293.50	18.354
293.87	16.938
294.24	18.601
294.60	17.497
294.97	19.021
295.34	19.124
295.71	17.871
296.08	18.667
296.44	17.662
296.81	17.246
297.18	15.843
297.55	18.596
297.91	16.502
298.28	19.324
298.65	17.669
299.02	17.732
299.38	16.906
299.75	17.805
300.12	17.661
300.48	17.213
300.85	17.998
301.22	17.093
301.59	15.566
301.95	17.153
302.32	15.832
302.69	16.063
303.05	16.835
303.42	16.928
303.79	17.226
304.15	15.622
304.52	15.645
304.89	16.205
305.25	15.573
305.62	15.991
305.99	15.217
306.35	15.579
306.72	16.545
307.09	16.356
307.45	14.995
307.82	16.564
308.19	17.010
308.55	16.200
308.92	15.015
309.29	15.680
309.65	15.362
310.02	15.923
310.38	14.457
310.75	14.947
311.12	13.889
311.48	16.313
311.85	15.649
312.22	15.950
312.58	14.674
312.95	15.825
313.31	15.918
313.68	14.822
314.05	15.568
314.41	14.618
314.78	14.583
315.14	15.355
315.51	15.989
315.87	14.964
316.24	15.593
316.61	16.473
316.97	14.128
317.34	16.173
317.70	16.769
318.07	15.214
318.43	15.290
318.80	16.287
319.16	15.647
319.53	15.133
319.89	14.606
320.26	16.294
320.62	15.201
320.99	14.490
321.35	14.935
321.72	16.509
322.08	16.713
322.45	15.895
322.81	15.188
323.18	15.098
323.54	16.202
323.91	16.863
324.27	16.269
324.64	14.879
325.00	16.293
325.37	15.261
325.73	16.105
326.10	15.824
326.46	16.680
326.83	14.800
327.19	16.948
327.56	15.815
327.92	16.311
328.29	16.448
328.65	16.866
329.01	16.424
329.38	16.244
329.74	15.457
330.11	16.681
330.47	16.539
330.84	14.409
331.20	15.821
331.56	16.753
331.93	15.997
332.29	15.476
332.66	15.986
333.02	14.003
333.38	15.707
333.75	16.764
334.11	15.520
334.48	15.470
334.84	15.372
335.20	15.483
335.57	14.526
335.93	15.643
336.29	15.091
336.66	15.952
337.02	15.227
337.38	14.359
337.75	15.963
338.11	16.034
338.47	14.649
338.84	15.411
339.20	14.286
339.56	15.055
339.93	14.465
340.29	14.034
340.65	15.004
341.02	16.171
341.38	14.696
341.74	15.365
342.11	14.274
342.47	14.356
342.83	14.438
343.20	15.117
343.56	13.900
343.92	14.121
344.28	14.753
344.65	15.240
345.01	14.762
345.37	14.423
345.73	14.524
346.10	14.183
346.46	14.115
346.82	13.735
347.19	15.688
347.55	14.208
347.91	13.520
348.27	13.788
348.63	14.082
349.00	14.014
349.36	14.553
349.72	15.214
350.08	14.907
350.45	14.395
350.81	13.761
351.17	13.020
351.53	14.088
351.89	14.141
352.26	13.757
352.62	13.952
352.98	14.264
353.34	14.946
353.70	13.838
354.07	14.154
354.43	14.055
354.79	13.212
355.15	14.242
355.51	13.595
355.87	14.608
356.24	14.781
356.60	13.242
356.96	12.434
357.32	13.338
357.68	14.170
358.04	14.210
358.40	14.468
358.77	14.801
359.13	12.613
359.49	12.973
359.85	13.775
360.21	13.150
360.57	13.577
360.93	14.141
361.29	13.420
361.66	14.169
362.02	13.352
362.38	14.358
362.74	13.376
363.10	13.955
363.46	13.605
363.82	14.586
364.18	12.945
364.54	13.448
364.90	13.788
365.26	13.255
365.62	13.674
365.98	14.109
366.35	12.483
366.71	14.018
367.07	14.198
367.43	13.835
367.79	14.162
368.15	12.144
368.51	14.197
368.87	13.383
369.23	14.345
369.59	12.879
369.95	13.776
370.31	12.526
370.67	13.185
371.03	13.866
371.39	13.504
371.75	12.980
372.11	13.664
372.47	13.767
372.83	12.576
373.19	13.160
373.55	13.402
373.91	12.293
374.27	13.161
374.63	13.627
374.99	13.208
375.35	12.836
375.71	12.929
376.07	13.329
376.42	12.660
376.78	12.524
377.14	13.565
377.50	12.921
377.86	12.748
378.22	13.650
378.58	13.983
378.94	12.311
379.30	13.038
379.66	12.944
380.02	13.255
380.38	12.119
380.74	13.956
381.09	12.442
381.45	13.006
381.81	12.943
382.17	12.515
382.53	12.597
382.89	13.010
383.25	12.611
383.61	13.545
383.97	13.197
384.32	13.502
384.68	14.320
385.04	13.306
385.40	13.405
385.76	12.697
386.12	12.863
386.48	12.888
386.83	13.570
387.19	12.603
387.55	13.958
387.91	12.182
388.27	13.325
388.62	13.439
388.98	12.653
389.34	12.731
389.70	12.854
390.06	13.232
390.42	12.647
390.77	12.592
391.13	12.432
391.49	12.644
391.85	12.923
392.20	12.872
392.56	13.620
392.92	12.577
393.28	12.948
393.64	12.385
393.99	13.219
394.35	12.655
394.71	12.606
395.07	12.530
395.42	12.471
395.78	13.325
396.14	13.735
396.50	12.575
396.85	12.805
397.21	12.274
397.57	12.791
397.92	11.381
398.28	11.969
398.64	13.322
399.00	12.293
399.35	11.863
399.71	13.245
400.07	12.728
400.42	12.955
400.78	12.903
401.14	12.683
401.49	12.788
401.85	12.920
402.21	12.244
402.57	12.448
402.92	12.788
403.28	12.828
403.63	13.420
403.99	13.028
404.35	13.482
404.70	13.585
405.06	12.353
405.42	12.926
405.77	12.569
406.13	12.419
406.49	12.507
406.84	12.465
407.20	12.957
407.55	12.369
407.91	13.401
408.27	12.978
408.62	13.187
408.98	12.951
409.34	13.326
409.69	11.948
410.05	12.761
410.40	12.014
410.76	12.650
411.11	13.152
411.47	12.593
411.83	12.712
412.18	12.258
412.54	13.033
412.89	12.271
413.25	12.657
413.60	12.325
413.96	12.867
414.31	12.751
414.67	12.477
415.03	12.516
415.38	12.997
415.74	12.950
416.09	12.929
416.45	14.286
416.80	13.214
417.16	12.349
417.51	13.185
417.87	11.952
418.22	13.001
418.58	12.166
418.93	12.731
419.29	12.138
419.64	12.962
420.00	12.768
420.35	12.485
420.71	12.252
421.06	11.713
421.42	12.493
421.77	12.160
422.12	12.293
422.48	11.813
422.83	12.221
423.19	12.419
423.54	12.178
423.90	11.948
424.25	11.888
424.61	12.826
424.96	11.971
425.31	12.534
425.67	11.785
426.02	12.114
426.38	11.960
426.73	12.551
427.09	12.633
427.44	11.649
427.79	11.950
428.15	12.787
428.50	12.571
428.85	12.640
429.21	12.156
429.56	11.565
429.92	11.686
430.27	11.998
430.62	11.601
430.98	11.826
431.33	11.643
431.68	11.506
432.04	11.950
432.39	11.910
432.74	12.529
433.10	12.458
433.45	12.119
433.80	13.127
434.16	12.034
434.51	12.487
434.86	12.520
435.22	11.615
435.57	12.567
435.92	12.578
436.28	12.442
436.63	12.966
436.98	12.275
437.34	12.728
437.69	11.646
438.04	12.312
438.39	12.026
438.75	12.973
439.10	11.819
439.45	12.380
439.81	12.261
440.16	12.273
440.51	12.050
440.86	12.764
441.22	12.392
441.57	11.916
441.92	12.142
442.27	11.907
442.63	11.687
442.98	12.662
443.33	12.641
443.68	11.620
444.03	11.640
444.39	12.147
444.74	12.060
445.09	12.164
445.44	12.221
445.79	11.111
446.15	11.842
446.50	11.973
446.85	11.952
447.20	11.493
447.55	11.691
447.91	12.254
448.26	12.780
448.61	12.051
448.96	12.200
449.31	11.331
449.66	12.458
450.02	12.210
450.37	12.604
450.72	12.837
451.07	11.926
451.42	11.915
451.77	12.829
452.12	12.933
452.47	12.454
452.83	12.676
453.18	12.733
453.53	12.789
453.88	12.171
454.23	12.958
454.58	12.238
454.93	12.324
455.28	12.729
455.63	12.352
455.98	12.634
456.34	12.888
456.69	12.988
457.04	11.993
457.39	12.286
457.74	13.401
458.09	11.960
458.44	12.596
458.79	12.679
459.14	12.439
459.49	12.627
459.84	12.935
460.19	12.712
460.54	13.390
460.89	12.420
461.24	12.199
461.59	12.642
461.94	12.648
462.29	13.272
462.64	12.437
462.99	13.052
463.34	12.962
463.69	13.672
464.04	13.011
464.39	12.593
464.74	11.489
465.09	12.826
465.44	12.731
465.79	11.813
466.14	12.295
466.49	11.720
466.84	12.040
467.19	12.537
467.54	12.733
467.89	13.263
468.24	12.044
468.59	13.095
468.94	12.923
469.29	12.889
469.64	13.119
469.99	13.817
470.34	12.840
470.68	12.897
471.03	12.542
471.38	12.914
471.73	12.867
472.08	12.459
472.43	12.725
472.78	13.764
473.13	12.641
473.48	12.103
473.83	12.780
474.17	13.435
474.52	12.737
474.87	12.678
475.22	12.564
475.57	12.907
475.92	11.804
476.27	12.078
476.61	12.118
476.96	13.271
477.31	12.442
477.66	12.829
478.01	12.584
478.36	12.770
478.70	11.911
479.05	12.134
479.40	12.599
479.75	13.208
480.10	12.343
480.45	11.998
480.79	12.488
481.14	11.222
481.49	11.985
481.84	11.609
482.19	12.052
482.53	12.077
482.88	12.142
483.23	12.269
483.58	11.894
483.92	12.569
484.27	11.772
484.62	12.267
484.97	11.804
485.31	11.545
485.66	10.912
486.01	10.789
486.36	10.191
486.70	10.192
487.05	10.477
487.40	11.135
487.75	11.463
488.09	11.506
488.44	11.536
488.79	11.420
489.13	12.169
489.48	12.026
489.83	12.177
490.17	12.180
490.52	12.145
490.87	12.586
491.22	12.677
491.56	12.604
491.91	12.590
492.26	12.339
492.60	12.620
492.95	12.007
493.30	12.329
493.64	12.040
493.99	12.433
494.34	12.416
494.68	11.731
495.03	12.528
495.37	12.877
495.72	12.494
496.07	11.995
496.41	12.381
496.76	12.157
497.11	12.853
497.45	12.495
497.80	13.392
498.14	12.853
498.49	12.071
498.84	13.224
499.18	12.112
499.53	12.356
499.87	12.129
500.22	12.345
500.56	12.210
500.91	13.590
501.26	13.045
501.60	12.614
501.95	11.649
502.29	12.756
502.64	12.880
502.98	12.272
503.33	12.695
503.67	12.494
504.02	12.450
504.36	12.715
504.71	13.576
505.06	12.529
505.40	12.541
505.75	12.254
506.09	12.739
506.44	12.594
506.78	12.240
507.13	12.603
507.47	12.324
507.82	12.944
508.16	13.033
508.51	12.754
508.85	12.773
509.19	13.363
509.54	12.793
509.88	12.829
510.23	13.186
510.57	12.790
510.92	13.137
511.26	12.952
511.61	12.900
511.95	12.942
512.30	12.650
512.64	13.292
512.98	13.480
513.33	12.756
513.67	13.516
514.02	12.675
514.36	13.551
514.70	12.960
515.05	12.094
515.39	12.993
515.74	13.942
516.08	13.344
516.42	13.770
516.77	13.227
517.11	12.747
517.46	12.931
517.80	12.889
518.14	13.465
518.49	13.451
518.83	12.857
519.17	13.644
519.52	14.200
519.86	13.842
520.20	13.808
520.55	13.058
520.89	13.333
521.23	13.493
521.58	14.056
521.92	13.120
522.26	13.922
522.61	13.904
522.95	12.853
523.29	13.216
523.64	13.642
523.98	13.732
524.32	13.437
524.66	13.275
525.01	13.254
525.35	13.553
525.69	14.509
526.04	14.277
526.38	13.655
526.72	13.902
527.06	13.483
527.41	14.268
527.75	13.816
528.09	13.185
528.43	13.789
528.78	13.417
529.12	13.907
529.46	13.735
529.80	13.843
530.15	13.789
530.49	14.079
530.83	13.772
531.17	13.592
531.51	13.918
531.86	13.587
532.20	14.091
532.54	13.120
532.88	13.429
533.22	14.321
533.57	13.789
533.91	13.345
534.25	13.560
534.59	13.626
534.93	13.254
535.27	12.180
535.62	13.594
535.96	13.593
536.30	14.199
536.64	14.037
536.98	13.971
537.32	15.000
537.66	13.202
538.01	14.365
538.35	14.036
538.69	13.350
539.03	12.998
539.37	13.350
539.71	13.519
540.05	12.800
540.39	14.214
540.73	13.671
541.07	13.300
541.42	13.433
541.76	13.687
542.10	13.317
542.44	13.279
542.78	13.090
543.12	12.883
543.46	13.409
543.80	13.596
544.14	13.560
544.48	13.321
544.82	13.028
545.16	13.358
545.50	14.075
545.84	13.826
546.18	15.020
546.52	14.164
546.86	13.798
547.20	13.566
547.54	13.680
547.88	13.443
548.22	13.661
548.56	13.907
548.90	13.464
549.24	13.266
549.58	13.209
549.92	13.883
550.26	13.725
550.60	13.706
550.94	14.450
551.28	14.414
551.62	15.103
551.96	13.784
552.30	12.788
552.64	13.851
552.98	12.822
553.32	13.380
553.66	13.616
554.00	13.642
554.34	14.647
554.68	13.508
555.02	14.053
555.36	12.899
555.69	12.893
556.03	13.503
556.37	13.512
556.71	14.472
557.05	12.385
557.39	14.133
557.73	14.016
558.07	14.487
558.41	13.777
558.75	14.501
559.08	14.939
559.42	13.243
559.76	14.897
560.10	13.489
560.44	13.935
560.78	13.811
561.12	14.367
561.45	12.891
561.79	14.107
562.13	13.203
562.47	12.979
562.81	13.012
563.15	12.864
563.48	12.981
563.82	14.161
564.16	13.433
564.50	12.598
564.84	13.252
565.17	13.012
565.51	13.916
565.85	13.572
566.19	12.857
566.52	12.876
566.86	13.777
567.20	13.820
567.54	13.046
567.88	12.937
568.21	12.581
568.55	12.597
568.89	12.819
569.23	11.864
569.56	12.300
569.90	11.930
570.24	11.993
570.57	11.356
570.91	10.983
571.25	11.299
571.59	10.829
571.92	11.060
572.26	10.997
572.60	10.691
572.93	11.041
573.27	11.057
573.61	11.153
573.95	10.732
574.28	10.713
574.62	10.736
574.96	10.353
575.29	10.528
575.63	10.695
575.97	10.638
576.30	10.731
576.64	10.557
576.98	10.448
577.31	10.907
577.65	10.600
577.98	9.871
578.32	10.099
578.66	10.692
578.99	10.971
579.33	10.510
579.67	10.316
580.00	10.640
580.34	10.438
580.67	10.291
581.01	10.643
581.35	10.296
581.68	10.018
582.02	9.870
582.35	10.156
582.69	10.169
583.02	10.403
583.36	10.715
583.70	10.629
584.03	11.111
584.37	10.828
584.70	10.848
585.04	10.540
585.37	10.167
585.71	10.629
586.04	10.378
586.38	10.797
586.72	10.528
587.05	11.117
587.39	10.771
587.72	10.759
588.06	10.430
588.39	10.619
588.73	10.760
589.06	10.651
589.40	10.610
589.73	11.177
590.07	11.462
590.40	11.707
590.73	12.119
591.07	11.765
591.40	12.056
591.74	11.567
592.07	10.857
592.41	11.191
592.74	10.985
593.08	11.068
593.41	10.622
593.75	10.805
594.08	10.964
594.41	11.404
594.75	11.267
595.08	10.837
595.42	11.323
595.75	11.089
596.09	11.436
596.42	10.706
596.75	11.819
597.09	11.308
597.42	11.388
597.75	11.521
598.09	11.325
598.42	11.873
598.76	10.871
599.09	11.217
599.42	10.554
599.76	11.330
600.09	10.881
600.42	11.050
600.76	10.571
601.09	10.770
601.42	11.158
601.76	10.884
602.09	11.185
602.42	11.017
602.76	11.385
603.09	11.501
603.42	11.743
603.76	11.208
604.09	11.618
604.42	11.073
604.76	11.497
605.09	11.551
605.42	11.946
605.75	11.133
606.09	11.056
606.42	11.424
606.75	11.660
607.09	11.370
607.42	11.410
607.75	11.425
608.08	11.535
608.42	11.116
608.75	11.297
609.08	11.175
609.41	11.818
609.75	12.088
610.08	12.050
610.41	11.682
610.74	11.645
611.07	11.551
611.41	11.863
611.74	11.568
612.07	12.042
612.40	12.476
612.73	11.932
613.07	11.911
613.40	12.030
613.73	12.132
614.06	10.900
614.39	12.727
614.72	12.155
615.06	11.474
615.39	12.327
615.72	12.052
616.05	12.757
616.38	11.466
616.71	11.720
617.05	11.642
617.38	11.629
617.71	12.486
618.04	12.170
618.37	12.118
618.70	12.991
619.03	12.149
619.36	12.688
619.69	13.918
620.03	13.960
620.36	12.653
620.69	13.346
621.02	14.130
621.35	13.109
621.68	14.749
622.01	14.539
622.34	13.765
622.67	13.062
623.00	13.206
623.33	13.158
623.66	13.041
623.99	12.808
624.32	12.669
624.65	12.903
624.99	13.658
625.32	12.625
625.65	12.207
625.98	13.180
626.31	13.427
626.64	12.604
626.97	13.925
627.30	13.121
627.63	13.815
627.96	13.067
628.29	14.026
628.62	12.489
628.95	14.184
629.28	14.286
629.61	13.972
629.94	14.002
630.26	14.471
630.59	14.716
630.92	14.978
631.25	14.325
631.58	15.815
631.91	14.177
632.24	13.703
632.57	14.735
632.90	15.735
633.23	15.845
633.56	14.226
633.89	15.648
634.22	15.823
634.55	14.946
634.88	16.101
635.20	16.256
635.53	16.725
635.86	17.002
636.19	13.468
636.52	14.811
636.85	14.995
637.18	15.385
637.51	14.302
637.83	13.501
638.16	16.178
638.49	15.569
638.82	16.784
639.15	14.454
639.48	16.588
639.81	15.140
640.13	16.810
640.46	17.193
640.79	15.865
641.12	16.535
641.45	18.370
641.77	16.513
642.10	16.734
642.43	17.354
642.76	16.903
643.09	15.130
643.41	16.830
643.74	17.842
644.07	17.552
644.40	15.828
644.73	17.868
645.05	19.316
645.38	14.855
645.71	17.602
646.04	17.710
646.36	17.997
646.69	17.600
647.02	17.600
647.35	17.638
647.67	17.180
648.00	16.450
648.33	17.594
648.66	16.515
648.98	14.928
649.31	14.710
649.64	16.736
649.96	14.651
650.29	16.857
650.62	16.495
650.94	18.223
651.27	17.544
651.60	18.466
651.92	17.051
652.25	16.063
652.58	17.021
652.90	18.114
653.23	15.510
653.56	14.837
653.88	16.740
654.21	16.276
654.54	16.252
654.86	15.929
655.19	15.435
655.52	12.692
655.84	8.493
656.17	9.582
656.49	13.561
656.82	15.896
657.15	12.870
657.47	9.671
657.80	7.333
658.13	5.802
658.45	7.940
658.78	10.115
659.10	10.228
659.43	10.192
659.75	11.306
660.08	12.406
660.41	12.886
660.73	16.939
661.06	17.267
661.38	17.888
661.71	17.266
662.03	18.061
662.36	17.333
662.68	17.691
663.01	19.279
663.33	18.491
663.66	18.540
663.98	19.841
664.31	19.590
664.63	21.456
664.96	18.949
665.28	17.137
665.61	17.925
665.93	17.925
666.26	15.888
666.58	20.367
666.91	18.726
667.23	16.867
667.56	18.891
667.88	20.539
668.21	20.287
668.53	18.952
668.86	20.240
669.18	19.348
669.50	18.595
669.83	18.686
670.15	20.790
670.48	15.820
670.80	20.916
671.13	19.522
671.45	20.842
671.77	19.109
672.10	18.492
672.42	17.270
672.75	16.456
673.07	16.693
673.39	18.371
673.72	18.858
674.04	17.921
674.37	17.786
674.69	17.472
675.01	18.284
675.34	18.411
675.66	18.945
675.98	17.357
676.31	19.400
676.63	16.899
676.95	18.651
677.28	17.647
677.60	18.712
677.92	15.476
678.25	19.380
678.57	19.926
678.89	19.711
679.22	17.831
679.54	16.726
679.86	17.452
680.18	17.399
680.51	15.920
680.83	14.358
681.15	18.718
681.48	18.403
681.80	16.988
682.12	17.474
682.44	15.856
682.77	17.616
683.09	17.476
683.41	16.939
683.73	19.488
684.06	16.071
684.38	20.349
684.70	17.266
685.02	15.625
685.34	17.606
685.67	16.720
685.99	17.406
686.31	16.025
686.63	17.724
686.96	16.340
687.28	13.926
687.60	16.894
687.92	18.258
688.24	17.759
688.56	18.861
688.89	15.488
689.21	18.497
689.53	20.949
689.85	16.870
690.17	18.641
690.49	20.161
690.82	17.857
691.14	18.586
691.46	19.097
691.78	18.908
692.10	16.985
692.42	17.241
692.74	17.442
693.06	18.217
693.39	18.182
693.71	16.699
694.03	18.935
694.35	22.691
694.67	19.348
694.99	19.069
695.31	19.144
695.63	18.552
695.95	20.136
696.27	20.796
696.59	19.809
696.91	17.722
697.23	19.231
697.56	17.635
697.88	16.367
698.20	19.623
698.52	15.370
698.84	20.329
699.16	20.896
699.48	16.737
699.80	19.826
700.12	17.552
700.44	21.028
700.76	21.241
701.08	18.538
701.40	20.519
701.72	23.797
702.04	20.325
702.36	20.968
702.68	20.745
703.00	21.805
703.32	21.588
703.64	20.655
703.96	20.052
704.28	21.693
704.60	17.746
704.91	20.728
705.23	19.034
705.55	23.442
705.87	19.365
706.19	22.257
706.51	26.646
706.83	23.599
707.15	22.193
707.47	23.971
707.79	20.460
708.11	19.048
708.43	18.202
708.74	18.778
709.06	20.233
709.38	18.859
709.70	21.253
710.02	19.565
710.34	23.481
710.66	19.444
710.98	22.951
711.29	22.006
711.61	20.891
711.93	19.149
712.25	21.386
712.57	20.900
712.89	22.121
713.20	26.837
713.52	21.184
713.84	23.263
714.16	19.420
714.48	16.138
714.80	21.409
715.11	20.745
715.43	18.715
715.75	22.817
716.07	21.098
716.39	20.857
716.70	20.249
717.02	21.886
717.34	25.180
717.66	24.653
717.97	25.758
718.29	22.887
718.61	20.946
718.93	22.491
719.24	26.510
719.56	22.069
719.88	16.879
720.20	24.516
720.51	19.935
720.83	24.749
721.15	24.490
721.46	25.342
721.78	24.390
722.10	24.653
722.42	24.415
722.73	21.661
723.05	26.667
723.37	24.735
723.68	23.047
724.00	25.379
724.32	25.475
724.63	26.154
724.95	26.275
725.27	25.279
725.58	23.529
725.90	19.718
726.22	21.233
726.53	23.077
726.85	23.453
727.16	23.826
727.48	21.927
727.80	23.381
728.11	25.000
728.43	18.478
728.74	22.028
729.06	22.581
729.38	25.263
729.69	23.667
730.01	22.697
730.32	23.154
730.64	24.917
730.96	19.219
731.27	18.654
731.59	18.103
731.90	20.613
732.22	20.000
732.53	19.943
732.85	23.392
733.16	18.072
733.48	21.003
733.80	20.870
734.11	23.313
734.43	18.713
734.74	20.375
735.06	19.841
735.37	15.979
735.69	18.841
736.00	18.960
736.32	18.485
736.63	18.612
736.95	16.149
737.26	23.171
737.58	22.699
737.89	19.277
738.21	22.517
738.52	19.732
738.83	25.641
739.15	21.254
739.46	23.448
739.78	22.789
740.09	24.198
740.41	19.939
740.72	24.127
741.04	24.476
741.35	23.437
741.66	25.296
741.98	25.751
742.29	24.074
742.61	23.009
742.92	26.695
743.23	24.000
743.55	22.264
743.86	22.353
744.18	25.847
744.49	28.099
744.80	25.806
745.12	32.143
745.43	24.299
745.74	26.667
746.06	21.930
746.37	25.116
746.68	29.646
747.00	23.318
747.31	24.790
747.62	20.082
747.94	25.322
748.25	20.623
748.56	23.729
748.88	24.554
749.19	20.930
749.50	23.288
749.82	24.691
750.13	24.901
750.44	19.333
750.75	23.826
751.07	22.697
751.38	19.802
751.69	18.855
752.01	24.476
752.32	24.252
752.63	24.832
752.94	21.329
753.26	21.875
753.57	26.459
753.88	20.599
754.19	23.466
754.51	21.595
754.82	21.477
755.13	21.622
755.44	20.370
755.75	23.368
756.07	22.603
756.38	17.974
756.69	19.063
757.00	23.145
757.31	20.563
757.63	19.284
757.94	19.415
758.25	18.599
758.56	16.476
758.87	18.045
759.18	18.023
759.50	22.492
759.81	22.255
760.12	19.944
760.43	18.487
760.74	20.506
761.05	21.485
761.36	17.969
761.67	19.407
761.99	20.282
762.30	19.293
762.61	20.833
762.92	27.273
763.23	23.019
763.54	24.231
763.85	17.121
764.16	22.222
764.47	24.324
764.78	18.893
765.10	20.122
765.41	18.750
765.72	20.166
766.03	17.523
766.34	17.770
766.65	23.574
766.96	28.745
767.27	29.439
767.58	28.713
767.89	33.149
768.20	38.415
768.51	21.429
768.82	27.632
769.13	27.059
769.44	20.677
769.75	19.850
770.06	26.050
770.37	18.421
770.68	23.556
770.99	27.542
771.30	24.268
771.61	27.692
771.92	25.191
772.23	25.000
772.54	27.556
772.85	32.178
773.16	30.435
773.47	28.889
773.78	29.703
774.09	27.841
774.39	33.333
774.70	22.353
775.01	30.921
775.32	34.783
775.63	36.986
775.94	35.802
776.25	36.552
776.56	40.458
776.87	46.565
777.18	39.394
777.48	50.394
777.79	35.385
778.10	34.848
778.41	40.299
778.72	36.842
779.03	19.872
779.34	31.081
779.65	31.056
779.95	34.783
780.26	29.167
780.57	35.374
780.88	34.043
781.19	34.167
781.50	34.320
781.80	32.787
782.11	30.688
782.42	34.483
782.73	35.028
783.04	26.452
783.34	23.256
783.65	27.891
783.96	37.419
784.27	25.828
784.57	28.289
784.88	34.058
785.19	35.833
785.50	41.379
785.81	46.512
786.11	38.519
786.42	38.583
786.73	46.847
787.04	45.283
787.34	40.650
787.65	41.667
787.96	37.121
788.26	36.220
788.57	43.066
788.88	33.803
789.19	29.771
789.49	35.135
789.80	39.844
790.11	33.884
790.41	39.815
790.72	45.370
791.03	48.077
791.33	46.465
791.64	43.158
791.95	52.632
792.25	39.583
792.56	47.000
792.87	51.220
793.17	50.000
793.48	45.882
793.79	50.575
794.09	55.682
794.40	50.862
794.70	40.476
795.01	33.077
795.32	37.405
795.62	35.897
795.93	38.655
796.23	37.398
796.54	55.102
796.85	48.864
797.15	51.948
797.46	60.976
797.76	48.750
798.07	73.333
798.37	62.500
798.68	56.250
798.99	63.415
799.29	46.667
799.60	41.860
799.90	56.579
800.21	59.091
800.51	74.648
800.82	81.034
801.12	69.231
801.43	62.667
801.73	51.724
802.04	49.351
802.34	57.534
802.65	62.745
802.95	58.696
803.26	67.742
803.56	61.667
803.87	77.612
804.17	57.143
804.48	39.623
804.78	62.500
805.09	59.091
805.39	77.778
805.70	75.439
806.00	51.429
806.30	51.562
806.61	56.471
806.91	51.111
807.22	42.391
807.52	47.368
807.83	63.158
808.13	71.014
808.43	69.355
808.74	58.904
809.04	71.429
809.35	61.765
809.65	65.152
809.95	84.314
810.26	81.481
810.56	85.937
810.86	63.265
811.17	73.684
811.47	71.739
811.77	67.241
812.08	67.241
812.38	66.667
812.69	109.524
812.99	75.556
813.29	114.286
813.59	112.903
813.90	60.345
814.20	86.885
814.50	56.000
814.81	63.158
815.11	83.333
815.41	76.786
815.72	100.000
816.02	80.000
816.32	124.390
816.62	89.655
816.93	109.091
817.23	104.878
817.53	83.929
817.84	91.111
818.14	80.952
818.44	79.167
818.74	101.887
819.04	107.692
819.35	133.333
819.65	94.231
819.95	90.741
820.25	114.894
820.56	135.135
820.86	115.789
821.16	89.362
821.46	115.789
821.76	72.727
822.07	88.095
822.37	100.000
822.67	106.977
822.97	94.737
823.27	100.000
823.57	109.375
823.88	89.744
824.18	106.061
824.48	147.826
824.78	94.444
825.08	126.087
825.38	155.172
825.69	100.000
825.99	72.340
826.29	94.444
826.59	100.000
826.89	143.333
827.19	125.714
827.49	119.355
827.79	138.462
828.09	83.333
828.39	69.444
828.70	78.378
829.00	132.143
829.30	206.250
829.60	111.111
829.90	112.903
830.20	84.848
830.50	132.432
830.80	154.167
831.10	153.846
831.40	171.429
831.70	195.833
832.00	100.000
832.30	182.609
832.60	158.333
832.90	130.303
833.20	205.000
833.50	105.263
833.80	91.176
834.10	134.211
834.40	142.105
834.70	123.333
835.00	156.000
835.30	91.892
835.60	150.000
835.90	124.324
836.20	146.154
836.50	150.000
836.80	104.878
837.10	147.826
837.40	284.615
837.70	131.579
838.00	140.000
838.30	112.500
838.60	128.000
838.90	350.000
839.19	225.000
839.49	100.000
839.79	120.690
840.09	126.923
840.39	226.667
840.69	152.632
840.99	166.667
841.29	160.870
841.59	135.000
841.88	156.000
842.18	355.556
842.48	146.429
842.78	177.778
843.08	246.154
843.38	154.545
843.68	264.286
843.97	485.714
844.27	169.565
844.57	1550.000
844.87	278.571
845.17	222.222
845.47	90.476
845.76	170.833
846.06	600.000
846.36	176.471
846.66	215.385
846.96	250.000
847.25	253.846
847.55	163.158
847.85	200.000
848.15	540.000
848.44	318.182
848.74	185.714
849.04	187.500
849.34	200.000
849.63	256.250
849.93	250.000
850.23	1000.000
850.53	387.500
850.82	354.545
851.12	164.706
851.42	154.167
851.71	262.500
852.01	0.000
852.31	194.118
852.61	340.000
852.90	233.333
853.20	366.667
853.50	-2300.000
853.79	156.000
854.09	128.125
854.39	100.000
854.68	120.690
854.98	219.048
855.28	129.032
855.57	250.000
855.87	150.000
856.17	118.519
856.46	142.105
856.76	122.581
857.05	241.176
857.35	354.545
857.65	261.538
857.94	155.000
858.24	400.000
858.53	228.571
858.83	571.429
859.13	204.348
859.42	188.889
859.72	412.500
860.01	308.333
860.31	950.000
860.60	370.000
860.90	300.000
861.20	215.385
861.49	457.143
861.79	-3200.000
862.08	557.143
862.38	433.333
862.67	185.714
862.97	310.000
863.26	140.000
863.56	750.000
863.85	292.308
864.15	294.118
864.44	211.111
864.74	291.667
865.03	309.091
865.33	275.000
865.62	253.333
865.92	483.333
866.21	975.000
866.51	680.000
866.80	266.667
867.10	1100.000
867.39	2800.000
867.69	740.000
867.98	800.000
868.27	185.714
868.57	273.333
868.86	975.000
869.16	190.476
869.45	3400.000
869.75	-533.333
870.04	575.000
870.33	720.000
870.63	400.000
870.92	211.765
871.22	800.000
871.51	514.286
871.80	283.333
872.10	307.692
>>>>>End Processed Spectral Data<<<<<
