SpectraSuite Data File
++++++++++++++++++++++++++++++++++++
Date: Tue May 12 15:22:49 PDT 2015
User: schluterlab
Dark Spectrum Present: Yes
Reference Spectrum Present: Yes
Number of Sampled Component Spectra: 1
Spectrometers: USB2E3373
Integration Time (usec): 3000 (USB2E3373)
Spectra Averaged: 3 (USB2E3373)
Boxcar Smoothing: 0 (USB2E3373)
Correct for Electrical Dark: No (USB2E3373)
Strobe/Lamp Enabled: No (USB2E3373)
Correct for Detector Non-linearity: No (USB2E3373)
Correct for Stray Light: No (USB2E3373)
Number of Pixels in Processed Spectrum: 2048
>>>>>Begin Processed Spectral Data<<<<<
178.53	0.000
178.91	-191.667
179.29	-725.000
179.67	-3000.000
180.04	-73.333
180.42	625.000
180.80	1100.000
181.18	0.000
181.56	-362.500
181.94	0.000
182.31	1233.333
182.69	-3300.000
183.07	514.286
183.45	-3000.000
183.83	-1350.000
184.20	310.000
184.58	585.714
184.96	-246.154
185.34	-150.000
185.72	1700.000
186.09	-600.000
186.47	-3100.000
186.85	966.667
187.23	500.000
187.61	1850.000
187.98	437.500
188.36	207.143
188.74	316.667
189.12	316.667
189.49	875.000
189.87	0.000
190.25	437.500
190.63	2800.000
191.00	-241.667
191.38	-3600.000
191.76	-775.000
192.14	475.000
192.51	-1900.000
192.89	1500.000
193.27	866.667
193.65	-1233.333
194.02	-700.000
194.40	442.857
194.78	-242.857
195.15	173.333
195.53	-2700.000
195.91	-440.000
196.29	4300.000
196.66	262.500
197.04	650.000
197.42	-1850.000
197.79	525.000
198.17	333.333
198.55	0.000
198.92	371.429
199.30	833.333
199.68	1550.000
200.05	700.000
200.43	-383.333
200.81	211.111
201.18	2800.000
201.56	266.667
201.94	-625.000
202.31	-350.000
202.69	-520.000
203.07	2600.000
203.44	-450.000
203.82	283.333
204.19	720.000
204.57	-1550.000
204.95	-800.000
205.32	-520.000
205.70	483.333
206.08	475.000
206.45	-1000.000
206.83	366.667
207.20	131.579
207.58	283.333
207.96	660.000
208.33	0.000
208.71	642.857
209.08	480.000
209.46	-3200.000
209.84	-725.000
210.21	780.000
210.59	-340.000
210.96	300.000
211.34	-975.000
211.71	300.000
212.09	850.000
212.46	1650.000
212.84	-450.000
213.22	433.333
213.59	-2600.000
213.97	340.000
214.34	725.000
214.72	933.333
215.09	700.000
215.47	-2600.000
215.84	-220.000
216.22	-462.500
216.59	0.000
216.97	0.000
217.34	1350.000
217.72	-1250.000
218.09	1033.333
218.47	400.000
218.84	850.000
219.22	866.667
219.59	800.000
219.97	457.143
220.34	477.778
220.72	1300.000
221.09	2600.000
221.47	300.000
221.84	766.667
222.22	430.000
222.59	255.556
222.97	235.714
223.34	237.500
223.72	-1250.000
224.09	1233.333
224.46	292.308
224.84	-775.000
225.21	300.000
225.59	260.000
225.96	1266.667
226.34	-580.000
226.71	-600.000
227.08	-500.000
227.46	0.000
227.83	-533.333
228.21	-1250.000
228.58	300.000
228.95	850.000
229.33	344.444
229.70	800.000
230.08	307.692
230.45	3300.000
230.82	-900.000
231.20	-833.333
231.57	-833.333
231.95	340.000
232.32	291.667
232.69	683.333
233.07	325.000
233.44	-1800.000
233.81	220.000
234.19	122.222
234.56	187.500
234.93	176.471
235.31	185.000
235.68	300.000
236.05	146.429
236.43	148.148
236.80	157.143
237.17	134.483
237.55	115.625
237.92	105.000
238.29	69.697
238.67	93.750
239.04	92.683
239.41	68.750
239.79	72.500
240.16	58.333
240.53	70.492
240.91	55.072
241.28	72.881
241.65	48.485
242.02	56.338
242.40	70.000
242.77	50.549
243.14	32.911
243.51	54.545
243.89	38.318
244.26	37.383
244.63	39.604
245.00	41.284
245.38	36.441
245.75	31.818
246.12	42.963
246.49	31.206
246.87	36.066
247.24	37.333
247.61	33.125
247.98	38.095
248.36	23.030
248.73	37.755
249.10	24.405
249.47	29.000
249.84	27.363
250.22	24.324
250.59	26.000
250.96	24.473
251.33	22.326
251.70	27.679
252.08	25.210
252.45	21.116
252.82	22.433
253.19	22.925
253.56	18.846
253.94	25.000
254.31	21.705
254.68	21.254
255.05	25.172
255.42	21.168
255.79	20.847
256.16	21.017
256.54	22.727
256.91	21.895
257.28	20.067
257.65	15.674
258.02	18.289
258.39	19.771
258.76	19.130
259.14	18.571
259.51	23.615
259.88	19.149
260.25	15.934
260.62	16.712
260.99	18.733
261.36	17.827
261.73	19.415
262.10	17.539
262.47	18.500
262.85	16.800
263.22	19.023
263.59	16.880
263.96	20.301
264.33	16.790
264.70	18.673
265.07	15.854
265.44	18.807
265.81	14.387
266.18	16.018
266.55	17.494
266.92	15.436
267.29	16.886
267.66	15.695
268.03	14.798
268.40	17.548
268.77	15.859
269.14	16.920
269.51	17.595
269.88	15.918
270.25	13.607
270.62	17.597
270.99	17.647
271.36	17.073
271.73	15.723
272.10	15.354
272.47	17.659
272.84	13.972
273.21	15.702
273.58	16.397
273.95	14.990
274.32	15.564
274.69	16.142
275.06	17.122
275.43	17.433
275.80	16.604
276.17	15.441
276.54	18.692
276.91	16.604
277.28	12.956
277.65	15.314
278.02	15.074
278.39	16.367
278.76	14.655
279.13	14.413
279.50	15.273
279.87	14.153
280.23	15.285
280.60	14.599
280.97	15.000
281.34	14.026
281.71	15.478
282.08	16.239
282.45	15.034
282.82	16.388
283.19	14.785
283.56	15.868
283.92	15.635
284.29	14.975
284.66	13.277
285.03	14.096
285.40	14.380
285.77	13.735
286.14	17.647
286.51	15.644
286.87	14.082
287.24	12.913
287.61	14.286
287.98	14.478
288.35	15.556
288.72	14.871
289.08	15.165
289.45	14.787
289.82	14.844
290.19	13.470
290.56	15.866
290.93	15.108
291.29	14.917
291.66	14.972
292.03	14.306
292.40	14.634
292.77	15.460
293.13	15.264
293.50	16.329
293.87	13.686
294.24	16.224
294.60	16.016
294.97	14.965
295.34	15.538
295.71	15.243
296.08	15.333
296.44	16.773
296.81	15.136
297.18	14.195
297.55	14.286
297.91	14.655
298.28	15.338
298.65	16.442
299.02	15.078
299.38	17.266
299.75	14.756
300.12	16.170
300.48	14.871
300.85	16.567
301.22	16.163
301.59	14.269
301.95	14.469
302.32	15.949
302.69	16.516
303.05	16.162
303.42	15.471
303.79	16.793
304.15	15.732
304.52	14.905
304.89	16.631
305.25	15.907
305.62	15.032
305.99	16.522
306.35	15.895
306.72	15.921
307.09	16.149
307.45	15.628
307.82	15.638
308.19	17.216
308.55	15.500
308.92	17.174
309.29	16.174
309.65	16.353
310.02	17.343
310.38	15.852
310.75	15.333
311.12	15.613
311.48	17.954
311.85	16.698
312.22	17.287
312.58	18.270
312.95	16.990
313.31	16.854
313.68	18.199
314.05	17.857
314.41	16.946
314.78	18.466
315.14	18.768
315.51	18.448
315.87	16.697
316.24	17.740
316.61	17.905
316.97	18.624
317.34	17.880
317.70	18.701
318.07	19.039
318.43	18.893
318.80	19.352
319.16	18.794
319.53	19.912
319.89	18.817
320.26	20.764
320.62	21.795
320.99	21.544
321.35	20.130
321.72	22.011
322.08	21.237
322.45	20.799
322.81	22.232
323.18	22.913
323.54	22.997
323.91	23.481
324.27	22.723
324.64	21.626
325.00	24.138
325.37	23.272
325.73	23.440
326.10	24.441
326.46	24.277
326.83	23.920
327.19	24.739
327.56	24.521
327.92	25.984
328.29	26.596
328.65	26.969
329.01	26.347
329.38	25.973
329.74	25.534
330.11	27.020
330.47	28.218
330.84	25.712
331.20	27.327
331.56	29.706
331.93	28.058
332.29	25.510
332.66	27.466
333.02	27.148
333.38	27.138
333.75	28.691
334.11	26.678
334.48	27.265
334.84	26.436
335.20	27.545
335.57	26.700
335.93	27.418
336.29	27.363
336.66	28.130
337.02	27.459
337.38	26.999
337.75	26.943
338.11	27.342
338.47	26.080
338.84	26.926
339.20	26.667
339.56	26.241
339.93	26.338
340.29	26.050
340.65	26.907
341.02	27.031
341.38	26.437
341.74	26.910
342.11	27.129
342.47	25.185
342.83	27.071
343.20	26.112
343.56	25.179
343.92	26.259
344.28	26.316
344.65	27.221
345.01	26.111
345.37	25.000
345.73	25.238
346.10	25.339
346.46	26.475
346.82	24.228
347.19	25.966
347.55	25.527
347.91	25.076
348.27	26.336
348.63	26.345
349.00	26.047
349.36	27.082
349.72	25.841
350.08	25.000
350.45	26.047
350.81	26.223
351.17	25.270
351.53	25.481
351.89	25.175
352.26	25.472
352.62	25.113
352.98	24.923
353.34	26.965
353.70	24.541
354.07	26.308
354.43	25.346
354.79	24.981
355.15	25.421
355.51	25.151
355.87	24.925
356.24	25.789
356.60	23.440
356.96	25.246
357.32	25.396
357.68	25.110
358.04	25.836
358.40	25.712
358.77	25.545
359.13	25.450
359.49	25.945
359.85	25.093
360.21	24.146
360.57	25.547
360.93	25.180
361.29	24.387
361.66	25.280
362.02	23.722
362.38	24.315
362.74	23.921
363.10	25.456
363.46	24.448
363.82	24.895
364.18	25.107
364.54	25.036
364.90	25.167
365.26	25.815
365.62	24.793
365.98	24.776
366.35	25.034
366.71	25.330
367.07	23.891
367.43	24.782
367.79	23.870
368.15	25.780
368.51	24.328
368.87	24.660
369.23	25.017
369.59	24.410
369.95	25.245
370.31	25.530
370.67	23.872
371.03	25.770
371.39	24.654
371.75	24.215
372.11	24.881
372.47	25.274
372.83	24.609
373.19	26.045
373.55	24.742
373.91	25.138
374.27	24.339
374.63	24.678
374.99	25.943
375.35	24.261
375.71	24.604
376.07	25.729
376.42	23.274
376.78	24.791
377.14	24.115
377.50	24.282
377.86	24.407
378.22	24.314
378.58	25.424
378.94	24.080
379.30	24.500
379.66	25.166
380.02	24.985
380.38	24.005
380.74	25.433
381.09	24.533
381.45	24.162
381.81	24.764
382.17	24.664
382.53	24.295
382.89	25.192
383.25	24.571
383.61	22.997
383.97	24.475
384.32	25.859
384.68	25.134
385.04	24.385
385.40	24.377
385.76	24.166
386.12	24.304
386.48	24.802
386.83	24.328
387.19	24.028
387.55	24.499
387.91	24.134
388.27	24.688
388.62	23.592
388.98	24.373
389.34	23.319
389.70	23.821
390.06	24.268
390.42	23.812
390.77	24.324
391.13	23.718
391.49	23.956
391.85	24.985
392.20	24.851
392.56	25.030
392.92	24.761
393.28	23.487
393.64	23.624
393.99	23.355
394.35	23.955
394.71	24.367
395.07	24.027
395.42	24.122
395.78	25.170
396.14	24.217
396.50	24.609
396.85	23.841
397.21	24.188
397.57	23.610
397.92	23.570
398.28	24.049
398.64	24.200
399.00	23.036
399.35	22.866
399.71	23.675
400.07	24.315
400.42	23.940
400.78	23.754
401.14	23.488
401.49	23.502
401.85	23.696
402.21	23.609
402.57	24.057
402.92	24.970
403.28	23.807
403.63	23.602
403.99	22.859
404.35	23.857
404.70	24.335
405.06	23.414
405.42	24.177
405.77	22.602
406.13	24.187
406.49	22.683
406.84	22.843
407.20	24.030
407.55	24.062
407.91	24.825
408.27	24.257
408.62	24.069
408.98	24.128
409.34	23.729
409.69	23.709
410.05	23.196
410.40	22.909
410.76	23.240
411.11	24.822
411.47	24.136
411.83	23.667
412.18	22.343
412.54	23.243
412.89	23.422
413.25	23.717
413.60	24.124
413.96	24.476
414.31	24.262
414.67	23.898
415.03	24.457
415.38	24.290
415.74	23.879
416.09	23.923
416.45	24.693
416.80	24.631
417.16	24.252
417.51	24.268
417.87	22.841
418.22	23.755
418.58	24.904
418.93	24.569
419.29	23.968
419.64	25.257
420.00	24.523
420.35	24.216
420.71	24.796
421.06	23.955
421.42	24.467
421.77	23.987
422.12	24.697
422.48	23.883
422.83	24.777
423.19	25.108
423.54	24.685
423.90	25.481
424.25	25.427
424.61	25.479
424.96	24.337
425.31	25.123
425.67	25.196
426.02	25.743
426.38	24.329
426.73	25.506
427.09	25.504
427.44	25.774
427.79	25.729
428.15	25.751
428.50	26.343
428.85	25.985
429.21	26.364
429.56	26.022
429.92	26.504
430.27	26.415
430.62	26.774
430.98	26.697
431.33	25.454
431.68	26.272
432.04	25.970
432.39	26.784
432.74	26.932
433.10	28.018
433.45	27.513
433.80	27.744
434.16	26.327
434.51	27.812
434.86	27.327
435.22	26.634
435.57	27.919
435.92	29.368
436.28	28.629
436.63	27.445
436.98	28.547
437.34	27.626
437.69	27.436
438.04	28.333
438.39	28.196
438.75	29.232
439.10	28.494
439.45	28.038
439.81	29.208
440.16	27.903
440.51	28.209
440.86	29.573
441.22	28.517
441.57	29.239
441.92	28.430
442.27	28.763
442.63	29.421
442.98	28.341
443.33	30.102
443.68	28.773
444.03	28.275
444.39	28.531
444.74	28.986
445.09	28.647
445.44	29.543
445.79	29.094
446.15	29.368
446.50	29.958
446.85	28.785
447.20	28.856
447.55	29.636
447.91	30.847
448.26	29.979
448.61	30.625
448.96	30.338
449.31	30.033
449.66	30.066
450.02	29.822
450.37	30.539
450.72	31.129
451.07	30.832
451.42	31.180
451.77	30.985
452.12	30.970
452.47	30.923
452.83	31.662
453.18	31.351
453.53	31.380
453.88	31.657
454.23	31.551
454.58	31.002
454.93	30.166
455.28	31.946
455.63	32.506
455.98	30.739
456.34	31.733
456.69	32.012
457.04	31.802
457.39	31.029
457.74	31.419
458.09	31.499
458.44	30.887
458.79	32.520
459.14	30.824
459.49	31.031
459.84	32.174
460.19	31.977
460.54	32.707
460.89	32.249
461.24	30.813
461.59	31.576
461.94	31.797
462.29	32.151
462.64	33.731
462.99	32.502
463.34	32.664
463.69	33.394
464.04	32.527
464.39	32.169
464.74	31.770
465.09	32.734
465.44	31.665
465.79	32.118
466.14	31.638
466.49	32.447
466.84	31.048
467.19	32.162
467.54	31.712
467.89	32.570
468.24	32.658
468.59	32.857
468.94	32.971
469.29	32.560
469.64	32.605
469.99	33.419
470.34	32.638
470.68	33.034
471.03	33.222
471.38	32.649
471.73	32.528
472.08	34.834
472.43	33.830
472.78	33.803
473.13	32.979
473.48	32.396
473.83	33.392
474.17	32.827
474.52	32.464
474.87	33.087
475.22	34.038
475.57	33.158
475.92	32.550
476.27	32.753
476.61	32.279
476.96	32.654
477.31	32.751
477.66	33.226
478.01	33.007
478.36	32.904
478.70	32.605
479.05	33.002
479.40	32.440
479.75	34.409
480.10	32.527
480.45	33.100
480.79	32.995
481.14	32.715
481.49	32.434
481.84	32.366
482.19	33.188
482.53	33.070
482.88	32.616
483.23	31.980
483.58	33.528
483.92	33.912
484.27	32.406
484.62	32.980
484.97	31.866
485.31	31.775
485.66	31.260
486.01	30.543
486.36	29.703
486.70	29.591
487.05	30.010
487.40	30.271
487.75	31.017
488.09	31.705
488.44	31.836
488.79	31.552
489.13	32.848
489.48	32.521
489.83	32.569
490.17	32.618
490.52	32.773
490.87	33.147
491.22	33.289
491.56	33.114
491.91	33.020
492.26	33.719
492.60	33.030
492.95	33.484
493.30	33.576
493.64	33.019
493.99	33.229
494.34	32.900
494.68	32.581
495.03	33.543
495.37	34.444
495.72	33.473
496.07	33.288
496.41	33.666
496.76	32.841
497.11	33.762
497.45	33.757
497.80	32.762
498.14	33.749
498.49	33.194
498.84	34.252
499.18	33.044
499.53	33.854
499.87	33.423
500.22	33.441
500.56	33.240
500.91	34.184
501.26	33.808
501.60	32.559
501.95	32.930
502.29	33.778
502.64	32.907
502.98	33.482
503.33	32.472
503.67	32.583
504.02	33.050
504.36	32.896
504.71	34.532
505.06	32.802
505.40	33.177
505.75	33.396
506.09	33.271
506.44	34.211
506.78	33.979
507.13	33.543
507.47	33.964
507.82	34.112
508.16	34.395
508.51	32.415
508.85	33.618
509.19	34.263
509.54	33.887
509.88	34.112
510.23	33.088
510.57	32.625
510.92	33.566
511.26	33.283
511.61	33.776
511.95	33.350
512.30	33.550
512.64	33.801
512.98	33.470
513.33	32.889
513.67	33.558
514.02	33.558
514.36	32.970
514.70	33.813
515.05	33.831
515.39	34.375
515.74	34.609
516.08	34.096
516.42	34.754
516.77	33.653
517.11	33.387
517.46	34.052
517.80	33.697
518.14	34.479
518.49	33.848
518.83	32.857
519.17	34.387
519.52	34.080
519.86	33.678
520.20	34.411
520.55	33.013
520.89	33.851
521.23	34.755
521.58	34.710
521.92	34.752
522.26	33.472
522.61	35.710
522.95	34.054
523.29	33.977
523.64	34.104
523.98	34.331
524.32	34.544
524.66	33.913
525.01	33.964
525.35	34.178
525.69	34.497
526.04	34.206
526.38	33.667
526.72	32.458
527.06	32.880
527.41	35.187
527.75	34.632
528.09	33.353
528.43	34.106
528.78	34.705
529.12	34.196
529.46	32.788
529.80	33.645
530.15	33.412
530.49	33.153
530.83	33.821
531.17	33.825
531.51	33.722
531.86	33.333
532.20	32.200
532.54	34.024
532.88	33.167
533.22	33.577
533.57	33.679
533.91	32.809
534.25	31.564
534.59	32.865
534.93	30.774
535.27	31.873
535.62	31.972
535.96	31.974
536.30	33.272
536.64	32.298
536.98	33.040
537.32	32.438
537.66	33.036
538.01	33.127
538.35	32.626
538.69	32.342
539.03	32.152
539.37	31.250
539.71	32.593
540.05	32.123
540.39	33.836
540.73	32.722
541.07	31.242
541.42	31.965
541.76	32.676
542.10	31.566
542.44	31.733
542.78	32.222
543.12	30.920
543.46	31.266
543.80	32.018
544.14	32.198
544.48	31.630
544.82	31.865
545.16	31.148
545.50	30.977
545.84	32.828
546.18	33.355
546.52	32.197
546.86	32.108
547.20	31.395
547.54	31.032
547.88	30.657
548.22	31.269
548.56	30.819
548.90	30.249
549.24	32.344
549.58	31.508
549.92	32.089
550.26	32.116
550.60	31.870
550.94	32.497
551.28	32.069
551.62	32.069
551.96	30.878
552.30	31.114
552.64	32.233
552.98	30.606
553.32	30.794
553.66	31.661
554.00	31.532
554.34	32.024
554.68	31.922
555.02	32.383
555.36	30.519
555.69	32.330
556.03	30.892
556.37	30.529
556.71	31.617
557.05	29.685
557.39	30.600
557.73	31.334
558.07	30.651
558.41	31.323
558.75	30.985
559.08	32.094
559.42	32.140
559.76	30.862
560.10	30.626
560.44	29.993
560.78	30.371
561.12	30.070
561.45	29.912
561.79	30.025
562.13	30.133
562.47	30.565
562.81	30.449
563.15	29.282
563.48	28.385
563.82	30.193
564.16	29.975
564.50	29.837
564.84	29.301
565.17	29.412
565.51	29.310
565.85	30.228
566.19	29.107
566.52	27.918
566.86	28.546
567.20	28.989
567.54	28.766
567.88	28.638
568.21	27.259
568.55	27.189
568.89	27.783
569.23	26.359
569.56	27.117
569.90	25.296
570.24	26.201
570.57	25.925
570.91	24.618
571.25	24.229
571.59	24.591
571.92	24.193
572.26	23.989
572.60	23.910
572.93	24.066
573.27	24.986
573.61	24.093
573.95	24.029
574.28	24.576
574.62	23.288
574.96	23.418
575.29	23.206
575.63	23.369
575.97	22.931
576.30	23.437
576.64	23.182
576.98	23.473
577.31	23.606
577.65	23.157
577.98	22.455
578.32	22.395
578.66	22.881
578.99	22.949
579.33	22.801
579.67	22.894
580.00	22.609
580.34	22.575
580.67	22.774
581.01	22.625
581.35	22.302
581.68	22.152
582.02	22.057
582.35	21.984
582.69	22.184
583.02	21.989
583.36	22.295
583.70	22.873
584.03	23.092
584.37	23.372
584.70	23.140
585.04	22.484
585.37	21.934
585.71	22.966
586.04	22.202
586.38	22.911
586.72	22.625
587.05	22.877
587.39	22.680
587.72	23.054
588.06	22.299
588.39	22.825
588.73	22.555
589.06	22.965
589.40	23.443
589.73	23.009
590.07	24.022
590.40	23.345
590.73	24.789
591.07	24.440
591.40	23.433
591.74	23.782
592.07	23.419
592.41	23.661
592.74	22.226
593.08	22.559
593.41	22.980
593.75	21.698
594.08	23.098
594.41	22.613
594.75	22.568
595.08	22.497
595.42	22.614
595.75	22.376
596.09	23.149
596.42	22.797
596.75	23.478
597.09	23.401
597.42	23.347
597.75	22.394
598.09	22.199
598.42	23.256
598.76	22.513
599.09	22.692
599.42	22.111
599.76	21.879
600.09	21.932
600.42	22.134
600.76	21.720
601.09	21.850
601.42	21.612
601.76	22.413
602.09	21.965
602.42	21.738
602.76	22.201
603.09	22.360
603.42	22.972
603.76	21.475
604.09	21.643
604.42	21.883
604.76	22.047
605.09	21.959
605.42	22.186
605.75	22.424
606.09	21.691
606.42	21.608
606.75	22.153
607.09	21.437
607.42	21.535
607.75	21.815
608.08	20.999
608.42	21.854
608.75	21.224
609.08	21.821
609.41	22.000
609.75	22.573
610.08	22.167
610.41	21.783
610.74	21.515
611.07	22.556
611.41	21.501
611.74	22.228
612.07	22.351
612.40	22.368
612.73	22.167
613.07	21.541
613.40	21.855
613.73	21.667
614.06	21.000
614.39	21.667
614.72	21.698
615.06	21.810
615.39	22.228
615.72	21.491
616.05	21.848
616.38	21.715
616.71	21.378
617.05	21.966
617.38	21.292
617.71	22.722
618.04	22.322
618.37	21.734
618.70	21.998
619.03	22.955
619.36	23.053
619.69	22.691
620.03	23.027
620.36	22.415
620.69	23.819
621.02	22.215
621.35	23.281
621.68	22.566
622.01	22.509
622.34	21.559
622.67	22.542
623.00	23.077
623.33	21.592
623.66	21.690
623.99	21.507
624.32	21.951
624.65	21.264
624.99	21.636
625.32	21.710
625.65	21.241
625.98	22.734
626.31	22.626
626.64	22.551
626.97	21.959
627.30	21.351
627.63	22.841
627.96	22.692
628.29	22.442
628.62	21.985
628.95	23.050
629.28	22.261
629.61	23.023
629.94	22.385
630.26	24.090
630.59	23.759
630.92	22.063
631.25	23.572
631.58	24.494
631.91	22.931
632.24	23.129
632.57	22.692
632.90	24.017
633.23	22.875
633.56	23.815
633.89	23.901
634.22	23.358
634.55	24.194
634.88	23.330
635.20	22.758
635.53	23.577
635.86	23.826
636.19	24.242
636.52	23.135
636.85	23.301
637.18	23.944
637.51	23.017
637.83	23.227
638.16	26.260
638.49	25.269
638.82	23.944
639.15	21.504
639.48	22.749
639.81	23.687
640.13	23.190
640.46	23.894
640.79	23.407
641.12	23.622
641.45	25.873
641.77	22.985
642.10	25.033
642.43	24.467
642.76	22.017
643.09	25.216
643.41	24.544
643.74	25.036
644.07	25.516
644.40	24.852
644.73	26.577
645.05	25.409
645.38	24.502
645.71	21.396
646.04	24.580
646.36	26.135
646.69	25.600
647.02	25.760
647.35	23.465
647.67	24.959
648.00	24.267
648.33	24.662
648.66	23.030
648.98	23.623
649.31	23.077
649.64	20.332
649.96	24.467
650.29	22.571
650.62	24.595
650.94	25.000
651.27	25.040
651.60	23.318
651.92	23.656
652.25	24.094
652.58	22.695
652.90	23.353
653.23	23.929
653.56	22.997
653.88	23.201
654.21	24.633
654.54	22.108
654.86	24.041
655.19	20.844
655.52	19.080
655.84	13.652
656.17	15.667
656.49	22.760
656.82	26.156
657.15	21.083
657.47	15.728
657.80	11.781
658.13	9.466
658.45	12.776
658.78	15.301
659.10	15.733
659.43	16.220
659.75	17.485
660.08	18.609
660.41	19.691
660.73	23.588
661.06	22.823
661.38	22.317
661.71	22.842
662.03	23.954
662.36	23.429
662.68	24.581
663.01	24.865
663.33	23.774
663.66	24.458
663.98	25.794
664.31	26.119
664.63	23.755
664.96	25.328
665.28	20.339
665.61	22.830
665.93	24.717
666.26	22.804
666.58	26.789
666.91	24.324
667.23	22.289
667.56	25.051
667.88	25.104
668.21	24.385
668.53	23.992
668.86	25.451
669.18	24.033
669.50	23.554
669.83	24.641
670.15	23.493
670.48	24.219
670.80	24.701
671.13	21.713
671.45	24.850
671.77	26.160
672.10	22.083
672.42	23.191
672.75	22.152
673.07	21.940
673.39	22.364
673.72	19.550
674.04	22.401
674.37	23.956
674.69	22.491
675.01	23.134
675.34	20.543
675.66	23.438
675.98	24.260
676.31	21.200
676.63	22.068
676.95	24.206
677.28	24.544
677.60	25.956
677.92	23.413
678.25	23.256
678.57	24.395
678.89	24.412
679.22	23.529
679.54	23.310
679.86	21.815
680.18	23.726
680.51	21.227
680.83	22.128
681.15	21.144
681.48	22.396
681.80	22.767
682.12	22.664
682.44	20.360
682.77	21.530
683.09	25.049
683.41	23.469
683.73	20.669
684.06	22.817
684.38	25.775
684.70	23.741
685.02	20.660
685.34	22.535
685.67	21.061
685.99	22.003
686.31	20.801
686.63	19.675
686.96	23.529
687.28	17.617
687.60	21.672
687.92	20.603
688.24	22.241
688.56	20.463
688.89	19.312
689.21	22.543
689.53	25.494
689.85	23.577
690.17	20.777
690.49	21.573
690.82	22.689
691.14	22.828
691.46	23.819
691.78	24.172
692.10	23.092
692.42	21.597
692.74	20.543
693.06	21.512
693.39	20.356
693.71	21.611
694.03	21.696
694.35	23.092
694.67	21.792
694.99	23.060
695.31	22.973
695.63	23.303
695.95	22.172
696.27	24.336
696.59	22.434
696.91	22.025
697.23	22.398
697.56	19.917
697.88	20.559
698.20	22.642
698.52	19.650
698.84	20.945
699.16	22.814
699.48	20.763
699.80	24.619
700.12	21.247
700.44	21.729
700.76	23.628
701.08	24.543
701.40	23.117
701.72	27.005
702.04	21.951
702.36	23.118
702.68	25.000
703.00	21.303
703.32	24.814
703.64	22.922
703.96	24.219
704.28	24.074
704.60	22.817
704.91	22.969
705.23	24.432
705.55	23.739
705.87	24.127
706.19	26.646
706.51	28.213
706.83	25.369
707.15	24.064
707.47	22.276
707.79	21.149
708.11	21.769
708.43	20.449
708.74	23.303
709.06	23.488
709.38	24.814
709.70	23.978
710.02	20.380
710.34	21.823
710.66	25.000
710.98	21.858
711.29	25.070
711.61	25.070
711.93	23.708
712.25	23.494
712.57	25.723
712.89	25.152
713.20	26.518
713.52	22.118
713.84	24.471
714.16	17.391
714.48	20.173
714.80	20.867
715.11	19.415
715.43	20.670
715.75	22.535
716.07	24.277
716.39	24.000
716.70	22.118
717.02	25.926
717.34	29.496
717.66	26.389
717.97	29.167
718.29	31.338
718.61	20.608
718.93	24.221
719.24	29.530
719.56	21.724
719.88	21.019
720.20	27.419
720.51	23.856
720.83	24.415
721.15	27.211
721.46	28.082
721.78	22.997
722.10	21.875
722.42	30.100
722.73	26.354
723.05	30.175
723.37	27.562
723.68	23.437
724.00	25.000
724.32	27.376
724.63	28.846
724.95	25.882
725.27	27.138
725.58	25.000
725.90	22.887
726.22	20.890
726.53	25.084
726.85	25.733
727.16	24.497
727.48	24.252
727.80	28.058
728.11	30.714
728.43	23.551
728.74	26.923
729.06	22.581
729.38	23.509
729.69	26.000
730.01	28.947
730.32	26.510
730.64	21.595
730.96	24.925
731.27	19.572
731.59	18.103
731.90	22.841
732.22	24.857
732.53	19.373
732.85	23.977
733.16	24.398
733.48	21.317
733.80	22.029
734.11	25.767
734.43	18.713
734.74	21.448
735.06	22.222
735.37	20.619
735.69	21.739
736.00	21.713
736.32	17.879
736.63	19.874
736.95	21.429
737.26	22.256
737.58	20.245
737.89	22.892
738.21	20.861
738.52	24.749
738.83	24.908
739.15	25.087
739.46	22.069
739.78	25.510
740.09	22.741
740.41	22.393
740.72	23.810
741.04	23.427
741.35	26.172
741.66	29.249
741.98	27.897
742.29	27.315
742.61	22.124
742.92	24.153
743.23	26.000
743.55	20.377
743.86	27.451
744.18	29.237
744.49	27.273
744.80	28.571
745.12	29.911
745.43	27.570
745.74	27.556
746.06	26.754
746.37	26.047
746.68	28.319
747.00	21.076
747.31	28.151
747.62	20.902
747.94	25.751
748.25	24.903
748.56	28.390
748.88	28.571
749.19	26.977
749.50	29.224
749.82	27.160
750.13	23.320
750.44	24.000
750.75	26.174
751.07	23.684
751.38	25.743
751.69	22.559
752.01	23.427
752.32	25.249
752.63	22.819
752.94	25.874
753.26	27.344
753.57	30.350
753.88	25.843
754.19	23.105
754.51	24.917
754.82	25.168
755.13	21.284
755.44	24.444
755.75	24.399
756.07	25.342
756.38	19.935
756.69	24.063
757.00	22.552
757.31	22.817
757.63	19.284
757.94	18.883
758.25	20.290
758.56	19.908
758.87	21.303
759.18	22.384
759.50	23.404
759.81	22.552
760.12	18.820
760.43	19.608
760.74	18.734
761.05	19.098
761.36	18.229
761.67	21.833
761.99	23.662
762.30	23.794
762.61	21.875
762.92	24.242
763.23	28.302
763.54	24.231
763.85	21.012
764.16	28.125
764.47	24.324
764.78	22.150
765.10	22.866
765.41	22.443
765.72	19.613
766.03	18.429
766.34	21.254
766.65	23.574
766.96	25.101
767.27	25.234
767.58	24.752
767.89	30.387
768.20	31.707
768.51	24.490
768.82	29.386
769.13	26.275
769.44	25.564
769.75	19.476
770.06	25.630
770.37	19.737
770.68	21.778
770.99	30.932
771.30	26.360
771.61	27.692
771.92	27.863
772.23	24.194
772.54	28.889
772.85	29.703
773.16	22.283
773.47	26.667
773.78	25.248
774.09	36.364
774.39	29.091
774.70	32.941
775.01	25.000
775.32	27.950
775.63	39.041
775.94	40.741
776.25	33.793
776.56	34.351
776.87	36.641
777.18	34.091
777.48	40.157
777.79	40.769
778.10	34.091
778.41	41.791
778.72	29.323
779.03	30.769
779.34	35.135
779.65	34.783
779.95	32.919
780.26	28.571
780.57	34.014
780.88	37.589
781.19	40.000
781.50	34.911
781.80	31.694
782.11	33.333
782.42	28.161
782.73	26.554
783.04	36.774
783.34	29.457
783.65	30.612
783.96	29.677
784.27	32.450
784.57	24.342
784.88	33.333
785.19	36.667
785.50	41.379
785.81	36.434
786.11	34.074
786.42	37.008
786.73	32.432
787.04	33.019
787.34	28.455
787.65	43.182
787.96	37.121
788.26	35.433
788.57	37.956
788.88	28.873
789.19	34.351
789.49	33.108
789.80	34.375
790.11	40.496
790.41	49.074
790.72	40.741
791.03	43.269
791.33	47.475
791.64	41.053
791.95	36.842
792.25	40.625
792.56	40.000
792.87	56.098
793.17	44.318
793.48	56.471
793.79	41.379
794.09	38.636
794.40	46.552
794.70	37.302
795.01	42.308
795.32	33.588
795.62	38.462
795.93	38.655
796.23	41.463
796.54	52.041
796.85	44.318
797.15	71.429
797.46	57.317
797.76	46.250
798.07	49.333
798.37	57.500
798.68	52.500
798.99	56.098
799.29	48.000
799.60	45.349
799.90	55.263
800.21	43.939
800.51	56.338
800.82	55.172
801.12	69.231
801.43	78.667
801.73	53.448
802.04	49.351
802.34	53.425
802.65	84.314
802.95	60.870
803.26	72.581
803.56	65.000
803.87	67.164
804.17	46.032
804.48	50.943
804.78	50.000
805.09	74.242
805.39	57.143
805.70	61.404
806.00	48.571
806.30	59.375
806.61	52.941
806.91	56.667
807.22	40.217
807.52	42.105
807.83	64.474
808.13	57.971
808.43	59.677
808.74	56.164
809.04	64.286
809.35	55.882
809.65	68.182
809.95	68.627
810.26	81.481
810.56	90.625
810.86	81.633
811.17	73.684
811.47	78.261
811.77	72.414
812.08	60.345
812.38	83.333
812.69	47.619
812.99	71.111
813.29	77.143
813.59	87.097
813.90	48.276
814.20	65.574
814.50	58.000
814.81	52.632
815.11	70.370
815.41	76.786
815.72	60.714
816.02	86.000
816.32	92.683
816.62	65.517
816.93	100.000
817.23	87.805
817.53	87.500
817.84	71.111
818.14	85.714
818.44	77.083
818.74	81.132
819.04	71.795
819.35	112.121
819.65	82.692
819.95	107.407
820.25	85.106
820.56	102.703
820.86	110.526
821.16	48.936
821.46	89.474
821.76	81.818
822.07	73.810
822.37	118.421
822.67	100.000
822.97	76.316
823.27	93.478
823.57	93.750
823.88	69.231
824.18	96.970
824.48	113.043
824.78	100.000
825.08	139.130
825.38	124.138
825.69	100.000
825.99	70.213
826.29	75.000
826.59	131.429
826.89	113.333
827.19	85.714
827.49	93.548
827.79	134.615
828.09	76.190
828.39	102.778
828.70	86.486
829.00	100.000
829.30	162.500
829.60	80.556
829.90	93.548
830.20	90.909
830.50	110.811
830.80	141.667
831.10	126.923
831.40	119.048
831.70	154.167
832.00	120.000
832.30	134.783
832.60	158.333
832.90	115.152
833.20	175.000
833.50	110.526
833.80	76.471
834.10	89.474
834.40	194.737
834.70	136.667
835.00	132.000
835.30	124.324
835.60	134.375
835.90	102.703
836.20	134.615
836.50	100.000
836.80	92.683
837.10	117.391
837.40	207.692
837.70	147.368
838.00	140.000
838.30	166.667
838.60	160.000
838.90	210.000
839.19	200.000
839.49	143.333
839.79	103.448
840.09	107.692
840.39	153.333
840.69	173.684
840.99	123.810
841.29	156.522
841.59	145.000
841.88	164.000
842.18	222.222
842.48	146.429
842.78	144.444
843.08	92.308
843.38	104.545
843.68	221.429
843.97	342.857
844.27	134.783
844.57	900.000
844.87	192.857
845.17	222.222
845.47	142.857
845.76	158.333
846.06	442.857
846.36	141.176
846.66	215.385
846.96	212.500
847.25	238.462
847.55	215.789
847.85	200.000
848.15	480.000
848.44	227.273
848.74	147.619
849.04	125.000
849.34	176.471
849.63	212.500
849.93	218.750
850.23	866.667
850.53	325.000
850.82	245.455
851.12	152.941
851.42	170.833
851.71	162.500
852.01	0.000
852.31	194.118
852.61	260.000
852.90	145.833
853.20	311.111
853.50	-2000.000
853.79	132.000
854.09	121.875
854.39	124.138
854.68	113.793
854.98	190.476
855.28	87.097
855.57	228.571
855.87	183.333
856.17	118.519
856.46	142.105
856.76	119.355
857.05	176.471
857.35	172.727
857.65	223.077
857.94	130.000
858.24	322.222
858.53	271.429
858.83	485.714
859.13	186.957
859.42	233.333
859.72	250.000
860.01	208.333
860.31	925.000
860.60	290.000
860.90	387.500
861.20	261.538
861.49	300.000
861.79	-2600.000
862.08	428.571
862.38	344.444
862.67	200.000
862.97	360.000
863.26	123.333
863.56	800.000
863.85	307.692
864.15	282.353
864.44	216.667
864.74	291.667
865.03	290.909
865.33	387.500
865.62	206.667
865.92	383.333
866.21	850.000
866.51	600.000
866.80	188.889
867.10	900.000
867.39	3200.000
867.69	640.000
867.98	1025.000
868.27	185.714
868.57	253.333
868.86	750.000
869.16	147.619
869.45	3700.000
869.75	-483.333
870.04	775.000
870.33	320.000
870.63	400.000
870.92	164.706
871.22	650.000
871.51	528.571
871.80	291.667
872.10	300.000
>>>>>End Processed Spectral Data<<<<<
