SpectraSuite Data File
++++++++++++++++++++++++++++++++++++
Date: Tue May 12 16:05:47 PDT 2015
User: schluterlab
Dark Spectrum Present: Yes
Reference Spectrum Present: Yes
Number of Sampled Component Spectra: 1
Spectrometers: USB2E3373
Integration Time (usec): 3000 (USB2E3373)
Spectra Averaged: 3 (USB2E3373)
Boxcar Smoothing: 0 (USB2E3373)
Correct for Electrical Dark: No (USB2E3373)
Strobe/Lamp Enabled: No (USB2E3373)
Correct for Detector Non-linearity: No (USB2E3373)
Correct for Stray Light: No (USB2E3373)
Number of Pixels in Processed Spectrum: 2048
>>>>>Begin Processed Spectral Data<<<<<
178.53	0.000
178.91	-216.667
179.29	-825.000
179.67	-4000.000
180.04	-166.667
180.42	925.000
180.80	1650.000
181.18	0.000
181.56	-387.500
181.94	0.000
182.31	1500.000
182.69	-3800.000
183.07	557.143
183.45	-3600.000
183.83	-1600.000
184.20	390.000
184.58	542.857
184.96	-230.769
185.34	-266.667
185.72	1850.000
186.09	-900.000
186.47	-2900.000
186.85	1300.000
187.23	660.000
187.61	1750.000
187.98	500.000
188.36	285.714
188.74	350.000
189.12	400.000
189.49	1050.000
189.87	0.000
190.25	500.000
190.63	2000.000
191.00	-308.333
191.38	-4200.000
191.76	-725.000
192.14	612.500
192.51	-4100.000
192.89	1800.000
193.27	1166.667
193.65	-1533.333
194.02	-700.000
194.40	628.571
194.78	-228.571
195.15	280.000
195.53	-2900.000
195.91	-680.000
196.29	5000.000
196.66	281.250
197.04	850.000
197.42	-1500.000
197.79	850.000
198.17	383.333
198.55	0.000
198.92	442.857
199.30	1433.333
199.68	1550.000
200.05	783.333
200.43	-566.667
200.81	216.667
201.18	3800.000
201.56	325.000
201.94	-900.000
202.31	-312.500
202.69	-640.000
203.07	3500.000
203.44	-466.667
203.82	408.333
204.19	560.000
204.57	-1050.000
204.95	-875.000
205.32	-660.000
205.70	600.000
206.08	875.000
206.45	-933.333
206.83	388.889
207.20	221.053
207.58	291.667
207.96	740.000
208.33	0.000
208.71	628.571
209.08	780.000
209.46	-2700.000
209.84	-700.000
210.21	820.000
210.59	-580.000
210.96	300.000
211.34	-650.000
211.71	309.091
212.09	925.000
212.46	1850.000
212.84	-450.000
213.22	422.222
213.59	-3900.000
213.97	370.000
214.34	1100.000
214.72	1200.000
215.09	1233.333
215.47	-2900.000
215.84	-300.000
216.22	-425.000
216.59	0.000
216.97	0.000
217.34	1650.000
217.72	-1500.000
218.09	1233.333
218.47	475.000
218.84	875.000
219.22	1000.000
219.59	1266.667
219.97	614.286
220.34	488.889
220.72	1400.000
221.09	3600.000
221.47	300.000
221.84	1100.000
222.22	300.000
222.59	261.111
222.97	207.143
223.34	281.250
223.72	-2000.000
224.09	1166.667
224.46	353.846
224.84	-850.000
225.21	488.889
225.59	313.333
225.96	1433.333
226.34	-740.000
226.71	-875.000
227.08	-560.000
227.46	0.000
227.83	-483.333
228.21	-1900.000
228.58	400.000
228.95	700.000
229.33	400.000
229.70	900.000
230.08	338.462
230.45	2700.000
230.82	-825.000
231.20	-933.333
231.57	-1066.667
231.95	720.000
232.32	300.000
232.69	633.333
233.07	266.667
233.44	-1500.000
233.81	240.000
234.19	177.778
234.56	225.000
234.93	205.882
235.31	200.000
235.68	256.250
236.05	175.000
236.43	151.852
236.80	214.286
237.17	148.276
237.55	146.875
237.92	112.500
238.29	118.182
238.67	125.000
239.04	104.878
239.41	81.250
239.79	77.500
240.16	70.833
240.53	59.016
240.91	68.116
241.28	84.746
241.65	66.667
242.02	87.324
242.40	67.143
242.77	52.747
243.14	70.886
243.51	58.586
243.89	38.318
244.26	47.664
244.63	49.505
245.00	44.037
245.38	34.746
245.75	35.606
246.12	44.444
246.49	36.879
246.87	31.148
247.24	40.667
247.61	42.500
247.98	41.497
248.36	34.545
248.73	33.163
249.10	36.905
249.47	34.000
249.84	31.343
250.22	30.270
250.59	32.000
250.96	33.333
251.33	24.651
251.70	26.786
252.08	29.412
252.45	27.092
252.82	27.757
253.19	24.901
253.56	23.846
253.94	27.174
254.31	29.070
254.68	24.042
255.05	28.966
255.42	27.372
255.79	25.407
256.16	29.492
256.54	30.844
256.91	26.471
257.28	25.753
257.65	20.690
258.02	24.484
258.39	26.648
258.76	23.188
259.14	21.714
259.51	24.781
259.88	25.836
260.25	20.879
260.62	23.836
260.99	19.284
261.36	23.677
261.73	22.872
262.10	21.990
262.47	24.500
262.85	24.267
263.22	22.879
263.59	22.251
263.96	23.559
264.33	23.210
264.70	23.833
265.07	21.707
265.44	23.853
265.81	22.406
266.18	20.595
266.55	22.931
266.92	21.477
267.29	20.395
267.66	23.543
268.03	21.973
268.40	22.410
268.77	21.145
269.14	18.655
269.51	19.154
269.88	21.020
270.25	15.335
270.62	20.601
270.99	22.110
271.36	20.935
271.73	19.706
272.10	22.626
272.47	19.643
272.84	19.561
273.21	17.149
273.58	23.887
273.95	21.766
274.32	20.233
274.69	21.850
275.06	21.311
275.43	19.923
275.80	18.302
276.17	21.324
276.54	20.374
276.91	21.082
277.28	19.161
277.65	21.402
278.02	20.588
278.39	18.525
278.76	22.069
279.13	16.726
279.50	20.000
279.87	19.739
280.23	16.943
280.60	20.255
280.97	19.310
281.34	18.812
281.71	20.522
282.08	20.000
282.45	18.074
282.82	18.729
283.19	18.283
283.56	18.182
283.92	20.195
284.29	17.804
284.66	18.824
285.03	18.574
285.40	18.512
285.77	16.975
286.14	17.802
286.51	17.945
286.87	15.665
287.24	18.018
287.61	17.325
287.98	17.910
288.35	16.444
288.72	16.844
289.08	16.216
289.45	16.159
289.82	16.719
290.19	16.398
290.56	17.904
290.93	18.705
291.29	16.160
291.66	15.395
292.03	16.129
292.40	16.938
292.77	15.042
293.13	16.405
293.50	16.194
293.87	15.718
294.24	16.084
294.60	16.958
294.97	16.783
295.34	14.608
295.71	14.455
296.08	15.600
296.44	16.264
296.81	14.392
297.18	13.561
297.55	15.148
297.91	14.901
298.28	14.130
298.65	14.356
299.02	15.561
299.38	15.108
299.75	16.341
300.12	15.367
300.48	15.340
300.85	15.495
301.22	15.116
301.59	13.915
301.95	13.536
302.32	14.319
302.69	15.385
303.05	14.927
303.42	13.901
303.79	14.518
304.15	14.191
304.52	13.002
304.89	15.139
305.25	12.903
305.62	15.352
305.99	13.043
306.35	14.526
306.72	12.591
307.09	13.354
307.45	14.150
307.82	13.580
308.19	14.536
308.55	14.300
308.92	14.230
309.29	15.878
309.65	13.677
310.02	14.199
310.38	13.659
310.75	14.176
311.12	13.602
311.48	14.768
311.85	13.931
312.22	13.754
312.58	12.925
312.95	14.369
313.31	13.858
313.68	13.415
314.05	15.293
314.41	14.898
314.78	14.015
315.14	14.313
315.51	15.799
315.87	14.781
316.24	14.472
316.61	14.682
316.97	14.128
317.34	14.915
317.70	15.716
318.07	16.103
318.43	16.344
318.80	16.462
319.16	15.997
319.53	16.018
319.89	14.785
320.26	17.970
320.62	16.758
320.99	17.541
321.35	17.254
321.72	19.070
322.08	18.190
322.45	17.530
322.81	16.651
323.18	18.384
323.54	19.512
323.91	18.948
324.27	18.921
324.64	18.253
325.00	19.655
325.37	18.971
325.73	19.056
326.10	21.541
326.46	20.974
326.83	20.320
327.19	21.767
327.56	21.006
327.92	21.393
328.29	22.913
328.65	22.175
329.01	21.557
329.38	22.335
329.74	22.886
330.11	22.068
330.47	23.870
330.84	21.915
331.20	22.166
331.56	23.661
331.93	25.235
332.29	22.194
332.66	23.980
333.02	22.938
333.38	24.956
333.75	24.604
334.11	22.819
334.48	23.846
334.84	23.733
335.20	24.123
335.57	24.181
335.93	24.138
336.29	23.549
336.66	25.300
337.02	24.294
337.38	24.334
337.75	24.747
338.11	23.460
338.47	24.725
338.84	23.285
339.20	23.290
339.56	24.222
339.93	24.582
340.29	23.866
340.65	24.979
341.02	25.181
341.38	24.877
341.74	24.751
342.11	23.372
342.47	23.954
342.83	24.610
343.20	25.222
343.56	22.399
343.92	24.690
344.28	24.482
344.65	24.450
345.01	25.317
345.37	23.237
345.73	24.365
346.10	24.143
346.46	23.844
346.82	23.611
347.19	24.807
347.55	23.810
347.91	23.338
348.27	23.703
348.63	25.633
349.00	24.448
349.36	25.759
349.72	25.612
350.08	25.311
350.45	24.524
350.81	24.541
351.17	25.116
351.53	23.788
351.89	24.009
352.26	23.961
352.62	24.887
352.98	24.923
353.34	25.116
353.70	23.012
354.07	24.769
354.43	25.653
354.79	23.994
355.15	25.804
355.51	25.000
355.87	25.226
356.24	25.173
356.60	25.647
356.96	25.322
357.32	24.943
357.68	24.302
358.04	25.152
358.40	26.012
358.77	25.995
359.13	24.099
359.49	24.388
359.85	24.721
360.21	25.260
360.57	25.547
360.93	25.974
361.29	24.387
361.66	25.802
362.02	24.432
362.38	26.190
362.74	24.345
363.10	25.245
363.46	24.033
363.82	25.105
364.18	25.320
364.54	25.179
364.90	24.632
365.26	25.746
365.62	25.276
365.98	25.052
366.35	24.690
366.71	25.121
367.07	24.437
367.43	25.923
367.79	24.535
368.15	24.695
368.51	24.535
368.87	24.796
369.23	25.433
369.59	25.421
369.95	26.154
370.31	25.188
370.67	25.052
371.03	24.720
371.39	25.693
371.75	24.983
372.11	25.901
372.47	25.685
372.83	26.309
373.19	26.114
373.55	25.842
373.91	26.243
374.27	25.198
374.63	25.220
374.99	26.482
375.35	26.210
375.71	25.792
376.07	24.602
376.42	24.744
376.78	26.268
377.14	26.147
377.50	24.719
377.86	25.112
378.22	24.924
378.58	26.392
378.94	25.830
379.30	25.470
379.66	25.707
380.02	25.396
380.38	25.293
380.74	25.663
381.09	25.058
381.45	24.624
381.81	24.232
382.17	25.580
382.53	25.375
382.89	25.074
383.25	24.393
383.61	25.245
383.97	25.075
384.32	26.401
384.68	26.263
385.04	25.147
385.40	25.801
385.76	25.336
386.12	25.046
386.48	25.228
386.83	25.550
387.19	24.617
387.55	25.736
387.91	25.000
388.27	26.115
388.62	25.469
388.98	24.373
389.34	24.331
389.70	25.000
390.06	25.366
390.42	25.231
390.77	25.000
391.13	25.226
391.49	23.775
391.85	25.169
392.20	25.089
392.56	25.329
392.92	25.098
393.28	24.888
393.64	24.541
393.99	24.481
394.35	24.367
394.71	23.764
395.07	24.027
395.42	24.122
395.78	25.540
396.14	25.422
396.50	24.489
396.85	24.268
397.21	24.669
397.57	24.746
397.92	23.397
398.28	23.387
398.64	23.851
399.00	23.463
399.35	23.349
399.71	23.455
400.07	23.231
400.42	23.403
400.78	23.988
401.14	23.429
401.49	23.733
401.85	24.044
402.21	23.374
402.57	24.357
402.92	23.879
403.28	23.270
403.63	23.661
403.99	24.186
404.35	24.033
404.70	23.154
405.06	23.077
405.42	23.220
405.77	23.374
406.13	22.668
406.49	22.229
406.84	23.181
407.20	23.573
407.55	23.138
407.91	23.421
408.27	23.226
408.62	22.649
408.98	23.359
409.34	22.794
409.69	22.962
410.05	22.302
410.40	22.320
410.76	21.981
411.11	22.927
411.47	23.086
411.83	21.968
412.18	21.920
412.54	22.883
412.89	21.416
413.25	22.748
413.60	23.131
413.96	22.382
414.31	22.314
414.67	22.781
415.03	23.308
415.38	23.912
415.74	22.489
416.09	22.673
416.45	23.077
416.80	23.220
417.16	22.661
417.51	23.121
417.87	22.090
418.22	22.539
418.58	22.803
418.93	22.427
419.29	21.873
419.64	22.532
420.00	22.912
420.35	22.590
420.71	23.454
421.06	22.307
421.42	22.222
421.77	22.710
422.12	22.878
422.48	22.291
422.83	23.270
423.19	22.138
423.54	22.600
423.90	23.330
424.25	22.895
424.61	22.925
424.96	21.965
425.31	22.332
425.67	22.559
426.02	23.275
426.38	21.762
426.73	23.424
427.09	23.725
427.44	22.960
427.79	23.842
428.15	24.278
428.50	24.000
428.85	23.339
429.21	23.771
429.56	23.180
429.92	22.725
430.27	22.980
430.62	22.418
430.98	23.403
431.33	23.135
431.68	22.321
432.04	22.969
432.39	23.546
432.74	24.063
433.10	23.699
433.45	24.124
433.80	23.331
434.16	23.279
434.51	23.684
434.86	23.843
435.22	23.015
435.57	24.185
435.92	23.734
436.28	23.733
436.63	23.771
436.98	24.381
437.34	23.116
437.69	23.628
438.04	24.247
438.39	24.227
438.75	23.552
439.10	24.069
439.45	23.460
439.81	24.986
440.16	24.051
440.51	23.536
440.86	24.387
441.22	24.513
441.57	23.675
441.92	23.346
442.27	24.381
442.63	24.339
442.98	24.030
443.33	24.424
443.68	23.793
444.03	24.034
444.39	23.588
444.74	23.188
445.09	23.855
445.44	24.442
445.79	24.513
446.15	24.158
446.50	24.103
446.85	24.054
447.20	23.881
447.55	23.926
447.91	24.081
448.26	24.920
448.61	24.986
448.96	24.346
449.31	24.257
449.66	25.194
450.02	23.771
450.37	25.153
450.72	25.234
451.07	25.189
451.42	25.370
451.77	24.685
452.12	25.298
452.47	25.699
452.83	25.521
453.18	24.925
453.53	24.985
453.88	25.429
454.23	25.218
454.58	24.417
454.93	24.157
455.28	25.031
455.63	24.941
455.98	24.929
456.34	25.410
456.69	25.305
457.04	24.881
457.39	24.857
457.74	26.014
458.09	24.705
458.44	24.863
458.79	24.562
459.14	24.659
459.49	25.708
459.84	25.924
460.19	25.198
460.54	25.413
460.89	25.480
461.24	24.742
461.59	25.737
461.94	24.645
462.29	24.771
462.64	25.126
462.99	25.272
463.34	26.442
463.69	26.376
464.04	25.561
464.39	24.843
464.74	24.912
465.09	24.492
465.44	24.810
465.79	24.551
466.14	24.271
466.49	24.362
466.84	24.303
467.19	26.128
467.54	24.865
467.89	25.411
468.24	24.551
468.59	24.226
468.94	26.389
469.29	25.657
469.64	25.466
469.99	24.871
470.34	24.288
470.68	26.138
471.03	25.817
471.38	25.563
471.73	25.996
472.08	26.354
472.43	25.574
472.78	26.120
473.13	24.969
473.48	25.122
473.83	25.088
474.17	25.350
474.52	26.007
474.87	24.730
475.22	25.928
475.57	25.341
475.92	24.476
476.27	24.755
476.61	25.362
476.96	25.078
477.31	25.861
477.66	26.409
478.01	25.064
478.36	24.974
478.70	24.566
479.05	24.791
479.40	24.504
479.75	25.720
480.10	25.121
480.45	24.977
480.79	24.977
481.14	24.964
481.49	24.565
481.84	25.330
482.19	24.454
482.53	25.077
482.88	25.403
483.23	24.447
483.58	24.461
483.92	25.000
484.27	25.428
484.62	25.255
484.97	24.425
485.31	24.625
485.66	24.222
486.01	23.103
486.36	23.008
486.70	22.127
487.05	22.701
487.40	23.267
487.75	24.040
488.09	24.233
488.44	23.709
488.79	23.985
489.13	24.524
489.48	25.090
489.83	24.771
490.17	24.236
490.52	24.978
490.87	25.517
491.22	25.488
491.56	25.253
491.91	24.462
492.26	24.989
492.60	25.285
492.95	24.875
493.30	25.660
493.64	24.708
493.99	25.403
494.34	25.818
494.68	25.232
495.03	25.281
495.37	25.709
495.72	25.501
496.07	24.798
496.41	25.500
496.76	25.032
497.11	25.664
497.45	25.077
497.80	25.440
498.14	24.734
498.49	25.627
498.84	25.794
499.18	25.868
499.53	25.953
499.87	25.022
500.22	26.071
500.56	25.487
500.91	25.557
501.26	26.412
501.60	25.956
501.95	24.910
502.29	25.467
502.64	25.496
502.98	24.944
503.33	26.192
503.67	25.342
504.02	24.810
504.36	25.928
504.71	26.916
505.06	24.918
505.40	25.456
505.75	25.819
506.09	25.805
506.44	26.410
506.78	25.567
507.13	25.303
507.47	26.346
507.82	25.888
508.16	26.997
508.51	26.957
508.85	26.448
509.19	27.362
509.54	25.439
509.88	26.256
510.23	25.686
510.57	25.290
510.92	27.123
511.26	26.707
511.61	26.096
511.95	26.580
512.30	26.200
512.64	26.324
512.98	27.781
513.33	26.947
513.67	26.515
514.02	27.481
514.36	27.414
514.70	26.293
515.05	26.585
515.39	28.509
515.74	27.993
516.08	27.233
516.42	28.689
516.77	26.347
517.11	26.613
517.46	27.532
517.80	27.253
518.14	28.620
518.49	27.563
518.83	27.527
519.17	29.063
519.52	28.727
519.86	27.902
520.20	27.562
520.55	27.530
520.89	27.931
521.23	28.096
521.58	28.801
521.92	28.338
522.26	28.436
522.61	28.639
522.95	29.069
523.29	28.363
523.64	28.092
523.98	28.815
524.32	27.970
524.66	28.870
525.01	27.751
525.35	28.757
525.69	28.778
526.04	29.149
526.38	28.193
526.72	28.819
527.06	29.273
527.41	29.444
527.75	29.276
528.09	29.199
528.43	30.018
528.78	28.563
529.12	29.199
529.46	28.697
529.80	28.738
530.15	29.699
530.49	27.557
530.83	29.007
531.17	28.967
531.51	29.062
531.86	27.838
532.20	28.863
532.54	29.002
532.88	28.732
533.22	30.347
533.57	29.530
533.91	27.797
534.25	27.755
534.59	29.298
534.93	28.896
535.27	28.515
535.62	28.588
535.96	28.428
536.30	29.677
536.64	29.317
536.98	28.634
537.32	29.313
537.66	28.827
538.01	29.226
538.35	28.384
538.69	27.973
539.03	29.602
539.37	28.216
539.71	29.444
540.05	28.800
540.39	30.252
540.73	28.608
541.07	29.109
541.42	29.353
541.76	28.730
542.10	28.730
542.44	29.115
542.78	29.390
543.12	28.282
543.46	29.386
543.80	29.762
544.14	29.350
544.48	29.319
544.82	28.440
545.16	28.840
545.50	28.888
545.84	29.104
546.18	31.144
546.52	30.492
546.86	29.916
547.20	28.295
547.54	29.512
547.88	29.440
548.22	28.719
548.56	28.698
548.90	27.936
549.24	29.248
549.58	29.059
549.92	29.797
550.26	29.344
550.60	29.474
550.94	29.919
551.28	30.552
551.62	30.690
551.96	29.459
552.30	29.202
552.64	29.450
552.98	28.995
553.32	29.770
553.66	29.577
554.00	29.215
554.34	29.827
554.68	30.376
555.02	30.143
555.36	29.920
555.69	29.712
556.03	29.873
556.37	30.019
556.71	31.356
557.05	28.702
557.39	30.333
557.73	30.795
558.07	30.181
558.41	30.775
558.75	30.369
559.08	31.594
559.42	31.281
559.76	31.361
560.10	30.145
560.44	30.060
560.78	31.394
561.12	29.752
561.45	28.411
561.79	30.275
562.13	29.627
562.47	30.629
562.81	30.644
563.15	31.092
563.48	29.627
563.82	29.258
564.16	30.784
564.50	29.476
564.84	30.578
565.17	29.828
565.51	30.911
565.85	30.167
566.19	29.524
566.52	29.844
566.86	30.648
567.20	29.719
567.54	28.876
567.88	30.569
568.21	29.656
568.55	29.572
568.89	29.060
569.23	28.387
569.56	29.313
569.90	28.171
570.24	27.973
570.57	27.774
570.91	27.551
571.25	27.639
571.59	27.129
571.92	26.507
572.26	26.307
572.60	26.854
572.93	27.228
573.27	26.967
573.61	26.773
573.95	27.191
574.28	27.242
574.62	26.525
574.96	26.537
575.29	26.353
575.63	26.078
575.97	26.509
576.30	26.373
576.64	26.368
576.98	26.631
577.31	27.413
577.65	26.801
577.98	26.477
578.32	26.338
578.66	26.575
578.99	27.208
579.33	27.064
579.67	26.725
580.00	26.301
580.34	26.486
580.67	26.801
581.01	27.343
581.35	26.993
581.68	26.438
582.02	26.542
582.35	26.502
582.69	26.833
583.02	26.704
583.36	26.872
583.70	27.484
584.03	28.039
584.37	28.067
584.70	27.320
585.04	27.433
585.37	27.457
585.71	27.461
586.04	27.402
586.38	27.795
586.72	28.134
587.05	28.204
587.39	27.358
587.72	27.738
588.06	27.936
588.39	27.636
588.73	27.595
589.06	28.655
589.40	29.139
589.73	28.745
590.07	29.375
590.40	29.547
590.73	30.701
591.07	29.374
591.40	29.780
591.74	29.748
592.07	29.201
592.41	29.616
592.74	29.037
593.08	28.841
593.41	28.336
593.75	28.287
594.08	28.919
594.41	29.326
594.75	29.110
595.08	29.527
595.42	29.164
595.75	29.615
596.09	30.031
596.42	29.388
596.75	30.609
597.09	30.169
597.42	30.163
597.75	30.791
598.09	29.914
598.42	29.988
598.76	29.607
599.09	30.452
599.42	29.377
599.76	30.156
600.09	29.085
600.42	29.523
600.76	29.232
601.09	29.962
601.42	29.778
601.76	28.965
602.09	29.581
602.42	29.908
602.76	29.753
603.09	30.128
603.42	30.349
603.76	29.935
604.09	29.678
604.42	29.454
604.76	30.225
605.09	30.408
605.42	30.150
605.75	30.833
606.09	30.031
606.42	29.989
606.75	31.014
607.09	29.807
607.42	30.735
607.75	30.295
608.08	30.504
608.42	30.663
608.75	29.354
609.08	30.752
609.41	31.364
609.75	31.044
610.08	31.475
610.41	30.698
610.74	30.606
611.07	31.287
611.41	32.067
611.74	31.166
612.07	31.069
612.40	31.189
612.73	31.802
613.07	31.982
613.40	32.130
613.73	31.653
614.06	31.150
614.39	30.808
614.72	31.341
615.06	30.712
615.39	30.990
615.72	30.929
616.05	31.542
616.38	30.644
616.71	30.440
617.05	31.576
617.38	31.910
617.71	32.677
618.04	31.632
618.37	32.351
618.70	33.025
619.03	32.540
619.36	32.601
619.69	31.992
620.03	33.464
620.36	33.269
620.69	33.908
621.02	33.764
621.35	33.166
621.68	34.145
622.01	34.760
622.34	32.411
622.67	33.919
623.00	32.743
623.33	33.738
623.66	32.868
623.99	33.904
624.32	33.130
624.65	33.048
624.99	34.956
625.32	34.536
625.65	32.690
625.98	33.543
626.31	34.050
626.64	32.954
626.97	33.282
627.30	34.627
627.63	35.086
627.96	34.272
628.29	34.241
628.62	33.875
628.95	34.840
629.28	36.284
629.61	34.798
629.94	33.967
630.26	35.095
630.59	37.500
630.92	35.785
631.25	36.083
631.58	37.030
631.91	35.205
632.24	35.083
632.57	35.756
632.90	37.474
633.23	36.621
633.56	36.565
633.89	36.763
634.22	37.244
634.55	35.914
634.88	37.240
635.20	37.780
635.53	37.863
635.86	38.926
636.19	38.272
636.52	36.108
636.85	37.325
637.18	37.270
637.51	36.425
637.83	36.156
638.16	37.163
638.49	38.922
638.82	38.380
639.15	36.898
639.48	39.336
639.81	38.217
640.13	38.405
640.46	38.432
640.79	39.012
641.12	38.320
641.45	39.069
641.77	39.762
642.10	37.216
642.43	39.545
642.76	38.352
643.09	37.896
643.41	40.252
643.74	41.583
644.07	41.593
644.40	39.053
644.73	40.841
645.05	41.753
645.38	40.735
645.71	39.302
646.04	41.679
646.36	40.063
646.69	40.000
647.02	40.160
647.35	39.528
647.67	39.546
648.00	42.182
648.33	39.098
648.66	41.667
648.98	38.696
649.31	38.327
649.64	37.898
649.96	38.122
650.29	38.857
650.62	38.144
650.94	41.265
651.27	40.829
651.60	40.219
651.92	37.942
652.25	41.260
652.58	38.723
652.90	41.916
653.23	39.143
653.56	39.021
653.88	37.885
654.21	38.856
654.54	40.264
654.86	39.528
655.19	38.127
655.52	33.390
655.84	26.970
656.17	32.173
656.49	46.122
656.82	53.424
657.15	42.165
657.47	31.379
657.80	23.443
658.13	18.475
658.45	25.259
658.78	29.988
659.10	30.854
659.43	30.988
659.75	32.296
660.08	34.649
660.41	37.024
660.73	40.527
661.06	40.090
661.38	41.738
661.71	42.626
662.03	43.156
662.36	42.667
662.68	41.155
663.01	43.604
663.33	40.755
663.66	42.801
663.98	44.841
664.31	43.657
664.63	41.954
664.96	41.276
665.28	41.808
665.61	41.132
665.93	41.887
666.26	40.187
666.58	44.220
666.91	43.050
667.23	41.767
667.56	44.148
667.88	44.398
668.21	45.697
668.53	42.339
668.86	40.882
669.18	41.955
669.50	41.942
669.83	44.353
670.15	41.164
670.48	41.602
670.80	42.629
671.13	41.434
671.45	42.084
671.77	43.785
672.10	39.856
672.42	39.145
672.75	41.139
673.07	40.541
673.39	38.658
673.72	43.253
674.04	42.473
674.37	41.379
674.69	39.963
675.01	41.231
675.34	39.535
675.66	43.945
675.98	41.026
676.31	42.600
676.63	40.954
676.95	41.865
677.28	41.582
677.60	42.656
677.92	42.063
678.25	40.310
678.57	43.017
678.89	43.400
679.22	44.669
679.54	41.103
679.86	41.536
680.18	41.476
680.51	39.138
680.83	38.345
681.15	40.381
681.48	39.062
681.80	39.054
682.12	39.446
682.44	39.099
682.77	39.858
683.09	44.078
683.41	43.673
683.73	42.717
684.06	39.683
684.38	44.380
684.70	38.489
685.02	38.194
685.34	41.021
685.67	40.032
685.99	39.573
686.31	41.602
686.63	38.862
686.96	40.523
687.28	39.430
687.60	39.590
687.92	39.028
688.24	42.931
688.56	39.680
688.89	41.683
689.21	41.618
689.53	41.700
689.85	41.870
690.17	39.029
690.49	41.331
690.82	40.546
691.14	39.798
691.46	41.684
691.78	44.834
692.10	41.985
692.42	38.838
692.74	42.248
693.06	40.891
693.39	41.304
693.71	41.847
694.03	42.406
694.35	43.976
694.67	39.715
694.99	43.016
695.31	45.270
695.63	43.213
695.95	44.118
696.27	45.133
696.59	46.539
696.91	46.329
697.23	43.665
697.56	40.249
697.88	41.118
698.20	40.566
698.52	37.743
698.84	43.532
699.16	42.857
699.48	42.161
699.80	44.880
700.12	44.804
700.44	41.822
700.76	42.243
701.08	43.603
701.40	45.974
701.72	47.326
702.04	46.341
702.36	44.624
702.68	42.553
703.00	41.353
703.32	45.658
703.64	46.599
703.96	43.229
704.28	46.561
704.60	44.789
704.91	44.538
705.23	45.739
705.55	44.807
705.87	46.032
706.19	49.530
706.51	50.470
706.83	45.428
707.15	43.850
707.47	42.131
707.79	43.448
708.11	40.136
708.43	42.697
708.74	40.498
709.06	42.558
709.38	41.935
709.70	45.504
710.02	47.011
710.34	46.133
710.66	48.333
710.98	45.902
711.29	44.011
711.61	45.682
711.93	46.809
712.25	47.590
712.57	47.267
712.89	46.061
713.20	43.770
713.52	43.302
713.84	45.317
714.16	39.130
714.48	42.651
714.80	42.818
715.11	45.213
715.43	42.737
715.75	43.380
716.07	45.954
716.39	48.000
716.70	45.794
717.02	49.495
717.34	48.921
717.66	50.347
717.97	52.273
718.29	47.183
718.61	47.297
718.93	48.097
719.24	45.973
719.56	48.276
719.88	43.631
720.20	45.806
720.51	45.098
720.83	47.157
721.15	48.980
721.46	51.027
721.78	39.024
722.10	45.833
722.42	46.488
722.73	47.292
723.05	47.368
723.37	49.117
723.68	45.703
724.00	49.621
724.32	52.091
724.63	43.846
724.95	42.353
725.27	46.097
725.58	47.059
725.90	42.254
726.22	49.315
726.53	45.819
726.85	44.951
727.16	48.993
727.48	46.179
727.80	48.921
728.11	46.429
728.43	41.667
728.74	47.902
729.06	46.953
729.38	47.368
729.69	50.667
730.01	47.039
730.32	47.315
730.64	49.502
730.96	47.447
731.27	42.813
731.59	44.253
731.90	42.618
732.22	44.000
732.53	39.886
732.85	46.199
733.16	43.976
733.48	46.708
733.80	44.348
734.11	46.626
734.43	41.228
734.74	41.287
735.06	44.180
735.37	39.948
735.69	42.899
736.00	48.318
736.32	40.000
736.63	40.379
736.95	45.963
737.26	46.037
737.58	41.718
737.89	44.578
738.21	46.358
738.52	43.478
738.83	50.916
739.15	46.341
739.46	45.172
739.78	46.599
740.09	46.064
740.41	45.092
740.72	45.079
741.04	50.000
741.35	47.656
741.66	49.407
741.98	51.073
742.29	50.463
742.61	48.673
742.92	47.881
743.23	48.000
743.55	48.679
743.86	50.196
744.18	49.576
744.49	51.653
744.80	53.456
745.12	54.018
745.43	50.935
745.74	54.667
746.06	46.491
746.37	52.558
746.68	54.425
747.00	50.224
747.31	44.538
747.62	44.672
747.94	50.215
748.25	49.416
748.56	52.542
748.88	53.125
749.19	49.302
749.50	45.205
749.82	50.206
750.13	45.850
750.44	43.333
750.75	47.315
751.07	45.395
751.38	43.894
751.69	43.098
752.01	46.154
752.32	44.518
752.63	44.966
752.94	43.706
753.26	50.000
753.57	50.584
753.88	44.195
754.19	44.404
754.51	44.186
754.82	46.980
755.13	45.270
755.44	46.296
755.75	48.454
756.07	43.836
756.38	42.484
756.69	45.313
757.00	45.994
757.31	41.972
757.63	41.047
757.94	39.628
758.25	42.995
758.56	38.444
758.87	40.602
759.18	43.023
759.50	39.514
759.81	41.543
760.12	41.292
760.43	38.936
760.74	42.532
761.05	42.706
761.36	36.979
761.67	43.396
761.99	45.070
762.30	40.514
762.61	42.708
762.92	47.348
763.23	45.283
763.54	43.462
763.85	45.136
764.16	45.486
764.47	45.608
764.78	44.951
765.10	42.073
765.41	39.205
765.72	40.331
766.03	42.900
766.34	42.160
766.65	52.852
766.96	47.773
767.27	51.869
767.58	52.970
767.89	52.486
768.20	57.317
768.51	48.980
768.82	49.123
769.13	42.745
769.44	47.744
769.75	40.075
770.06	44.118
770.37	45.175
770.68	43.111
770.99	50.424
771.30	47.280
771.61	45.769
771.92	43.130
772.23	46.371
772.54	51.111
772.85	50.990
773.16	51.087
773.47	52.222
773.78	49.505
774.09	58.523
774.39	61.818
774.70	46.471
775.01	50.658
775.32	59.006
775.63	62.329
775.94	61.728
776.25	55.172
776.56	59.542
776.87	64.122
777.18	60.606
777.48	70.079
777.79	60.000
778.10	64.394
778.41	56.716
778.72	58.647
779.03	44.231
779.34	56.081
779.65	59.627
779.95	56.522
780.26	48.214
780.57	65.986
780.88	55.319
781.19	63.333
781.50	57.988
781.80	51.913
782.11	50.265
782.42	50.000
782.73	51.977
783.04	47.097
783.34	61.240
783.65	48.299
783.96	59.355
784.27	49.007
784.57	51.316
784.88	60.870
785.19	68.333
785.50	63.793
785.81	62.791
786.11	51.852
786.42	55.906
786.73	68.468
787.04	71.698
787.34	49.593
787.65	61.364
787.96	62.121
788.26	65.354
788.57	61.314
788.88	56.338
789.19	56.489
789.49	56.757
789.80	57.812
790.11	61.157
790.41	55.556
790.72	58.333
791.03	75.000
791.33	62.626
791.64	68.421
791.95	67.368
792.25	69.792
792.56	66.000
792.87	69.512
793.17	72.727
793.48	76.471
793.79	62.069
794.09	71.591
794.40	72.414
794.70	69.048
795.01	53.846
795.32	48.855
795.62	56.410
795.93	61.345
796.23	65.041
796.54	69.388
796.85	67.045
797.15	83.117
797.46	82.927
797.76	57.500
798.07	66.667
798.37	81.250
798.68	80.000
798.99	91.463
799.29	78.667
799.60	73.256
799.90	85.526
800.21	86.364
800.51	74.648
800.82	105.172
801.12	89.231
801.43	89.333
801.73	79.310
802.04	62.338
802.34	80.822
802.65	109.804
802.95	89.130
803.26	111.290
803.56	105.000
803.87	85.075
804.17	92.063
804.48	90.566
804.78	77.778
805.09	80.303
805.39	106.349
805.70	114.035
806.00	75.714
806.30	92.187
806.61	72.941
806.91	67.778
807.22	67.391
807.52	68.421
807.83	81.579
808.13	82.609
808.43	93.548
808.74	73.973
809.04	103.571
809.35	88.235
809.65	96.970
809.95	88.235
810.26	109.259
810.56	93.750
810.86	91.837
811.17	110.526
811.47	100.000
811.77	72.414
812.08	94.828
812.38	130.952
812.69	109.524
812.99	97.778
813.29	117.143
813.59	158.065
813.90	91.379
814.20	98.361
814.50	94.000
814.81	64.912
815.11	109.259
815.41	69.643
815.72	105.357
816.02	108.000
816.32	139.024
816.62	101.724
816.93	124.242
817.23	121.951
817.53	92.857
817.84	115.556
818.14	109.524
818.44	110.417
818.74	105.660
819.04	92.308
819.35	151.515
819.65	128.846
819.95	107.407
820.25	119.149
820.56	140.541
820.86	113.158
821.16	102.128
821.46	126.316
821.76	105.455
822.07	107.143
822.37	105.263
822.67	139.535
822.97	110.526
823.27	108.696
823.57	121.875
823.88	112.821
824.18	127.273
824.48	165.217
824.78	150.000
825.08	182.609
825.38	179.310
825.69	135.294
825.99	104.255
826.29	88.889
826.59	140.000
826.89	120.000
827.19	100.000
827.49	125.806
827.79	200.000
828.09	123.810
828.39	136.111
828.70	113.514
829.00	196.429
829.30	231.250
829.60	147.222
829.90	174.194
830.20	154.545
830.50	181.081
830.80	187.500
831.10	188.462
831.40	157.143
831.70	175.000
832.00	173.333
832.30	226.087
832.60	162.500
832.90	181.818
833.20	205.000
833.50	128.947
833.80	126.471
834.10	105.263
834.40	200.000
834.70	103.333
835.00	140.000
835.30	116.216
835.60	171.875
835.90	118.919
836.20	169.231
836.50	181.818
836.80	114.634
837.10	156.522
837.40	315.385
837.70	215.789
838.00	143.333
838.30	154.167
838.60	184.000
838.90	390.000
839.19	237.500
839.49	150.000
839.79	155.172
840.09	192.308
840.39	213.333
840.69	221.053
840.99	223.810
841.29	208.696
841.59	250.000
841.88	216.000
842.18	411.111
842.48	153.571
842.78	174.074
843.08	215.385
843.38	195.455
843.68	292.857
843.97	614.286
844.27	147.826
844.57	1800.000
844.87	378.571
845.17	233.333
845.47	166.667
845.76	233.333
846.06	500.000
846.36	217.647
846.66	338.462
846.96	262.500
847.25	276.923
847.55	184.211
847.85	188.889
848.15	560.000
848.44	336.364
848.74	195.238
849.04	208.333
849.34	188.235
849.63	231.250
849.93	243.750
850.23	1166.667
850.53	500.000
850.82	354.545
851.12	223.529
851.42	200.000
851.71	243.750
852.01	0.000
852.31	194.118
852.61	410.000
852.90	195.833
853.20	411.111
853.50	-3800.000
853.79	184.000
854.09	140.625
854.39	151.724
854.68	179.310
854.98	200.000
855.28	148.387
855.57	264.286
855.87	205.556
856.17	140.741
856.46	178.947
856.76	151.613
857.05	282.353
857.35	327.273
857.65	284.615
857.94	180.000
858.24	466.667
858.53	321.429
858.83	528.571
859.13	213.043
859.42	400.000
859.72	350.000
860.01	208.333
860.31	850.000
860.60	430.000
860.90	400.000
861.20	323.077
861.49	385.714
861.79	-3600.000
862.08	528.571
862.38	533.333
862.67	221.429
862.97	470.000
863.26	140.000
863.56	1175.000
863.85	376.923
864.15	288.235
864.44	216.667
864.74	408.333
865.03	309.091
865.33	412.500
865.62	213.333
865.92	750.000
866.21	1050.000
866.51	600.000
866.80	261.111
867.10	1100.000
867.39	3600.000
867.69	700.000
867.98	1225.000
868.27	200.000
868.57	320.000
868.86	1050.000
869.16	185.714
869.45	3500.000
869.75	-600.000
870.04	850.000
870.33	840.000
870.63	512.500
870.92	200.000
871.22	800.000
871.51	428.571
871.80	508.333
872.10	346.154
>>>>>End Processed Spectral Data<<<<<
