SpectraSuite Data File
++++++++++++++++++++++++++++++++++++
Date: Tue May 12 16:29:44 PDT 2015
User: schluterlab
Dark Spectrum Present: Yes
Reference Spectrum Present: Yes
Number of Sampled Component Spectra: 1
Spectrometers: USB2E3373
Integration Time (usec): 3000 (USB2E3373)
Spectra Averaged: 3 (USB2E3373)
Boxcar Smoothing: 0 (USB2E3373)
Correct for Electrical Dark: No (USB2E3373)
Strobe/Lamp Enabled: No (USB2E3373)
Correct for Detector Non-linearity: No (USB2E3373)
Correct for Stray Light: No (USB2E3373)
Number of Pixels in Processed Spectrum: 2048
>>>>>Begin Processed Spectral Data<<<<<
178.53	0.000
178.91	-250.000
179.29	-850.000
179.67	-4400.000
180.04	-133.333
180.42	675.000
180.80	1450.000
181.18	0.000
181.56	-400.000
181.94	0.000
182.31	1033.333
182.69	-2400.000
183.07	585.714
183.45	-4400.000
183.83	-1400.000
184.20	370.000
184.58	457.143
184.96	-246.154
185.34	-175.000
185.72	1850.000
186.09	-800.000
186.47	-3100.000
186.85	900.000
187.23	700.000
187.61	1450.000
187.98	437.500
188.36	300.000
188.74	375.000
189.12	325.000
189.49	950.000
189.87	0.000
190.25	537.500
190.63	3200.000
191.00	-216.667
191.38	-3700.000
191.76	-825.000
192.14	500.000
192.51	-3300.000
192.89	1350.000
193.27	1266.667
193.65	-900.000
194.02	-740.000
194.40	457.143
194.78	-157.143
195.15	240.000
195.53	-3000.000
195.91	-560.000
196.29	4200.000
196.66	237.500
197.04	750.000
197.42	-1300.000
197.79	600.000
198.17	358.333
198.55	0.000
198.92	585.714
199.30	1100.000
199.68	2600.000
200.05	533.333
200.43	-550.000
200.81	194.444
201.18	3700.000
201.56	325.000
201.94	-750.000
202.31	-300.000
202.69	-700.000
203.07	3800.000
203.44	-533.333
203.82	391.667
204.19	540.000
204.57	-1600.000
204.95	-875.000
205.32	-580.000
205.70	550.000
206.08	775.000
206.45	-866.667
206.83	366.667
207.20	194.737
207.58	308.333
207.96	800.000
208.33	0.000
208.71	414.286
209.08	720.000
209.46	-3100.000
209.84	-425.000
210.21	760.000
210.59	-580.000
210.96	350.000
211.34	-925.000
211.71	400.000
212.09	525.000
212.46	1950.000
212.84	-383.333
213.22	455.556
213.59	-2800.000
213.97	430.000
214.34	1075.000
214.72	1100.000
215.09	1233.333
215.47	-2100.000
215.84	-270.000
216.22	-487.500
216.59	0.000
216.97	0.000
217.34	1100.000
217.72	-1300.000
218.09	1333.333
218.47	525.000
218.84	850.000
219.22	1300.000
219.59	666.667
219.97	742.857
220.34	366.667
220.72	1450.000
221.09	2300.000
221.47	183.333
221.84	1033.333
222.22	430.000
222.59	216.667
222.97	221.429
223.34	231.250
223.72	-1450.000
224.09	1166.667
224.46	215.385
224.84	-950.000
225.21	333.333
225.59	240.000
225.96	1133.333
226.34	-520.000
226.71	-800.000
227.08	-560.000
227.46	0.000
227.83	-700.000
228.21	-2100.000
228.58	358.333
228.95	975.000
229.33	277.778
229.70	850.000
230.08	315.385
230.45	3500.000
230.82	-950.000
231.20	-1166.667
231.57	-766.667
231.95	540.000
232.32	341.667
232.69	433.333
233.07	241.667
233.44	-1300.000
233.81	266.667
234.19	166.667
234.56	175.000
234.93	182.353
235.31	185.000
235.68	237.500
236.05	164.286
236.43	133.333
236.80	235.714
237.17	120.690
237.55	150.000
237.92	105.000
238.29	133.333
238.67	131.250
239.04	85.366
239.41	62.500
239.79	62.500
240.16	89.583
240.53	80.328
240.91	65.217
241.28	64.407
241.65	59.091
242.02	60.563
242.40	64.286
242.77	72.527
243.14	49.367
243.51	59.596
243.89	43.925
244.26	55.140
244.63	46.535
245.00	51.376
245.38	34.746
245.75	41.667
246.12	45.926
246.49	40.426
246.87	37.705
247.24	44.000
247.61	38.125
247.98	41.497
248.36	38.788
248.73	39.796
249.10	33.333
249.47	35.500
249.84	28.358
250.22	35.676
250.59	36.000
250.96	32.068
251.33	31.163
251.70	32.589
252.08	36.975
252.45	28.685
252.82	24.335
253.19	29.249
253.56	28.846
253.94	26.812
254.31	27.907
254.68	28.920
255.05	28.276
255.42	27.737
255.79	25.081
256.16	30.169
256.54	27.597
256.91	25.490
257.28	24.080
257.65	25.392
258.02	27.139
258.39	26.934
258.76	25.797
259.14	22.286
259.51	29.155
259.88	29.179
260.25	21.703
260.62	26.027
260.99	23.691
261.36	27.298
261.73	27.128
262.10	27.225
262.47	23.500
262.85	22.133
263.22	23.650
263.59	24.552
263.96	26.316
264.33	24.198
264.70	24.324
265.07	25.122
265.44	22.706
265.81	24.292
266.18	22.426
266.55	21.513
266.92	25.280
267.29	23.246
267.66	23.094
268.03	21.300
268.40	21.142
268.77	24.449
269.14	21.692
269.51	20.935
269.88	23.265
270.25	22.246
270.62	22.961
270.99	27.181
271.36	24.187
271.73	22.222
272.10	23.030
272.47	23.214
272.84	23.353
273.21	21.074
273.58	23.684
273.95	21.150
274.32	20.233
274.69	24.213
275.06	24.226
275.43	21.264
275.80	21.887
276.17	21.507
276.54	22.243
276.91	22.575
277.28	23.905
277.65	21.587
278.02	21.507
278.39	22.482
278.76	22.069
279.13	20.285
279.50	20.727
279.87	21.229
280.23	21.363
280.60	21.715
280.97	23.276
281.34	21.122
281.71	18.783
282.08	22.051
282.45	20.777
282.82	19.565
283.19	22.576
283.56	20.165
283.92	20.684
284.29	19.967
284.66	21.345
285.03	22.720
285.40	18.512
285.77	19.753
286.14	20.588
286.51	19.325
286.87	19.778
287.24	18.619
287.61	18.085
287.98	19.701
288.35	19.407
288.72	19.575
289.08	18.018
289.45	19.207
289.82	19.844
290.19	19.766
290.56	19.651
290.93	19.281
291.29	19.337
291.66	19.068
292.03	18.513
292.40	19.377
292.77	18.942
293.13	19.401
293.50	16.734
293.87	18.699
294.24	18.042
294.60	17.227
294.97	18.182
295.34	18.194
295.71	17.477
296.08	17.600
296.44	17.916
296.81	16.501
297.18	15.970
297.55	17.857
297.91	14.655
298.28	17.150
298.65	18.650
299.02	17.853
299.38	18.225
299.75	18.049
300.12	17.431
300.48	18.501
300.85	16.925
301.22	18.605
301.59	15.566
301.95	15.753
302.32	18.393
302.69	16.968
303.05	17.845
303.42	16.143
303.79	17.226
304.15	17.492
304.52	16.385
304.89	17.484
305.25	17.909
305.62	18.870
305.99	16.196
306.35	17.579
306.72	18.730
307.09	18.219
307.45	17.212
307.82	19.136
308.19	18.144
308.55	18.100
308.92	17.566
309.29	18.836
309.65	18.831
310.02	19.980
310.38	19.043
310.75	18.901
311.12	18.870
311.48	19.981
311.85	19.370
312.22	20.630
312.58	21.088
312.95	21.748
313.31	22.472
313.68	22.420
314.05	22.161
314.41	21.881
314.78	25.095
315.14	24.645
315.51	23.841
315.87	22.901
316.24	23.249
316.61	24.530
316.97	24.587
317.34	25.606
317.70	26.690
318.07	28.203
318.43	29.438
318.80	27.933
319.16	29.371
319.53	29.115
319.89	30.556
320.26	33.799
320.62	32.234
320.99	32.412
321.35	32.839
321.72	33.871
322.08	34.903
322.45	35.513
322.81	35.682
323.18	38.277
323.54	38.589
323.91	40.526
324.27	40.584
324.64	41.436
325.00	42.759
325.37	43.423
325.73	44.013
326.10	45.568
326.46	46.573
326.83	48.400
327.19	48.112
327.56	50.240
327.92	51.148
328.29	52.946
328.65	54.709
329.01	53.122
329.38	54.061
329.74	51.751
330.11	56.299
330.47	55.328
330.84	55.738
331.20	57.360
331.56	57.513
331.93	58.340
332.29	56.888
332.66	59.014
333.02	56.959
333.38	60.646
333.75	59.967
334.11	59.815
334.48	61.624
334.84	59.882
335.20	59.196
335.57	59.866
335.93	61.817
336.29	60.862
336.66	62.521
337.02	61.677
337.38	60.705
337.75	61.909
338.11	62.869
338.47	61.643
338.84	60.288
339.20	62.251
339.56	61.733
339.93	60.619
340.29	60.756
340.65	64.627
341.02	63.154
341.38	62.972
341.74	62.375
342.11	64.524
342.47	63.167
342.83	64.069
343.20	64.592
343.56	62.669
343.92	64.244
344.28	63.397
344.65	64.548
345.01	62.698
345.37	64.263
345.73	62.540
346.10	64.303
346.46	65.550
346.82	61.806
347.19	64.142
347.55	63.232
347.91	64.653
348.27	64.601
348.63	65.190
349.00	65.804
349.36	66.226
349.72	67.049
350.08	66.537
350.45	66.794
350.81	65.138
351.17	64.484
351.53	66.436
351.89	66.123
352.26	66.062
352.62	64.781
352.98	64.877
353.34	68.490
353.70	63.914
354.07	66.385
354.43	67.819
354.79	66.439
355.15	66.080
355.51	66.918
355.87	67.846
356.24	66.590
356.60	65.982
356.96	69.977
357.32	67.295
357.68	68.282
358.04	68.541
358.40	69.190
358.77	69.121
359.13	68.544
359.49	69.385
359.85	69.471
360.21	68.053
360.57	69.124
360.93	67.893
361.29	69.697
361.66	70.992
362.02	66.903
362.38	68.831
362.74	69.073
363.10	69.355
363.46	67.610
363.82	69.285
364.18	69.986
364.54	71.030
364.90	68.206
365.26	71.339
365.62	71.754
365.98	70.406
366.35	71.241
366.71	71.062
367.07	71.672
367.43	71.592
367.79	71.210
368.15	70.760
368.51	72.846
368.87	71.671
369.23	71.656
369.59	70.465
369.95	71.958
370.31	70.842
370.67	71.964
371.03	72.689
371.39	71.745
371.75	72.505
372.11	72.400
372.47	72.055
372.83	72.944
373.19	73.749
373.55	71.959
373.91	71.478
374.27	72.487
374.63	73.559
374.99	73.046
375.35	74.462
375.71	73.945
376.07	73.342
376.42	71.803
376.78	74.053
377.14	74.312
377.50	74.469
377.86	73.158
378.22	75.625
378.58	75.182
378.94	74.049
379.30	74.773
379.66	74.594
380.02	75.073
380.38	74.239
380.74	75.663
381.09	74.766
381.45	73.353
381.81	75.118
382.17	74.908
382.53	73.485
382.89	75.931
383.25	75.133
383.61	74.640
383.97	75.045
384.32	75.648
384.68	76.887
385.04	76.377
385.40	75.326
385.76	75.541
386.12	75.881
386.48	75.927
386.83	77.506
387.19	76.090
387.55	74.912
387.91	76.155
388.27	77.216
388.62	75.293
388.98	76.385
389.34	76.145
389.70	75.177
390.06	77.134
390.42	77.298
390.77	77.518
391.13	76.765
391.49	76.528
391.85	76.923
392.20	76.222
392.56	76.882
392.92	75.182
393.28	76.626
393.64	77.007
393.99	77.001
394.35	74.514
394.71	75.814
395.07	76.703
395.42	76.932
395.78	77.853
396.14	77.771
396.50	76.534
396.85	76.159
397.21	77.377
397.57	76.390
397.92	75.737
398.28	78.599
398.64	76.382
399.00	76.804
399.35	75.953
399.71	76.435
400.07	76.256
400.42	77.373
400.78	77.771
401.14	76.923
401.49	76.382
401.85	76.709
402.21	76.567
402.57	78.815
402.92	76.545
403.28	77.745
403.63	76.457
403.99	75.392
404.35	76.202
404.70	78.086
405.06	76.025
405.42	75.284
405.77	76.516
406.13	75.271
406.49	74.417
406.84	76.311
407.20	76.142
407.55	77.231
407.91	77.920
408.27	76.713
408.62	77.824
408.98	76.582
409.34	75.687
409.69	75.793
410.05	76.565
410.40	75.618
410.76	75.329
411.11	75.474
411.47	77.222
411.83	74.458
412.18	78.261
412.54	75.856
412.89	76.637
413.25	75.656
413.60	75.935
413.96	76.302
414.31	76.564
414.67	76.723
415.03	76.437
415.38	76.088
415.74	77.511
416.09	75.640
416.45	76.858
416.80	78.319
417.16	74.539
417.51	76.433
417.87	77.534
418.22	74.301
418.58	77.325
418.93	76.978
419.29	76.710
419.64	78.256
420.00	77.506
420.35	77.062
420.71	76.546
421.06	76.162
421.42	77.029
421.77	76.735
422.12	77.067
422.48	75.501
422.83	78.516
423.19	76.566
423.54	75.206
423.90	77.067
424.25	77.380
424.61	77.945
424.96	77.809
425.31	78.270
425.67	79.125
426.02	77.398
426.38	78.413
426.73	78.774
427.09	77.521
427.44	76.590
427.79	77.816
428.15	79.906
428.50	79.714
428.85	79.130
429.21	78.282
429.56	77.119
429.92	79.065
430.27	77.939
430.62	77.141
430.98	77.944
431.33	78.881
431.68	75.951
432.04	77.600
432.39	79.802
432.74	79.157
433.10	80.343
433.45	81.218
433.80	80.530
434.16	78.770
434.51	78.122
434.86	78.498
435.22	79.525
435.57	79.490
435.92	78.941
436.28	80.415
436.63	78.444
436.98	81.869
437.34	80.137
437.69	79.843
438.04	78.387
438.39	79.101
438.75	79.399
439.10	79.493
439.45	79.423
439.81	80.972
440.16	81.343
440.51	79.448
440.86	80.627
441.22	79.654
441.57	80.682
441.92	80.454
442.27	79.639
442.63	79.268
442.98	77.748
443.33	80.771
443.68	79.074
444.03	78.322
444.39	80.697
444.74	78.882
445.09	80.569
445.44	80.287
445.79	79.435
446.15	79.632
446.50	79.378
446.85	79.731
447.20	78.806
447.55	79.935
447.91	79.329
448.26	79.180
448.61	80.708
448.96	80.828
449.31	81.188
449.66	80.288
450.02	79.741
450.37	82.621
450.72	80.882
451.07	80.221
451.42	80.261
451.77	81.787
452.12	79.580
452.47	81.166
452.83	82.141
453.18	81.922
453.53	81.883
453.88	81.314
454.23	81.348
454.58	80.070
454.93	80.687
455.28	81.579
455.63	81.265
455.98	80.711
456.34	83.222
456.69	81.280
457.04	81.265
457.39	80.743
457.74	81.588
458.09	80.460
458.44	79.354
458.79	79.894
459.14	79.596
459.49	79.672
459.84	81.087
460.19	78.927
460.54	79.487
460.89	80.597
461.24	77.892
461.59	80.385
461.94	79.137
462.29	80.835
462.64	81.533
462.99	80.934
463.34	80.881
463.69	81.428
464.04	80.023
464.39	80.424
464.74	79.191
465.09	80.325
465.44	78.672
465.79	78.879
466.14	78.484
466.49	78.730
466.84	79.208
467.19	80.434
467.54	78.498
467.89	78.873
468.24	79.213
468.59	78.869
468.94	79.589
469.29	79.414
469.64	78.650
469.99	79.627
470.34	80.013
470.68	80.000
471.03	80.987
471.38	81.457
471.73	80.927
472.08	81.539
472.43	81.688
472.78	80.026
473.13	78.411
473.48	79.340
473.83	79.623
474.17	79.939
474.52	78.495
474.87	77.544
475.22	79.555
475.57	78.332
475.92	78.283
476.27	77.856
476.61	78.284
476.96	77.900
477.31	78.612
477.66	80.730
478.01	77.978
478.36	78.476
478.70	78.561
479.05	78.609
479.40	78.671
479.75	79.146
480.10	78.993
480.45	78.618
480.79	77.880
481.14	78.269
481.49	77.173
481.84	77.353
482.19	79.214
482.53	77.031
482.88	77.509
483.23	78.304
483.58	78.501
483.92	79.159
484.27	77.997
484.62	77.929
484.97	75.925
485.31	77.014
485.66	74.750
486.01	72.452
486.36	72.254
486.70	71.429
487.05	72.893
487.40	73.504
487.75	74.352
488.09	74.148
488.44	74.060
488.79	75.842
489.13	76.596
489.48	77.307
489.83	76.230
490.17	76.053
490.52	77.347
490.87	75.991
491.22	76.551
491.56	77.339
491.91	77.240
492.26	76.437
492.60	78.087
492.95	77.345
493.30	77.343
493.64	77.179
493.99	77.281
494.34	76.333
494.68	76.937
495.03	77.234
495.37	77.668
495.72	76.830
496.07	76.685
496.41	75.109
496.76	75.939
497.11	76.435
497.45	77.071
497.80	77.340
498.14	77.115
498.49	75.859
498.84	77.757
499.18	75.320
499.53	76.711
499.87	75.966
500.22	77.430
500.56	77.484
500.91	76.855
501.26	76.344
501.60	76.594
501.95	75.134
502.29	75.956
502.64	75.562
502.98	75.500
503.33	75.546
503.67	75.320
504.02	75.280
504.36	74.434
504.71	76.443
505.06	76.208
505.40	75.386
505.75	75.912
506.09	76.108
506.44	77.303
506.78	76.560
507.13	76.297
507.47	76.177
507.82	77.178
508.16	77.511
508.51	76.329
508.85	74.929
509.19	77.974
509.54	75.146
509.88	76.877
510.23	74.412
510.57	73.504
510.92	76.274
511.26	76.657
511.61	75.332
511.95	75.908
512.30	75.700
512.64	76.168
512.98	76.166
513.33	75.615
513.67	77.007
514.02	76.000
514.36	76.168
514.70	75.787
515.05	76.452
515.39	77.577
515.74	79.169
516.08	77.614
516.42	78.579
516.77	76.053
517.11	75.840
517.46	75.808
517.80	75.751
518.14	76.732
518.49	75.469
518.83	75.769
519.17	76.983
519.52	76.133
519.86	75.477
520.20	76.603
520.55	76.258
520.89	76.552
521.23	77.921
521.58	76.936
521.92	76.735
522.26	76.659
522.61	78.015
522.95	77.898
523.29	76.784
523.64	75.491
523.98	76.937
524.32	74.971
524.66	76.406
525.01	76.686
525.35	75.250
525.69	76.520
526.04	76.800
526.38	77.104
526.72	75.000
527.06	74.926
527.41	77.630
527.75	75.898
528.09	75.798
528.43	76.083
528.78	75.671
529.12	77.784
529.46	75.628
529.80	75.409
530.15	74.543
530.49	75.391
530.83	76.417
531.17	75.523
531.51	76.088
531.86	74.094
532.20	74.413
532.54	75.832
532.88	75.515
533.22	75.564
533.57	75.900
533.91	72.727
534.25	72.591
534.59	74.327
534.93	72.014
535.27	73.250
535.62	73.862
535.96	73.345
536.30	76.478
536.64	73.230
536.98	75.142
537.32	72.688
537.66	75.128
538.01	73.684
538.35	74.610
538.69	73.726
539.03	74.316
539.37	72.330
539.71	73.395
540.05	72.800
540.39	73.648
540.73	74.367
541.07	73.212
541.42	73.632
541.76	72.873
542.10	72.133
542.44	73.192
542.78	71.806
543.12	70.982
543.46	71.303
543.80	72.682
544.14	73.375
544.48	73.358
544.82	72.477
545.16	71.524
545.50	72.096
545.84	71.717
546.18	74.902
546.52	73.377
546.86	72.276
547.20	72.481
547.54	70.488
547.88	70.438
548.22	72.556
548.56	69.829
548.90	70.285
549.24	71.889
549.58	72.101
549.92	73.281
550.26	73.766
550.60	72.255
550.94	73.677
551.28	72.276
551.62	73.448
551.96	72.770
552.30	70.929
552.64	72.168
552.98	71.263
553.32	71.575
553.66	70.619
554.00	70.528
554.34	72.570
554.68	72.715
555.02	72.369
555.36	72.939
555.69	71.859
556.03	69.299
556.37	71.893
556.71	72.164
557.05	70.642
557.39	70.133
557.73	72.170
558.07	72.435
558.41	71.213
558.75	70.862
559.08	72.337
559.42	74.016
559.76	73.485
560.10	70.888
560.44	69.940
560.78	72.251
561.12	71.011
561.45	70.213
561.79	68.102
562.13	70.120
562.47	70.604
562.81	71.698
563.15	70.653
563.48	68.509
563.82	70.181
564.16	70.647
564.50	70.283
564.84	69.362
565.17	68.627
565.51	71.490
565.85	69.833
566.19	68.690
566.52	68.893
566.86	69.644
567.20	68.820
567.54	68.122
567.88	68.232
568.21	67.599
568.55	67.461
568.89	66.651
569.23	65.617
569.56	66.254
569.90	63.313
570.24	62.589
570.57	63.368
570.91	62.933
571.25	62.426
571.59	61.506
571.92	61.356
572.26	62.210
572.60	61.455
572.93	62.450
573.27	62.062
573.61	61.884
573.95	61.305
574.28	60.882
574.62	60.061
574.96	59.946
575.29	59.565
575.63	59.293
575.97	60.127
576.30	59.985
576.64	60.229
576.98	59.624
577.31	60.246
577.65	59.767
577.98	58.861
578.32	58.645
578.66	58.631
578.99	59.681
579.33	59.878
579.67	59.682
580.00	59.298
580.34	59.633
580.67	58.881
581.01	59.930
581.35	58.855
581.68	59.186
582.02	58.686
582.35	58.223
582.69	58.454
583.02	59.324
583.36	59.798
583.70	60.065
584.03	61.074
584.37	60.146
584.70	59.891
585.04	59.743
585.37	58.814
585.71	59.955
586.04	59.326
586.38	59.205
586.72	59.949
587.05	60.087
587.39	60.051
587.72	60.161
588.06	60.070
588.39	59.365
588.73	59.303
589.06	60.724
589.40	60.376
589.73	61.127
590.07	62.011
590.40	62.125
590.73	63.055
591.07	62.125
591.40	61.876
591.74	61.445
592.07	61.356
592.41	61.351
592.74	61.113
593.08	60.384
593.41	58.887
593.75	58.712
594.08	59.563
594.41	59.791
594.75	60.308
595.08	60.802
595.42	60.204
595.75	58.967
596.09	60.549
596.42	61.326
596.75	61.979
597.09	62.196
597.42	61.347
597.75	59.919
598.09	60.320
598.42	60.139
598.76	60.177
599.09	61.125
599.42	58.754
599.76	59.396
600.09	59.661
600.42	59.012
600.76	59.177
601.09	60.442
601.42	59.345
601.76	60.079
602.09	59.971
602.42	59.741
602.76	59.848
603.09	60.822
603.42	60.404
603.76	60.014
604.09	58.921
604.42	59.661
604.76	60.687
605.09	59.878
605.42	60.179
605.75	59.534
606.09	60.138
606.42	59.451
606.75	59.347
607.09	58.271
607.42	60.145
607.75	58.599
608.08	59.951
608.42	59.060
608.75	60.291
609.08	61.197
609.41	60.591
609.75	60.623
610.08	60.072
610.41	59.640
610.74	59.827
611.07	59.982
611.41	60.751
611.74	61.855
612.07	60.597
612.40	61.793
612.73	62.356
613.07	61.581
613.40	61.554
613.73	62.007
614.06	60.300
614.39	61.010
614.72	61.226
615.06	59.743
615.39	59.950
615.72	60.068
616.05	60.271
616.38	59.259
616.71	61.964
617.05	61.834
617.38	61.236
617.71	61.361
618.04	60.965
618.37	61.590
618.70	61.490
619.03	62.210
619.36	62.940
619.69	63.852
620.03	64.449
620.36	62.877
620.69	62.261
621.02	64.266
621.35	63.252
621.68	64.823
622.01	64.502
622.34	64.312
622.67	62.921
623.00	61.947
623.33	62.618
623.66	62.475
623.99	64.932
624.32	64.566
624.65	63.002
624.99	62.880
625.32	62.124
625.65	62.690
625.98	62.552
626.31	64.318
626.64	64.768
626.97	64.346
627.30	66.382
627.63	66.954
627.96	64.945
628.29	66.997
628.62	65.184
628.95	66.312
629.28	67.134
629.61	66.169
629.94	65.946
630.26	65.251
630.59	66.755
630.92	64.753
631.25	66.546
631.58	67.792
631.91	66.413
632.24	66.278
632.57	66.110
632.90	68.012
633.23	68.625
633.56	67.018
633.89	69.239
634.22	70.183
634.55	66.667
634.88	69.003
635.20	69.507
635.53	70.035
635.86	68.456
636.19	67.340
636.52	68.000
636.85	66.451
637.18	67.281
637.51	67.598
637.83	67.162
638.16	69.637
638.49	68.383
638.82	70.423
639.15	66.157
639.48	68.839
639.81	68.742
640.13	68.466
640.46	68.268
640.79	70.351
641.12	69.029
641.45	70.246
641.77	72.919
642.10	70.415
642.43	72.688
642.76	70.597
643.09	73.631
643.41	71.388
643.74	70.791
644.07	71.976
644.40	71.302
644.73	72.523
645.05	71.768
645.38	71.975
645.71	70.713
646.04	71.756
646.36	74.804
646.69	71.840
647.02	72.640
647.35	69.921
647.67	75.527
648.00	72.801
648.33	69.173
648.66	72.879
648.98	69.275
649.31	66.937
649.64	68.188
649.96	67.568
650.29	67.286
650.62	69.219
650.94	70.181
651.27	70.973
651.60	73.239
651.92	69.278
652.25	70.079
652.58	67.092
652.90	68.263
653.23	68.685
653.56	70.623
653.88	67.988
654.21	68.768
654.54	65.593
654.86	65.487
655.19	66.227
655.52	57.496
655.84	47.991
656.17	54.969
656.49	77.741
656.82	87.440
657.15	69.458
657.47	52.638
657.80	39.569
658.13	31.580
658.45	43.039
658.78	51.663
659.10	52.239
659.43	52.761
659.75	54.557
660.08	56.579
660.41	60.617
660.73	66.123
661.06	70.571
661.38	70.017
661.71	69.784
662.03	72.053
662.36	70.476
662.68	70.019
663.01	70.631
663.33	67.736
663.66	72.189
663.98	73.810
664.31	72.015
664.63	71.456
664.96	72.795
665.28	68.550
665.61	66.604
665.93	70.566
666.26	72.523
666.58	71.560
666.91	70.463
667.23	70.080
667.56	75.154
667.88	73.444
668.21	72.951
668.53	73.387
668.86	72.545
669.18	70.876
669.50	71.488
669.83	71.458
670.15	71.518
670.48	65.820
670.80	70.319
671.13	71.315
671.45	71.944
671.77	67.161
672.10	69.479
672.42	64.309
672.75	65.190
673.07	66.614
673.39	64.537
673.72	68.512
674.04	68.638
674.37	69.328
674.69	68.959
675.01	68.843
675.34	67.636
675.66	67.773
675.98	69.231
676.31	68.200
676.63	68.191
676.95	68.651
677.28	68.560
677.60	67.404
677.92	68.849
678.25	70.543
678.57	68.343
678.89	67.993
679.22	68.750
679.54	66.548
679.86	67.714
680.18	65.026
680.51	64.345
680.83	62.331
681.15	63.258
681.48	67.014
681.80	64.974
682.12	63.149
682.44	64.144
682.77	64.947
683.09	65.825
683.41	67.143
683.73	68.898
684.06	64.087
684.38	66.279
684.70	64.388
685.02	62.153
685.34	67.254
685.67	65.434
685.99	60.755
686.31	62.712
686.63	61.463
686.96	64.052
687.28	62.248
687.60	63.652
687.92	62.312
688.24	64.138
688.56	63.701
688.89	62.333
689.21	65.511
689.53	64.625
689.85	63.821
690.17	64.660
690.49	65.927
690.82	70.378
691.14	65.859
691.46	64.476
691.78	64.717
692.10	63.931
692.42	60.799
692.74	63.566
693.06	65.116
693.39	61.660
693.71	63.458
694.03	62.722
694.35	68.474
694.67	62.933
694.99	66.741
695.31	65.766
695.63	66.968
695.95	65.385
696.27	67.920
696.59	65.871
696.91	67.848
697.23	65.385
697.56	60.581
697.88	61.277
698.20	61.321
698.52	60.117
698.84	66.119
699.16	66.738
699.48	63.559
699.80	64.706
700.12	63.741
700.44	62.850
700.76	62.530
701.08	66.057
701.40	68.571
701.72	70.321
702.04	67.751
702.36	68.011
702.68	66.755
703.00	62.907
703.32	66.998
703.64	65.743
703.96	66.406
704.28	65.608
704.60	70.704
704.91	67.787
705.23	66.761
705.55	71.217
705.87	67.937
706.19	70.846
706.51	75.235
706.83	71.976
707.15	66.043
707.47	66.586
707.79	60.920
708.11	61.905
708.43	60.000
708.74	59.955
709.06	59.535
709.38	63.772
709.70	63.215
710.02	63.315
710.34	66.298
710.66	66.667
710.98	64.208
711.29	62.117
711.61	65.460
711.93	68.085
712.25	64.759
712.57	68.489
712.89	63.939
713.20	71.246
713.52	64.798
713.84	63.444
714.16	62.319
714.48	59.942
714.80	62.060
715.11	62.500
715.43	61.453
715.75	65.070
716.07	59.827
716.39	62.857
716.70	63.551
717.02	70.370
717.34	65.468
717.66	70.486
717.97	72.348
718.29	65.493
718.61	63.514
718.93	68.166
719.24	69.799
719.56	72.414
719.88	62.102
720.20	63.871
720.51	59.477
720.83	65.217
721.15	63.946
721.46	68.493
721.78	69.338
722.10	69.792
722.42	70.903
722.73	65.343
723.05	68.070
723.37	69.965
723.68	65.625
724.00	73.106
724.32	60.837
724.63	68.846
724.95	69.020
725.27	69.517
725.58	67.279
725.90	63.028
726.22	64.041
726.53	67.224
726.85	64.821
727.16	66.107
727.48	63.123
727.80	65.108
728.11	63.571
728.43	64.130
728.74	64.685
729.06	63.799
729.38	65.614
729.69	64.667
730.01	63.487
730.32	59.732
730.64	66.113
730.96	59.459
731.27	58.410
731.59	59.195
731.90	58.774
732.22	62.000
732.53	55.271
732.85	57.895
733.16	59.036
733.48	60.188
733.80	59.420
734.11	61.350
734.43	61.111
734.74	55.228
735.06	57.937
735.37	55.670
735.69	57.101
736.00	62.385
736.32	56.364
736.63	55.836
736.95	62.112
737.26	59.756
737.58	61.656
737.89	55.723
738.21	61.258
738.52	60.535
738.83	64.103
739.15	61.324
739.46	60.690
739.78	61.565
740.09	55.977
740.41	56.442
740.72	59.048
741.04	63.986
741.35	64.062
741.66	57.312
741.98	63.519
742.29	69.444
742.61	66.814
742.92	63.983
743.23	61.200
743.55	61.132
743.86	58.824
744.18	67.373
744.49	65.289
744.80	65.438
745.12	68.304
745.43	70.093
745.74	68.444
746.06	67.544
746.37	65.581
746.68	70.796
747.00	69.507
747.31	67.227
747.62	57.787
747.94	65.665
748.25	57.977
748.56	69.068
748.88	66.964
749.19	66.512
749.50	63.014
749.82	67.078
750.13	60.079
750.44	56.333
750.75	58.725
751.07	58.553
751.38	58.416
751.69	60.606
752.01	59.091
752.32	62.126
752.63	54.362
752.94	60.140
753.26	67.578
753.57	57.977
753.88	57.303
754.19	62.094
754.51	61.794
754.82	59.396
755.13	54.730
755.44	64.444
755.75	54.983
756.07	60.959
756.38	56.209
756.69	51.875
757.00	55.193
757.31	56.620
757.63	52.617
757.94	56.117
758.25	50.242
758.56	46.453
758.87	54.135
759.18	55.233
759.50	53.191
759.81	53.116
760.12	52.528
760.43	51.541
760.74	54.430
761.05	52.255
761.36	47.917
761.67	52.830
761.99	55.211
762.30	55.949
762.61	54.861
762.92	56.439
763.23	56.226
763.54	55.769
763.85	54.864
764.16	53.819
764.47	51.014
764.78	49.837
765.10	54.268
765.41	51.989
765.72	48.895
766.03	51.360
766.34	58.188
766.65	57.414
766.96	63.968
767.27	64.953
767.58	61.386
767.89	65.746
768.20	77.439
768.51	64.286
768.82	57.456
769.13	50.588
769.44	53.383
769.75	55.431
770.06	56.723
770.37	52.632
770.68	52.444
770.99	61.864
771.30	54.393
771.61	57.308
771.92	53.817
772.23	52.823
772.54	55.556
772.85	63.366
773.16	61.957
773.47	62.222
773.78	58.416
774.09	65.341
774.39	67.273
774.70	65.882
775.01	67.763
775.32	64.596
775.63	69.178
775.94	69.136
776.25	70.345
776.56	77.099
776.87	74.046
777.18	68.182
777.48	72.441
777.79	66.154
778.10	78.788
778.41	74.627
778.72	62.406
779.03	60.897
779.34	62.838
779.65	68.944
779.95	63.975
780.26	62.500
780.57	65.986
780.88	67.376
781.19	83.333
781.50	68.639
781.80	66.120
782.11	58.730
782.42	62.644
782.73	58.757
783.04	64.516
783.34	61.240
783.65	60.544
783.96	66.452
784.27	58.278
784.57	67.763
784.88	68.116
785.19	72.500
785.50	69.828
785.81	72.868
786.11	66.667
786.42	79.528
786.73	70.270
787.04	86.792
787.34	77.236
787.65	81.818
787.96	62.121
788.26	80.315
788.57	77.372
788.88	66.197
789.19	60.305
789.49	70.270
789.80	65.625
790.11	61.157
790.41	72.222
790.72	68.519
791.03	79.808
791.33	80.808
791.64	80.000
791.95	69.474
792.25	71.875
792.56	86.000
792.87	81.707
793.17	67.045
793.48	89.412
793.79	91.954
794.09	69.318
794.40	77.586
794.70	72.222
795.01	62.308
795.32	67.939
795.62	58.120
795.93	62.185
796.23	70.732
796.54	79.592
796.85	86.364
797.15	77.922
797.46	84.146
797.76	81.250
798.07	85.333
798.37	92.500
798.68	85.000
798.99	91.463
799.29	73.333
799.60	69.767
799.90	89.474
800.21	95.455
800.51	87.324
800.82	103.448
801.12	92.308
801.43	97.333
801.73	112.069
802.04	84.416
802.34	84.932
802.65	109.804
802.95	82.609
803.26	103.226
803.56	116.667
803.87	98.507
804.17	74.603
804.48	94.340
804.78	91.667
805.09	80.303
805.39	88.889
805.70	92.982
806.00	71.429
806.30	79.687
806.61	82.353
806.91	78.889
807.22	66.304
807.52	76.316
807.83	106.579
808.13	91.304
808.43	90.323
808.74	94.521
809.04	112.500
809.35	95.588
809.65	90.909
809.95	119.608
810.26	116.667
810.56	95.312
810.86	95.918
811.17	103.509
811.47	130.435
811.77	108.621
812.08	91.379
812.38	109.524
812.69	123.810
812.99	104.444
813.29	145.714
813.59	151.613
813.90	87.931
814.20	91.803
814.50	114.000
814.81	107.018
815.11	98.148
815.41	82.143
815.72	119.643
816.02	132.000
816.32	104.878
816.62	105.172
816.93	112.121
817.23	114.634
817.53	92.857
817.84	97.778
818.14	126.190
818.44	116.667
818.74	100.000
819.04	130.769
819.35	142.424
819.65	113.462
819.95	118.519
820.25	125.532
820.56	129.730
820.86	165.789
821.16	80.851
821.46	134.211
821.76	109.091
822.07	90.476
822.37	126.316
822.67	132.558
822.97	102.632
823.27	110.870
823.57	118.750
823.88	115.385
824.18	124.242
824.48	191.304
824.78	147.222
825.08	160.870
825.38	162.069
825.69	158.824
825.99	106.383
826.29	113.889
826.59	140.000
826.89	156.667
827.19	114.286
827.49	154.839
827.79	207.692
828.09	90.476
828.39	138.889
828.70	127.027
829.00	146.429
829.30	231.250
829.60	147.222
829.90	116.129
830.20	115.152
830.50	121.622
830.80	175.000
831.10	180.769
831.40	138.095
831.70	179.167
832.00	146.667
832.30	165.217
832.60	162.500
832.90	172.727
833.20	195.000
833.50	157.895
833.80	126.471
834.10	115.789
834.40	194.737
834.70	133.333
835.00	184.000
835.30	105.405
835.60	175.000
835.90	143.243
836.20	176.923
836.50	172.727
836.80	114.634
837.10	191.304
837.40	361.538
837.70	189.474
838.00	176.667
838.30	187.500
838.60	144.000
838.90	280.000
839.19	206.250
839.49	193.333
839.79	158.621
840.09	150.000
840.39	206.667
840.69	152.632
840.99	147.619
841.29	217.391
841.59	200.000
841.88	148.000
842.18	422.222
842.48	135.714
842.78	151.852
843.08	215.385
843.38	195.455
843.68	278.571
843.97	571.429
844.27	195.652
844.57	1400.000
844.87	350.000
845.17	222.222
845.47	161.905
845.76	179.167
846.06	585.714
846.36	200.000
846.66	292.308
846.96	262.500
847.25	300.000
847.55	200.000
847.85	194.444
848.15	560.000
848.44	418.182
848.74	152.381
849.04	175.000
849.34	205.882
849.63	256.250
849.93	250.000
850.23	933.333
850.53	537.500
850.82	281.818
851.12	211.765
851.42	229.167
851.71	206.250
852.01	0.000
852.31	223.529
852.61	390.000
852.90	175.000
853.20	311.111
853.50	-2900.000
853.79	164.000
854.09	178.125
854.39	106.897
854.68	179.310
854.98	219.048
855.28	132.258
855.57	257.143
855.87	211.111
856.17	151.852
856.46	152.632
856.76	138.710
857.05	305.882
857.35	200.000
857.65	207.692
857.94	140.000
858.24	311.111
858.53	335.714
858.83	542.857
859.13	204.348
859.42	333.333
859.72	412.500
860.01	291.667
860.31	925.000
860.60	350.000
860.90	450.000
861.20	292.308
861.49	271.429
861.79	-3600.000
862.08	528.571
862.38	344.444
862.67	221.429
862.97	450.000
863.26	146.667
863.56	775.000
863.85	269.231
864.15	323.529
864.44	255.556
864.74	416.667
865.03	409.091
865.33	412.500
865.62	213.333
865.92	600.000
866.21	775.000
866.51	600.000
866.80	238.889
867.10	1000.000
867.39	3400.000
867.69	440.000
867.98	950.000
868.27	176.190
868.57	273.333
868.86	875.000
869.16	152.381
869.45	2800.000
869.75	-466.667
870.04	650.000
870.33	560.000
870.63	412.500
870.92	258.824
871.22	775.000
871.51	371.429
871.80	291.667
872.10	338.462
>>>>>End Processed Spectral Data<<<<<
