SpectraSuite Data File
++++++++++++++++++++++++++++++++++++
Date: Tue May 12 16:40:30 PDT 2015
User: schluterlab
Dark Spectrum Present: Yes
Reference Spectrum Present: Yes
Number of Sampled Component Spectra: 1
Spectrometers: USB2E3373
Integration Time (usec): 3000 (USB2E3373)
Spectra Averaged: 3 (USB2E3373)
Boxcar Smoothing: 0 (USB2E3373)
Correct for Electrical Dark: No (USB2E3373)
Strobe/Lamp Enabled: No (USB2E3373)
Correct for Detector Non-linearity: No (USB2E3373)
Correct for Stray Light: No (USB2E3373)
Number of Pixels in Processed Spectrum: 2048
>>>>>Begin Processed Spectral Data<<<<<
178.53	0.000
178.91	-183.333
179.29	-875.000
179.67	-3000.000
180.04	-133.333
180.42	550.000
180.80	1050.000
181.18	0.000
181.56	-262.500
181.94	0.000
182.31	733.333
182.69	-2400.000
183.07	542.857
183.45	-3300.000
183.83	-1500.000
184.20	430.000
184.58	457.143
184.96	-192.308
185.34	-175.000
185.72	1600.000
186.09	-750.000
186.47	-2500.000
186.85	633.333
187.23	520.000
187.61	1550.000
187.98	450.000
188.36	214.286
188.74	283.333
189.12	341.667
189.49	600.000
189.87	0.000
190.25	387.500
190.63	2800.000
191.00	-275.000
191.38	-3000.000
191.76	-575.000
192.14	625.000
192.51	-2900.000
192.89	1100.000
193.27	966.667
193.65	-1100.000
194.02	-740.000
194.40	485.714
194.78	-171.429
195.15	280.000
195.53	-2500.000
195.91	-660.000
196.29	3700.000
196.66	175.000
197.04	1075.000
197.42	-1350.000
197.79	1000.000
198.17	316.667
198.55	0.000
198.92	442.857
199.30	1000.000
199.68	1800.000
200.05	533.333
200.43	-466.667
200.81	172.222
201.18	3300.000
201.56	316.667
201.94	-600.000
202.31	-225.000
202.69	-520.000
203.07	2300.000
203.44	-433.333
203.82	316.667
204.19	540.000
204.57	-1550.000
204.95	-725.000
205.32	-600.000
205.70	450.000
206.08	575.000
206.45	-500.000
206.83	344.444
207.20	184.211
207.58	216.667
207.96	700.000
208.33	0.000
208.71	514.286
209.08	720.000
209.46	-2800.000
209.84	-600.000
210.21	720.000
210.59	-440.000
210.96	333.333
211.34	-1000.000
211.71	318.182
212.09	750.000
212.46	1500.000
212.84	-583.333
213.22	466.667
213.59	-2200.000
213.97	200.000
214.34	975.000
214.72	800.000
215.09	866.667
215.47	-3500.000
215.84	-350.000
216.22	-362.500
216.59	0.000
216.97	0.000
217.34	1050.000
217.72	-1700.000
218.09	1100.000
218.47	412.500
218.84	950.000
219.22	1133.333
219.59	700.000
219.97	400.000
220.34	422.222
220.72	1700.000
221.09	3800.000
221.47	258.333
221.84	1000.000
222.22	340.000
222.59	244.444
222.97	228.571
223.34	212.500
223.72	-1350.000
224.09	1233.333
224.46	300.000
224.84	-775.000
225.21	277.778
225.59	293.333
225.96	1200.000
226.34	-500.000
226.71	-550.000
227.08	-600.000
227.46	0.000
227.83	-516.667
228.21	-1350.000
228.58	441.667
228.95	825.000
229.33	288.889
229.70	1100.000
230.08	292.308
230.45	3800.000
230.82	-925.000
231.20	-666.667
231.57	-1033.333
231.95	600.000
232.32	316.667
232.69	650.000
233.07	250.000
233.44	-1350.000
233.81	233.333
234.19	144.444
234.56	268.750
234.93	194.118
235.31	205.000
235.68	250.000
236.05	153.571
236.43	144.444
236.80	228.571
237.17	144.828
237.55	128.125
237.92	100.000
238.29	127.273
238.67	137.500
239.04	100.000
239.41	70.833
239.79	97.500
240.16	83.333
240.53	67.213
240.91	72.464
241.28	93.220
241.65	69.697
242.02	77.465
242.40	61.429
242.77	57.143
243.14	58.228
243.51	72.727
243.89	54.206
244.26	54.206
244.63	54.455
245.00	55.046
245.38	36.441
245.75	56.061
246.12	54.074
246.49	51.064
246.87	57.377
247.24	40.667
247.61	48.125
247.98	53.741
248.36	36.364
248.73	47.449
249.10	44.048
249.47	38.000
249.84	38.308
250.22	45.405
250.59	41.000
250.96	38.819
251.33	35.349
251.70	36.607
252.08	43.277
252.45	39.442
252.82	35.361
253.19	35.178
253.56	40.769
253.94	38.406
254.31	41.473
254.68	35.540
255.05	39.310
255.42	39.416
255.79	39.414
256.16	37.966
256.54	35.714
256.91	38.235
257.28	35.786
257.65	31.975
258.02	32.743
258.39	36.963
258.76	36.812
259.14	31.429
259.51	36.735
259.88	36.474
260.25	31.868
260.62	35.342
260.99	32.507
261.36	33.705
261.73	32.979
262.10	35.340
262.47	33.000
262.85	33.067
263.22	33.933
263.59	36.061
263.96	36.591
264.33	32.840
264.70	35.381
265.07	32.683
265.44	35.780
265.81	34.434
266.18	33.867
266.55	31.442
266.92	33.110
267.29	34.649
267.66	32.960
268.03	29.596
268.40	32.558
268.77	33.040
269.14	33.189
269.51	32.739
269.88	32.041
270.25	30.238
270.62	32.618
270.99	32.860
271.36	34.350
271.73	32.075
272.10	31.313
272.47	31.349
272.84	29.541
273.21	31.818
273.58	31.174
273.95	31.622
274.32	30.545
274.69	32.677
275.06	33.151
275.43	31.801
275.80	30.755
276.17	31.434
276.54	32.150
276.91	32.090
277.28	31.934
277.65	30.812
278.02	30.882
278.39	30.755
278.76	30.690
279.13	30.427
279.50	33.636
279.87	28.305
280.23	31.492
280.60	32.299
280.97	30.172
281.34	30.198
281.71	31.478
282.08	31.282
282.45	30.236
282.82	32.274
283.19	30.366
283.56	30.744
283.92	32.248
284.29	29.950
284.66	28.739
285.03	31.177
285.40	31.074
285.77	29.938
286.14	29.876
286.51	30.215
286.87	28.323
287.24	28.378
287.61	30.699
287.98	30.149
288.35	27.704
288.72	27.011
289.08	30.480
289.45	26.982
289.82	27.187
290.19	28.990
290.56	28.530
290.93	29.209
291.29	26.934
291.66	26.836
292.03	27.069
292.40	26.965
292.77	26.323
293.13	28.388
293.50	26.181
293.87	26.965
294.24	28.252
294.60	26.783
294.97	27.552
295.34	26.295
295.71	26.544
296.08	27.067
296.44	26.429
296.81	25.434
297.18	23.194
297.55	26.108
297.91	24.754
298.28	24.879
298.65	24.663
299.02	24.246
299.38	26.619
299.75	23.902
300.12	23.853
300.48	25.761
300.85	24.672
301.22	25.349
301.59	25.000
301.95	24.504
302.32	24.680
302.69	25.113
303.05	24.691
303.42	24.215
303.79	24.594
304.15	23.982
304.52	24.524
304.89	25.906
305.25	24.805
305.62	24.947
305.99	25.000
306.35	24.211
306.72	24.974
307.09	24.741
307.45	25.238
307.82	24.794
308.19	25.876
308.55	24.600
308.92	25.810
309.29	26.036
309.65	25.471
310.02	25.862
310.38	26.421
310.75	24.590
311.12	25.383
311.48	26.351
311.85	26.431
312.22	26.361
312.58	26.045
312.95	26.893
313.31	26.498
313.68	27.111
314.05	27.839
314.41	26.443
314.78	26.989
315.14	28.246
315.51	28.193
315.87	28.741
316.24	29.038
316.61	28.559
316.97	28.991
317.34	29.200
317.70	29.236
318.07	30.961
318.43	30.844
318.80	30.560
319.16	30.157
319.53	29.558
319.89	30.824
320.26	32.030
320.62	30.586
320.99	32.126
321.35	31.447
321.72	34.250
322.08	32.872
322.45	33.424
322.81	31.839
323.18	32.149
323.54	33.449
323.91	33.636
324.27	33.245
324.64	33.304
325.00	33.190
325.37	33.390
325.73	32.968
326.10	32.974
326.46	34.021
326.83	32.880
327.19	33.414
327.56	35.064
327.92	35.902
328.29	35.352
328.65	34.075
329.01	34.902
329.38	34.433
329.74	33.219
330.11	33.710
330.47	35.379
330.84	33.909
331.20	34.433
331.56	35.060
331.93	34.303
332.29	35.204
332.66	35.544
333.02	33.677
333.38	33.682
333.75	36.364
334.11	34.732
334.48	34.872
334.84	35.389
335.20	35.244
335.57	34.257
335.93	34.651
336.29	33.997
336.66	36.192
337.02	33.191
337.38	33.792
337.75	34.122
338.11	34.852
338.47	34.039
338.84	34.208
339.20	34.113
339.56	33.137
339.93	34.030
340.29	33.193
340.65	34.367
341.02	34.352
341.38	34.319
341.74	33.472
342.11	33.389
342.47	34.783
342.83	33.634
343.20	34.600
343.56	31.692
343.92	34.600
344.28	33.254
344.65	34.637
345.01	32.381
345.37	33.333
345.73	33.889
346.10	31.793
346.46	33.014
346.82	31.250
347.19	32.457
347.55	32.084
347.91	32.477
348.27	30.984
348.63	32.753
349.00	33.283
349.36	32.918
349.72	33.180
350.08	32.842
350.45	33.359
350.81	32.798
351.17	31.895
351.53	32.564
351.89	32.246
352.26	32.577
352.62	31.448
352.98	32.515
353.34	32.357
353.70	31.193
354.07	32.846
354.43	33.333
354.79	31.891
355.15	31.776
355.51	31.571
355.87	32.229
356.24	33.179
356.60	31.659
356.96	31.387
357.32	31.801
357.68	32.673
358.04	32.219
358.40	32.309
358.77	31.705
359.13	31.156
359.49	30.319
359.85	31.348
360.21	31.129
360.57	31.971
360.93	31.025
361.29	32.251
361.66	32.811
362.02	30.398
362.38	32.107
362.74	31.281
363.10	30.715
363.46	31.215
363.82	31.206
364.18	31.935
364.54	31.259
364.90	32.062
365.26	32.130
365.62	30.939
365.98	30.833
366.35	31.655
366.71	30.534
367.07	30.785
367.43	31.430
367.79	30.984
368.15	30.529
368.51	30.806
368.87	30.027
369.23	30.839
369.59	31.288
369.95	31.329
370.31	31.417
370.67	31.228
371.03	31.653
371.39	31.787
371.75	30.844
372.11	31.407
372.47	30.753
372.83	30.931
373.19	30.980
373.55	31.615
373.91	29.075
374.27	30.886
374.63	30.915
374.99	30.458
375.35	30.712
375.71	30.937
376.07	29.576
376.42	29.731
376.78	30.507
377.14	30.996
377.50	30.337
377.86	30.365
378.22	31.200
378.58	31.659
378.94	30.477
379.30	29.897
379.66	30.584
380.02	30.499
380.38	29.742
380.74	31.084
381.09	31.133
381.45	29.480
381.81	30.319
382.17	30.830
382.53	30.954
382.89	30.455
383.25	30.255
383.61	30.317
383.97	29.814
384.32	30.922
384.68	31.135
385.04	30.539
385.40	30.130
385.76	29.725
386.12	30.365
386.48	30.456
386.83	30.073
387.19	30.153
387.55	30.919
387.91	30.196
388.27	31.231
388.62	29.871
388.98	30.437
389.34	29.447
389.70	29.599
390.06	29.817
390.42	30.722
390.77	30.160
391.13	29.813
391.49	29.522
391.85	30.646
392.20	30.155
392.56	30.705
392.92	29.422
393.28	29.765
393.64	29.300
393.99	30.824
394.35	29.370
394.71	29.493
395.07	29.562
395.42	29.801
395.78	30.043
396.14	29.699
396.50	29.904
396.85	28.415
397.21	28.821
397.57	29.946
397.92	29.058
398.28	29.068
398.64	29.959
399.00	28.968
399.35	29.039
399.71	30.132
400.07	29.224
400.42	29.851
400.78	30.323
401.14	29.243
401.49	29.320
401.85	29.606
402.21	29.643
402.57	30.102
402.92	29.030
403.28	28.282
403.63	28.840
403.99	28.830
404.35	30.246
404.70	29.592
405.06	28.692
405.42	29.803
405.77	28.776
406.13	28.416
406.49	28.027
406.84	29.498
407.20	29.509
407.55	28.308
407.91	29.355
408.27	29.048
408.62	30.574
408.98	29.036
409.34	29.223
409.69	29.496
410.05	28.563
410.40	29.329
410.76	27.476
411.11	29.265
411.47	28.086
411.83	28.061
412.18	28.865
412.54	29.429
412.89	28.614
413.25	28.620
413.60	28.738
413.96	28.725
414.31	27.745
414.67	30.292
415.03	29.630
415.38	28.580
415.74	28.996
416.09	28.670
416.45	29.541
416.80	29.699
417.16	28.962
417.51	29.427
417.87	28.285
418.22	29.101
418.58	29.618
418.93	29.030
419.29	27.665
419.64	27.135
420.00	29.773
420.35	28.049
420.71	28.121
421.06	28.134
421.42	28.267
421.77	28.595
422.12	28.997
422.48	27.992
422.83	29.632
423.19	28.780
423.54	28.579
423.90	29.672
424.25	29.224
424.61	28.613
424.96	29.249
425.31	29.611
425.67	30.135
426.02	29.669
426.38	28.938
426.73	28.918
427.09	29.419
427.44	28.137
427.79	28.702
428.15	29.405
428.50	30.286
428.85	30.100
429.21	28.579
429.56	29.063
429.92	28.792
430.27	28.979
430.62	27.558
430.98	28.942
431.33	28.881
431.68	28.395
432.04	28.971
432.39	29.583
432.74	30.328
433.10	29.236
433.45	29.523
433.80	30.226
434.16	29.007
434.51	29.928
434.86	29.450
435.22	29.227
435.57	29.461
435.92	30.507
436.28	30.069
436.63	29.606
436.98	31.700
437.34	29.452
437.69	28.891
438.04	29.677
438.39	29.947
438.75	29.454
439.10	29.520
439.45	30.073
439.81	30.249
440.16	30.160
440.51	29.730
440.86	30.370
441.22	29.275
441.57	30.079
441.92	30.257
442.27	29.794
442.63	29.878
442.98	29.149
443.33	29.834
443.68	29.930
444.03	30.019
444.39	30.132
444.74	30.797
445.09	30.121
445.44	29.968
445.79	30.117
446.15	29.684
446.50	30.222
446.85	30.179
447.20	29.851
447.55	30.886
447.91	30.474
448.26	30.884
448.61	31.288
448.96	30.338
449.31	30.363
449.66	30.676
450.02	30.524
450.37	31.205
450.72	30.634
451.07	30.250
451.42	30.350
451.77	31.214
452.12	31.424
452.47	31.470
452.83	31.493
453.18	31.532
453.53	31.202
453.88	31.486
454.23	31.087
454.58	30.828
454.93	29.736
455.28	30.477
455.63	30.733
455.98	31.303
456.34	31.672
456.69	30.976
457.04	30.549
457.39	31.371
457.74	32.038
458.09	30.095
458.44	30.504
458.79	31.724
459.14	31.315
459.49	31.144
459.84	32.337
460.19	30.282
460.54	31.510
460.89	31.503
461.24	30.298
461.59	32.426
461.94	31.028
462.29	31.121
462.64	31.847
462.99	31.542
463.34	32.340
463.69	31.700
464.04	31.203
464.39	31.311
464.74	30.188
465.09	30.760
465.44	31.230
465.79	30.158
466.14	30.313
466.49	31.199
466.84	30.825
467.19	30.873
467.54	30.811
467.89	31.631
468.24	31.442
468.59	30.536
468.94	31.824
469.29	31.155
469.64	31.061
469.99	31.620
470.34	31.752
470.68	31.724
471.03	31.888
471.38	30.993
471.73	31.809
472.08	31.703
472.43	31.782
472.78	31.754
473.13	30.726
473.48	31.540
473.83	30.801
474.17	31.915
474.52	31.280
474.87	31.154
475.22	30.897
475.57	30.693
475.92	30.812
476.27	30.033
476.61	30.617
476.96	30.930
477.31	31.003
477.66	31.240
478.01	30.480
478.36	31.823
478.70	30.918
479.05	30.962
479.40	31.845
479.75	30.983
480.10	31.171
480.45	30.345
480.79	30.876
481.14	30.861
481.49	30.558
481.84	30.563
482.19	30.655
482.53	29.776
482.88	30.287
483.23	30.311
483.58	30.431
483.92	31.901
484.27	30.608
484.62	30.815
484.97	30.464
485.31	29.752
485.66	29.837
486.01	28.925
486.36	29.051
486.70	28.950
487.05	29.157
487.40	29.368
487.75	29.746
488.09	29.574
488.44	29.828
488.79	29.851
489.13	30.758
489.48	30.324
489.83	30.442
490.17	29.273
490.52	29.845
490.87	31.078
491.22	30.851
491.56	30.435
491.91	29.928
492.26	30.334
492.60	31.663
492.95	30.222
493.30	30.255
493.64	30.323
493.99	30.859
494.34	30.121
494.68	30.323
495.03	30.265
495.37	31.022
495.72	30.956
496.07	31.132
496.41	29.626
496.76	30.182
497.11	30.634
497.45	30.688
497.80	30.259
498.14	31.022
498.49	30.734
498.84	30.374
499.18	29.753
499.53	30.133
499.87	30.368
500.22	30.861
500.56	30.548
500.91	31.076
501.26	30.868
501.60	30.009
501.95	30.780
502.29	30.178
502.64	30.216
502.98	29.880
503.33	30.379
503.67	30.331
504.02	29.467
504.36	30.000
504.71	29.801
505.06	30.174
505.40	30.791
505.75	30.496
506.09	30.378
506.44	31.015
506.78	30.340
507.13	31.217
507.47	30.665
507.82	30.365
508.16	30.720
508.51	30.725
508.85	30.057
509.19	30.250
509.54	29.688
509.88	30.632
510.23	30.343
510.57	29.392
510.92	30.819
511.26	31.376
511.61	30.133
511.95	30.562
512.30	30.550
512.64	30.114
512.98	30.036
513.33	30.482
513.67	30.554
514.02	30.753
514.36	30.374
514.70	30.720
515.05	30.155
515.39	31.360
515.74	30.508
516.08	31.046
516.42	31.475
516.77	30.773
517.11	30.347
517.46	30.927
517.80	30.257
518.14	30.479
518.49	29.824
518.83	29.725
519.17	31.836
519.52	31.185
519.86	31.172
520.20	30.959
520.55	30.526
520.89	30.345
521.23	31.717
521.58	31.153
521.92	30.554
522.26	30.569
522.61	32.026
522.95	31.051
523.29	31.228
523.64	30.694
523.98	30.164
524.32	30.219
524.66	30.783
525.01	31.598
525.35	30.878
525.69	30.945
526.04	30.993
526.38	30.842
526.72	30.788
527.06	30.810
527.41	31.560
527.75	31.467
528.09	30.102
528.43	31.483
528.78	30.710
529.12	31.547
529.46	29.807
529.80	30.958
530.15	30.760
530.49	30.445
530.83	30.652
531.17	30.935
531.51	30.901
531.86	30.133
532.20	30.841
532.54	31.199
532.88	31.043
533.22	30.591
533.57	31.178
533.91	29.779
534.25	29.890
534.59	31.637
534.93	30.148
535.27	29.539
535.62	30.105
535.96	30.142
536.30	31.200
536.64	31.118
536.98	30.271
537.32	30.875
537.66	30.038
538.01	29.907
538.35	30.755
538.69	29.187
539.03	29.104
539.37	29.490
539.71	30.062
540.05	30.523
540.39	30.377
540.73	30.127
541.07	29.297
541.42	29.975
541.76	31.196
542.10	29.778
542.44	31.421
542.78	30.459
543.12	30.123
543.46	29.699
543.80	30.388
544.14	30.155
544.48	29.440
544.82	29.602
545.16	29.569
545.50	29.994
545.84	30.051
546.18	30.884
546.52	29.836
546.86	30.368
547.20	29.005
547.54	29.829
547.88	29.745
548.22	29.447
548.56	29.287
548.90	29.834
549.24	30.322
549.58	29.446
549.92	30.517
550.26	30.291
550.60	30.073
550.94	29.986
551.28	30.276
551.62	31.724
551.96	30.000
552.30	29.268
552.64	30.356
552.98	29.961
553.32	29.385
553.66	29.121
554.00	29.022
554.34	30.426
554.68	29.637
555.02	30.618
555.36	29.721
555.69	30.563
556.03	29.299
556.37	30.019
556.71	30.834
557.05	28.047
557.39	30.133
557.73	29.245
558.07	29.510
558.41	30.295
558.75	29.891
559.08	30.379
559.42	30.208
559.76	30.221
560.10	29.938
560.44	28.865
560.78	29.348
561.12	29.625
561.45	29.412
561.79	28.340
562.13	28.617
562.47	30.435
562.81	28.627
563.15	29.089
563.48	28.323
563.82	30.193
564.16	29.789
564.50	29.114
564.84	28.450
565.17	28.402
565.51	30.234
565.85	29.920
566.19	30.119
566.52	28.339
566.86	29.656
567.20	29.551
567.54	29.148
567.88	29.160
568.21	28.258
568.55	27.724
568.89	27.920
569.23	28.171
569.56	28.754
569.90	27.848
570.24	27.496
570.57	27.450
570.91	26.864
571.25	26.512
571.59	26.283
571.92	26.184
572.26	26.065
572.60	26.076
572.93	26.998
573.27	26.536
573.61	26.692
573.95	26.444
574.28	26.539
574.62	25.897
574.96	25.520
575.29	25.198
575.63	25.395
575.97	25.633
576.30	25.513
576.64	26.003
576.98	25.818
577.31	26.361
577.65	26.177
577.98	25.495
578.32	25.136
578.66	24.844
578.99	25.781
579.33	25.801
579.67	25.571
580.00	25.224
580.34	25.436
580.67	25.414
581.01	26.223
581.35	25.621
581.68	25.190
582.02	25.058
582.35	25.280
582.69	25.701
583.02	25.558
583.36	25.417
583.70	26.078
584.03	25.777
584.37	26.174
584.70	25.454
585.04	25.910
585.37	25.473
585.71	26.472
586.04	25.593
586.38	25.377
586.72	26.152
587.05	25.965
587.39	25.815
587.72	25.494
588.06	25.826
588.39	26.177
588.73	25.906
589.06	26.029
589.40	26.604
589.73	25.860
590.07	26.356
590.40	26.760
590.73	26.772
591.07	26.831
591.40	26.946
591.74	26.786
592.07	26.123
592.41	26.579
592.74	25.741
593.08	24.935
593.41	25.673
593.75	25.124
594.08	26.055
594.41	25.904
594.75	26.404
595.08	26.269
595.42	26.564
595.75	26.324
596.09	26.347
596.42	26.511
596.75	27.043
597.09	26.702
597.42	26.531
597.75	25.963
598.09	25.646
598.42	25.663
598.76	25.829
599.09	26.039
599.42	25.363
599.76	26.052
600.09	25.424
600.42	25.242
600.76	25.051
601.09	25.613
601.42	25.519
601.76	25.922
602.09	26.416
602.42	25.139
602.76	26.034
603.09	27.149
603.42	26.275
603.76	26.283
604.09	25.190
604.42	25.800
604.76	25.563
605.09	26.163
605.42	26.006
605.75	25.503
606.09	25.478
606.42	25.554
606.75	25.729
607.09	25.227
607.42	25.753
607.75	26.115
608.08	25.386
608.42	25.881
608.75	25.674
609.08	25.165
609.41	25.864
609.75	27.106
610.08	25.585
610.41	26.043
610.74	26.104
611.07	26.512
611.41	26.274
611.74	25.956
612.07	26.493
612.40	26.218
612.73	25.911
613.07	26.102
613.40	26.516
613.73	26.360
614.06	25.450
614.39	26.313
614.72	24.912
615.06	25.519
615.39	25.990
615.72	25.024
616.05	26.670
616.38	26.230
616.71	26.750
617.05	26.194
617.38	26.292
617.71	26.097
618.04	26.584
618.37	26.348
618.70	26.328
619.03	26.557
619.36	26.319
619.69	26.253
620.03	27.136
620.36	26.718
620.69	28.480
621.02	27.717
621.35	27.579
621.68	27.507
622.01	27.675
622.34	26.147
622.67	27.317
623.00	27.366
623.33	26.383
623.66	27.678
623.99	27.945
624.32	26.491
624.65	26.662
624.99	26.369
625.32	26.787
625.65	26.276
625.98	27.266
626.31	27.596
626.64	27.259
626.97	26.932
627.30	27.562
627.63	27.786
627.96	26.291
628.29	28.465
628.62	27.117
628.95	29.965
629.28	28.396
629.61	29.350
629.94	28.436
630.26	28.250
630.59	29.433
630.92	27.892
631.25	28.015
631.58	29.026
631.91	27.973
632.24	27.114
632.57	27.407
632.90	29.710
633.23	30.220
633.56	29.821
633.89	30.761
634.22	29.494
634.55	28.710
634.88	30.559
635.20	29.148
635.53	29.849
635.86	29.754
636.19	29.630
636.52	28.973
636.85	28.695
637.18	29.036
637.51	28.156
637.83	29.977
638.16	30.012
638.49	28.743
638.82	29.577
639.15	29.142
639.48	29.265
639.81	29.060
640.13	29.202
640.46	30.594
640.79	30.689
641.12	29.790
641.45	28.719
641.77	28.930
642.10	30.120
642.43	31.010
642.76	28.551
643.09	29.827
643.41	29.734
643.74	30.504
644.07	32.596
644.40	30.473
644.73	32.432
645.05	31.055
645.38	31.700
645.71	32.473
646.04	31.145
646.36	29.264
646.69	31.520
647.02	32.480
647.35	30.866
647.67	31.767
648.00	29.642
648.33	31.128
648.66	31.061
648.98	28.261
649.31	29.015
649.64	29.046
649.96	28.592
650.29	29.429
650.62	29.602
650.94	29.367
651.27	31.579
651.60	32.081
651.92	30.415
652.25	29.606
652.58	30.213
652.90	28.892
653.23	28.804
653.56	31.899
653.88	29.369
654.21	28.886
654.54	28.551
654.86	29.646
655.19	30.343
655.52	25.128
655.84	20.319
656.17	23.313
656.49	33.868
656.82	39.056
657.15	31.518
657.47	23.524
657.80	17.230
658.13	13.606
658.45	18.871
658.78	22.486
659.10	22.755
659.43	23.888
659.75	25.197
660.08	26.378
660.41	27.405
660.73	31.493
661.06	29.880
661.38	31.005
661.71	32.014
662.03	32.890
662.36	32.381
662.68	30.354
663.01	32.973
663.33	30.943
663.66	29.191
663.98	33.730
664.31	32.463
664.63	32.759
664.96	32.083
665.28	29.190
665.61	30.943
665.93	32.264
666.26	30.654
666.58	30.275
666.91	31.081
667.23	32.329
667.56	34.497
667.88	33.610
668.21	31.148
668.53	32.460
668.86	34.669
669.18	31.772
669.50	29.545
669.83	32.444
670.15	32.848
670.48	29.883
670.80	32.271
671.13	32.072
671.45	34.269
671.77	32.839
672.10	31.777
672.42	28.783
672.75	30.063
673.07	27.027
673.39	29.233
673.72	29.412
674.04	30.824
674.37	30.309
674.69	29.926
675.01	31.903
675.34	30.814
675.66	30.664
675.98	32.544
676.31	33.200
676.63	31.610
676.95	33.333
677.28	32.454
677.60	32.596
677.92	32.540
678.25	30.426
678.57	32.588
678.89	32.188
679.22	30.331
679.54	30.071
679.86	29.319
680.18	30.228
680.51	27.032
680.83	28.041
681.15	29.636
681.48	29.687
681.80	27.846
682.12	30.623
682.44	28.829
682.77	30.961
683.09	29.709
683.41	31.224
683.73	33.661
684.06	30.159
684.38	31.977
684.70	31.475
685.02	27.431
685.34	30.458
685.67	27.974
685.99	26.765
686.31	27.735
686.63	27.967
686.96	29.085
687.28	28.020
687.60	31.741
687.92	28.141
688.24	30.000
688.56	29.537
688.89	30.210
689.21	28.709
689.53	32.609
689.85	29.268
690.17	30.291
690.49	31.048
690.82	29.202
691.14	33.535
691.46	31.828
691.78	29.825
692.10	29.962
692.42	28.857
692.74	31.202
693.06	31.008
693.39	29.249
693.71	26.130
694.03	30.769
694.35	31.928
694.67	30.957
694.99	29.712
695.31	32.207
695.63	31.222
695.95	30.543
696.27	35.619
696.59	30.549
696.91	32.405
697.23	32.579
697.56	30.705
697.88	26.747
698.20	29.623
698.52	29.377
698.84	30.595
699.16	30.490
699.48	30.508
699.80	34.423
700.12	32.102
700.44	29.673
700.76	31.742
701.08	33.943
701.40	32.208
701.72	33.422
702.04	33.604
702.36	31.183
702.68	32.447
703.00	29.073
703.32	31.762
703.64	29.975
703.96	34.115
704.28	33.862
704.60	34.648
704.91	34.454
705.23	32.670
705.55	33.828
705.87	34.286
706.19	36.364
706.51	40.125
706.83	34.808
707.15	32.353
707.47	33.414
707.79	33.563
708.11	27.664
708.43	29.888
708.74	27.376
709.06	30.698
709.38	34.491
709.70	34.332
710.02	31.522
710.34	33.149
710.66	33.056
710.98	32.787
711.29	30.362
711.61	31.755
711.93	32.523
712.25	31.928
712.57	32.797
712.89	33.636
713.20	31.949
713.52	35.826
713.84	32.326
714.16	32.174
714.48	28.818
714.80	30.081
715.11	30.319
715.43	31.006
715.75	32.113
716.07	33.237
716.39	31.429
716.70	28.349
717.02	36.027
717.34	34.892
717.66	32.639
717.97	34.470
718.29	36.620
718.61	32.770
718.93	37.024
719.24	33.893
719.56	31.034
719.88	31.210
720.20	30.645
720.51	31.699
720.83	29.431
721.15	41.497
721.46	33.904
721.78	32.056
722.10	33.333
722.42	34.783
722.73	28.159
723.05	38.246
723.37	38.869
723.68	34.375
724.00	38.258
724.32	30.418
724.63	33.462
724.95	37.255
725.27	37.546
725.58	36.765
725.90	33.099
726.22	33.562
726.53	32.441
726.85	35.505
727.16	37.919
727.48	29.900
727.80	37.050
728.11	35.357
728.43	30.072
728.74	33.916
729.06	27.240
729.38	34.386
729.69	36.667
730.01	36.842
730.32	37.919
730.64	35.880
730.96	31.832
731.27	26.300
731.59	24.713
731.90	30.641
732.22	32.000
732.53	26.496
732.85	35.380
733.16	32.530
733.48	31.975
733.80	31.304
734.11	35.583
734.43	28.070
734.74	28.686
735.06	33.333
735.37	28.866
735.69	30.435
736.00	35.780
736.32	29.697
736.63	26.814
736.95	29.503
737.26	29.268
737.58	31.595
737.89	32.229
738.21	30.132
738.52	33.779
738.83	28.938
739.15	32.404
739.46	34.483
739.78	35.034
740.09	33.236
740.41	33.436
740.72	32.698
741.04	34.965
741.35	32.422
741.66	34.387
741.98	37.768
742.29	32.407
742.61	31.416
742.92	33.051
743.23	35.600
743.55	31.321
743.86	32.941
744.18	33.051
744.49	37.190
744.80	37.327
745.12	36.607
745.43	32.710
745.74	32.000
746.06	29.825
746.37	40.000
746.68	40.265
747.00	38.117
747.31	33.613
747.62	36.066
747.94	34.764
748.25	31.907
748.56	39.831
748.88	42.411
749.19	36.744
749.50	32.420
749.82	34.568
750.13	37.945
750.44	28.667
750.75	32.886
751.07	30.921
751.38	31.023
751.69	33.333
752.01	30.420
752.32	32.890
752.63	33.557
752.94	30.769
753.26	38.281
753.57	32.296
753.88	32.210
754.19	36.462
754.51	30.897
754.82	31.879
755.13	27.365
755.44	36.296
755.75	34.708
756.07	34.247
756.38	32.353
756.69	32.500
757.00	32.938
757.31	32.676
757.63	24.793
757.94	29.521
758.25	28.744
758.56	26.773
758.87	29.323
759.18	29.070
759.50	27.660
759.81	30.861
760.12	32.022
760.43	28.011
760.74	32.405
761.05	28.382
761.36	27.604
761.67	31.536
761.99	30.986
762.30	30.547
762.61	32.292
762.92	31.061
763.23	32.453
763.54	32.692
763.85	29.961
764.16	35.417
764.47	33.108
764.78	28.990
765.10	28.354
765.41	28.125
765.72	25.414
766.03	29.305
766.34	30.314
766.65	35.361
766.96	34.413
767.27	41.589
767.58	38.614
767.89	44.751
768.20	48.171
768.51	37.245
768.82	34.211
769.13	29.804
769.44	30.451
769.75	32.210
770.06	34.874
770.37	32.456
770.68	34.222
770.99	33.898
771.30	35.983
771.61	33.077
771.92	33.206
772.23	33.065
772.54	39.556
772.85	42.574
773.16	39.130
773.47	37.778
773.78	40.594
774.09	44.318
774.39	41.818
774.70	31.765
775.01	38.158
775.32	39.752
775.63	45.205
775.94	52.469
776.25	46.207
776.56	43.511
776.87	47.328
777.18	40.909
777.48	55.118
777.79	43.077
778.10	50.000
778.41	48.507
778.72	45.865
779.03	35.897
779.34	37.838
779.65	45.963
779.95	42.857
780.26	40.476
780.57	49.660
780.88	50.355
781.19	54.167
781.50	42.012
781.80	40.984
782.11	42.857
782.42	31.034
782.73	37.853
783.04	39.355
783.34	34.884
783.65	37.415
783.96	45.806
784.27	34.437
784.57	40.132
784.88	43.478
785.19	43.333
785.50	50.862
785.81	49.612
786.11	44.444
786.42	43.307
786.73	47.748
787.04	46.226
787.34	42.276
787.65	44.697
787.96	47.727
788.26	48.031
788.57	43.796
788.88	42.958
789.19	48.092
789.49	44.595
789.80	42.188
790.11	40.496
790.41	46.296
790.72	49.074
791.03	54.808
791.33	50.505
791.64	52.632
791.95	60.000
792.25	45.833
792.56	50.000
792.87	65.854
793.17	60.227
793.48	58.824
793.79	55.172
794.09	55.682
794.40	56.897
794.70	48.413
795.01	40.000
795.32	41.221
795.62	40.171
795.93	57.143
796.23	49.593
796.54	58.163
796.85	64.773
797.15	64.935
797.46	68.293
797.76	47.500
798.07	64.000
798.37	63.750
798.68	57.500
798.99	52.439
799.29	54.667
799.60	48.837
799.90	50.000
800.21	62.121
800.51	66.197
800.82	62.069
801.12	67.692
801.43	73.333
801.73	56.897
802.04	59.740
802.34	72.603
802.65	82.353
802.95	82.609
803.26	88.710
803.56	90.000
803.87	79.104
804.17	93.651
804.48	73.585
804.78	62.500
805.09	74.242
805.39	79.365
805.70	87.719
806.00	67.143
806.30	68.750
806.61	67.059
806.91	67.778
807.22	45.652
807.52	59.211
807.83	75.000
808.13	63.768
808.43	80.645
808.74	80.822
809.04	73.214
809.35	70.588
809.65	84.848
809.95	82.353
810.26	87.037
810.56	85.937
810.86	81.633
811.17	75.439
811.47	71.739
811.77	63.793
812.08	58.621
812.38	76.190
812.69	59.524
812.99	73.333
813.29	108.571
813.59	125.806
813.90	72.414
814.20	67.213
814.50	70.000
814.81	57.895
815.11	90.741
815.41	62.500
815.72	91.071
816.02	90.000
816.32	107.317
816.62	84.483
816.93	103.030
817.23	97.561
817.53	85.714
817.84	91.111
818.14	85.714
818.44	93.750
818.74	98.113
819.04	105.128
819.35	139.394
819.65	101.923
819.95	96.296
820.25	102.128
820.56	89.189
820.86	107.895
821.16	87.234
821.46	115.789
821.76	89.091
822.07	64.286
822.37	92.105
822.67	111.628
822.97	68.421
823.27	104.348
823.57	134.375
823.88	102.564
824.18	121.212
824.48	156.522
824.78	102.778
825.08	147.826
825.38	117.241
825.69	117.647
825.99	65.957
826.29	102.778
826.59	125.714
826.89	116.667
827.19	88.571
827.49	103.226
827.79	142.308
828.09	78.571
828.39	122.222
828.70	89.189
829.00	157.143
829.30	181.250
829.60	130.556
829.90	112.903
830.20	96.970
830.50	135.135
830.80	141.667
831.10	153.846
831.40	161.905
831.70	162.500
832.00	120.000
832.30	143.478
832.60	129.167
832.90	130.303
833.20	200.000
833.50	131.579
833.80	82.353
834.10	76.316
834.40	110.526
834.70	116.667
835.00	140.000
835.30	102.703
835.60	146.875
835.90	110.811
836.20	134.615
836.50	113.636
836.80	107.317
837.10	121.739
837.40	292.308
837.70	100.000
838.00	150.000
838.30	154.167
838.60	140.000
838.90	370.000
839.19	193.750
839.49	130.000
839.79	124.138
840.09	153.846
840.39	153.333
840.69	168.421
840.99	161.905
841.29	169.565
841.59	185.000
841.88	172.000
842.18	244.444
842.48	142.857
842.78	148.148
843.08	207.692
843.38	204.545
843.68	285.714
843.97	342.857
844.27	121.739
844.57	1200.000
844.87	257.143
845.17	200.000
845.47	142.857
845.76	187.500
846.06	442.857
846.36	211.765
846.66	253.846
846.96	181.250
847.25	184.615
847.55	105.263
847.85	194.444
848.15	640.000
848.44	354.545
848.74	109.524
849.04	129.167
849.34	176.471
849.63	293.750
849.93	181.250
850.23	1133.333
850.53	325.000
850.82	245.455
851.12	217.647
851.42	187.500
851.71	225.000
852.01	0.000
852.31	205.882
852.61	390.000
852.90	150.000
853.20	377.778
853.50	-1300.000
853.79	184.000
854.09	153.125
854.39	124.138
854.68	144.828
854.98	200.000
855.28	116.129
855.57	214.286
855.87	166.667
856.17	155.556
856.46	147.368
856.76	119.355
857.05	200.000
857.35	309.091
857.65	161.538
857.94	170.000
858.24	322.222
858.53	271.429
858.83	600.000
859.13	200.000
859.42	344.444
859.72	325.000
860.01	250.000
860.31	575.000
860.60	300.000
860.90	475.000
861.20	253.846
861.49	514.286
861.79	-2700.000
862.08	485.714
862.38	388.889
862.67	207.143
862.97	360.000
863.26	143.333
863.56	650.000
863.85	276.923
864.15	211.765
864.44	155.556
864.74	308.333
865.03	318.182
865.33	425.000
865.62	226.667
865.92	616.667
866.21	825.000
866.51	740.000
866.80	227.778
867.10	533.333
867.39	3000.000
867.69	560.000
867.98	900.000
868.27	152.381
868.57	213.333
868.86	800.000
869.16	166.667
869.45	3000.000
869.75	-400.000
870.04	825.000
870.33	600.000
870.63	262.500
870.92	200.000
871.22	800.000
871.51	471.429
871.80	391.667
872.10	238.462
>>>>>End Processed Spectral Data<<<<<
