SpectraSuite Data File
++++++++++++++++++++++++++++++++++++
Date: Tue May 12 16:48:01 PDT 2015
User: schluterlab
Dark Spectrum Present: Yes
Reference Spectrum Present: Yes
Number of Sampled Component Spectra: 1
Spectrometers: USB2E3373
Integration Time (usec): 3000 (USB2E3373)
Spectra Averaged: 3 (USB2E3373)
Boxcar Smoothing: 0 (USB2E3373)
Correct for Electrical Dark: No (USB2E3373)
Strobe/Lamp Enabled: No (USB2E3373)
Correct for Detector Non-linearity: No (USB2E3373)
Correct for Stray Light: No (USB2E3373)
Number of Pixels in Processed Spectrum: 2048
>>>>>Begin Processed Spectral Data<<<<<
178.53	0.000
178.91	-316.667
179.29	-775.000
179.67	-3700.000
180.04	-113.333
180.42	675.000
180.80	1450.000
181.18	0.000
181.56	-312.500
181.94	0.000
182.31	1400.000
182.69	-2400.000
183.07	471.429
183.45	-4100.000
183.83	-1350.000
184.20	320.000
184.58	442.857
184.96	-215.385
185.34	-175.000
185.72	1850.000
186.09	-975.000
186.47	-3600.000
186.85	1133.333
187.23	700.000
187.61	1750.000
187.98	500.000
188.36	285.714
188.74	308.333
189.12	366.667
189.49	825.000
189.87	0.000
190.25	412.500
190.63	2600.000
191.00	-241.667
191.38	-3700.000
191.76	-750.000
192.14	462.500
192.51	-3100.000
192.89	2000.000
193.27	933.333
193.65	-933.333
194.02	-700.000
194.40	542.857
194.78	-250.000
195.15	240.000
195.53	-2000.000
195.91	-460.000
196.29	2900.000
196.66	218.750
197.04	825.000
197.42	-1400.000
197.79	800.000
198.17	316.667
198.55	0.000
198.92	500.000
199.30	1533.333
199.68	1950.000
200.05	783.333
200.43	-433.333
200.81	188.889
201.18	4300.000
201.56	266.667
201.94	-875.000
202.31	-275.000
202.69	-560.000
203.07	3300.000
203.44	-566.667
203.82	325.000
204.19	720.000
204.57	-1200.000
204.95	-825.000
205.32	-880.000
205.70	683.333
206.08	925.000
206.45	-333.333
206.83	266.667
207.20	205.263
207.58	308.333
207.96	700.000
208.33	0.000
208.71	528.571
209.08	900.000
209.46	-3400.000
209.84	-775.000
210.21	900.000
210.59	-660.000
210.96	266.667
211.34	-950.000
211.71	318.182
212.09	775.000
212.46	1550.000
212.84	-400.000
213.22	311.111
213.59	-2800.000
213.97	310.000
214.34	850.000
214.72	833.333
215.09	1233.333
215.47	-2400.000
215.84	-340.000
216.22	-475.000
216.59	0.000
216.97	0.000
217.34	1250.000
217.72	-1350.000
218.09	1533.333
218.47	437.500
218.84	650.000
219.22	866.667
219.59	1100.000
219.97	514.286
220.34	455.556
220.72	1450.000
221.09	3200.000
221.47	341.667
221.84	900.000
222.22	300.000
222.59	261.111
222.97	271.429
223.34	268.750
223.72	-1450.000
224.09	1266.667
224.46	261.538
224.84	-625.000
225.21	444.444
225.59	286.667
225.96	1500.000
226.34	-680.000
226.71	-775.000
227.08	-540.000
227.46	0.000
227.83	-350.000
228.21	-1650.000
228.58	358.333
228.95	950.000
229.33	400.000
229.70	1050.000
230.08	392.308
230.45	3900.000
230.82	-850.000
231.20	-733.333
231.57	-933.333
231.95	540.000
232.32	375.000
232.69	566.667
233.07	316.667
233.44	-1750.000
233.81	286.667
234.19	170.370
234.56	237.500
234.93	247.059
235.31	215.000
235.68	268.750
236.05	175.000
236.43	155.556
236.80	285.714
237.17	196.552
237.55	150.000
237.92	147.500
238.29	181.818
238.67	162.500
239.04	134.146
239.41	112.500
239.79	115.000
240.16	112.500
240.53	95.082
240.91	100.000
241.28	108.475
241.65	96.970
242.02	100.000
242.40	88.571
242.77	80.220
243.14	78.481
243.51	85.859
243.89	73.832
244.26	85.981
244.63	68.317
245.00	69.725
245.38	70.339
245.75	69.697
246.12	78.519
246.49	73.759
246.87	63.115
247.24	70.667
247.61	68.125
247.98	78.231
248.36	70.909
248.73	67.857
249.10	63.690
249.47	62.000
249.84	59.701
250.22	73.514
250.59	58.500
250.96	64.557
251.33	58.605
251.70	64.732
252.08	63.445
252.45	59.761
252.82	58.555
253.19	58.103
253.56	61.154
253.94	58.696
254.31	61.240
254.68	57.491
255.05	58.276
255.42	61.679
255.79	59.935
256.16	58.644
256.54	60.714
256.91	58.170
257.28	59.197
257.65	51.097
258.02	58.112
258.39	55.874
258.76	55.652
259.14	55.429
259.51	57.726
259.88	59.574
260.25	52.747
260.62	59.452
260.99	55.372
261.36	57.382
261.73	56.649
262.10	54.188
262.47	53.750
262.85	54.400
263.22	59.383
263.59	57.545
263.96	54.135
264.33	52.099
264.70	55.037
265.07	56.829
265.44	55.963
265.81	55.425
266.18	53.547
266.55	60.047
266.92	53.020
267.29	56.579
267.66	55.605
268.03	54.933
268.40	52.431
268.77	54.626
269.14	53.145
269.51	52.339
269.88	53.061
270.25	52.700
270.62	54.506
270.99	55.375
271.36	53.659
271.73	52.201
272.10	53.737
272.47	52.183
272.84	52.495
273.21	53.099
273.58	54.251
273.95	53.388
274.32	53.307
274.69	54.134
275.06	50.455
275.43	51.724
275.80	52.264
276.17	52.757
276.54	50.093
276.91	52.799
277.28	51.460
277.65	51.661
278.02	50.368
278.39	52.518
278.76	54.310
279.13	52.135
279.50	51.455
279.87	49.348
280.23	49.724
280.60	53.832
280.97	52.414
281.34	51.485
281.71	49.217
282.08	51.111
282.45	51.689
282.82	52.007
283.19	49.762
283.56	50.413
283.92	50.977
284.29	50.416
284.66	50.756
285.03	52.736
285.40	49.917
285.77	50.154
286.14	50.619
286.51	49.540
286.87	48.259
287.24	45.345
287.61	51.064
287.98	49.403
288.35	49.185
288.72	49.469
289.08	48.498
289.45	48.628
289.82	49.531
290.19	47.145
290.56	49.345
290.93	46.763
291.29	46.685
291.66	48.446
292.03	48.808
292.40	46.206
292.77	47.075
293.13	47.504
293.50	46.559
293.87	46.341
294.24	48.671
294.60	47.376
294.97	47.552
295.34	47.676
295.71	45.598
296.08	45.600
296.44	45.870
296.81	44.665
297.18	44.106
297.55	47.044
297.91	43.966
298.28	46.860
298.65	45.399
299.02	46.441
299.38	45.683
299.75	46.098
300.12	44.495
300.48	47.775
300.85	46.841
301.22	45.581
301.59	47.170
301.95	45.624
302.32	45.518
302.69	45.249
303.05	48.148
303.42	43.834
303.79	46.587
304.15	47.195
304.52	47.040
304.89	45.842
305.25	46.830
305.62	47.015
305.99	47.826
306.35	47.474
306.72	47.242
307.09	46.170
307.45	45.301
307.82	46.605
308.19	46.804
308.55	47.800
308.92	48.871
309.29	49.803
309.65	48.464
310.02	48.884
310.38	48.255
310.75	48.698
311.12	48.755
311.48	51.448
311.85	50.477
312.22	51.480
312.58	51.701
312.95	52.039
313.31	50.562
313.68	51.782
314.05	53.022
314.41	52.793
314.78	51.989
315.14	54.597
315.51	54.305
315.87	53.650
316.24	53.782
316.61	53.894
316.97	54.128
317.34	54.987
317.70	55.136
318.07	57.829
318.43	55.800
318.80	56.830
319.16	56.906
319.53	57.345
319.89	58.423
320.26	60.056
320.62	59.707
320.99	59.581
321.35	57.885
321.72	60.911
322.08	61.588
322.45	62.216
322.81	63.586
323.18	62.700
323.54	64.199
323.91	64.551
324.27	62.334
324.64	64.360
325.00	65.862
325.37	64.671
325.73	65.346
326.10	67.191
326.46	65.896
326.83	66.000
327.19	67.711
327.56	66.933
327.92	68.607
328.29	67.921
328.65	70.205
329.01	68.092
329.38	66.497
329.74	67.122
330.11	67.854
330.47	68.031
330.84	67.386
331.20	66.836
331.56	68.826
331.93	69.889
332.29	66.837
332.66	69.388
333.02	67.612
333.38	67.976
333.75	67.723
334.11	67.953
334.48	69.658
334.84	67.230
335.20	67.836
335.57	67.842
335.93	66.611
336.29	65.257
336.66	68.868
337.02	68.263
337.38	67.068
337.75	67.905
338.11	67.004
338.47	67.485
338.84	67.655
339.20	66.840
339.56	67.536
339.93	67.475
340.29	65.714
340.65	67.058
341.02	65.165
341.38	66.913
341.74	68.355
342.11	68.197
342.47	65.956
342.83	68.171
343.20	67.340
343.56	66.402
343.92	65.153
344.28	65.789
344.65	68.134
345.01	65.714
345.37	65.224
345.73	64.444
346.10	66.614
346.46	65.152
346.82	64.738
347.19	66.229
347.55	65.808
347.91	64.879
348.27	65.840
348.63	66.377
349.00	65.042
349.36	65.370
349.72	65.443
350.08	66.460
350.45	66.337
350.81	66.514
351.17	65.100
351.53	64.973
351.89	64.491
352.26	64.248
352.62	64.781
352.98	65.414
353.34	66.333
353.70	64.144
354.07	65.538
354.43	65.284
354.79	64.237
355.15	64.242
355.51	65.559
355.87	63.931
356.24	66.667
356.60	64.460
356.96	65.959
357.32	65.109
357.68	64.464
358.04	64.514
358.40	66.192
358.77	63.787
359.13	64.790
359.49	65.456
359.85	66.121
360.21	64.710
360.57	64.745
360.93	66.306
361.29	65.079
361.66	65.101
362.02	63.494
362.38	66.595
362.74	65.605
363.10	65.077
363.46	63.881
363.82	64.867
364.18	66.999
364.54	66.309
364.90	65.462
365.26	65.718
365.62	64.641
365.98	63.799
366.35	64.138
366.71	65.441
367.07	65.392
367.43	64.338
367.79	65.093
368.15	63.161
368.51	65.817
368.87	65.761
369.23	64.796
369.59	65.071
369.95	65.944
370.31	64.545
370.67	65.024
371.03	64.356
371.39	65.305
371.75	66.085
372.11	64.990
372.47	64.658
372.83	65.466
373.19	64.428
373.55	65.430
373.91	66.022
374.27	65.278
374.63	64.407
374.99	65.970
375.35	65.793
375.71	67.150
376.07	67.241
376.42	63.875
376.78	66.538
377.14	66.579
377.50	65.356
377.86	65.855
378.22	65.204
378.58	67.010
378.94	66.687
379.30	66.101
379.66	66.285
380.02	66.334
380.38	65.984
380.74	67.186
381.09	64.836
381.45	65.491
381.81	65.839
382.17	65.690
382.53	65.327
382.89	67.830
383.25	65.246
383.61	65.303
383.97	66.647
384.32	67.812
384.68	67.558
385.04	65.592
385.40	65.777
385.76	64.658
386.12	66.172
386.48	66.018
386.83	67.298
387.19	66.431
387.55	65.901
387.91	66.166
388.27	66.032
388.62	65.962
388.98	65.598
389.34	65.199
389.70	65.920
390.06	66.220
390.42	67.242
390.77	66.093
391.13	67.773
391.49	65.336
391.85	67.262
392.20	66.269
392.56	66.906
392.92	66.030
393.28	66.984
393.64	66.399
393.99	66.449
394.35	65.921
394.71	65.742
395.07	66.119
395.42	65.164
395.78	67.242
396.14	66.506
396.50	66.245
396.85	65.976
397.21	67.088
397.57	67.723
397.92	64.760
398.28	66.851
398.64	67.830
399.00	66.061
399.35	65.593
399.71	66.225
400.07	65.126
400.42	66.030
400.78	66.745
401.14	65.179
401.49	66.475
401.85	65.817
402.21	67.194
402.57	66.427
402.92	66.788
403.28	64.916
403.63	65.333
403.99	65.440
404.35	66.471
404.70	66.804
405.06	65.413
405.42	66.008
405.77	65.656
406.13	64.425
406.49	65.151
406.84	64.636
407.20	65.183
407.55	66.769
407.91	67.773
408.27	65.737
408.62	64.932
408.98	66.292
409.34	65.926
409.69	66.086
410.05	64.281
410.40	65.901
410.76	65.827
411.11	65.166
411.47	64.198
411.83	64.851
412.18	65.519
412.54	66.727
412.89	64.248
413.25	64.424
413.60	65.713
413.96	65.649
414.31	65.584
414.67	66.418
415.03	65.453
415.38	64.921
415.74	65.698
416.09	66.833
416.45	67.098
416.80	66.389
417.16	63.972
417.51	66.815
417.87	65.019
418.22	65.188
418.58	66.561
418.93	66.746
419.29	65.866
419.64	66.445
420.00	67.422
420.35	66.028
420.71	65.811
421.06	65.627
421.42	65.573
421.77	66.074
422.12	66.318
422.48	65.126
422.83	67.132
423.19	64.093
423.54	65.661
423.90	67.384
424.25	67.254
424.61	66.802
424.96	65.613
425.31	67.105
425.67	67.901
426.02	65.956
426.38	65.811
426.73	67.149
427.09	67.734
427.44	66.685
427.79	66.209
428.15	67.943
428.50	67.829
428.85	66.961
429.21	67.261
429.56	66.301
429.92	67.081
430.27	66.183
430.62	66.667
430.98	66.168
431.33	65.171
431.68	65.037
432.04	66.167
432.39	66.850
432.74	67.681
433.10	68.106
433.45	67.835
433.80	68.119
434.16	67.210
434.51	65.893
434.86	67.229
435.22	68.017
435.57	67.635
435.92	69.152
436.28	69.585
436.63	67.531
436.98	69.032
437.34	68.151
437.69	65.901
438.04	66.667
438.39	67.834
438.75	66.314
439.10	66.811
439.45	66.196
439.81	68.884
440.16	68.409
440.51	67.962
440.86	67.521
441.22	67.749
441.57	67.087
441.92	67.769
442.27	68.402
442.63	68.140
442.98	67.834
443.33	68.077
443.68	68.260
444.03	66.258
444.39	67.702
444.74	67.598
445.09	68.246
445.44	68.385
445.79	67.495
446.15	68.526
446.50	68.354
446.85	67.978
447.20	66.965
447.55	70.038
447.91	66.915
448.26	66.880
448.61	68.988
448.96	68.028
449.31	68.097
449.66	68.272
450.02	67.261
450.37	67.907
450.72	68.981
451.07	67.481
451.42	67.694
451.77	68.614
452.12	68.236
452.47	68.104
452.83	67.718
453.18	68.649
453.53	67.377
453.88	67.943
454.23	68.332
454.58	68.415
454.93	67.137
455.28	69.033
455.63	68.735
455.98	66.610
456.34	68.815
456.69	69.146
457.04	69.272
457.39	68.000
457.74	67.905
458.09	67.434
458.44	66.813
458.79	67.905
459.14	67.267
459.49	67.950
459.84	68.370
460.19	68.136
460.54	66.667
460.89	67.804
461.24	67.755
461.59	67.687
461.94	67.021
462.29	68.535
462.64	68.153
462.99	68.330
463.34	67.077
463.69	67.030
464.04	67.242
464.39	66.800
464.74	66.295
465.09	66.570
465.44	65.832
465.79	67.120
466.14	65.925
466.49	67.173
466.84	66.276
467.19	66.257
467.54	66.486
467.89	66.138
468.24	67.053
468.59	66.488
468.94	68.237
469.29	65.974
469.64	67.203
469.99	66.517
470.34	67.426
470.68	66.621
471.03	67.245
471.38	66.358
471.73	66.492
472.08	67.776
472.43	67.598
472.78	65.749
473.13	66.583
473.48	67.054
473.83	66.372
474.17	67.660
474.52	66.232
474.87	65.151
475.22	65.905
475.57	65.425
475.92	66.633
476.27	64.799
476.61	65.684
476.96	65.778
477.31	67.506
477.66	67.525
478.01	65.240
478.36	66.478
478.70	66.253
479.05	67.155
479.40	65.823
479.75	65.938
480.10	65.682
480.45	64.939
480.79	65.392
481.14	66.334
481.49	65.371
481.84	65.128
482.19	65.764
482.53	64.734
482.88	65.233
483.23	64.953
483.58	66.023
483.92	66.545
484.27	64.212
484.62	65.577
484.97	63.927
485.31	65.085
485.66	66.078
486.01	64.937
486.36	65.388
486.70	63.768
487.05	63.797
487.40	62.987
487.75	62.993
488.09	62.869
488.44	63.735
488.79	64.249
489.13	64.875
489.48	64.563
489.83	64.137
490.17	63.666
490.52	64.513
490.87	63.966
491.22	64.273
491.56	63.944
491.91	64.158
492.26	63.786
492.60	64.875
492.95	63.299
493.30	64.468
493.64	64.331
493.99	63.283
494.34	62.976
494.68	63.435
495.03	63.314
495.37	63.395
495.72	63.217
496.07	63.252
496.41	64.118
496.76	62.769
497.11	64.439
497.45	63.086
497.80	63.763
498.14	62.691
498.49	62.721
498.84	64.065
499.18	62.386
499.53	63.987
499.87	62.219
500.22	63.289
500.56	63.463
500.91	63.126
501.26	64.538
501.60	62.978
501.95	63.620
502.29	62.267
502.64	62.020
502.98	61.049
503.33	62.227
503.67	62.561
504.02	61.218
504.36	61.086
504.71	63.198
505.06	61.614
505.40	62.658
505.75	62.582
506.09	61.549
506.44	62.970
506.78	63.563
507.13	63.694
507.47	61.766
507.82	62.141
508.16	62.567
508.51	61.836
508.85	60.541
509.19	62.359
509.54	61.865
509.88	62.059
510.23	61.520
510.57	61.390
510.92	61.788
511.26	63.153
511.61	61.251
511.95	60.577
512.30	60.500
512.64	61.994
512.98	60.841
513.33	60.809
513.67	62.714
514.02	60.208
514.36	60.748
514.70	61.280
515.05	60.735
515.39	61.897
515.74	61.728
516.08	61.819
516.42	61.639
516.77	61.013
517.11	60.693
517.46	60.506
517.80	60.677
518.14	61.690
518.49	60.198
518.83	60.220
519.17	61.730
519.52	61.442
519.86	60.272
520.20	60.384
520.55	59.921
520.89	60.977
521.23	61.332
521.58	60.528
521.92	59.650
522.26	59.716
522.61	60.844
522.95	60.661
523.29	59.474
523.64	59.017
523.98	59.918
524.32	59.458
524.66	59.594
525.01	59.408
525.35	60.047
525.69	61.349
526.04	60.143
526.38	59.506
526.72	58.592
527.06	58.841
527.41	59.492
527.75	59.525
528.09	58.820
528.43	59.915
528.78	59.869
529.12	60.144
529.46	59.965
529.80	58.119
530.15	58.751
530.49	58.303
530.83	59.415
531.17	59.348
531.51	59.289
531.86	58.756
532.20	58.220
532.54	58.694
532.88	59.151
533.22	59.171
533.57	59.854
533.91	58.974
534.25	57.242
534.59	59.298
534.93	57.622
535.27	56.232
535.62	56.884
535.96	57.210
536.30	60.451
536.64	57.453
536.98	57.395
537.32	57.187
537.66	57.334
538.01	57.709
538.35	58.515
538.69	58.070
539.03	57.152
539.37	55.886
539.71	57.901
540.05	56.923
540.39	58.868
540.73	58.165
541.07	56.462
541.42	55.659
541.76	57.953
542.10	56.289
542.44	57.980
542.78	58.653
543.12	56.258
543.46	56.516
543.80	56.767
544.14	57.833
544.48	56.083
544.82	56.147
545.16	55.859
545.50	56.853
545.84	56.629
546.18	58.843
546.52	56.852
546.86	56.673
547.20	56.395
547.54	54.338
547.88	54.684
548.22	56.284
548.56	55.156
548.90	55.872
549.24	56.222
549.58	56.379
549.92	55.730
550.26	55.849
550.60	56.420
550.94	56.716
551.28	54.483
551.62	56.897
551.96	55.203
552.30	54.647
552.64	56.052
552.98	55.284
553.32	54.866
553.66	54.397
554.00	55.212
554.34	55.193
554.68	54.839
555.02	54.447
555.36	55.718
555.69	54.777
556.03	54.713
556.37	54.748
556.71	54.759
557.05	53.080
557.39	55.267
557.73	54.784
558.07	53.722
558.41	55.586
558.75	55.677
559.08	55.325
559.42	55.333
559.76	54.740
560.10	52.650
560.44	53.152
560.78	54.156
561.12	55.181
561.45	54.193
561.79	53.184
562.13	53.632
562.47	53.018
562.81	53.481
563.15	54.040
563.48	52.050
563.82	53.774
564.16	53.358
564.50	52.622
564.84	54.833
565.17	53.535
565.51	54.988
565.85	54.411
566.19	53.095
566.52	53.369
566.86	53.882
567.20	53.764
567.54	53.493
567.88	54.512
568.21	51.822
568.55	53.842
568.89	52.965
569.23	52.890
569.56	53.395
569.90	52.174
570.24	53.424
570.57	53.147
570.91	52.356
571.25	52.046
571.59	52.200
571.92	51.776
572.26	50.916
572.60	51.319
572.93	52.041
573.27	51.522
573.61	50.920
573.95	52.639
574.28	52.424
574.62	51.327
574.96	50.610
575.29	50.826
575.63	49.823
575.97	49.781
576.30	50.721
576.64	51.277
576.98	50.592
577.31	51.176
577.65	50.812
577.98	51.145
578.32	50.910
578.66	51.536
578.99	50.031
579.33	50.789
579.67	49.942
580.00	50.218
580.34	51.073
580.67	50.045
581.01	51.459
581.35	50.984
581.68	50.344
582.02	50.667
582.35	50.427
582.69	50.566
583.02	50.067
583.36	49.779
583.70	49.643
584.03	50.360
584.37	50.252
584.70	49.515
585.04	50.059
585.37	50.068
585.71	49.888
586.04	49.423
586.38	49.437
586.72	49.395
587.05	48.842
587.39	49.330
587.72	49.646
588.06	49.342
588.39	49.770
588.73	49.714
589.06	49.519
589.40	49.922
589.73	49.099
590.07	50.309
590.40	49.512
590.73	50.753
591.07	50.550
591.40	49.102
591.74	49.594
592.07	48.336
592.41	49.041
592.74	48.920
593.08	48.047
593.41	48.773
593.75	48.551
594.08	48.414
594.41	47.866
594.75	47.877
595.08	48.354
595.42	47.992
595.75	47.351
596.09	49.009
596.42	48.325
596.75	48.317
597.09	47.627
597.42	47.469
597.75	47.262
598.09	47.435
598.42	47.695
598.76	47.070
599.09	48.584
599.42	47.163
599.76	48.100
600.09	46.881
600.42	48.101
600.76	47.927
601.09	47.739
601.42	47.237
601.76	47.762
602.09	47.388
602.42	46.285
602.76	47.173
603.09	47.285
603.42	47.560
603.76	47.035
604.09	46.507
604.42	46.855
604.76	46.306
605.09	47.143
605.42	46.607
605.75	46.348
606.09	46.748
606.42	46.524
606.75	46.483
607.09	46.309
607.42	46.886
607.75	46.815
608.08	45.695
608.42	46.602
608.75	45.999
609.08	45.974
609.41	47.545
609.75	46.108
610.08	46.403
610.41	46.333
610.74	46.190
611.07	46.385
611.41	45.968
611.74	47.084
612.07	45.617
612.40	45.906
612.73	47.579
613.07	45.464
613.40	46.266
613.73	45.781
614.06	45.750
614.39	45.505
614.72	45.455
615.06	44.164
615.39	45.050
615.72	44.482
616.05	45.856
616.38	45.256
616.71	44.872
617.05	45.415
617.38	44.213
617.71	45.444
618.04	44.588
618.37	44.858
618.70	44.977
619.03	44.872
619.36	44.849
619.69	44.063
620.03	45.401
620.36	45.344
620.69	45.338
621.02	44.905
621.35	43.840
621.68	44.248
622.01	45.387
622.34	44.720
622.67	45.154
623.00	44.452
623.33	45.007
623.66	45.309
623.99	45.890
624.32	44.241
624.65	43.976
624.99	45.774
625.32	44.222
625.65	43.172
625.98	42.678
626.31	43.769
626.64	43.356
626.97	42.540
627.30	43.789
627.63	43.564
627.96	43.114
628.29	44.884
628.62	43.028
628.95	43.706
629.28	44.961
629.61	43.234
629.94	42.437
630.26	43.934
630.59	44.947
630.92	42.601
631.25	42.520
631.58	43.394
631.91	43.102
632.24	43.149
632.57	42.436
632.90	43.168
633.23	42.707
633.56	43.730
633.89	42.980
634.22	44.133
634.55	41.505
634.88	44.140
635.20	41.704
635.53	42.625
635.86	41.834
636.19	42.200
636.52	41.730
636.85	42.071
637.18	43.662
637.51	42.346
637.83	41.419
638.16	41.970
638.49	42.036
638.82	42.371
639.15	42.538
639.48	43.957
639.81	42.491
640.13	43.558
640.46	42.351
640.79	43.823
641.12	40.945
641.45	44.631
641.77	42.933
642.10	41.901
642.43	43.812
642.76	42.045
643.09	42.219
643.41	43.338
643.74	40.863
644.07	42.920
644.40	41.420
644.73	42.342
645.05	43.685
645.38	42.420
645.71	42.185
646.04	41.832
646.36	43.975
646.69	43.200
647.02	43.840
647.35	42.047
647.67	41.005
648.00	40.717
648.33	40.752
648.66	43.182
648.98	41.594
649.31	39.946
649.64	40.664
649.96	41.679
650.29	39.857
650.62	42.857
650.94	42.470
651.27	42.903
651.60	40.532
651.92	41.014
652.25	42.205
652.58	41.986
652.90	39.072
653.23	38.848
653.56	41.543
653.88	41.410
654.21	39.883
654.54	40.556
654.86	38.643
655.19	41.953
655.52	39.949
655.84	36.708
656.17	44.055
656.49	64.842
656.82	74.811
657.15	60.439
657.47	44.995
657.80	31.828
658.13	24.608
658.45	32.947
658.78	40.044
659.10	40.543
659.43	41.275
659.75	42.770
660.08	43.985
660.41	42.650
660.73	45.546
661.06	42.042
661.38	41.738
661.71	40.468
662.03	42.205
662.36	41.524
662.68	39.479
663.01	38.559
663.33	40.377
663.66	40.631
663.98	39.881
664.31	42.164
664.63	39.464
664.96	39.962
665.28	39.171
665.61	41.509
665.93	39.434
666.26	39.252
666.58	41.468
666.91	39.768
667.23	40.361
667.56	39.630
667.88	40.249
668.21	39.139
668.53	39.315
668.86	39.078
669.18	42.566
669.50	37.397
669.83	43.737
670.15	39.293
670.48	38.086
670.80	39.641
671.13	41.036
671.45	40.481
671.77	39.332
672.10	37.882
672.42	38.487
672.75	39.399
673.07	38.156
673.39	38.498
673.72	39.100
674.04	40.860
674.37	40.109
674.69	39.405
675.01	37.687
675.34	38.178
675.66	39.844
675.98	40.039
676.31	41.800
676.63	37.773
676.95	39.286
677.28	39.757
677.60	38.833
677.92	41.468
678.25	39.922
678.57	39.292
678.89	41.591
679.22	39.338
679.54	40.569
679.86	38.569
680.18	40.949
680.51	38.143
680.83	38.682
681.15	38.648
681.48	39.236
681.80	37.303
682.12	37.889
682.44	36.757
682.77	38.256
683.09	37.864
683.41	41.837
683.73	38.189
684.06	38.294
684.38	41.473
684.70	36.871
685.02	36.806
685.34	39.085
685.67	38.103
685.99	37.931
686.31	38.059
686.63	37.398
686.96	37.582
687.28	37.752
687.60	40.785
687.92	39.698
688.24	40.345
688.56	40.214
688.89	35.564
689.21	38.921
689.53	37.549
689.85	38.821
690.17	38.641
690.49	39.315
690.82	37.395
691.14	38.384
691.46	39.836
691.78	41.131
692.10	39.885
692.42	37.931
692.74	40.310
693.06	38.953
693.39	37.352
693.71	38.900
694.03	38.067
694.35	39.960
694.67	38.900
694.99	35.255
695.31	38.288
695.63	38.462
695.95	38.914
696.27	40.265
696.59	40.095
696.91	42.278
697.23	37.104
697.56	35.477
697.88	38.523
698.20	39.623
698.52	33.852
698.84	37.988
699.16	40.299
699.48	39.831
699.80	40.741
700.12	42.032
700.44	38.551
700.76	40.334
701.08	42.037
701.40	40.000
701.72	42.513
702.04	43.902
702.36	39.516
702.68	38.564
703.00	35.338
703.32	40.447
703.64	40.806
703.96	39.323
704.28	39.683
704.60	38.592
704.91	40.056
705.23	39.205
705.55	37.982
705.87	42.222
706.19	43.260
706.51	40.439
706.83	40.413
707.15	43.583
707.47	38.741
707.79	38.621
708.11	39.456
708.43	40.225
708.74	38.235
709.06	39.302
709.38	39.702
709.70	38.420
710.02	37.500
710.34	37.569
710.66	40.278
710.98	41.803
711.29	39.276
711.61	41.226
711.93	44.073
712.25	41.265
712.57	39.228
712.89	39.091
713.20	43.450
713.52	41.745
713.84	37.462
714.16	39.420
714.48	34.294
714.80	35.772
715.11	37.500
715.43	37.709
715.75	36.620
716.07	37.572
716.39	40.857
716.70	37.072
717.02	40.067
717.34	41.007
717.66	44.097
717.97	45.455
718.29	41.901
718.61	37.162
718.93	43.945
719.24	43.289
719.56	43.793
719.88	35.350
720.20	39.677
720.51	37.582
720.83	38.796
721.15	40.816
721.46	42.808
721.78	45.296
722.10	43.750
722.42	40.803
722.73	36.823
723.05	45.965
723.37	42.756
723.68	41.016
724.00	43.939
724.32	47.529
724.63	37.308
724.95	40.784
725.27	40.520
725.58	41.176
725.90	35.915
726.22	40.753
726.53	42.475
726.85	42.345
727.16	41.611
727.48	41.196
727.80	41.367
728.11	37.143
728.43	41.667
728.74	40.909
729.06	41.935
729.38	43.158
729.69	45.667
730.01	44.079
730.32	41.611
730.64	45.515
730.96	39.640
731.27	34.862
731.59	36.207
731.90	37.883
732.22	38.571
732.53	39.886
732.85	44.152
733.16	41.566
733.48	44.201
733.80	40.870
734.11	41.411
734.43	40.351
734.74	39.678
735.06	42.857
735.37	37.371
735.69	42.899
736.00	44.954
736.32	38.485
736.63	38.170
736.95	35.714
737.26	39.634
737.58	41.411
737.89	39.458
738.21	39.073
738.52	42.140
738.83	41.758
739.15	40.070
739.46	39.310
739.78	43.197
740.09	40.233
740.41	42.025
740.72	44.127
741.04	45.804
741.35	41.016
741.66	39.130
741.98	45.494
742.29	46.759
742.61	38.938
742.92	41.949
743.23	42.800
743.55	38.113
743.86	40.392
744.18	41.102
744.49	43.388
744.80	41.935
745.12	41.071
745.43	44.393
745.74	41.778
746.06	39.474
746.37	45.581
746.68	43.805
747.00	43.049
747.31	40.336
747.62	40.164
747.94	43.348
748.25	41.634
748.56	40.254
748.88	38.839
749.19	44.651
749.50	41.553
749.82	41.564
750.13	43.478
750.44	40.333
750.75	43.624
751.07	39.145
751.38	41.254
751.69	38.047
752.01	40.559
752.32	43.522
752.63	43.289
752.94	42.657
753.26	46.875
753.57	45.914
753.88	38.577
754.19	41.877
754.51	38.870
754.82	35.906
755.13	38.851
755.44	42.222
755.75	42.612
756.07	42.466
756.38	37.908
756.69	42.813
757.00	42.136
757.31	40.845
757.63	37.190
757.94	38.830
758.25	40.338
758.56	37.300
758.87	41.604
759.18	44.477
759.50	41.337
759.81	43.323
760.12	37.360
760.43	37.535
760.74	41.772
761.05	39.523
761.36	38.021
761.67	39.623
761.99	40.000
762.30	41.158
762.61	39.931
762.92	42.424
763.23	42.264
763.54	41.923
763.85	39.300
764.16	41.667
764.47	36.149
764.78	38.111
765.10	38.720
765.41	39.205
765.72	39.503
766.03	42.900
766.34	42.160
766.65	44.867
766.96	45.749
767.27	47.664
767.58	47.525
767.89	46.961
768.20	48.780
768.51	40.816
768.82	41.667
769.13	37.255
769.44	37.970
769.75	39.700
770.06	41.176
770.37	46.053
770.68	40.000
770.99	44.068
771.30	44.770
771.61	45.000
771.92	42.748
772.23	39.516
772.54	48.444
772.85	48.515
773.16	47.283
773.47	51.111
773.78	48.020
774.09	52.273
774.39	49.697
774.70	44.118
775.01	45.395
775.32	51.553
775.63	52.055
775.94	56.173
776.25	49.655
776.56	50.382
776.87	58.015
777.18	53.030
777.48	64.567
777.79	55.385
778.10	48.485
778.41	61.194
778.72	52.632
779.03	47.436
779.34	50.676
779.65	49.068
779.95	50.932
780.26	48.214
780.57	57.143
780.88	52.482
781.19	58.333
781.50	53.846
781.80	52.459
782.11	40.212
782.42	41.379
782.73	49.718
783.04	53.548
783.34	51.938
783.65	44.898
783.96	47.742
784.27	41.060
784.57	46.711
784.88	55.072
785.19	55.833
785.50	54.310
785.81	54.264
786.11	55.556
786.42	57.480
786.73	72.072
787.04	56.604
787.34	52.033
787.65	59.091
787.96	66.667
788.26	63.780
788.57	57.664
788.88	55.634
789.19	48.855
789.49	51.351
789.80	63.281
790.11	52.893
790.41	60.185
790.72	61.111
791.03	58.654
791.33	60.606
791.64	58.947
791.95	71.579
792.25	61.458
792.56	56.000
792.87	57.317
793.17	67.045
793.48	82.353
793.79	73.563
794.09	65.909
794.40	56.034
794.70	57.143
795.01	50.769
795.32	51.145
795.62	52.991
795.93	66.387
796.23	61.789
796.54	64.286
796.85	67.045
797.15	81.818
797.46	73.171
797.76	58.750
798.07	70.667
798.37	66.250
798.68	68.750
798.99	78.049
799.29	65.333
799.60	51.163
799.90	65.789
800.21	93.939
800.51	70.423
800.82	86.207
801.12	89.231
801.43	78.667
801.73	84.483
802.04	74.026
802.34	73.973
802.65	88.235
802.95	80.435
803.26	80.645
803.56	95.000
803.87	83.582
804.17	80.952
804.48	66.038
804.78	81.944
805.09	89.394
805.39	73.016
805.70	89.474
806.00	62.857
806.30	73.437
806.61	71.765
806.91	73.333
807.22	67.391
807.52	72.368
807.83	98.684
808.13	85.507
808.43	83.871
808.74	64.384
809.04	82.143
809.35	86.765
809.65	71.212
809.95	96.078
810.26	85.185
810.56	110.938
810.86	85.714
811.17	82.456
811.47	102.174
811.77	86.207
812.08	79.310
812.38	85.714
812.69	88.095
812.99	82.222
813.29	111.429
813.59	106.452
813.90	68.966
814.20	93.443
814.50	82.000
814.81	68.421
815.11	109.259
815.41	89.286
815.72	101.786
816.02	102.000
816.32	129.268
816.62	106.897
816.93	115.152
817.23	119.512
817.53	98.214
817.84	75.556
818.14	80.952
818.44	95.833
818.74	98.113
819.04	102.564
819.35	112.121
819.65	98.077
819.95	114.815
820.25	112.766
820.56	143.243
820.86	102.632
821.16	74.468
821.46	126.316
821.76	92.727
822.07	76.190
822.37	105.263
822.67	116.279
822.97	84.211
823.27	86.957
823.57	131.250
823.88	130.769
824.18	103.030
824.48	139.130
824.78	108.333
825.08	173.913
825.38	151.724
825.69	129.412
825.99	104.255
826.29	100.000
826.59	122.857
826.89	190.000
827.19	111.429
827.49	135.484
827.79	150.000
828.09	95.238
828.39	113.889
828.70	110.811
829.00	146.429
829.30	200.000
829.60	102.778
829.90	112.903
830.20	130.303
830.50	129.730
830.80	150.000
831.10	165.385
831.40	171.429
831.70	179.167
832.00	143.333
832.30	195.652
832.60	187.500
832.90	133.333
833.20	225.000
833.50	121.053
833.80	102.941
834.10	118.421
834.40	168.421
834.70	136.667
835.00	160.000
835.30	143.243
835.60	128.125
835.90	127.027
836.20	157.692
836.50	154.545
836.80	109.756
837.10	160.870
837.40	292.308
837.70	173.684
838.00	146.667
838.30	187.500
838.60	136.000
838.90	310.000
839.19	231.250
839.49	130.000
839.79	127.586
840.09	134.615
840.39	213.333
840.69	184.211
840.99	171.429
841.29	213.043
841.59	225.000
841.88	184.000
842.18	400.000
842.48	192.857
842.78	162.963
843.08	223.077
843.38	181.818
843.68	278.571
843.97	428.571
844.27	178.261
844.57	1850.000
844.87	271.429
845.17	172.222
845.47	119.048
845.76	204.167
846.06	471.429
846.36	276.471
846.66	238.462
846.96	206.250
847.25	215.385
847.55	173.684
847.85	183.333
848.15	580.000
848.44	309.091
848.74	166.667
849.04	175.000
849.34	211.765
849.63	206.250
849.93	281.250
850.23	966.667
850.53	400.000
850.82	209.091
851.12	211.765
851.42	175.000
851.71	206.250
852.01	0.000
852.31	223.529
852.61	360.000
852.90	195.833
853.20	366.667
853.50	-2100.000
853.79	160.000
854.09	175.000
854.39	165.517
854.68	162.069
854.98	204.762
855.28	154.839
855.57	271.429
855.87	216.667
856.17	137.037
856.46	194.737
856.76	135.484
857.05	229.412
857.35	245.455
857.65	269.231
857.94	215.000
858.24	366.667
858.53	285.714
858.83	542.857
859.13	173.913
859.42	377.778
859.72	387.500
860.01	233.333
860.31	950.000
860.60	480.000
860.90	387.500
861.20	238.462
861.49	400.000
861.79	-3400.000
862.08	500.000
862.38	455.556
862.67	271.429
862.97	320.000
863.26	170.000
863.56	800.000
863.85	346.154
864.15	247.059
864.44	250.000
864.74	358.333
865.03	354.545
865.33	337.500
865.62	226.667
865.92	566.667
866.21	1075.000
866.51	600.000
866.80	261.111
867.10	1166.667
867.39	3500.000
867.69	780.000
867.98	800.000
868.27	200.000
868.57	246.667
868.86	775.000
869.16	180.952
869.45	3400.000
869.75	-466.667
870.04	575.000
870.33	520.000
870.63	425.000
870.92	200.000
871.22	700.000
871.51	571.429
871.80	383.333
872.10	353.846
>>>>>End Processed Spectral Data<<<<<
