SpectraSuite Data File
++++++++++++++++++++++++++++++++++++
Date: Tue May 12 16:25:35 PDT 2015
User: schluterlab
Dark Spectrum Present: Yes
Reference Spectrum Present: Yes
Number of Sampled Component Spectra: 1
Spectrometers: USB2E3373
Integration Time (usec): 3000 (USB2E3373)
Spectra Averaged: 3 (USB2E3373)
Boxcar Smoothing: 0 (USB2E3373)
Correct for Electrical Dark: No (USB2E3373)
Strobe/Lamp Enabled: No (USB2E3373)
Correct for Detector Non-linearity: No (USB2E3373)
Correct for Stray Light: No (USB2E3373)
Number of Pixels in Processed Spectrum: 2048
>>>>>Begin Processed Spectral Data<<<<<
178.53	0.000
178.91	-258.333
179.29	-625.000
179.67	-3600.000
180.04	-126.667
180.42	750.000
180.80	1750.000
181.18	0.000
181.56	-387.500
181.94	0.000
182.31	900.000
182.69	-3500.000
183.07	600.000
183.45	-4100.000
183.83	-1450.000
184.20	290.000
184.58	385.714
184.96	-238.462
185.34	-258.333
185.72	1550.000
186.09	-875.000
186.47	-3300.000
186.85	700.000
187.23	520.000
187.61	1350.000
187.98	425.000
188.36	257.143
188.74	300.000
189.12	308.333
189.49	1050.000
189.87	0.000
190.25	425.000
190.63	2200.000
191.00	-208.333
191.38	-3100.000
191.76	-625.000
192.14	525.000
192.51	-3000.000
192.89	1350.000
193.27	1133.333
193.65	-1066.667
194.02	-660.000
194.40	485.714
194.78	-214.286
195.15	233.333
195.53	-3200.000
195.91	-460.000
196.29	3600.000
196.66	262.500
197.04	800.000
197.42	-1350.000
197.79	750.000
198.17	291.667
198.55	0.000
198.92	514.286
199.30	900.000
199.68	1800.000
200.05	700.000
200.43	-516.667
200.81	211.111
201.18	2800.000
201.56	275.000
201.94	-675.000
202.31	-312.500
202.69	-520.000
203.07	2400.000
203.44	-466.667
203.82	325.000
204.19	620.000
204.57	-1550.000
204.95	-775.000
205.32	-520.000
205.70	516.667
206.08	775.000
206.45	-833.333
206.83	288.889
207.20	173.684
207.58	291.667
207.96	600.000
208.33	0.000
208.71	500.000
209.08	680.000
209.46	-2400.000
209.84	-900.000
210.21	840.000
210.59	-440.000
210.96	233.333
211.34	-750.000
211.71	372.727
212.09	800.000
212.46	1500.000
212.84	-450.000
213.22	433.333
213.59	-2700.000
213.97	340.000
214.34	825.000
214.72	900.000
215.09	733.333
215.47	-2400.000
215.84	-290.000
216.22	-400.000
216.59	0.000
216.97	0.000
217.34	1300.000
217.72	-1600.000
218.09	1266.667
218.47	437.500
218.84	1025.000
219.22	1166.667
219.59	733.333
219.97	514.286
220.34	422.222
220.72	1550.000
221.09	3900.000
221.47	191.667
221.84	900.000
222.22	310.000
222.59	227.778
222.97	207.143
223.34	212.500
223.72	-1700.000
224.09	866.667
224.46	253.846
224.84	-800.000
225.21	366.667
225.59	220.000
225.96	1166.667
226.34	-560.000
226.71	-650.000
227.08	-560.000
227.46	0.000
227.83	-450.000
228.21	-1500.000
228.58	366.667
228.95	775.000
229.33	322.222
229.70	975.000
230.08	300.000
230.45	3600.000
230.82	-750.000
231.20	-666.667
231.57	-933.333
231.95	580.000
232.32	150.000
232.69	383.333
233.07	266.667
233.44	-1350.000
233.81	213.333
234.19	118.519
234.56	175.000
234.93	182.353
235.31	210.000
235.68	206.250
236.05	110.714
236.43	114.815
236.80	214.286
237.17	117.241
237.55	96.875
237.92	100.000
238.29	121.212
238.67	112.500
239.04	80.488
239.41	58.333
239.79	62.500
240.16	62.500
240.53	55.738
240.91	49.275
241.28	54.237
241.65	62.121
242.02	50.704
242.40	50.000
242.77	37.363
243.14	26.582
243.51	43.434
243.89	34.579
244.26	31.776
244.63	33.663
245.00	24.771
245.38	18.644
245.75	31.061
246.12	42.222
246.49	24.113
246.87	18.033
247.24	25.333
247.61	26.250
247.98	22.449
248.36	16.970
248.73	22.449
249.10	14.881
249.47	19.500
249.84	19.900
250.22	18.919
250.59	17.500
250.96	19.831
251.33	16.744
251.70	20.089
252.08	16.807
252.45	10.359
252.82	11.787
253.19	10.672
253.56	14.231
253.94	15.217
254.31	10.853
254.68	13.240
255.05	15.862
255.42	14.599
255.79	13.029
256.16	14.915
256.54	13.312
256.91	13.072
257.28	11.706
257.65	6.897
258.02	11.209
258.39	12.034
258.76	12.464
259.14	10.286
259.51	13.120
259.88	7.295
260.25	9.341
260.62	11.781
260.99	10.744
261.36	13.092
261.73	10.372
262.10	10.209
262.47	8.250
262.85	9.333
263.22	11.311
263.59	9.974
263.96	11.278
264.33	9.383
264.70	10.319
265.07	10.732
265.44	10.321
265.81	8.726
266.18	10.984
266.55	6.619
266.92	9.396
267.29	10.307
267.66	8.969
268.03	8.296
268.40	9.725
268.77	10.132
269.14	7.809
269.51	10.022
269.88	9.592
270.25	6.263
270.62	10.086
270.99	10.548
271.36	8.943
271.73	6.499
272.10	8.081
272.47	7.738
272.84	8.184
273.21	8.471
273.58	9.919
273.95	8.419
274.32	8.755
274.69	9.252
275.06	9.472
275.43	9.387
275.80	6.792
276.17	8.272
276.54	9.346
276.91	8.955
277.28	8.394
277.65	8.487
278.02	10.478
278.39	8.453
278.76	8.621
279.13	7.295
279.50	8.909
279.87	7.821
280.23	5.709
280.60	7.847
280.97	8.103
281.34	7.096
281.71	7.304
282.08	7.692
282.45	7.939
282.82	9.030
283.19	7.631
283.56	6.612
283.92	7.655
284.29	7.155
284.66	6.891
285.03	8.955
285.40	5.950
285.77	5.556
286.14	8.050
286.51	7.515
286.87	6.329
287.24	5.105
287.61	6.991
287.98	7.463
288.35	5.926
288.72	6.525
289.08	7.357
289.45	6.860
289.82	7.656
290.19	4.832
290.56	7.132
290.93	5.899
291.29	7.320
291.66	4.802
292.03	6.311
292.40	5.691
292.77	6.546
293.13	7.275
293.50	5.533
293.87	6.504
294.24	6.014
294.60	5.384
294.97	7.972
295.34	5.312
295.71	6.045
296.08	5.867
296.44	6.989
296.81	6.203
297.18	4.689
297.55	6.404
297.91	5.049
298.28	5.797
298.65	5.276
299.02	4.463
299.38	7.314
299.75	5.488
300.12	6.995
300.48	6.440
300.85	5.483
301.22	6.047
301.59	4.363
301.95	4.084
302.32	5.704
302.69	6.674
303.05	5.612
303.42	6.054
303.79	6.176
304.15	4.950
304.52	4.545
304.89	5.437
305.25	5.228
305.62	6.077
305.99	5.652
306.35	6.105
306.72	5.723
307.09	6.211
307.45	5.597
307.82	5.247
308.19	5.155
308.55	4.100
308.92	6.379
309.29	6.903
309.65	6.244
310.02	4.970
310.38	5.184
310.75	4.918
311.12	5.556
311.48	6.950
311.85	5.725
312.22	6.017
312.58	4.762
312.95	6.505
313.31	5.993
313.68	5.253
314.05	7.051
314.41	5.214
314.78	5.492
315.14	5.782
315.51	5.393
315.87	6.113
316.24	5.415
316.61	6.088
316.97	4.954
317.34	5.840
317.70	5.268
318.07	6.762
318.43	6.942
318.80	6.480
319.16	6.381
319.53	5.752
319.89	5.197
320.26	7.542
320.62	6.685
320.99	5.720
321.35	6.215
321.72	7.211
322.08	7.110
322.45	7.084
322.81	6.221
323.18	6.483
323.54	7.230
323.91	7.434
324.27	7.869
324.64	4.844
325.00	6.466
325.37	6.071
325.73	6.998
326.10	7.871
326.46	7.597
326.83	6.000
327.19	7.068
327.56	6.230
327.92	7.459
328.29	8.347
328.65	8.048
329.01	6.245
329.38	7.022
329.74	6.917
330.11	7.732
330.47	7.758
330.84	6.816
331.20	6.937
331.56	7.599
331.93	6.929
332.29	5.867
332.66	7.313
333.02	6.100
333.38	6.108
333.75	8.424
334.11	6.628
334.48	6.752
334.84	6.926
335.20	6.501
335.57	7.305
335.93	6.897
336.29	6.799
336.66	6.861
337.02	6.074
337.38	6.191
337.75	6.672
338.11	7.764
338.47	6.943
338.84	6.351
339.20	5.455
339.56	7.990
339.93	6.856
340.29	5.882
340.65	6.790
341.02	7.965
341.38	6.322
341.74	7.309
342.11	5.342
342.47	6.481
342.83	7.137
343.20	7.599
343.56	4.925
343.92	5.945
344.28	5.981
344.65	6.112
345.01	6.190
345.37	5.449
345.73	5.794
346.10	5.976
346.46	6.699
346.82	4.861
347.19	7.187
347.55	5.621
347.91	5.967
348.27	5.887
348.63	6.487
349.00	6.626
349.36	6.770
349.72	6.422
350.08	6.211
350.45	6.245
350.81	7.187
351.17	4.931
351.53	5.928
351.89	6.061
352.26	5.669
352.62	6.184
352.98	6.825
353.34	6.934
353.70	6.269
354.07	6.538
354.43	5.146
354.79	5.011
355.15	6.815
355.51	5.589
355.87	6.476
356.24	5.697
356.60	6.164
356.96	5.686
357.32	6.104
357.68	6.461
358.04	6.155
358.40	6.747
358.77	5.785
359.13	5.255
359.49	5.930
359.85	5.733
360.21	4.829
360.57	4.526
360.93	6.349
361.29	6.133
361.66	6.115
362.02	5.682
362.38	5.628
362.74	6.440
363.10	5.189
363.46	5.594
363.82	6.522
364.18	5.548
364.54	5.794
364.90	6.827
365.26	5.413
365.62	5.939
365.98	5.162
366.35	5.103
366.71	5.482
367.07	5.666
367.43	4.970
367.79	6.117
368.15	5.156
368.51	5.376
368.87	5.639
369.23	4.712
369.59	6.204
369.95	5.175
370.31	4.860
370.67	6.037
371.03	6.513
371.39	6.094
371.75	4.955
372.11	6.186
372.47	6.644
372.83	5.167
373.19	6.306
373.55	6.254
373.91	5.041
374.27	5.886
374.63	5.695
374.99	5.997
375.35	5.175
375.71	6.069
376.07	5.902
376.42	4.795
376.78	5.780
377.14	5.046
377.50	5.680
377.86	4.997
378.22	5.363
378.58	6.235
378.94	6.337
379.30	4.730
379.66	5.479
380.02	6.393
380.38	5.269
380.74	6.401
381.09	5.432
381.45	5.202
381.81	4.669
382.17	4.945
382.53	5.579
382.89	5.500
383.25	5.151
383.61	5.187
383.97	4.979
384.32	5.787
384.68	6.655
385.04	5.744
385.40	5.457
385.76	4.974
386.12	5.751
386.48	5.167
386.83	5.379
387.19	5.418
387.55	5.477
387.91	5.543
388.27	5.651
388.62	5.634
388.98	5.131
389.34	5.949
389.70	5.483
390.06	5.427
390.42	5.244
390.77	5.713
391.13	5.552
391.49	5.445
391.85	5.969
392.20	6.257
392.56	6.093
392.92	5.166
393.28	5.325
393.64	4.530
393.99	5.453
394.35	5.121
394.71	4.825
395.07	5.414
395.42	5.269
395.78	6.539
396.14	6.084
396.50	5.415
396.85	5.366
397.21	5.716
397.57	5.380
397.92	5.084
398.28	5.350
398.64	6.341
399.00	5.077
399.35	5.314
399.71	5.188
400.07	4.909
400.42	4.896
400.78	5.220
401.14	5.520
401.49	5.242
401.85	5.330
402.21	4.511
402.57	5.266
402.92	4.848
403.28	4.773
403.63	4.826
403.99	5.489
404.35	5.510
404.70	5.257
405.06	4.604
405.42	5.326
405.77	4.961
406.13	5.748
406.49	4.207
406.84	5.415
407.20	5.365
407.55	5.108
407.91	5.297
408.27	5.155
408.62	5.618
408.98	4.554
409.34	4.793
409.69	4.854
410.05	5.486
410.40	5.065
410.76	5.152
411.11	5.332
411.47	5.123
411.83	5.097
412.18	4.952
412.54	5.526
412.89	5.546
413.25	5.530
413.60	5.082
413.96	4.728
414.31	5.313
414.67	5.711
415.03	5.109
415.38	4.479
415.74	5.180
416.09	5.059
416.45	6.076
416.80	5.901
417.16	5.029
417.51	5.414
417.87	5.382
418.22	5.346
418.58	4.904
418.93	5.175
419.29	4.621
419.64	5.512
420.00	6.146
420.35	4.530
420.71	5.309
421.06	4.709
421.42	4.375
421.77	5.108
422.12	4.851
422.48	4.777
422.83	5.301
423.19	5.184
423.54	4.882
423.90	5.153
424.25	4.733
424.61	5.223
424.96	4.461
425.31	4.652
425.67	5.443
426.02	4.487
426.38	4.434
426.73	4.627
427.09	5.338
427.44	4.108
427.79	4.803
428.15	5.893
428.50	5.257
428.85	5.938
429.21	5.132
429.56	5.434
429.92	4.873
430.27	4.644
430.62	4.307
430.98	5.439
431.33	4.940
431.68	4.494
432.04	4.863
432.39	4.610
432.74	5.504
433.10	4.873
433.45	5.227
433.80	5.847
434.16	4.782
434.51	4.954
434.86	5.607
435.22	4.538
435.57	4.861
435.92	5.407
436.28	6.164
436.63	4.808
436.98	5.349
437.34	5.936
437.69	4.367
438.04	5.269
438.39	5.429
438.75	5.512
439.10	4.425
439.45	4.748
439.81	5.610
440.16	5.008
440.51	4.842
440.86	4.843
441.22	5.574
441.57	4.829
441.92	5.133
442.27	4.588
442.63	4.776
442.98	4.203
443.33	5.410
443.68	4.980
444.03	4.995
444.39	4.991
444.74	5.124
445.09	4.107
445.44	5.101
445.79	4.971
446.15	5.263
446.50	5.274
446.85	5.080
447.20	4.876
447.55	4.785
447.91	5.967
448.26	5.272
448.61	5.141
448.96	5.120
449.31	5.446
449.66	5.592
450.02	4.754
450.37	4.831
450.72	6.336
451.07	5.526
451.42	5.335
451.77	4.983
452.12	5.729
452.47	5.468
452.83	5.296
453.18	6.006
453.53	5.506
453.88	5.143
454.23	5.636
454.58	5.594
454.93	4.844
455.28	5.569
455.63	5.142
455.98	5.584
456.34	5.653
456.69	4.695
457.04	5.131
457.39	5.029
457.74	6.081
458.09	4.548
458.44	5.696
458.79	4.881
459.14	4.419
459.49	5.776
459.84	5.217
460.19	5.650
460.54	5.812
460.89	5.490
461.24	5.498
461.59	6.066
461.94	4.846
462.29	5.034
462.64	5.402
462.99	5.118
463.34	5.574
463.69	6.352
464.04	5.815
464.39	5.209
464.74	4.572
465.09	5.340
465.44	5.386
465.79	4.954
466.14	4.928
466.49	5.534
466.84	5.295
467.19	5.565
467.54	5.165
467.89	6.045
468.24	4.690
468.59	4.405
468.94	5.254
469.29	5.987
469.64	6.238
469.99	5.656
470.34	4.744
470.68	5.862
471.03	5.137
471.38	5.762
471.73	5.879
472.08	5.545
472.43	5.462
472.78	5.442
473.13	4.693
473.48	5.929
473.83	6.243
474.17	5.046
474.52	5.450
474.87	5.230
475.22	5.311
475.57	4.827
475.92	4.599
476.27	4.461
476.61	4.182
476.96	5.172
477.31	4.781
477.66	5.099
478.01	5.157
478.36	4.480
478.70	4.814
479.05	4.498
479.40	4.117
479.75	5.660
480.10	4.937
480.45	4.762
480.79	5.161
481.14	4.422
481.49	4.941
481.84	5.057
482.19	4.978
482.53	4.787
482.88	5.332
483.23	4.285
483.58	5.072
483.92	5.530
484.27	4.666
484.62	5.136
484.97	4.869
485.31	4.255
485.66	4.059
486.01	4.167
486.36	4.024
486.70	3.699
487.05	3.878
487.40	4.131
487.75	4.487
488.09	4.432
488.44	4.430
488.79	4.165
489.13	4.853
489.48	4.754
489.83	4.170
490.17	4.170
490.52	4.651
490.87	4.784
491.22	4.832
491.56	5.051
491.91	4.435
492.26	4.766
492.60	4.920
492.95	5.165
493.30	5.187
493.64	4.852
493.99	4.562
494.34	4.034
494.68	4.250
495.03	4.984
495.37	5.313
495.72	4.662
496.07	4.762
496.41	4.865
496.76	4.939
497.11	4.884
497.45	4.691
497.80	5.190
498.14	4.716
498.49	4.968
498.84	5.000
499.18	4.616
499.53	4.593
499.87	4.852
500.22	4.929
500.56	4.735
500.91	5.102
501.26	4.961
501.60	4.918
501.95	4.346
502.29	4.711
502.64	4.323
502.98	4.402
503.33	4.722
503.67	5.342
504.02	4.613
504.36	4.842
504.71	4.778
505.06	4.880
505.40	4.212
505.75	4.677
506.09	5.040
506.44	4.605
506.78	5.009
507.13	4.169
507.47	4.124
507.82	5.547
508.16	5.047
508.51	4.928
508.85	5.128
509.19	4.552
509.54	5.371
509.88	5.172
510.23	4.510
510.57	4.295
510.92	4.446
511.26	4.920
511.61	4.973
511.95	5.226
512.30	5.000
512.64	4.206
512.98	4.972
513.33	4.457
513.67	5.541
514.02	4.883
514.36	4.517
514.70	4.587
515.05	4.156
515.39	4.879
515.74	4.647
516.08	4.793
516.42	5.246
516.77	4.587
517.11	4.747
517.46	4.957
517.80	4.806
518.14	5.408
518.49	4.961
518.83	4.670
519.17	5.158
519.52	4.642
519.86	5.177
520.20	5.808
520.55	4.409
520.89	5.057
521.23	5.082
521.58	4.532
521.92	4.606
522.26	4.384
522.61	5.526
522.95	4.745
523.29	4.854
523.64	5.202
523.98	4.577
524.32	4.671
524.66	5.275
525.01	4.675
525.35	4.596
525.69	4.997
526.04	5.532
526.38	5.003
526.72	5.012
527.06	4.199
527.41	5.925
527.75	5.539
528.09	5.178
528.43	5.003
528.78	5.069
529.12	4.937
529.46	5.319
529.80	4.965
530.15	5.245
530.49	4.392
530.83	4.753
531.17	4.551
531.51	5.579
531.86	4.710
532.20	5.006
532.54	5.210
532.88	4.872
533.22	6.155
533.57	5.369
533.91	4.371
534.25	4.385
534.59	5.029
534.93	4.721
535.27	5.009
535.62	4.842
535.96	4.728
536.30	5.850
536.64	4.348
536.98	4.216
537.32	5.750
537.66	4.337
538.01	5.573
538.35	4.991
538.69	4.976
539.03	4.167
539.37	4.369
539.71	5.370
540.05	4.985
540.39	5.597
540.73	5.000
541.07	4.454
541.42	4.789
541.76	5.240
542.10	4.439
542.44	5.736
542.78	4.972
543.12	4.356
543.46	4.323
543.80	4.950
544.14	4.892
544.48	4.562
544.82	5.321
545.16	3.643
545.50	4.978
545.84	5.366
546.18	5.527
546.52	5.311
546.86	5.351
547.20	4.845
547.54	5.066
547.88	5.474
548.22	5.100
548.56	5.775
548.90	5.219
549.24	5.243
549.58	4.188
549.92	5.174
550.26	4.598
550.60	4.923
550.94	5.156
551.28	5.793
551.62	5.103
551.96	5.000
552.30	4.285
552.64	6.214
552.98	3.802
553.32	4.994
553.66	4.300
554.00	5.084
554.34	5.193
554.68	5.108
555.02	5.092
555.36	5.519
555.69	4.974
556.03	5.223
556.37	4.398
556.71	5.671
557.05	4.260
557.39	5.533
557.73	4.987
558.07	4.829
558.41	4.798
558.75	4.925
559.08	5.647
559.42	5.011
559.76	5.132
560.10	4.749
560.44	5.309
560.78	6.138
561.12	5.149
561.45	4.631
561.79	4.619
562.13	5.306
562.47	3.764
562.81	4.164
563.15	4.525
563.48	4.472
563.82	5.552
564.16	5.224
564.50	4.581
564.84	4.316
565.17	4.813
565.51	4.926
565.85	5.059
566.19	4.881
566.52	4.031
566.86	4.845
567.20	4.831
567.54	3.657
567.88	4.956
568.21	4.893
568.55	4.426
568.89	4.699
569.23	3.753
569.56	4.153
569.90	4.168
570.24	4.668
570.57	4.056
570.91	3.713
571.25	3.677
571.59	3.440
571.92	3.902
572.26	3.342
572.60	3.693
572.93	3.882
573.27	3.733
573.61	3.763
573.95	3.561
574.28	3.660
574.62	3.004
574.96	3.549
575.29	3.532
575.63	3.510
575.97	3.165
576.30	3.290
576.64	3.697
576.98	3.459
577.31	3.718
577.65	3.748
577.98	2.963
578.32	3.398
578.66	3.538
578.99	3.503
579.33	3.563
579.67	3.508
580.00	3.508
580.34	3.353
580.67	3.266
581.01	3.467
581.35	3.319
581.68	3.038
582.02	3.384
582.35	3.279
582.69	3.448
583.02	3.264
583.36	3.333
583.70	3.966
584.03	3.579
584.37	3.534
584.70	3.583
585.04	3.616
585.37	3.539
585.71	3.573
586.04	3.437
586.38	3.304
586.72	3.707
587.05	3.628
587.39	3.413
587.72	3.684
588.06	3.551
588.39	3.275
588.73	3.541
589.06	3.677
589.40	4.225
589.73	3.769
590.07	4.084
590.40	4.425
590.73	4.150
591.07	4.630
591.40	4.112
591.74	4.464
592.07	3.078
592.41	4.197
592.74	3.698
593.08	3.809
593.41	3.860
593.75	3.485
594.08	3.973
594.41	3.812
594.75	3.870
595.08	4.047
595.42	3.983
595.75	3.850
596.09	4.067
596.42	4.006
596.75	4.127
597.09	4.251
597.42	3.796
597.75	3.773
598.09	4.103
598.42	4.039
598.76	4.009
599.09	3.972
599.42	3.702
599.76	4.138
600.09	3.729
600.42	3.764
600.76	3.739
601.09	3.452
601.42	4.329
601.76	3.616
602.09	3.826
602.42	3.623
602.76	3.871
603.09	4.148
603.42	4.367
603.76	3.977
604.09	3.836
604.42	3.465
604.76	4.109
605.09	4.082
605.42	3.698
605.75	4.066
606.09	3.596
606.42	4.021
606.75	4.236
607.09	4.382
607.42	3.736
607.75	3.822
608.08	4.102
608.42	3.985
608.75	3.680
609.08	4.136
609.41	4.091
609.75	4.350
610.08	4.541
610.41	3.821
610.74	4.069
611.07	4.502
611.41	4.124
611.74	3.967
612.07	4.239
612.40	4.630
612.73	3.944
613.07	4.055
613.40	4.712
613.73	4.094
614.06	4.000
614.39	4.091
614.72	4.018
615.06	4.253
615.39	4.851
615.72	4.308
616.05	5.023
616.38	4.262
616.71	4.232
617.05	4.228
617.38	4.607
617.71	3.768
618.04	3.870
618.37	4.225
618.70	4.042
619.03	4.457
619.36	5.025
619.69	4.815
620.03	5.675
620.36	4.817
620.69	5.045
621.02	4.144
621.35	4.728
621.68	5.088
622.01	5.756
622.34	4.151
622.67	5.337
623.00	4.493
623.33	5.061
623.66	5.389
623.99	4.932
624.32	4.810
624.65	4.806
624.99	4.665
625.32	4.943
625.65	4.276
625.98	4.533
626.31	4.822
626.64	4.935
626.97	5.356
627.30	4.814
627.63	6.201
627.96	5.399
628.29	4.373
628.62	4.619
628.95	5.674
629.28	5.960
629.61	4.394
629.94	6.223
630.26	5.806
630.59	6.117
630.92	5.202
631.25	6.437
631.58	5.207
631.91	5.423
632.24	5.442
632.57	4.813
632.90	5.901
633.23	6.611
633.56	5.269
633.89	5.788
634.22	5.382
634.55	6.667
634.88	7.229
635.20	5.830
635.53	6.272
635.86	6.376
636.19	6.734
636.52	5.189
636.85	5.178
637.18	8.017
637.51	4.469
637.83	4.805
638.16	6.917
638.49	7.545
638.82	6.808
639.15	5.405
639.48	7.109
639.81	6.105
640.13	6.994
640.46	6.574
640.79	6.112
641.12	4.593
641.45	6.210
641.77	6.869
642.10	7.497
642.43	4.979
642.76	6.250
643.09	5.476
643.41	8.135
643.74	5.612
644.07	7.080
644.40	5.178
644.73	7.508
645.05	8.172
645.38	6.891
645.71	6.980
646.04	7.786
646.36	6.886
646.69	4.960
647.02	6.880
647.35	6.772
647.67	6.969
648.00	8.795
648.33	6.767
648.66	6.212
648.98	6.522
649.31	6.883
649.64	5.256
649.96	5.263
650.29	7.143
650.62	8.542
650.94	8.584
651.27	7.496
651.60	6.729
651.92	6.912
652.25	6.772
652.58	7.660
652.90	6.287
653.23	7.976
653.56	6.973
653.88	7.195
654.21	6.012
654.54	7.174
654.86	6.785
655.19	6.860
655.52	5.451
655.84	2.755
656.17	2.911
656.49	4.175
656.82	4.685
657.15	3.860
657.47	2.952
657.80	2.207
658.13	1.756
658.45	2.474
658.78	3.029
659.10	3.254
659.43	3.503
659.75	3.024
660.08	3.885
660.41	5.898
660.73	7.654
661.06	9.009
661.38	9.199
661.71	7.194
662.03	7.414
662.36	7.048
662.68	10.056
663.01	8.829
663.33	8.491
663.66	6.903
663.98	8.333
664.31	10.634
664.63	10.536
664.96	9.006
665.28	8.851
665.61	7.170
665.93	8.113
666.26	9.533
666.58	11.193
666.91	8.494
667.23	7.028
667.56	9.035
667.88	9.751
668.21	8.197
668.53	10.282
668.86	10.220
669.18	9.369
669.50	6.612
669.83	10.472
670.15	9.148
670.48	7.812
670.80	6.972
671.13	7.769
671.45	11.022
671.77	10.019
672.10	8.797
672.42	9.046
672.75	8.386
673.07	7.472
673.39	6.390
673.72	8.131
674.04	7.885
674.37	7.623
674.69	7.993
675.01	7.649
675.34	6.783
675.66	10.938
675.98	9.665
676.31	8.800
676.63	7.356
676.95	11.310
677.28	9.331
677.60	9.256
677.92	8.135
678.25	8.915
678.57	8.566
678.89	9.042
679.22	8.824
679.54	9.964
679.86	7.679
680.18	7.909
680.51	7.297
680.83	7.432
681.15	8.146
681.48	8.507
681.80	8.231
682.12	8.131
682.44	7.387
682.77	8.363
683.09	9.515
683.41	10.204
683.73	9.055
684.06	6.349
684.38	7.946
684.70	6.475
685.02	6.944
685.34	7.570
685.67	8.199
685.99	7.882
686.31	7.088
686.63	7.642
686.96	7.516
687.28	6.544
687.60	7.509
687.92	7.538
688.24	10.345
688.56	8.007
688.89	8.604
689.21	9.249
689.53	8.893
689.85	6.707
690.17	9.515
690.49	9.677
690.82	7.983
691.14	10.101
691.46	10.062
691.78	8.577
692.10	7.824
692.42	5.808
692.74	8.721
693.06	7.558
693.39	7.312
693.71	10.806
694.03	10.454
694.35	12.450
694.67	11.202
694.99	8.426
695.31	9.910
695.63	7.014
695.95	7.692
696.27	10.841
696.59	9.069
696.91	8.861
697.23	9.729
697.56	6.639
697.88	5.788
698.20	7.736
698.52	6.809
698.84	11.088
699.16	9.595
699.48	8.475
699.80	10.893
700.12	9.238
700.44	10.748
700.76	13.604
701.08	8.877
701.40	10.390
701.72	13.904
702.04	13.008
702.36	12.097
702.68	10.638
703.00	10.276
703.32	13.151
703.64	11.083
703.96	9.115
704.28	10.582
704.60	12.113
704.91	11.485
705.23	9.091
705.55	11.869
705.87	11.429
706.19	15.987
706.51	14.734
706.83	12.684
707.15	12.834
707.47	9.443
707.79	10.805
708.11	8.844
708.43	10.112
708.74	8.824
709.06	9.070
709.38	9.926
709.70	8.719
710.02	10.870
710.34	11.602
710.66	11.667
710.98	12.295
711.29	10.864
711.61	11.978
711.93	5.775
712.25	7.229
712.57	12.862
712.89	14.242
713.20	10.863
713.52	9.657
713.84	9.970
714.16	10.435
714.48	6.628
714.80	11.653
715.11	10.372
715.43	8.380
715.75	10.704
716.07	11.272
716.39	10.571
716.70	11.838
717.02	12.458
717.34	14.388
717.66	14.583
717.97	13.636
718.29	13.732
718.61	8.446
718.93	13.495
719.24	14.765
719.56	8.276
719.88	9.873
720.20	10.000
720.51	9.477
720.83	11.037
721.15	12.925
721.46	14.041
721.78	13.589
722.10	13.889
722.42	17.057
722.73	11.913
723.05	11.930
723.37	16.254
723.68	13.672
724.00	13.258
724.32	14.829
724.63	15.000
724.95	17.647
725.27	14.126
725.58	14.706
725.90	11.620
726.22	9.932
726.53	13.712
726.85	14.332
727.16	16.107
727.48	13.289
727.80	14.748
728.11	13.929
728.43	14.130
728.74	15.035
729.06	13.620
729.38	14.035
729.69	14.000
730.01	13.487
730.32	13.087
730.64	15.947
730.96	12.012
731.27	7.645
731.59	14.080
731.90	10.028
732.22	13.714
732.53	10.256
732.85	16.667
733.16	12.048
733.48	13.793
733.80	12.464
734.11	12.577
734.43	9.064
734.74	10.724
735.06	13.757
735.37	11.340
735.69	10.435
736.00	13.456
736.32	7.273
736.63	10.095
736.95	10.559
737.26	12.195
737.58	11.043
737.89	10.843
738.21	12.252
738.52	12.709
738.83	16.850
739.15	18.118
739.46	11.724
739.78	11.224
740.09	14.286
740.41	12.270
740.72	15.873
741.04	17.133
741.35	11.328
741.66	16.601
741.98	16.309
742.29	16.667
742.61	11.947
742.92	13.559
743.23	13.600
743.55	13.585
743.86	14.118
744.18	15.678
744.49	18.595
744.80	15.207
745.12	17.411
745.43	18.692
745.74	16.889
746.06	14.912
746.37	13.023
746.68	18.142
747.00	17.937
747.31	18.067
747.62	11.885
747.94	18.455
748.25	14.786
748.56	13.136
748.88	18.304
749.19	19.070
749.50	14.612
749.82	17.695
750.13	15.020
750.44	9.333
750.75	12.081
751.07	12.171
751.38	14.191
751.69	14.478
752.01	12.238
752.32	14.950
752.63	17.450
752.94	16.084
753.26	12.500
753.57	15.175
753.88	13.109
754.19	11.552
754.51	14.618
754.82	10.738
755.13	11.824
755.44	14.815
755.75	13.746
756.07	11.301
756.38	12.092
756.69	13.125
757.00	14.540
757.31	13.521
757.63	11.295
757.94	8.511
758.25	9.903
758.56	10.526
758.87	13.283
759.18	12.791
759.50	8.815
759.81	12.463
760.12	12.360
760.43	10.924
760.74	11.646
761.05	11.406
761.36	8.333
761.67	11.860
761.99	11.549
762.30	9.968
762.61	10.764
762.92	14.015
763.23	15.094
763.54	14.231
763.85	13.230
764.16	17.708
764.47	13.514
764.78	14.332
765.10	10.671
765.41	10.227
765.72	9.945
766.03	11.782
766.34	9.408
766.65	11.027
766.96	17.004
767.27	18.224
767.58	15.842
767.89	23.204
768.20	27.439
768.51	11.224
768.82	17.982
769.13	17.647
769.44	16.165
769.75	12.734
770.06	13.445
770.37	14.912
770.68	13.333
770.99	16.525
771.30	13.808
771.61	21.154
771.92	19.466
772.23	14.516
772.54	23.556
772.85	21.782
773.16	15.761
773.47	21.111
773.78	20.297
774.09	26.705
774.39	20.606
774.70	17.647
775.01	13.158
775.32	17.391
775.63	28.082
775.94	30.864
776.25	24.138
776.56	25.191
776.87	33.588
777.18	26.515
777.48	38.583
777.79	33.846
778.10	24.242
778.41	22.388
778.72	25.564
779.03	20.513
779.34	24.324
779.65	22.360
779.95	19.255
780.26	23.810
780.57	28.571
780.88	23.404
781.19	28.333
781.50	24.260
781.80	24.044
782.11	19.577
782.42	18.391
782.73	22.599
783.04	17.419
783.34	20.155
783.65	19.728
783.96	23.226
784.27	23.179
784.57	17.105
784.88	25.362
785.19	23.333
785.50	31.897
785.81	36.434
786.11	23.704
786.42	22.835
786.73	29.730
787.04	27.358
787.34	30.081
787.65	32.576
787.96	28.788
788.26	27.559
788.57	27.007
788.88	25.352
789.19	21.374
789.49	35.811
789.80	31.250
790.11	28.926
790.41	19.444
790.72	23.148
791.03	42.308
791.33	44.444
791.64	32.632
791.95	31.579
792.25	26.042
792.56	32.000
792.87	41.463
793.17	37.500
793.48	32.941
793.79	42.529
794.09	45.455
794.40	39.655
794.70	30.159
795.01	26.923
795.32	23.664
795.62	16.239
795.93	26.891
796.23	40.650
796.54	25.510
796.85	47.727
797.15	46.753
797.46	48.780
797.76	43.750
798.07	32.000
798.37	38.750
798.68	50.000
798.99	47.561
799.29	40.000
799.60	38.372
799.90	39.474
800.21	40.909
800.51	45.070
800.82	46.552
801.12	66.154
801.43	60.000
801.73	46.552
802.04	53.247
802.34	50.685
802.65	54.902
802.95	43.478
803.26	61.290
803.56	48.333
803.87	59.701
804.17	57.143
804.48	66.038
804.78	45.833
805.09	54.545
805.39	52.381
805.70	64.912
806.00	42.857
806.30	48.438
806.61	44.706
806.91	51.111
807.22	31.522
807.52	42.105
807.83	53.947
808.13	39.130
808.43	56.452
808.74	47.945
809.04	57.143
809.35	55.882
809.65	51.515
809.95	84.314
810.26	75.926
810.56	64.063
810.86	44.898
811.17	59.649
811.47	84.783
811.77	50.000
812.08	55.172
812.38	73.810
812.69	92.857
812.99	55.556
813.29	80.000
813.59	80.645
813.90	58.621
814.20	65.574
814.50	58.000
814.81	42.105
815.11	66.667
815.41	67.857
815.72	78.571
816.02	82.000
816.32	60.976
816.62	72.414
816.93	84.848
817.23	73.171
817.53	69.643
817.84	57.778
818.14	66.667
818.44	85.417
818.74	79.245
819.04	82.051
819.35	109.091
819.65	90.385
819.95	83.333
820.25	76.596
820.56	86.486
820.86	100.000
821.16	57.447
821.46	113.158
821.76	72.727
822.07	73.810
822.37	86.842
822.67	62.791
822.97	55.263
823.27	93.478
823.57	84.375
823.88	110.256
824.18	96.970
824.48	104.348
824.78	111.111
825.08	130.435
825.38	79.310
825.69	70.588
825.99	82.979
826.29	61.111
826.59	111.429
826.89	120.000
827.19	71.429
827.49	125.806
827.79	134.615
828.09	90.476
828.39	102.778
828.70	83.784
829.00	92.857
829.30	81.250
829.60	66.667
829.90	80.645
830.20	63.636
830.50	97.297
830.80	162.500
831.10	150.000
831.40	171.429
831.70	129.167
832.00	80.000
832.30	147.826
832.60	170.833
832.90	142.424
833.20	160.000
833.50	107.895
833.80	111.765
834.10	92.105
834.40	115.789
834.70	123.333
835.00	140.000
835.30	67.568
835.60	93.750
835.90	86.486
836.20	115.385
836.50	118.182
836.80	95.122
837.10	104.348
837.40	215.385
837.70	131.579
838.00	140.000
838.30	129.167
838.60	136.000
838.90	310.000
839.19	193.750
839.49	96.667
839.79	120.690
840.09	142.308
840.39	113.333
840.69	226.316
840.99	100.000
841.29	156.522
841.59	205.000
841.88	100.000
842.18	211.111
842.48	125.000
842.78	140.741
843.08	176.923
843.38	136.364
843.68	142.857
843.97	371.429
844.27	139.130
844.57	1450.000
844.87	235.714
845.17	194.444
845.47	142.857
845.76	137.500
846.06	357.143
846.36	211.765
846.66	292.308
846.96	250.000
847.25	184.615
847.55	200.000
847.85	211.111
848.15	500.000
848.44	209.091
848.74	176.190
849.04	166.667
849.34	147.059
849.63	212.500
849.93	200.000
850.23	766.667
850.53	362.500
850.82	236.364
851.12	141.176
851.42	166.667
851.71	225.000
852.01	0.000
852.31	170.588
852.61	270.000
852.90	179.167
853.20	388.889
853.50	-1500.000
853.79	144.000
854.09	125.000
854.39	117.241
854.68	117.241
854.98	176.190
855.28	132.258
855.57	185.714
855.87	183.333
856.17	137.037
856.46	178.947
856.76	100.000
857.05	182.353
857.35	227.273
857.65	184.615
857.94	140.000
858.24	355.556
858.53	307.143
858.83	600.000
859.13	165.217
859.42	266.667
859.72	287.500
860.01	208.333
860.31	750.000
860.60	410.000
860.90	287.500
861.20	215.385
861.49	342.857
861.79	-3000.000
862.08	585.714
862.38	388.889
862.67	214.286
862.97	410.000
863.26	160.000
863.56	775.000
863.85	253.846
864.15	217.647
864.44	211.111
864.74	308.333
865.03	236.364
865.33	450.000
865.62	220.000
865.92	733.333
866.21	750.000
866.51	540.000
866.80	205.556
867.10	700.000
867.39	1900.000
867.69	740.000
867.98	900.000
868.27	157.143
868.57	233.333
868.86	775.000
869.16	123.810
869.45	2900.000
869.75	-416.667
870.04	625.000
870.33	620.000
870.63	525.000
870.92	194.118
871.22	575.000
871.51	371.429
871.80	258.333
872.10	292.308
>>>>>End Processed Spectral Data<<<<<
