SpectraSuite Data File
++++++++++++++++++++++++++++++++++++
Date: Tue May 12 16:29:14 PDT 2015
User: schluterlab
Dark Spectrum Present: Yes
Reference Spectrum Present: Yes
Number of Sampled Component Spectra: 1
Spectrometers: USB2E3373
Integration Time (usec): 3000 (USB2E3373)
Spectra Averaged: 3 (USB2E3373)
Boxcar Smoothing: 0 (USB2E3373)
Correct for Electrical Dark: No (USB2E3373)
Strobe/Lamp Enabled: No (USB2E3373)
Correct for Detector Non-linearity: No (USB2E3373)
Correct for Stray Light: No (USB2E3373)
Number of Pixels in Processed Spectrum: 2048
>>>>>Begin Processed Spectral Data<<<<<
178.53	0.000
178.91	-250.000
179.29	-525.000
179.67	-2800.000
180.04	-86.667
180.42	600.000
180.80	1350.000
181.18	0.000
181.56	-212.500
181.94	0.000
182.31	933.333
182.69	-4000.000
183.07	571.429
183.45	-2700.000
183.83	-1750.000
184.20	290.000
184.58	400.000
184.96	-192.308
185.34	-191.667
185.72	2000.000
186.09	-825.000
186.47	-2200.000
186.85	1200.000
187.23	680.000
187.61	2000.000
187.98	412.500
188.36	264.286
188.74	366.667
189.12	350.000
189.49	675.000
189.87	0.000
190.25	375.000
190.63	3000.000
191.00	-216.667
191.38	-2800.000
191.76	-700.000
192.14	487.500
192.51	-3100.000
192.89	1800.000
193.27	833.333
193.65	-666.667
194.02	-740.000
194.40	542.857
194.78	-150.000
195.15	213.333
195.53	-2400.000
195.91	-600.000
196.29	3600.000
196.66	231.250
197.04	925.000
197.42	-1250.000
197.79	550.000
198.17	350.000
198.55	0.000
198.92	442.857
199.30	1066.667
199.68	1550.000
200.05	550.000
200.43	-333.333
200.81	205.556
201.18	3800.000
201.56	316.667
201.94	-650.000
202.31	-300.000
202.69	-400.000
203.07	2700.000
203.44	-500.000
203.82	266.667
204.19	620.000
204.57	-1150.000
204.95	-450.000
205.32	-700.000
205.70	466.667
206.08	600.000
206.45	-733.333
206.83	300.000
207.20	221.053
207.58	275.000
207.96	480.000
208.33	0.000
208.71	657.143
209.08	700.000
209.46	-3200.000
209.84	-875.000
210.21	900.000
210.59	-460.000
210.96	208.333
211.34	-875.000
211.71	427.273
212.09	850.000
212.46	2050.000
212.84	-400.000
213.22	322.222
213.59	-2400.000
213.97	310.000
214.34	825.000
214.72	1300.000
215.09	800.000
215.47	-1800.000
215.84	-330.000
216.22	-412.500
216.59	0.000
216.97	0.000
217.34	1500.000
217.72	-1250.000
218.09	1266.667
218.47	500.000
218.84	875.000
219.22	833.333
219.59	933.333
219.97	528.571
220.34	311.111
220.72	1000.000
221.09	3700.000
221.47	233.333
221.84	1033.333
222.22	330.000
222.59	222.222
222.97	200.000
223.34	268.750
223.72	-1550.000
224.09	1166.667
224.46	292.308
224.84	-750.000
225.21	411.111
225.59	213.333
225.96	1066.667
226.34	-600.000
226.71	-600.000
227.08	-520.000
227.46	0.000
227.83	-416.667
228.21	-1550.000
228.58	416.667
228.95	1025.000
229.33	333.333
229.70	925.000
230.08	361.538
230.45	1900.000
230.82	-775.000
231.20	-833.333
231.57	-800.000
231.95	620.000
232.32	250.000
232.69	566.667
233.07	333.333
233.44	-1550.000
233.81	306.667
234.19	133.333
234.56	212.500
234.93	164.706
235.31	145.000
235.68	281.250
236.05	178.571
236.43	177.778
236.80	235.714
237.17	168.966
237.55	125.000
237.92	122.500
238.29	124.242
238.67	150.000
239.04	112.195
239.41	87.500
239.79	112.500
240.16	95.833
240.53	83.607
240.91	57.971
241.28	93.220
241.65	93.939
242.02	84.507
242.40	80.000
242.77	63.736
243.14	74.684
243.51	65.657
243.89	56.075
244.26	61.682
244.63	70.297
245.00	62.385
245.38	54.237
245.75	59.848
246.12	60.000
246.49	59.574
246.87	58.197
247.24	49.333
247.61	55.000
247.98	51.020
248.36	44.848
248.73	55.612
249.10	44.643
249.47	51.000
249.84	49.751
250.22	48.649
250.59	50.000
250.96	45.148
251.33	44.186
251.70	48.661
252.08	47.059
252.45	41.833
252.82	42.586
253.19	39.921
253.56	43.462
253.94	42.754
254.31	45.349
254.68	39.721
255.05	47.586
255.42	42.336
255.79	42.020
256.16	38.305
256.54	42.532
256.91	38.235
257.28	44.147
257.65	38.558
258.02	40.413
258.39	40.115
258.76	43.768
259.14	38.857
259.51	41.983
259.88	43.161
260.25	36.813
260.62	37.808
260.99	37.466
261.36	40.669
261.73	39.362
262.10	39.267
262.47	38.250
262.85	36.533
263.22	39.332
263.59	39.642
263.96	36.842
264.33	36.790
264.70	40.786
265.07	38.537
265.44	37.615
265.81	39.151
266.18	38.902
266.55	39.243
266.92	36.018
267.29	39.693
267.66	37.892
268.03	38.789
268.40	35.729
268.77	38.326
269.14	38.395
269.51	36.080
269.88	38.776
270.25	34.557
270.62	36.052
270.99	37.525
271.36	35.772
271.73	37.526
272.10	35.758
272.47	35.913
272.84	33.733
273.21	38.017
273.58	39.474
273.95	38.193
274.32	34.241
274.69	37.402
275.06	34.791
275.43	35.441
275.80	35.660
276.17	36.397
276.54	34.766
276.91	36.754
277.28	36.679
277.65	34.317
278.02	36.581
278.39	36.691
278.76	35.345
279.13	33.808
279.50	34.727
279.87	35.382
280.23	32.597
280.60	34.489
280.97	34.310
281.34	33.993
281.71	34.087
282.08	36.068
282.45	32.939
282.82	34.281
283.19	32.591
283.56	33.223
283.92	34.528
284.29	33.278
284.66	33.445
285.03	34.163
285.40	33.058
285.77	32.253
286.14	33.282
286.51	33.282
286.87	31.013
287.24	31.231
287.61	31.459
287.98	31.343
288.35	31.704
288.72	29.742
289.08	31.381
289.45	31.250
289.82	32.500
290.19	28.404
290.56	32.897
290.93	29.640
291.29	29.282
291.66	30.085
292.03	29.173
292.40	30.488
292.77	27.994
293.13	28.388
293.50	27.126
293.87	27.913
294.24	27.692
294.60	30.283
294.97	28.252
295.34	27.756
295.71	26.807
296.08	27.600
296.44	27.700
296.81	26.799
297.18	24.715
297.55	25.616
297.91	24.631
298.28	25.966
298.65	27.239
299.02	25.211
299.38	26.139
299.75	24.390
300.12	26.147
300.48	26.464
300.85	23.838
301.22	24.535
301.59	26.415
301.95	23.687
302.32	24.214
302.69	24.774
303.05	25.253
303.42	23.430
303.79	25.027
304.15	23.432
304.52	23.890
304.89	24.627
305.25	25.139
305.62	24.627
305.99	23.370
306.35	25.474
306.72	23.309
307.09	22.464
307.45	22.175
307.82	22.840
308.19	23.402
308.55	23.600
308.92	23.454
309.29	24.063
309.65	22.597
310.02	22.921
310.38	23.131
310.75	21.890
311.12	22.701
311.48	24.131
311.85	22.805
312.22	22.063
312.58	23.324
312.95	22.621
313.31	23.315
313.68	22.514
314.05	23.168
314.41	22.346
314.78	22.443
315.14	22.464
315.51	22.990
315.87	21.624
316.24	22.316
316.61	22.023
316.97	22.294
317.34	23.360
317.70	23.354
318.07	23.843
318.43	22.935
318.80	23.030
319.16	23.951
319.53	22.301
319.89	21.505
320.26	24.395
320.62	23.168
320.99	23.642
321.35	22.542
321.72	22.960
322.08	23.453
322.45	22.434
322.81	22.598
323.18	23.890
323.54	23.606
323.91	24.388
324.27	23.961
324.64	22.145
325.00	24.310
325.37	24.115
325.73	23.946
326.10	25.021
326.46	24.773
326.83	23.440
327.19	23.373
327.56	23.243
327.92	24.262
328.29	24.386
328.65	24.229
329.01	24.551
329.38	25.635
329.74	24.167
330.11	24.674
330.47	24.126
330.84	23.986
331.20	24.535
331.56	25.216
331.93	24.380
332.29	22.789
332.66	24.405
333.02	23.282
333.38	23.037
333.75	24.187
334.11	24.413
334.48	23.333
334.84	23.818
335.20	24.551
335.57	23.510
335.93	24.727
336.29	23.798
336.66	24.271
337.02	22.754
337.38	23.474
337.75	24.155
338.11	23.713
338.47	23.793
338.84	22.100
339.20	22.165
339.56	22.456
339.93	23.746
340.29	22.521
340.65	23.806
341.02	23.894
341.38	23.974
341.74	21.678
342.11	22.454
342.47	21.657
342.83	23.954
343.20	22.555
343.56	20.810
343.92	22.956
344.28	21.611
344.65	22.168
345.01	22.619
345.37	22.035
345.73	22.857
346.10	22.470
346.46	22.488
346.82	21.836
347.19	22.025
347.55	21.780
347.91	21.299
348.27	22.076
348.63	22.073
349.00	22.239
349.36	22.412
349.72	21.789
350.08	22.826
350.45	22.391
350.81	21.560
351.17	22.881
351.53	22.248
351.89	20.824
352.26	22.525
352.62	21.946
352.98	22.469
353.34	22.111
353.70	22.401
354.07	21.462
354.43	21.736
354.79	21.868
355.15	21.286
355.51	22.205
355.87	22.214
356.24	21.863
356.60	21.309
356.96	21.986
357.32	22.005
357.68	21.072
358.04	20.821
358.40	22.564
358.77	20.361
359.13	20.495
359.49	21.572
359.85	21.072
360.21	21.174
360.57	21.022
360.93	20.851
361.29	21.356
361.66	21.551
362.02	21.094
362.38	20.924
362.74	20.453
363.10	20.968
363.46	20.925
363.82	21.248
364.18	22.191
364.54	21.745
364.90	20.482
365.26	21.374
365.62	20.718
365.98	19.546
366.35	20.690
366.71	21.374
367.07	20.751
367.43	21.021
367.79	20.612
368.15	20.014
368.51	21.227
368.87	19.973
369.23	20.721
369.59	20.229
369.95	20.909
370.31	19.986
370.67	20.125
371.03	21.779
371.39	21.191
371.75	20.865
372.11	20.938
372.47	20.890
372.83	20.258
373.19	20.905
373.55	21.168
373.91	19.337
374.27	20.106
374.63	22.169
374.99	19.946
375.35	20.296
375.71	20.910
376.07	20.292
376.42	19.246
376.78	20.873
377.14	21.101
377.50	20.412
377.86	20.820
378.22	19.805
378.58	20.763
378.94	19.855
379.30	19.588
379.66	20.951
380.02	20.762
380.38	19.965
380.74	20.588
381.09	20.502
381.45	20.058
381.81	19.267
382.17	20.147
382.53	19.796
382.89	20.639
383.25	20.485
383.61	20.231
383.97	20.456
384.32	20.133
384.68	20.618
385.04	20.457
385.40	20.759
385.76	19.836
386.12	21.027
386.48	19.757
386.83	19.988
387.19	20.436
387.55	20.141
387.91	20.266
388.27	19.215
388.62	19.601
388.98	19.534
389.34	19.036
389.70	19.811
390.06	20.671
390.42	19.432
390.77	20.209
391.13	20.278
391.49	20.085
391.85	20.492
392.20	20.083
392.56	20.191
392.92	19.652
393.28	19.731
393.64	19.667
393.99	19.324
394.35	19.011
394.71	19.542
395.07	20.377
395.42	20.433
395.78	20.173
396.14	20.663
396.50	19.795
396.85	20.183
397.21	20.277
397.57	20.502
397.92	19.526
398.28	19.305
398.64	20.070
399.00	19.401
399.35	19.055
399.71	20.088
400.07	19.920
400.42	19.463
400.78	19.531
401.14	20.023
401.49	19.585
401.85	20.568
402.21	19.391
402.57	20.407
402.92	19.394
403.28	19.391
403.63	19.423
403.99	19.662
404.35	20.574
404.70	20.142
405.06	19.147
405.42	19.150
405.77	19.019
406.13	18.872
406.49	19.500
406.84	19.571
407.20	19.920
407.55	19.754
407.91	20.166
408.27	19.588
408.62	20.520
408.98	19.101
409.34	18.469
409.69	19.353
410.05	19.439
410.40	19.611
410.76	19.176
411.11	18.898
411.47	20.062
411.83	19.742
412.18	19.082
412.54	20.240
412.89	18.997
413.25	19.897
413.60	19.334
413.96	19.689
414.31	19.481
414.67	20.050
415.03	18.838
415.38	19.748
415.74	19.583
416.09	20.112
416.45	20.039
416.80	20.398
417.16	19.351
417.51	20.064
417.87	19.462
418.22	19.988
418.58	20.446
418.93	18.798
419.29	19.655
419.64	19.564
420.00	19.630
420.35	18.990
420.71	18.845
421.06	18.776
421.42	18.653
421.77	19.267
422.12	19.019
422.48	18.850
422.83	19.141
423.19	19.384
423.54	18.651
423.90	19.479
424.25	19.538
424.61	20.081
424.96	18.408
425.31	19.102
425.67	19.529
426.02	19.125
426.38	17.911
426.73	19.260
427.09	19.276
427.44	19.471
427.79	19.668
428.15	19.564
428.50	20.400
428.85	19.636
429.21	19.665
429.56	18.843
429.92	19.741
430.27	18.433
430.62	18.796
430.98	19.361
431.33	19.002
431.68	18.864
432.04	18.572
432.39	19.539
432.74	19.672
433.10	19.712
433.45	19.299
433.80	19.912
434.16	18.760
434.51	18.679
434.86	20.033
435.22	18.314
435.57	19.917
435.92	19.863
436.28	20.565
436.63	18.909
436.98	19.876
437.34	20.263
437.69	18.869
438.04	20.054
438.39	19.848
438.75	19.376
439.10	19.428
439.45	19.107
439.81	19.780
440.16	19.152
440.51	19.989
440.86	20.399
441.22	19.210
441.57	19.790
441.92	19.398
442.27	20.052
442.63	19.157
442.98	19.181
443.33	18.907
443.68	19.064
444.03	19.227
444.39	19.868
444.74	19.099
445.09	18.905
445.44	19.979
445.79	19.347
446.15	19.632
446.50	19.989
446.85	19.721
447.20	19.055
447.55	19.032
447.91	20.565
448.26	19.329
448.61	19.790
448.96	19.662
449.31	19.472
449.66	20.875
450.02	19.071
450.37	20.489
450.72	20.275
451.07	19.604
451.42	20.628
451.77	20.218
452.12	20.760
452.47	21.081
452.83	19.662
453.18	20.961
453.53	20.722
453.88	21.086
454.23	19.756
454.58	20.047
454.93	20.356
455.28	20.624
455.63	20.035
455.98	20.474
456.34	20.973
456.69	20.305
457.04	20.704
457.39	20.000
457.74	20.946
458.09	19.764
458.44	20.427
458.79	20.424
459.14	19.531
459.49	20.612
459.84	20.761
460.19	20.621
460.54	20.513
460.89	19.989
461.24	19.989
461.59	21.145
461.94	20.390
462.29	20.995
462.64	20.603
462.99	20.857
463.34	21.322
463.69	22.021
464.04	20.495
464.39	20.778
464.74	19.930
465.09	20.197
465.44	19.478
465.79	20.196
466.14	19.661
466.49	20.998
466.84	19.677
467.19	19.801
467.54	20.240
467.89	21.185
468.24	20.903
468.59	20.357
468.94	20.592
469.29	21.564
469.64	21.479
469.99	21.272
470.34	19.987
470.68	21.379
471.03	22.081
471.38	21.126
471.73	21.750
472.08	21.787
472.43	21.664
472.78	22.343
473.13	20.901
473.48	20.844
473.83	21.614
474.17	21.277
474.52	21.386
474.87	20.409
475.22	21.302
475.57	20.672
475.92	19.724
476.27	20.185
476.61	20.912
476.96	20.794
477.31	20.411
477.66	21.471
478.01	20.681
478.36	20.494
478.70	20.099
479.05	19.456
479.40	20.784
479.75	21.053
480.10	21.394
480.45	20.495
480.79	20.599
481.14	20.162
481.49	20.128
481.84	19.305
482.19	20.786
482.53	20.905
482.88	20.923
483.23	21.155
483.58	20.826
483.92	21.069
484.27	20.377
484.62	20.331
484.97	20.179
485.31	19.777
485.66	18.661
486.01	17.820
486.36	17.570
486.70	17.590
487.05	18.213
487.40	18.162
487.75	18.594
488.09	19.148
488.44	19.535
488.79	19.229
489.13	20.306
489.48	20.336
489.83	20.142
490.17	19.860
490.52	20.413
490.87	20.603
491.22	20.922
491.56	21.124
491.91	19.713
492.26	20.713
492.60	20.774
492.95	21.160
493.30	21.065
493.64	21.384
493.99	21.288
494.34	21.291
494.68	21.027
495.03	21.150
495.37	21.792
495.72	21.678
496.07	21.249
496.41	21.069
496.76	20.853
497.11	21.251
497.45	21.613
497.80	21.223
498.14	21.914
498.49	22.145
498.84	21.776
499.18	20.795
499.53	21.314
499.87	21.563
500.22	22.064
500.56	21.495
500.91	21.892
501.26	21.957
501.60	22.177
501.95	20.744
502.29	21.289
502.64	21.217
502.98	21.120
503.33	21.470
503.67	21.148
504.02	20.869
504.36	21.312
504.71	21.807
505.06	21.258
505.40	21.619
505.75	21.282
506.09	22.259
506.44	21.945
506.78	22.164
507.13	21.861
507.47	21.931
507.82	22.774
508.16	21.852
508.51	22.077
508.85	21.747
509.19	21.977
509.54	22.461
509.88	22.924
510.23	21.765
510.57	20.753
510.92	21.429
511.26	22.289
511.61	21.516
511.95	22.101
512.30	22.200
512.64	22.274
512.98	23.270
513.33	23.207
513.67	23.045
514.02	22.078
514.36	23.105
514.70	23.147
515.05	21.897
515.39	22.971
515.74	23.619
516.08	22.767
516.42	23.607
516.77	23.840
517.11	23.360
517.46	22.522
517.80	22.993
518.14	24.056
518.49	23.539
518.83	22.582
519.17	23.627
519.52	23.375
519.86	23.978
520.20	23.836
520.55	23.177
520.89	23.563
521.23	23.832
521.58	23.465
521.92	23.557
522.26	23.874
522.61	24.718
522.95	24.444
523.29	24.094
523.64	22.486
523.98	24.178
524.32	24.394
524.66	24.116
525.01	23.432
525.35	24.042
525.69	24.985
526.04	24.033
526.38	24.662
526.72	23.628
527.06	23.655
527.41	24.547
527.75	23.615
528.09	23.721
528.43	24.161
528.78	24.150
529.12	25.406
529.46	23.846
529.80	24.416
530.15	23.512
530.49	23.406
530.83	24.071
531.17	24.354
531.51	24.770
531.86	24.034
532.20	23.980
532.54	24.608
532.88	24.297
533.22	23.461
533.57	24.222
533.91	22.611
534.25	23.485
534.59	23.977
534.93	23.606
535.27	23.108
535.62	23.337
535.96	22.636
536.30	24.132
536.64	23.292
536.98	23.537
537.32	25.188
537.66	23.597
538.01	24.520
538.35	24.080
538.69	22.633
539.03	24.129
539.37	23.240
539.71	24.753
540.05	23.877
540.39	23.962
540.73	24.494
541.07	23.463
541.42	24.129
541.76	23.921
542.10	23.613
542.44	24.002
542.78	22.656
543.12	23.497
543.46	23.246
543.80	23.997
544.14	24.025
544.48	23.540
544.82	23.303
545.16	22.829
545.50	23.540
545.84	23.422
546.18	24.512
546.52	24.066
546.86	24.694
547.20	23.837
547.54	23.813
547.88	23.297
548.22	23.497
548.56	22.746
548.90	22.598
549.24	24.131
549.58	23.131
549.92	23.903
550.26	24.070
550.60	23.952
550.94	24.220
551.28	25.379
551.62	25.793
551.96	24.392
552.30	23.336
552.64	22.977
552.98	22.229
553.32	24.072
553.66	24.365
554.00	23.745
554.34	24.700
554.68	24.395
555.02	24.576
555.36	23.471
555.69	23.560
556.03	24.013
556.37	22.945
556.71	24.967
557.05	23.132
557.39	24.200
557.73	24.461
558.07	24.145
558.41	25.017
558.75	25.376
559.08	26.233
559.42	25.555
559.76	24.804
560.10	23.950
560.44	23.889
560.78	24.041
561.12	25.175
561.45	22.528
561.79	23.533
562.13	23.437
562.47	23.881
562.81	23.943
563.15	24.047
563.48	23.106
563.82	24.766
564.16	24.005
564.50	23.810
564.84	23.769
565.17	22.876
565.51	24.138
565.85	23.874
566.19	23.750
566.52	22.383
566.86	23.059
567.20	23.539
567.54	22.489
567.88	23.370
568.21	21.518
568.55	21.984
568.89	21.989
569.23	20.751
569.56	21.446
569.90	20.517
570.24	19.727
570.57	20.019
570.91	19.407
571.25	19.365
571.59	18.049
571.92	18.326
572.26	18.491
572.60	18.467
572.93	19.206
573.27	18.323
573.61	18.517
573.95	18.252
574.28	18.153
574.62	17.955
574.96	17.586
575.29	17.953
575.63	17.220
575.97	17.746
576.30	18.122
576.64	17.855
576.98	17.506
577.31	17.760
577.65	17.472
577.98	17.606
578.32	16.726
578.66	17.399
578.99	17.495
579.33	17.659
579.67	17.771
580.00	17.588
580.34	17.278
580.67	17.427
581.01	17.819
581.35	17.094
581.68	16.691
582.02	16.739
582.35	17.015
582.69	17.221
583.02	17.255
583.36	17.359
583.70	17.800
584.03	18.469
584.37	18.122
584.70	17.467
585.04	17.369
585.37	17.178
585.71	17.528
586.04	17.522
586.38	17.477
586.72	18.404
587.05	17.885
587.39	17.851
587.72	18.029
588.06	17.730
588.39	17.528
588.73	17.815
589.06	18.413
589.40	19.656
589.73	18.945
590.07	19.835
590.40	19.024
590.73	20.125
591.07	19.734
591.40	19.641
591.74	20.292
592.07	19.093
592.41	19.384
592.74	19.041
593.08	18.424
593.41	17.923
593.75	18.448
594.08	18.540
594.41	18.573
594.75	18.870
595.08	19.033
595.42	18.532
595.75	18.756
596.09	19.152
596.42	19.119
596.75	19.992
597.09	20.305
597.42	19.959
597.75	19.229
598.09	20.148
598.42	19.298
598.76	19.584
599.09	18.794
599.42	18.858
599.76	18.657
600.09	18.475
600.42	18.646
600.76	18.865
601.09	18.674
601.42	19.113
601.76	18.654
602.09	19.463
602.42	18.965
602.76	18.975
603.09	18.891
603.42	19.633
603.76	19.270
604.09	18.603
604.42	18.832
604.76	19.439
605.09	19.796
605.42	19.951
605.75	19.582
606.09	19.434
606.42	19.429
606.75	19.433
607.09	19.937
607.42	18.722
607.75	19.068
608.08	18.928
608.42	19.631
608.75	19.555
609.08	20.018
609.41	20.545
609.75	19.963
610.08	20.369
610.41	19.895
610.74	20.216
611.07	19.554
611.41	20.204
611.74	20.985
612.07	20.713
612.40	20.273
612.73	20.519
613.07	20.679
613.40	21.153
613.73	20.719
614.06	19.950
614.39	20.960
614.72	20.794
615.06	19.881
615.39	20.545
615.72	20.039
616.05	20.342
616.38	20.649
616.71	21.595
617.05	21.197
617.38	20.618
617.71	22.160
618.04	20.976
618.37	21.679
618.70	21.651
619.03	21.551
619.36	22.425
619.69	22.098
620.03	23.679
620.36	21.901
620.69	23.180
621.02	22.826
621.35	23.281
621.68	23.304
622.01	23.616
622.34	22.870
622.67	23.244
623.00	23.962
623.33	22.740
623.66	22.621
623.99	24.521
624.32	23.171
624.65	23.041
624.99	22.650
625.32	22.979
625.65	21.655
625.98	22.106
626.31	23.591
626.64	22.399
626.97	23.412
627.30	23.991
627.63	24.804
627.96	23.396
628.29	23.927
628.62	24.038
628.95	25.532
629.28	26.643
629.61	24.956
629.94	25.497
630.26	26.516
630.59	26.330
630.92	24.664
631.25	26.020
631.58	26.519
631.91	25.690
632.24	25.559
632.57	25.835
632.90	27.743
633.23	27.912
633.56	26.133
633.89	27.867
634.22	28.956
634.55	26.452
634.88	28.478
635.20	28.475
635.53	29.036
635.86	27.069
636.19	28.844
636.52	26.162
636.85	25.998
637.18	28.927
637.51	26.145
637.83	25.629
638.16	28.722
638.49	27.665
638.82	29.108
639.15	27.967
639.48	28.673
639.81	28.694
640.13	28.834
640.46	29.583
640.79	28.739
641.12	27.953
641.45	29.625
641.77	31.044
642.10	28.514
642.43	29.872
642.76	30.114
643.09	30.836
643.41	30.435
643.74	30.791
644.07	31.858
644.40	29.882
644.73	30.931
645.05	31.352
645.38	32.006
645.71	30.804
646.04	32.061
646.36	31.925
646.69	29.280
647.02	34.880
647.35	31.181
647.67	30.794
648.00	31.270
648.33	31.579
648.66	31.364
648.98	28.261
649.31	28.475
649.64	27.109
649.96	27.454
650.29	28.286
650.62	29.897
650.94	30.120
651.27	32.217
651.60	31.142
651.92	30.568
652.25	32.598
652.58	26.809
652.90	29.940
653.23	30.133
653.56	29.377
653.88	28.928
654.21	28.446
654.54	30.161
654.86	29.204
655.19	28.892
655.52	21.635
655.84	14.459
656.17	15.429
656.49	22.709
656.82	26.012
657.15	21.108
657.47	15.677
657.80	11.501
658.13	9.237
658.45	12.888
658.78	15.459
659.10	15.831
659.43	16.851
659.75	17.616
660.08	19.925
660.41	23.593
660.73	26.349
661.06	28.979
661.38	32.027
661.71	32.014
662.03	31.939
662.36	32.381
662.68	33.706
663.01	32.613
663.33	29.623
663.66	33.531
663.98	31.349
664.31	33.022
664.63	35.441
664.96	32.645
665.28	29.944
665.61	30.377
665.93	31.321
666.26	34.393
666.58	33.028
666.91	33.205
667.23	30.924
667.56	34.497
667.88	35.477
668.21	33.811
668.53	34.274
668.86	36.072
669.18	32.383
669.50	32.851
669.83	33.470
670.15	33.680
670.48	29.492
670.80	32.869
671.13	31.873
671.45	36.673
671.77	31.540
672.10	31.059
672.42	30.592
672.75	30.696
673.07	27.981
673.39	28.594
673.72	30.796
674.04	30.824
674.37	31.397
674.69	32.342
675.01	29.851
675.34	31.008
675.66	34.180
675.98	32.742
676.31	31.600
676.63	33.996
676.95	31.944
677.28	31.034
677.60	32.797
677.92	30.159
678.25	32.171
678.57	30.540
678.89	32.188
679.22	31.618
679.54	27.758
679.86	29.668
680.18	30.404
680.51	26.866
680.83	28.378
681.15	29.983
681.48	30.035
681.80	29.947
682.12	29.585
682.44	27.928
682.77	30.071
683.09	29.515
683.41	35.102
683.73	31.102
684.06	29.960
684.38	30.814
684.70	30.755
685.02	29.688
685.34	29.577
685.67	28.296
685.99	28.407
686.31	26.810
686.63	27.642
686.96	28.595
687.28	29.698
687.60	26.280
687.92	27.471
688.24	31.379
688.56	28.114
688.89	28.489
689.21	28.324
689.53	31.225
689.85	30.894
690.17	32.427
690.49	32.258
690.82	31.092
691.14	32.525
691.46	35.729
691.78	31.384
692.10	31.107
692.42	28.494
692.74	29.845
693.06	30.039
693.39	28.854
693.71	28.094
694.03	33.136
694.35	32.731
694.67	27.495
694.99	33.703
695.31	32.207
695.63	31.900
695.95	29.186
696.27	31.637
696.59	32.697
696.91	30.380
697.23	28.959
697.56	28.008
697.88	25.349
698.20	28.868
698.52	28.988
698.84	31.828
699.16	30.704
699.48	28.814
699.80	33.115
700.12	31.640
700.44	29.673
700.76	32.220
701.08	35.509
701.40	35.065
701.72	37.701
702.04	31.436
702.36	36.559
702.68	37.500
703.00	33.083
703.32	34.243
703.64	32.746
703.96	32.031
704.28	31.217
704.60	35.211
704.91	29.132
705.23	35.227
705.55	36.202
705.87	35.238
706.19	33.542
706.51	40.439
706.83	38.643
707.15	35.027
707.47	32.930
707.79	29.885
708.11	28.571
708.43	33.708
708.74	29.412
709.06	30.698
709.38	32.754
709.70	32.153
710.02	30.978
710.34	32.873
710.66	33.333
710.98	36.612
711.29	32.869
711.61	33.705
711.93	36.474
712.25	33.133
712.57	31.833
712.89	35.758
713.20	35.463
713.52	32.710
713.84	32.931
714.16	31.594
714.48	28.530
714.80	33.333
715.11	34.840
715.43	34.637
715.75	32.958
716.07	32.081
716.39	32.000
716.70	33.022
717.02	32.997
717.34	38.129
717.66	41.319
717.97	44.318
718.29	38.028
718.61	30.405
718.93	38.754
719.24	33.221
719.56	36.552
719.88	33.121
720.20	34.516
720.51	31.373
720.83	35.452
721.15	35.374
721.46	36.986
721.78	35.540
722.10	40.625
722.42	39.130
722.73	32.130
723.05	38.947
723.37	40.283
723.68	37.109
724.00	35.606
724.32	41.825
724.63	35.769
724.95	34.118
725.27	35.316
725.58	36.397
725.90	36.268
726.22	34.589
726.53	35.452
726.85	35.505
727.16	35.906
727.48	34.219
727.80	40.288
728.11	35.357
728.43	32.609
728.74	35.664
729.06	29.032
729.38	34.386
729.69	38.333
730.01	34.868
730.32	34.228
730.64	37.874
730.96	36.036
731.27	28.440
731.59	31.322
731.90	29.248
732.22	30.571
732.53	25.356
732.85	30.994
733.16	31.325
733.48	31.661
733.80	30.435
734.11	33.742
734.43	30.994
734.74	27.882
735.06	30.688
735.37	28.351
735.69	28.986
736.00	33.945
736.32	29.091
736.63	27.445
736.95	30.124
737.26	31.402
737.58	31.902
737.89	29.217
738.21	32.781
738.52	34.114
738.83	32.967
739.15	33.449
739.46	34.483
739.78	35.034
740.09	36.443
740.41	32.209
740.72	30.794
741.04	37.063
741.35	33.984
741.66	33.992
741.98	36.052
742.29	39.352
742.61	36.283
742.92	37.288
743.23	36.800
743.55	33.208
743.86	34.118
744.18	36.441
744.49	38.843
744.80	37.788
745.12	35.268
745.43	44.393
745.74	38.667
746.06	30.702
746.37	40.465
746.68	41.150
747.00	33.184
747.31	36.555
747.62	30.328
747.94	36.052
748.25	36.576
748.56	40.254
748.88	42.857
749.19	34.884
749.50	36.530
749.82	39.095
750.13	33.597
750.44	32.000
750.75	33.557
751.07	35.197
751.38	30.033
751.69	35.354
752.01	33.916
752.32	31.894
752.63	34.564
752.94	31.119
753.26	33.984
753.57	35.798
753.88	31.835
754.19	33.574
754.51	29.900
754.82	30.201
755.13	32.095
755.44	31.111
755.75	35.052
756.07	36.301
756.38	28.431
756.69	32.813
757.00	35.905
757.31	32.394
757.63	28.650
757.94	25.266
758.25	28.019
758.56	26.316
758.87	29.574
759.18	29.070
759.50	28.875
759.81	31.454
760.12	26.124
760.43	28.852
760.74	29.114
761.05	27.056
761.36	25.781
761.67	29.111
761.99	28.169
762.30	28.296
762.61	32.292
762.92	34.848
763.23	32.830
763.54	32.308
763.85	29.572
764.16	32.986
764.47	27.365
764.78	29.967
765.10	32.012
765.41	27.557
765.72	29.834
766.03	26.284
766.34	29.268
766.65	31.939
766.96	33.198
767.27	40.187
767.58	37.624
767.89	40.331
768.20	48.171
768.51	36.224
768.82	36.842
769.13	32.157
769.44	33.835
769.75	33.333
770.06	32.773
770.37	31.579
770.68	32.444
770.99	37.712
771.30	33.054
771.61	31.538
771.92	33.206
772.23	31.452
772.54	40.000
772.85	42.079
773.16	33.696
773.47	33.333
773.78	39.109
774.09	41.477
774.39	43.636
774.70	34.706
775.01	38.158
775.32	42.236
775.63	41.096
775.94	41.975
776.25	51.724
776.56	53.435
776.87	47.328
777.18	39.394
777.48	53.543
777.79	47.692
778.10	50.758
778.41	50.000
778.72	45.865
779.03	36.538
779.34	34.459
779.65	39.752
779.95	34.161
780.26	44.048
780.57	49.660
780.88	54.610
781.19	48.333
781.50	42.604
781.80	37.705
782.11	39.153
782.42	31.609
782.73	40.113
783.04	38.065
783.34	42.636
783.65	39.456
783.96	42.581
784.27	41.722
784.57	36.842
784.88	45.652
785.19	45.833
785.50	48.276
785.81	54.264
786.11	48.889
786.42	43.307
786.73	45.045
787.04	41.509
787.34	47.967
787.65	43.939
787.96	54.545
788.26	45.669
788.57	45.985
788.88	40.141
789.19	45.038
789.49	45.270
789.80	50.000
790.11	42.149
790.41	45.370
790.72	34.259
791.03	57.692
791.33	57.576
791.64	62.105
791.95	48.421
792.25	54.167
792.56	58.000
792.87	65.854
793.17	55.682
793.48	50.588
793.79	55.172
794.09	61.364
794.40	59.483
794.70	46.825
795.01	35.385
795.32	39.695
795.62	37.607
795.93	44.538
796.23	48.780
796.54	48.980
796.85	61.364
797.15	68.831
797.46	59.756
797.76	57.500
798.07	61.333
798.37	57.500
798.68	71.250
798.99	73.171
799.29	73.333
799.60	50.000
799.90	56.579
800.21	71.212
800.51	63.380
800.82	67.241
801.12	67.692
801.43	74.667
801.73	67.241
802.04	59.740
802.34	69.863
802.65	101.961
802.95	84.783
803.26	91.935
803.56	91.667
803.87	86.567
804.17	63.492
804.48	84.906
804.78	68.056
805.09	72.727
805.39	76.190
805.70	84.211
806.00	64.286
806.30	67.188
806.61	52.941
806.91	60.000
807.22	44.565
807.52	48.684
807.83	82.895
808.13	72.464
808.43	85.484
808.74	52.055
809.04	82.143
809.35	58.824
809.65	75.758
809.95	92.157
810.26	101.852
810.56	75.000
810.86	65.306
811.17	77.193
811.47	69.565
811.77	77.586
812.08	74.138
812.38	90.476
812.69	90.476
812.99	95.556
813.29	117.143
813.59	129.032
813.90	67.241
814.20	90.164
814.50	70.000
814.81	56.140
815.11	87.037
815.41	91.071
815.72	75.000
816.02	88.000
816.32	107.317
816.62	82.759
816.93	130.303
817.23	114.634
817.53	89.286
817.84	66.667
818.14	92.857
818.44	93.750
818.74	69.811
819.04	74.359
819.35	118.182
819.65	90.385
819.95	101.852
820.25	108.511
820.56	118.919
820.86	97.368
821.16	70.213
821.46	113.158
821.76	83.636
822.07	80.952
822.37	105.263
822.67	97.674
822.97	63.158
823.27	108.696
823.57	121.875
823.88	102.564
824.18	124.242
824.48	147.826
824.78	113.889
825.08	191.304
825.38	144.828
825.69	100.000
825.99	112.766
826.29	75.000
826.59	108.571
826.89	140.000
827.19	91.429
827.49	119.355
827.79	134.615
828.09	95.238
828.39	94.444
828.70	75.676
829.00	110.714
829.30	156.250
829.60	116.667
829.90	109.677
830.20	93.939
830.50	148.649
830.80	162.500
831.10	161.538
831.40	157.143
831.70	183.333
832.00	143.333
832.30	165.217
832.60	179.167
832.90	115.152
833.20	215.000
833.50	118.421
833.80	108.824
834.10	84.211
834.40	131.579
834.70	100.000
835.00	188.000
835.30	110.811
835.60	128.125
835.90	108.108
836.20	157.692
836.50	136.364
836.80	117.073
837.10	108.696
837.40	330.769
837.70	147.368
838.00	140.000
838.30	158.333
838.60	180.000
838.90	280.000
839.19	150.000
839.49	146.667
839.79	120.690
840.09	157.692
840.39	200.000
840.69	189.474
840.99	104.762
841.29	169.565
841.59	175.000
841.88	144.000
842.18	311.111
842.48	114.286
842.78	151.852
843.08	161.538
843.38	168.182
843.68	221.429
843.97	428.571
844.27	160.870
844.57	1550.000
844.87	264.286
845.17	183.333
845.47	147.619
845.76	150.000
846.06	571.429
846.36	170.588
846.66	261.538
846.96	206.250
847.25	192.308
847.55	215.789
847.85	161.111
848.15	540.000
848.44	254.545
848.74	128.571
849.04	162.500
849.34	129.412
849.63	212.500
849.93	218.750
850.23	900.000
850.53	437.500
850.82	327.273
851.12	170.588
851.42	158.333
851.71	262.500
852.01	0.000
852.31	182.353
852.61	360.000
852.90	158.333
853.20	355.556
853.50	-2500.000
853.79	144.000
854.09	146.875
854.39	100.000
854.68	148.276
854.98	200.000
855.28	119.355
855.57	250.000
855.87	233.333
856.17	140.741
856.46	194.737
856.76	106.452
857.05	217.647
857.35	281.818
857.65	176.923
857.94	140.000
858.24	377.778
858.53	264.286
858.83	685.714
859.13	173.913
859.42	266.667
859.72	387.500
860.01	316.667
860.31	825.000
860.60	350.000
860.90	375.000
861.20	207.692
861.49	485.714
861.79	-3300.000
862.08	400.000
862.38	366.667
862.67	200.000
862.97	420.000
863.26	160.000
863.56	800.000
863.85	323.077
864.15	211.765
864.44	244.444
864.74	283.333
865.03	200.000
865.33	387.500
865.62	273.333
865.92	400.000
866.21	800.000
866.51	520.000
866.80	150.000
867.10	733.333
867.39	3000.000
867.69	520.000
867.98	850.000
868.27	166.667
868.57	300.000
868.86	875.000
869.16	161.905
869.45	3300.000
869.75	-516.667
870.04	825.000
870.33	540.000
870.63	337.500
870.92	205.882
871.22	725.000
871.51	314.286
871.80	266.667
872.10	338.462
>>>>>End Processed Spectral Data<<<<<
