SpectraSuite Data File
++++++++++++++++++++++++++++++++++++
Date: Tue May 12 17:15:50 PDT 2015
User: schluterlab
Dark Spectrum Present: Yes
Reference Spectrum Present: Yes
Number of Sampled Component Spectra: 1
Spectrometers: USB2E3373
Integration Time (usec): 3000 (USB2E3373)
Spectra Averaged: 3 (USB2E3373)
Boxcar Smoothing: 0 (USB2E3373)
Correct for Electrical Dark: No (USB2E3373)
Strobe/Lamp Enabled: No (USB2E3373)
Correct for Detector Non-linearity: No (USB2E3373)
Correct for Stray Light: No (USB2E3373)
Number of Pixels in Processed Spectrum: 2048
>>>>>Begin Processed Spectral Data<<<<<
178.53	0.000
178.91	-200.000
179.29	-700.000
179.67	-3200.000
180.04	-133.333
180.42	575.000
180.80	1700.000
181.18	0.000
181.56	-400.000
181.94	0.000
182.31	1366.667
182.69	-3600.000
183.07	485.714
183.45	-3700.000
183.83	-1900.000
184.20	300.000
184.58	571.429
184.96	-200.000
185.34	-275.000
185.72	1800.000
186.09	-725.000
186.47	-3800.000
186.85	866.667
187.23	720.000
187.61	2250.000
187.98	412.500
188.36	242.857
188.74	308.333
189.12	291.667
189.49	725.000
189.87	0.000
190.25	587.500
190.63	3700.000
191.00	-216.667
191.38	-3200.000
191.76	-775.000
192.14	487.500
192.51	-2700.000
192.89	1500.000
193.27	1066.667
193.65	-1266.667
194.02	-800.000
194.40	557.143
194.78	-164.286
195.15	233.333
195.53	-2500.000
195.91	-580.000
196.29	3500.000
196.66	243.750
197.04	550.000
197.42	-1350.000
197.79	650.000
198.17	308.333
198.55	0.000
198.92	500.000
199.30	1233.333
199.68	1600.000
200.05	733.333
200.43	-450.000
200.81	200.000
201.18	4100.000
201.56	283.333
201.94	-700.000
202.31	-412.500
202.69	-500.000
203.07	2600.000
203.44	-333.333
203.82	283.333
204.19	760.000
204.57	-1350.000
204.95	-725.000
205.32	-660.000
205.70	533.333
206.08	825.000
206.45	-800.000
206.83	400.000
207.20	221.053
207.58	233.333
207.96	680.000
208.33	0.000
208.71	600.000
209.08	700.000
209.46	-2600.000
209.84	-700.000
210.21	640.000
210.59	-520.000
210.96	283.333
211.34	-750.000
211.71	427.273
212.09	850.000
212.46	1300.000
212.84	-533.333
213.22	433.333
213.59	-3400.000
213.97	400.000
214.34	850.000
214.72	1033.333
215.09	1233.333
215.47	-3600.000
215.84	-330.000
216.22	-325.000
216.59	0.000
216.97	0.000
217.34	1600.000
217.72	-1350.000
218.09	933.333
218.47	450.000
218.84	900.000
219.22	1166.667
219.59	1100.000
219.97	571.429
220.34	377.778
220.72	1350.000
221.09	3400.000
221.47	241.667
221.84	1033.333
222.22	230.000
222.59	222.222
222.97	221.429
223.34	250.000
223.72	-1850.000
224.09	1200.000
224.46	246.154
224.84	-625.000
225.21	455.556
225.59	286.667
225.96	1333.333
226.34	-580.000
226.71	-1025.000
227.08	-740.000
227.46	0.000
227.83	-516.667
228.21	-1750.000
228.58	375.000
228.95	625.000
229.33	277.778
229.70	1000.000
230.08	369.231
230.45	3500.000
230.82	-875.000
231.20	-600.000
231.57	-1066.667
231.95	580.000
232.32	275.000
232.69	616.667
233.07	291.667
233.44	-1400.000
233.81	246.667
234.19	155.556
234.56	181.250
234.93	164.706
235.31	155.000
235.68	287.500
236.05	210.714
236.43	140.741
236.80	214.286
237.17	137.931
237.55	125.000
237.92	122.500
238.29	154.545
238.67	131.250
239.04	82.927
239.41	93.750
239.79	97.500
240.16	100.000
240.53	65.574
240.91	72.464
241.28	81.356
241.65	56.061
242.02	70.423
242.40	70.000
242.77	61.538
243.14	55.696
243.51	72.727
243.89	50.467
244.26	47.664
244.63	50.495
245.00	57.798
245.38	52.542
245.75	43.182
246.12	54.815
246.49	43.972
246.87	37.705
247.24	43.333
247.61	45.625
247.98	45.578
248.36	41.818
248.73	39.796
249.10	37.500
249.47	37.500
249.84	37.811
250.22	43.784
250.59	35.500
250.96	38.819
251.33	33.488
251.70	41.964
252.08	36.134
252.45	34.263
252.82	33.460
253.19	35.968
253.56	33.846
253.94	35.507
254.31	34.884
254.68	37.979
255.05	34.828
255.42	36.131
255.79	31.922
256.16	35.254
256.54	35.065
256.91	35.294
257.28	31.104
257.65	29.154
258.02	32.743
258.39	33.811
258.76	32.754
259.14	29.429
259.51	35.277
259.88	31.611
260.25	30.220
260.62	33.425
260.99	29.477
261.36	32.591
261.73	29.521
262.10	33.508
262.47	31.750
262.85	29.333
263.22	30.334
263.59	28.900
263.96	31.830
264.33	28.148
264.70	33.907
265.07	31.951
265.44	30.734
265.81	31.132
266.18	29.291
266.55	30.969
266.92	29.754
267.29	30.702
267.66	27.354
268.03	32.063
268.40	29.810
268.77	32.379
269.14	26.247
269.51	30.735
269.88	30.408
270.25	27.862
270.62	28.112
270.99	32.657
271.36	30.894
271.73	28.092
272.10	27.071
272.47	29.563
272.84	26.547
273.21	28.512
273.58	29.757
273.95	29.774
274.32	28.599
274.69	29.528
275.06	30.601
275.43	28.544
275.80	26.604
276.17	29.044
276.54	29.907
276.91	30.784
277.28	28.467
277.65	26.753
278.02	29.963
278.39	27.338
278.76	29.655
279.13	29.537
279.50	26.182
279.87	26.816
280.23	27.624
280.60	28.832
280.97	25.345
281.34	29.043
281.71	25.913
282.08	28.718
282.45	28.041
282.82	28.261
283.19	26.232
283.56	27.438
283.92	26.384
284.29	27.953
284.66	25.378
285.03	28.856
285.40	26.116
285.77	26.235
286.14	27.864
286.51	28.374
286.87	24.842
287.24	25.526
287.61	26.596
287.98	25.373
288.35	26.815
288.72	26.404
289.08	26.126
289.45	27.896
289.82	27.500
290.19	26.061
290.56	26.638
290.93	27.626
291.29	24.724
291.66	24.718
292.03	25.386
292.40	23.306
292.77	24.513
293.13	24.679
293.50	26.046
293.87	25.881
294.24	26.993
294.60	27.187
294.97	25.315
295.34	24.834
295.71	23.784
296.08	24.000
296.44	24.396
296.81	23.449
297.18	25.222
297.55	25.739
297.91	25.246
298.28	23.551
298.65	24.049
299.02	23.643
299.38	23.981
299.75	22.927
300.12	23.624
300.48	24.590
300.85	25.626
301.22	24.419
301.59	24.528
301.95	23.687
302.32	23.981
302.69	25.905
303.05	24.916
303.42	23.655
303.79	24.919
304.15	25.083
304.52	25.159
304.89	24.414
305.25	25.250
305.62	25.800
305.99	23.587
306.35	22.526
306.72	24.974
307.09	24.431
307.45	24.287
307.82	24.383
308.19	24.330
308.55	23.700
308.92	26.300
309.29	25.148
309.65	24.381
310.02	25.659
310.38	24.826
310.75	25.458
311.12	25.000
311.48	25.965
311.85	26.527
312.22	26.170
312.58	25.364
312.95	25.631
313.31	24.906
313.68	25.328
314.05	26.465
314.41	24.860
314.78	24.811
315.14	26.825
315.51	26.395
315.87	26.460
316.24	27.077
316.61	26.052
316.97	25.229
317.34	26.325
317.70	25.988
318.07	26.957
318.43	26.011
318.80	27.583
319.16	26.923
319.53	26.106
319.89	25.896
320.26	26.909
320.62	27.289
320.99	26.692
321.35	26.623
321.72	28.178
322.08	26.685
322.45	26.703
322.81	27.630
323.18	26.998
323.54	27.700
323.91	28.286
324.27	26.790
324.64	25.606
325.00	27.328
325.37	27.487
325.73	26.054
326.10	27.506
326.46	27.415
326.83	26.400
327.19	27.390
327.56	25.958
327.92	26.803
328.29	27.905
328.65	27.825
329.01	27.802
329.38	27.242
329.74	26.985
330.11	27.368
330.47	27.792
330.84	27.006
331.20	26.734
331.56	26.684
331.93	27.802
332.29	26.105
332.66	27.126
333.02	26.375
333.38	27.225
333.75	27.356
334.11	27.097
334.48	27.436
334.84	26.858
335.20	26.775
335.57	27.456
335.93	26.829
336.29	25.456
336.66	27.187
337.02	25.406
337.38	26.999
337.75	25.845
338.11	26.582
338.47	25.741
338.84	26.503
339.20	25.541
339.56	26.409
339.93	25.669
340.29	24.958
340.65	25.733
341.02	25.583
341.38	25.534
341.74	25.581
342.11	25.042
342.47	24.856
342.83	26.497
343.20	26.192
343.56	24.543
343.92	25.516
344.28	25.439
344.65	25.835
345.01	24.841
345.37	25.240
345.73	24.683
346.10	24.940
346.46	24.721
346.82	23.997
347.19	25.734
347.55	24.902
347.91	24.849
348.27	23.393
348.63	24.921
349.00	25.286
349.36	24.125
349.72	24.465
350.08	25.854
350.45	23.991
350.81	24.924
351.17	24.576
351.53	24.865
351.89	24.165
352.26	23.885
352.62	24.811
352.98	24.387
353.34	25.501
353.70	24.235
354.07	24.154
354.43	23.886
354.79	23.462
355.15	25.115
355.51	23.716
355.87	24.548
356.24	24.942
356.60	22.679
356.96	23.654
357.32	24.416
357.68	24.009
358.04	24.620
358.40	24.888
358.77	24.493
359.13	23.498
359.49	22.758
359.85	24.200
360.21	23.700
360.57	24.307
360.93	23.232
361.29	23.304
361.66	23.788
362.02	23.011
362.38	22.872
362.74	23.638
363.10	23.773
363.46	22.997
363.82	23.633
364.18	24.467
364.54	23.605
364.90	23.561
365.26	24.427
365.62	23.757
365.98	24.226
366.35	22.690
366.71	23.387
367.07	23.345
367.43	23.237
367.79	24.136
368.15	22.795
368.51	23.777
368.87	22.826
369.23	22.453
369.59	23.466
369.95	23.986
370.31	22.724
370.67	23.040
371.03	23.319
371.39	23.407
371.75	22.191
372.11	22.434
372.47	23.562
372.83	21.958
373.19	22.687
373.55	22.955
373.91	22.099
374.27	22.156
374.63	21.763
374.99	22.574
375.35	22.782
375.71	21.240
376.07	22.679
376.42	21.931
376.78	22.993
377.14	22.870
377.50	21.348
377.86	21.012
378.22	22.547
378.58	21.913
378.94	22.330
379.30	21.953
379.66	22.095
380.02	22.815
380.38	21.780
380.74	22.780
381.09	21.963
381.45	20.694
381.81	21.277
382.17	22.527
382.53	21.716
382.89	21.999
383.25	22.025
383.61	21.902
383.97	21.536
384.32	22.303
384.68	24.183
385.04	21.454
385.40	21.886
385.76	21.299
386.12	22.078
386.48	21.702
386.83	21.944
387.19	21.496
387.55	22.497
387.91	22.171
388.27	22.665
388.62	21.362
388.98	20.933
389.34	21.118
389.70	21.167
390.06	21.220
390.42	20.605
390.77	21.437
391.13	21.485
391.49	20.932
391.85	21.354
392.20	20.977
392.56	21.864
392.92	20.382
393.28	20.908
393.64	20.413
393.99	21.755
394.35	20.954
394.71	20.145
395.07	21.655
395.42	21.077
395.78	21.592
396.14	22.048
396.50	21.179
396.85	20.549
397.21	21.119
397.57	20.980
397.92	19.757
398.28	20.794
398.64	21.001
399.00	20.257
399.35	20.397
399.71	21.137
400.07	19.977
400.42	19.940
400.78	20.528
401.14	19.554
401.49	19.758
401.85	21.379
402.21	19.859
402.57	21.065
402.92	20.727
403.28	20.167
403.63	20.247
403.99	20.507
404.35	20.809
404.70	20.260
405.06	19.427
405.42	21.005
405.77	19.956
406.13	19.794
406.49	19.443
406.84	20.587
407.20	20.034
407.55	19.631
407.91	20.357
408.27	19.951
408.62	20.816
408.98	20.461
409.34	19.170
409.69	19.726
410.05	19.618
410.40	19.552
410.76	19.118
411.11	19.787
411.47	19.630
411.83	19.449
412.18	19.928
412.54	20.180
412.89	19.292
413.25	19.783
413.60	19.451
413.96	20.048
414.31	19.953
414.67	20.174
415.03	19.349
415.38	19.748
415.74	20.088
416.09	19.988
416.45	21.202
416.80	19.756
417.16	20.051
417.51	19.618
417.87	19.086
418.22	20.474
418.58	20.764
418.93	19.631
419.29	18.731
419.64	19.806
420.00	20.227
420.35	19.454
420.71	18.961
421.06	18.952
421.42	19.344
421.77	20.322
422.12	19.350
422.48	19.466
422.83	20.145
423.19	19.060
423.54	19.254
423.90	19.309
424.25	19.813
424.61	19.269
424.96	19.650
425.31	18.664
425.67	19.641
426.02	18.957
426.38	19.078
426.73	19.722
427.09	19.870
427.44	18.571
427.79	19.783
428.15	19.564
428.50	19.371
428.85	19.988
429.21	20.043
429.56	19.641
429.92	19.344
430.27	19.787
430.62	18.257
430.98	19.012
431.33	18.649
431.68	18.568
432.04	19.089
432.39	18.441
432.74	19.438
433.10	19.601
433.45	20.218
433.80	20.794
434.16	19.548
434.51	18.834
434.86	19.543
435.22	19.125
435.57	19.621
435.92	19.579
436.28	19.585
436.63	19.611
436.98	19.482
437.34	19.863
437.69	18.085
438.04	19.355
438.39	19.556
438.75	19.710
439.10	20.237
439.45	19.220
439.81	19.722
440.16	19.923
440.51	19.369
440.86	19.601
441.22	19.372
441.57	19.895
441.92	19.595
442.27	19.278
442.63	19.207
442.98	20.312
443.33	19.014
443.68	19.215
444.03	18.897
444.39	19.444
444.74	19.358
445.09	19.431
445.44	19.129
445.79	19.103
446.15	19.842
446.50	18.829
446.85	19.273
447.20	18.358
447.55	19.467
447.91	18.807
448.26	19.169
448.61	19.403
448.96	19.935
449.31	19.142
449.66	20.598
450.02	19.287
450.37	20.100
450.72	19.669
451.07	19.837
451.42	19.443
451.77	19.473
452.12	19.796
452.47	20.170
452.83	20.113
453.18	20.120
453.53	20.130
453.88	20.114
454.23	20.453
454.58	19.755
454.93	19.681
455.28	20.257
455.63	20.213
455.98	20.023
456.34	19.757
456.69	19.756
457.04	20.406
457.39	19.429
457.74	20.833
458.09	19.203
458.44	19.825
458.79	20.106
459.14	19.203
459.49	20.781
459.84	19.457
460.19	19.661
460.54	20.057
460.89	19.350
461.24	19.645
461.59	19.728
461.94	19.267
462.29	19.966
462.64	19.661
462.99	19.514
463.34	20.350
463.69	20.811
464.04	19.862
464.39	20.550
464.74	18.347
465.09	19.907
465.44	19.695
465.79	19.652
466.14	18.601
466.49	19.262
466.84	19.509
467.19	19.098
467.54	19.159
467.89	20.188
468.24	20.151
468.59	19.405
468.94	19.626
469.29	20.709
469.64	20.450
469.99	21.144
470.34	20.557
470.68	20.759
471.03	20.213
471.38	20.861
471.73	20.248
472.08	20.287
472.43	20.422
472.78	20.166
473.13	18.961
473.48	19.927
473.83	19.494
474.17	20.304
474.52	20.438
474.87	18.988
475.22	19.760
475.57	19.045
475.92	19.520
476.27	19.423
476.61	19.196
476.96	19.331
477.31	19.846
477.66	20.021
478.01	19.546
478.36	19.979
478.70	19.355
479.05	19.561
479.40	18.998
479.75	20.457
480.10	19.022
480.45	19.188
480.79	18.894
481.14	18.830
481.49	19.122
481.84	18.690
482.19	19.258
482.53	19.236
482.88	19.400
483.23	17.997
483.58	18.851
483.92	19.378
484.27	19.307
484.62	19.143
484.97	18.231
485.31	18.103
485.66	18.002
486.01	17.057
486.36	16.887
486.70	16.998
487.05	17.137
487.40	17.023
487.75	17.765
488.09	17.699
488.44	18.196
488.79	18.639
489.13	18.701
489.48	19.097
489.83	19.349
490.17	18.456
490.52	18.820
490.87	19.397
491.22	19.105
491.56	19.148
491.91	18.772
492.26	19.287
492.60	19.909
492.95	18.985
493.30	19.472
493.64	18.553
493.99	19.231
494.34	18.915
494.68	18.592
495.03	19.623
495.37	19.361
495.72	19.767
496.07	19.272
496.41	18.897
496.76	18.911
497.11	19.666
497.45	19.509
497.80	19.694
498.14	19.001
498.49	19.081
498.84	19.393
499.18	18.784
499.53	19.522
499.87	19.003
500.22	19.714
500.56	19.266
500.91	20.594
501.26	19.476
501.60	18.670
501.95	18.817
502.29	18.844
502.64	18.968
502.98	18.853
503.33	19.154
503.67	19.249
504.02	19.212
504.36	19.457
504.71	19.962
505.06	19.474
505.40	18.624
505.75	18.849
506.09	19.925
506.44	19.549
506.78	19.140
507.13	19.292
507.47	19.505
507.82	20.000
508.16	19.647
508.51	19.372
508.85	18.708
509.19	19.971
509.54	20.117
509.88	19.841
510.23	18.775
510.57	18.678
510.92	19.680
511.26	19.076
511.61	19.498
511.95	19.761
512.30	19.800
512.64	19.522
512.98	19.323
513.33	19.211
513.67	19.057
514.02	19.584
514.36	18.744
514.70	19.893
515.05	19.499
515.39	20.011
515.74	20.558
516.08	20.044
516.42	19.563
516.77	20.427
517.11	19.573
517.46	19.289
517.80	19.607
518.14	19.944
518.49	19.294
518.83	19.176
519.17	19.634
519.52	20.044
519.86	20.490
520.20	20.274
520.55	20.350
520.89	20.057
521.23	20.386
521.58	20.482
521.92	20.058
522.26	20.024
522.61	21.272
522.95	19.700
523.29	20.760
523.64	20.462
523.98	20.188
524.32	20.185
524.66	19.594
525.01	20.000
525.35	20.389
525.69	20.831
526.04	20.880
526.38	19.776
526.72	19.093
527.06	19.811
527.41	21.221
527.75	20.450
528.09	20.108
528.43	20.866
528.78	20.871
529.12	19.567
529.46	20.631
529.80	20.327
530.15	20.153
530.49	19.314
530.83	20.232
531.17	20.295
531.51	20.233
531.86	20.169
532.20	19.778
532.54	19.774
532.88	20.487
533.22	20.658
533.57	20.622
533.91	19.347
534.25	19.792
534.59	19.474
534.93	18.942
535.27	19.124
535.62	18.436
535.96	18.735
536.30	20.171
536.64	19.068
536.98	19.320
537.32	20.750
537.66	18.814
538.01	19.938
538.35	19.900
538.69	19.114
539.03	19.527
539.37	19.235
539.71	19.691
540.05	18.954
540.39	21.006
540.73	20.316
541.07	20.013
541.42	20.460
541.76	19.852
542.10	20.284
542.44	20.075
542.78	19.824
543.12	18.650
543.46	19.612
543.80	19.799
544.14	19.938
544.48	19.891
544.82	19.572
545.16	18.944
545.50	19.668
545.84	20.455
546.18	20.741
546.52	20.000
546.86	20.181
547.20	19.444
547.54	19.253
547.88	19.586
548.22	19.308
548.56	18.916
548.90	19.810
549.24	19.394
549.58	19.137
549.92	20.563
550.26	19.743
550.60	20.027
550.94	19.674
551.28	21.448
551.62	20.690
551.96	19.459
552.30	18.853
552.64	20.194
552.98	19.845
553.32	19.142
553.66	19.739
554.00	19.434
554.34	19.973
554.68	19.556
555.02	19.688
555.36	19.880
555.69	19.306
556.03	18.726
556.37	19.312
556.71	19.492
557.05	19.135
557.39	19.867
557.73	19.744
558.07	19.987
558.41	19.465
558.75	18.947
559.08	20.300
559.42	19.256
559.76	20.171
560.10	18.720
560.44	20.305
560.78	19.118
561.12	20.025
561.45	19.274
561.79	18.727
562.13	19.015
562.47	18.559
562.81	19.779
563.15	18.811
563.48	18.882
563.82	19.963
564.16	19.465
564.50	19.108
564.84	18.906
565.17	19.311
565.51	19.397
565.85	19.062
566.19	19.167
566.52	18.412
566.86	18.973
567.20	19.607
567.54	17.849
567.88	19.197
568.21	17.723
568.55	18.726
568.89	18.157
569.23	17.515
569.56	17.971
569.90	16.924
570.24	17.172
570.57	16.937
570.91	16.505
571.25	16.667
571.59	16.018
571.92	15.662
572.26	15.849
572.60	15.884
572.93	16.561
573.27	16.686
573.61	15.999
573.95	16.285
574.28	16.408
574.62	15.603
574.96	15.642
575.29	15.350
575.63	15.665
575.97	15.652
576.30	15.464
576.64	15.811
576.98	15.603
577.31	15.969
577.65	15.827
577.98	15.451
578.32	15.393
578.66	15.144
578.99	15.628
579.33	15.449
579.67	15.440
580.00	14.997
580.34	15.199
580.67	15.503
581.01	15.778
581.35	15.504
581.68	15.063
582.02	15.105
582.35	14.957
582.69	15.410
583.02	15.366
583.36	15.566
583.70	15.887
584.03	16.008
584.37	15.876
584.70	15.924
585.04	15.346
585.37	15.464
585.71	15.730
586.04	15.600
586.38	15.442
586.72	15.856
587.05	16.083
587.39	16.157
587.72	15.931
588.06	15.247
588.39	15.609
588.73	15.500
589.06	16.107
589.40	16.056
589.73	16.355
590.07	16.472
590.40	16.551
590.73	16.856
591.07	17.495
591.40	16.447
591.74	16.640
592.07	16.348
592.41	16.547
592.74	16.111
593.08	16.016
593.41	16.008
593.75	15.432
594.08	16.292
594.41	16.292
594.75	16.575
595.08	15.947
595.42	16.129
595.75	16.321
596.09	16.893
596.42	16.533
596.75	16.546
597.09	16.715
597.42	16.571
597.75	16.673
598.09	16.537
598.42	16.279
598.76	16.037
599.09	16.182
599.42	15.952
599.76	16.045
600.09	15.695
600.42	16.195
600.76	16.111
601.09	16.086
601.42	15.980
601.76	16.255
602.09	16.483
602.42	15.970
602.76	16.129
603.09	16.629
603.42	17.174
603.76	16.052
604.09	16.214
604.42	15.970
604.76	15.962
605.09	16.490
605.42	16.741
605.75	16.265
606.09	16.565
606.42	16.159
606.75	16.207
607.09	16.068
607.42	16.553
607.75	16.242
608.08	15.597
608.42	17.240
608.75	16.389
609.08	15.750
609.41	17.091
609.75	16.712
610.08	16.951
610.41	16.337
610.74	15.844
611.07	16.553
611.41	17.609
611.74	16.444
612.07	16.618
612.40	17.251
612.73	17.124
613.07	16.624
613.40	17.143
613.73	16.226
614.06	16.250
614.39	16.717
614.72	16.273
615.06	16.963
615.39	16.832
615.72	16.602
616.05	16.926
616.38	17.047
616.71	16.441
617.05	16.749
617.38	16.854
617.71	17.098
618.04	16.769
618.37	17.287
618.70	17.263
619.03	16.850
619.36	18.028
619.69	18.536
620.03	18.721
620.36	17.662
620.69	18.072
621.02	18.478
621.35	17.622
621.68	18.805
622.01	18.376
622.34	17.407
622.67	18.610
623.00	18.039
623.33	18.084
623.66	18.230
623.99	17.877
624.32	18.699
624.65	17.841
624.99	18.729
625.32	17.702
625.65	16.828
625.98	17.503
626.31	18.398
626.64	18.375
626.97	17.445
627.30	17.780
627.63	19.309
627.96	18.466
628.29	18.812
628.62	18.991
628.95	19.060
629.28	19.632
629.61	18.629
629.94	18.496
630.26	19.671
630.59	19.592
630.92	19.283
631.25	19.764
631.58	19.190
631.91	18.554
632.24	19.534
632.57	18.959
632.90	21.532
633.23	19.937
633.56	20.759
633.89	20.472
634.22	19.806
634.55	20.215
634.88	21.139
635.20	20.067
635.53	20.209
635.86	21.924
636.19	20.202
636.52	19.892
636.85	19.741
637.18	21.993
637.51	21.117
637.83	20.481
638.16	21.688
638.49	20.838
638.82	20.188
639.15	21.152
639.48	21.209
639.81	21.123
640.13	21.227
640.46	21.492
640.79	20.936
641.12	19.554
641.45	21.604
641.77	22.061
642.10	21.687
642.43	21.622
642.76	21.023
643.09	23.055
643.41	21.879
643.74	20.576
644.07	21.534
644.40	21.598
644.73	23.574
645.05	23.477
645.38	22.971
645.71	20.941
646.04	23.511
646.36	23.005
646.69	22.560
647.02	22.720
647.35	21.417
647.67	21.394
648.00	22.476
648.33	21.955
648.66	22.121
648.98	20.435
649.31	21.323
649.64	21.438
649.96	19.772
650.29	21.143
650.62	22.091
650.94	24.096
651.27	24.242
651.60	22.066
651.92	21.966
652.25	22.205
652.58	22.270
652.90	20.659
653.23	21.418
653.56	22.849
653.88	22.173
654.21	20.528
654.54	20.059
654.86	19.764
655.19	21.240
655.52	17.121
655.84	13.108
656.17	14.580
656.49	21.147
656.82	24.518
657.15	19.352
657.47	14.523
657.80	10.694
658.13	8.635
658.45	11.630
658.78	14.865
659.10	14.779
659.43	15.147
659.75	15.951
660.08	17.168
660.41	17.695
660.73	21.205
661.06	21.772
661.38	22.658
661.71	21.583
662.03	22.243
662.36	24.000
662.68	24.209
663.01	24.865
663.33	23.774
663.66	24.852
663.98	23.214
664.31	25.933
664.63	23.372
664.96	25.891
665.28	22.411
665.61	20.566
665.93	25.660
666.26	21.682
666.58	25.321
666.91	22.394
667.23	23.494
667.56	24.025
667.88	24.066
668.21	27.049
668.53	23.790
668.86	25.251
669.18	25.458
669.50	21.901
669.83	24.846
670.15	23.493
670.48	22.461
670.80	22.908
671.13	22.709
671.45	27.054
671.77	23.377
672.10	21.364
672.42	20.395
672.75	22.943
673.07	20.350
673.39	19.329
673.72	21.280
674.04	22.043
674.37	24.501
674.69	23.048
675.01	19.776
675.34	22.093
675.66	24.219
675.98	24.852
676.31	24.200
676.63	23.459
676.95	23.413
677.28	24.138
677.60	24.748
677.92	21.230
678.25	20.155
678.57	22.533
678.89	24.231
679.22	21.691
679.54	23.665
679.86	22.339
680.18	21.090
680.51	20.896
680.83	19.257
681.15	22.530
681.48	21.875
681.80	22.067
682.12	23.010
682.44	22.523
682.77	23.310
683.09	22.136
683.41	23.469
683.73	22.244
684.06	22.619
684.38	22.481
684.70	22.302
685.02	21.701
685.34	20.951
685.67	22.830
685.99	21.018
686.31	20.493
686.63	20.976
686.96	20.588
687.28	20.134
687.60	20.990
687.92	22.278
688.24	24.310
688.56	20.285
688.89	20.076
689.21	23.314
689.53	22.727
689.85	23.984
690.17	21.553
690.49	22.379
690.82	21.429
691.14	24.444
691.46	21.971
691.78	23.392
692.10	20.229
692.42	20.327
692.74	21.124
693.06	22.481
693.39	23.123
693.71	21.218
694.03	23.669
694.35	24.900
694.67	23.422
694.99	21.064
695.31	26.351
695.63	22.398
695.95	21.719
696.27	23.009
696.59	24.821
696.91	22.278
697.23	21.493
697.56	20.954
697.88	20.359
698.20	22.642
698.52	20.817
698.84	22.998
699.16	22.175
699.48	23.941
699.80	26.580
700.12	26.097
700.44	23.131
700.76	24.582
701.08	26.371
701.40	23.896
701.72	26.203
702.04	25.745
702.36	27.957
702.68	22.606
703.00	23.559
703.32	23.821
703.64	23.174
703.96	24.479
704.28	24.868
704.60	25.915
704.91	28.011
705.23	26.136
705.55	27.300
705.87	25.397
706.19	29.467
706.51	30.094
706.83	24.779
707.15	26.203
707.47	22.760
707.79	25.747
708.11	22.449
708.43	23.596
708.74	24.434
709.06	22.558
709.38	24.814
709.70	24.796
710.02	23.098
710.34	26.243
710.66	25.556
710.98	27.049
711.29	22.563
711.61	27.019
711.93	23.404
712.25	24.699
712.57	24.437
712.89	27.879
713.20	27.157
713.52	29.283
713.84	24.169
714.16	21.449
714.48	21.614
714.80	26.829
715.11	24.468
715.43	24.022
715.75	27.042
716.07	24.855
716.39	24.571
716.70	23.676
717.02	28.620
717.34	28.417
717.66	30.556
717.97	30.303
718.29	27.817
718.61	22.973
718.93	27.682
719.24	27.852
719.56	26.897
719.88	22.930
720.20	28.065
720.51	26.144
720.83	29.097
721.15	27.891
721.46	28.767
721.78	26.829
722.10	27.431
722.42	26.421
722.73	26.715
723.05	28.070
723.37	27.562
723.68	26.953
724.00	25.000
724.32	26.616
724.63	30.769
724.95	29.020
725.27	27.138
725.58	28.676
725.90	25.352
726.22	24.658
726.53	27.425
726.85	29.316
727.16	27.517
727.48	22.924
727.80	28.417
728.11	29.286
728.43	23.188
728.74	25.874
729.06	23.297
729.38	27.719
729.69	33.667
730.01	29.934
730.32	29.530
730.64	28.571
730.96	25.826
731.27	21.101
731.59	23.276
731.90	22.841
732.22	27.429
732.53	22.792
732.85	24.269
733.16	27.108
733.48	24.765
733.80	26.667
734.11	25.767
734.43	21.930
734.74	21.448
735.06	23.280
735.37	19.588
735.69	21.449
736.00	28.135
736.32	17.576
736.63	23.344
736.95	21.429
737.26	26.829
737.58	26.994
737.89	24.398
738.21	25.166
738.52	25.084
738.83	28.205
739.15	24.739
739.46	28.276
739.78	24.830
740.09	28.571
740.41	25.153
740.72	26.349
741.04	29.021
741.35	29.297
741.66	27.668
741.98	30.472
742.29	26.389
742.61	23.009
742.92	30.932
743.23	26.400
743.55	29.811
743.86	26.667
744.18	28.390
744.49	26.860
744.80	32.258
745.12	29.911
745.43	33.645
745.74	36.444
746.06	22.807
746.37	36.279
746.68	37.611
747.00	30.942
747.31	26.471
747.62	24.590
747.94	33.476
748.25	28.794
748.56	32.203
748.88	26.339
749.19	31.163
749.50	29.680
749.82	29.218
750.13	29.249
750.44	24.333
750.75	27.517
751.07	22.368
751.38	24.422
751.69	20.539
752.01	24.126
752.32	27.575
752.63	27.517
752.94	23.776
753.26	27.344
753.57	28.794
753.88	27.341
754.19	25.993
754.51	27.575
754.82	25.839
755.13	25.338
755.44	27.037
755.75	25.430
756.07	27.397
756.38	23.529
756.69	23.750
757.00	27.300
757.31	24.225
757.63	23.140
757.94	21.277
758.25	21.014
758.56	19.908
758.87	22.055
759.18	22.384
759.50	27.660
759.81	23.739
760.12	25.000
760.43	22.409
760.74	23.291
761.05	22.016
761.36	22.656
761.67	25.337
761.99	23.380
762.30	21.865
762.61	22.917
762.92	27.273
763.23	26.792
763.54	25.385
763.85	26.070
764.16	28.472
764.47	26.689
764.78	24.756
765.10	25.610
765.41	22.443
765.72	25.691
766.03	24.471
766.34	24.390
766.65	23.194
766.96	23.482
767.27	31.776
767.58	31.683
767.89	33.149
768.20	37.195
768.51	33.673
768.82	29.825
769.13	29.412
769.44	27.068
769.75	28.090
770.06	28.151
770.37	22.807
770.68	30.222
770.99	31.356
771.30	23.431
771.61	28.846
771.92	25.191
772.23	29.435
772.54	30.667
772.85	33.663
773.16	34.239
773.47	28.889
773.78	28.218
774.09	33.523
774.39	33.333
774.70	27.059
775.01	30.921
775.32	32.298
775.63	37.671
775.94	40.123
776.25	46.897
776.56	45.038
776.87	36.641
777.18	42.424
777.48	55.118
777.79	42.308
778.10	39.394
778.41	47.761
778.72	30.827
779.03	33.974
779.34	38.514
779.65	36.646
779.95	33.540
780.26	31.548
780.57	36.735
780.88	31.915
781.19	41.667
781.50	33.728
781.80	32.787
782.11	35.979
782.42	31.034
782.73	31.638
783.04	29.032
783.34	41.085
783.65	31.973
783.96	36.129
784.27	32.450
784.57	35.526
784.88	39.855
785.19	36.667
785.50	42.241
785.81	53.488
786.11	35.556
786.42	48.819
786.73	51.351
787.04	46.226
787.34	33.333
787.65	45.455
787.96	43.939
788.26	50.394
788.57	45.985
788.88	37.324
789.19	39.695
789.49	37.838
789.80	34.375
790.11	42.149
790.41	45.370
790.72	41.667
791.03	43.269
791.33	49.495
791.64	56.842
791.95	43.158
792.25	42.708
792.56	49.000
792.87	46.341
793.17	51.136
793.48	54.118
793.79	40.230
794.09	45.455
794.40	43.103
794.70	40.476
795.01	46.923
795.32	35.878
795.62	36.752
795.93	50.420
796.23	46.341
796.54	51.020
796.85	54.545
797.15	72.727
797.46	60.976
797.76	43.750
798.07	56.000
798.37	56.250
798.68	53.750
798.99	51.220
799.29	62.667
799.60	34.884
799.90	65.789
800.21	59.091
800.51	53.521
800.82	65.517
801.12	69.231
801.43	68.000
801.73	70.690
802.04	48.052
802.34	58.904
802.65	68.627
802.95	76.087
803.26	67.742
803.56	86.667
803.87	70.149
804.17	77.778
804.48	69.811
804.78	45.833
805.09	69.697
805.39	71.429
805.70	66.667
806.00	58.571
806.30	67.188
806.61	57.647
806.91	56.667
807.22	47.826
807.52	65.789
807.83	67.105
808.13	60.870
808.43	72.581
808.74	60.274
809.04	58.929
809.35	76.471
809.65	69.697
809.95	80.392
810.26	90.741
810.56	79.688
810.86	100.000
811.17	70.175
811.47	78.261
811.77	63.793
812.08	48.276
812.38	80.952
812.69	95.238
812.99	82.222
813.29	74.286
813.59	135.484
813.90	74.138
814.20	73.770
814.50	70.000
814.81	75.439
815.11	87.037
815.41	78.571
815.72	91.071
816.02	76.000
816.32	97.561
816.62	98.276
816.93	87.879
817.23	82.927
817.53	85.714
817.84	95.556
818.14	69.048
818.44	93.750
818.74	79.245
819.04	92.308
819.35	106.061
819.65	98.077
819.95	116.667
820.25	119.149
820.56	94.595
820.86	107.895
821.16	68.085
821.46	102.632
821.76	78.182
822.07	71.429
822.37	89.474
822.67	118.605
822.97	57.895
823.27	95.652
823.57	112.500
823.88	84.615
824.18	93.939
824.48	117.391
824.78	111.111
825.08	139.130
825.38	124.138
825.69	105.882
825.99	87.234
826.29	83.333
826.59	114.286
826.89	130.000
827.19	94.286
827.49	106.452
827.79	130.769
828.09	83.333
828.39	97.222
828.70	81.081
829.00	117.857
829.30	200.000
829.60	77.778
829.90	135.484
830.20	90.909
830.50	116.216
830.80	129.167
831.10	169.231
831.40	133.333
831.70	195.833
832.00	110.000
832.30	130.435
832.60	216.667
832.90	127.273
833.20	195.000
833.50	100.000
833.80	114.706
834.10	100.000
834.40	110.526
834.70	116.667
835.00	160.000
835.30	113.514
835.60	143.750
835.90	121.622
836.20	157.692
836.50	136.364
836.80	109.756
837.10	113.043
837.40	253.846
837.70	126.316
838.00	126.667
838.30	175.000
838.60	144.000
838.90	280.000
839.19	206.250
839.49	143.333
839.79	106.897
840.09	130.769
840.39	240.000
840.69	226.316
840.99	119.048
841.29	130.435
841.59	180.000
841.88	200.000
842.18	344.444
842.48	121.429
842.78	103.704
843.08	246.154
843.38	159.091
843.68	185.714
843.97	471.429
844.27	200.000
844.57	1350.000
844.87	350.000
845.17	194.444
845.47	138.095
845.76	183.333
846.06	585.714
846.36	188.235
846.66	284.615
846.96	250.000
847.25	238.462
847.55	200.000
847.85	138.889
848.15	480.000
848.44	227.273
848.74	171.429
849.04	145.833
849.34	141.176
849.63	212.500
849.93	218.750
850.23	833.333
850.53	412.500
850.82	318.182
851.12	194.118
851.42	183.333
851.71	275.000
852.01	0.000
852.31	247.059
852.61	430.000
852.90	154.167
853.20	355.556
853.50	-2000.000
853.79	140.000
854.09	156.250
854.39	141.379
854.68	141.379
854.98	161.905
855.28	135.484
855.57	214.286
855.87	155.556
856.17	122.222
856.46	147.368
856.76	135.484
857.05	194.118
857.35	290.909
857.65	161.538
857.94	190.000
858.24	422.222
858.53	264.286
858.83	557.143
859.13	160.870
859.42	344.444
859.72	437.500
860.01	291.667
860.31	725.000
860.60	310.000
860.90	400.000
861.20	253.846
861.49	328.571
861.79	-3300.000
862.08	542.857
862.38	400.000
862.67	300.000
862.97	350.000
863.26	116.667
863.56	775.000
863.85	269.231
864.15	258.824
864.44	194.444
864.74	241.667
865.03	263.636
865.33	337.500
865.62	206.667
865.92	566.667
866.21	725.000
866.51	520.000
866.80	216.667
867.10	866.667
867.39	3200.000
867.69	480.000
867.98	900.000
868.27	185.714
868.57	286.667
868.86	675.000
869.16	171.429
869.45	3200.000
869.75	-366.667
870.04	750.000
870.33	440.000
870.63	400.000
870.92	205.882
871.22	850.000
871.51	471.429
871.80	300.000
872.10	323.077
>>>>>End Processed Spectral Data<<<<<
