SpectraSuite Data File
++++++++++++++++++++++++++++++++++++
Date: Tue May 12 17:13:18 PDT 2015
User: schluterlab
Dark Spectrum Present: Yes
Reference Spectrum Present: Yes
Number of Sampled Component Spectra: 1
Spectrometers: USB2E3373
Integration Time (usec): 3000 (USB2E3373)
Spectra Averaged: 3 (USB2E3373)
Boxcar Smoothing: 0 (USB2E3373)
Correct for Electrical Dark: No (USB2E3373)
Strobe/Lamp Enabled: No (USB2E3373)
Correct for Detector Non-linearity: No (USB2E3373)
Correct for Stray Light: No (USB2E3373)
Number of Pixels in Processed Spectrum: 2048
>>>>>Begin Processed Spectral Data<<<<<
178.53	0.000
178.91	-225.000
179.29	-825.000
179.67	-3600.000
180.04	-133.333
180.42	250.000
180.80	1800.000
181.18	0.000
181.56	-300.000
181.94	0.000
182.31	1200.000
182.69	-3400.000
183.07	571.429
183.45	-3900.000
183.83	-1350.000
184.20	420.000
184.58	457.143
184.96	-276.923
185.34	-216.667
185.72	1550.000
186.09	-950.000
186.47	-3800.000
186.85	900.000
187.23	440.000
187.61	1350.000
187.98	650.000
188.36	235.714
188.74	375.000
189.12	358.333
189.49	875.000
189.87	0.000
190.25	412.500
190.63	2800.000
191.00	-225.000
191.38	-3300.000
191.76	-750.000
192.14	562.500
192.51	-2100.000
192.89	1250.000
193.27	833.333
193.65	-1033.333
194.02	-780.000
194.40	528.571
194.78	-157.143
195.15	226.667
195.53	-2900.000
195.91	-700.000
196.29	3800.000
196.66	225.000
197.04	875.000
197.42	-1400.000
197.79	500.000
198.17	233.333
198.55	0.000
198.92	457.143
199.30	1133.333
199.68	1700.000
200.05	650.000
200.43	-333.333
200.81	188.889
201.18	3200.000
201.56	291.667
201.94	-750.000
202.31	-175.000
202.69	-600.000
203.07	2900.000
203.44	-516.667
203.82	283.333
204.19	620.000
204.57	-1450.000
204.95	-700.000
205.32	-860.000
205.70	466.667
206.08	950.000
206.45	-1033.333
206.83	411.111
207.20	136.842
207.58	241.667
207.96	620.000
208.33	0.000
208.71	485.714
209.08	740.000
209.46	-2900.000
209.84	-625.000
210.21	780.000
210.59	-520.000
210.96	341.667
211.34	-800.000
211.71	390.909
212.09	775.000
212.46	1850.000
212.84	-250.000
213.22	511.111
213.59	-3500.000
213.97	300.000
214.34	775.000
214.72	1166.667
215.09	766.667
215.47	-3200.000
215.84	-290.000
216.22	-362.500
216.59	0.000
216.97	0.000
217.34	1100.000
217.72	-1350.000
218.09	1166.667
218.47	450.000
218.84	800.000
219.22	1166.667
219.59	733.333
219.97	528.571
220.34	311.111
220.72	1950.000
221.09	2300.000
221.47	191.667
221.84	1166.667
222.22	280.000
222.59	311.111
222.97	185.714
223.34	193.750
223.72	-1650.000
224.09	1300.000
224.46	300.000
224.84	-700.000
225.21	355.556
225.59	246.667
225.96	1466.667
226.34	-500.000
226.71	-750.000
227.08	-600.000
227.46	0.000
227.83	-566.667
228.21	-2100.000
228.58	333.333
228.95	925.000
229.33	244.444
229.70	950.000
230.08	346.154
230.45	4200.000
230.82	-975.000
231.20	-1066.667
231.57	-966.667
231.95	680.000
232.32	283.333
232.69	500.000
233.07	283.333
233.44	-1550.000
233.81	260.000
234.19	137.037
234.56	231.250
234.93	229.412
235.31	185.000
235.68	256.250
236.05	146.429
236.43	148.148
236.80	192.857
237.17	113.793
237.55	112.500
237.92	137.500
238.29	127.273
238.67	128.125
239.04	92.683
239.41	100.000
239.79	85.000
240.16	102.083
240.53	70.492
240.91	85.507
241.28	72.881
241.65	66.667
242.02	76.056
242.40	72.857
242.77	62.637
243.14	53.165
243.51	66.667
243.89	57.009
244.26	63.551
244.63	53.465
245.00	56.881
245.38	42.373
245.75	53.788
246.12	57.778
246.49	49.645
246.87	47.541
247.24	52.667
247.61	47.500
247.98	46.939
248.36	46.667
248.73	45.918
249.10	44.048
249.47	43.500
249.84	40.796
250.22	47.027
250.59	38.000
250.96	43.038
251.33	41.860
251.70	41.964
252.08	40.336
252.45	33.466
252.82	33.080
253.19	35.573
253.56	37.308
253.94	36.594
254.31	38.372
254.68	39.024
255.05	37.931
255.42	37.956
255.79	36.156
256.16	36.949
256.54	35.714
256.91	32.680
257.28	35.452
257.65	33.229
258.02	35.398
258.39	33.811
258.76	35.652
259.14	30.571
259.51	38.192
259.88	35.258
260.25	34.066
260.62	32.329
260.99	34.160
261.36	33.705
261.73	31.649
262.10	32.984
262.47	35.250
262.85	33.600
263.22	34.447
263.59	31.714
263.96	31.579
264.33	29.136
264.70	35.135
265.07	34.390
265.44	32.798
265.81	33.255
266.18	32.723
266.55	32.151
266.92	33.110
267.29	32.018
267.66	31.390
268.03	29.596
268.40	32.135
268.77	32.599
269.14	29.718
269.51	30.067
269.88	32.041
270.25	27.214
270.62	32.403
270.99	33.063
271.36	30.691
271.73	29.769
272.10	27.677
272.47	31.151
272.84	27.146
273.21	30.372
273.58	31.984
273.95	28.953
274.32	30.934
274.69	30.709
275.06	30.419
275.43	30.460
275.80	29.623
276.17	31.066
276.54	31.028
276.91	31.903
277.28	29.015
277.65	28.782
278.02	31.066
278.39	30.576
278.76	32.069
279.13	30.071
279.50	29.091
279.87	26.816
280.23	31.860
280.60	29.562
280.97	28.448
281.34	29.043
281.71	29.217
282.08	31.795
282.45	29.561
282.82	28.595
283.19	29.412
283.56	28.926
283.92	30.456
284.29	29.617
284.66	28.067
285.03	28.690
285.40	28.430
285.77	27.932
286.14	29.412
286.51	26.840
286.87	27.690
287.24	27.628
287.61	28.116
287.98	27.910
288.35	24.148
288.72	27.466
289.08	27.027
289.45	27.439
289.82	26.094
290.19	26.647
290.56	29.258
290.93	25.036
291.29	25.829
291.66	25.989
292.03	24.684
292.40	26.423
292.77	25.487
293.13	26.676
293.50	25.506
293.87	24.932
294.24	26.014
294.60	27.725
294.97	26.154
295.34	26.826
295.71	25.361
296.08	25.867
296.44	25.159
296.81	23.573
297.18	23.828
297.55	25.000
297.91	23.153
298.28	25.000
298.65	26.258
299.02	24.005
299.38	23.741
299.75	23.780
300.12	24.771
300.48	25.527
300.85	25.387
301.22	23.140
301.59	23.821
301.95	23.104
302.32	24.563
302.69	24.095
303.05	24.804
303.42	23.094
303.79	25.677
304.15	25.193
304.52	25.793
304.89	23.881
305.25	25.028
305.62	24.840
305.99	24.674
306.35	25.053
306.72	25.182
307.09	24.845
307.45	25.554
307.82	25.514
308.19	26.186
308.55	24.800
308.92	26.987
309.29	27.022
309.65	26.462
310.02	27.282
310.38	26.221
310.75	27.290
311.12	26.533
311.48	29.344
311.85	29.198
312.22	29.895
312.58	29.446
312.95	29.612
313.31	30.243
313.68	28.987
314.05	30.769
314.41	30.261
314.78	30.871
315.14	33.081
315.51	33.207
315.87	32.299
316.24	32.213
316.61	32.587
316.97	32.477
317.34	34.232
317.70	35.031
318.07	35.409
318.43	36.467
318.80	35.377
319.16	36.276
319.53	36.460
319.89	36.290
320.26	39.758
320.62	39.011
320.99	38.322
321.35	39.332
321.72	41.366
322.08	40.628
322.45	39.328
322.81	41.995
323.18	42.007
323.54	43.206
323.91	44.515
324.27	44.209
324.64	44.810
325.00	46.466
325.37	46.796
325.73	46.037
326.10	46.479
326.46	46.573
326.83	46.720
327.19	48.112
327.56	46.565
327.92	48.525
328.29	48.691
328.65	50.428
329.01	47.819
329.38	49.323
329.74	49.103
330.11	50.478
330.47	49.361
330.84	48.576
331.20	48.985
331.56	50.950
331.93	51.839
332.29	50.935
332.66	52.126
333.02	48.625
333.38	50.349
333.75	49.625
334.11	50.000
334.48	50.256
334.84	50.760
335.20	53.208
335.57	51.301
335.93	50.126
336.29	48.093
336.66	52.916
337.02	50.984
337.38	51.161
337.75	51.689
338.11	51.814
338.47	51.990
338.84	49.534
339.20	50.649
339.56	51.051
339.93	49.498
340.29	49.664
340.65	50.796
341.02	49.638
341.38	49.097
341.74	51.993
342.11	51.503
342.47	49.385
342.83	51.928
343.20	50.606
343.56	49.563
343.92	50.702
344.28	50.718
344.65	51.263
345.01	50.317
345.37	49.920
345.73	50.476
346.10	48.765
346.46	52.871
346.82	50.386
347.19	51.236
347.55	49.493
347.91	51.057
348.27	49.961
348.63	50.791
349.00	48.972
349.36	50.584
349.72	51.223
350.08	51.087
350.45	49.962
350.81	50.382
351.17	49.307
351.53	50.115
351.89	49.650
352.26	49.660
352.62	50.226
352.98	51.227
353.34	50.385
353.70	50.535
354.07	50.385
354.43	50.614
354.79	49.658
355.15	51.608
355.51	51.133
355.87	51.054
356.24	50.654
356.60	50.000
356.96	50.417
357.32	49.359
357.68	50.367
358.04	50.380
358.40	49.625
358.77	50.113
359.13	50.751
359.49	49.741
359.85	49.367
360.21	49.406
360.57	49.343
360.93	50.072
361.29	50.216
361.66	51.081
362.02	48.509
362.38	49.351
362.74	49.894
363.10	49.299
363.46	48.550
363.82	48.597
364.18	49.218
364.54	51.001
364.90	49.665
365.26	51.006
365.62	48.826
365.98	49.484
366.35	49.655
366.71	49.618
367.07	49.352
367.43	50.638
367.79	48.338
368.15	48.236
368.51	49.897
368.87	48.505
369.23	49.965
369.59	48.887
369.95	49.510
370.31	49.897
370.67	49.688
371.03	50.560
371.39	50.277
371.75	49.686
372.11	48.810
372.47	49.315
372.83	49.830
373.19	50.308
373.55	49.210
373.91	48.412
374.27	47.884
374.63	48.407
374.99	50.404
375.35	49.395
375.71	48.879
376.07	48.475
376.42	49.425
376.78	48.812
377.14	49.345
377.50	48.127
377.86	49.776
378.22	47.837
378.58	48.789
378.94	47.858
379.30	49.121
379.66	49.910
380.02	49.267
380.38	48.009
380.74	48.385
381.09	48.248
381.45	49.133
381.81	48.404
382.17	47.863
382.53	48.710
382.89	48.492
383.25	48.905
383.61	47.608
383.97	47.810
384.32	47.981
384.68	48.604
385.04	47.069
385.40	48.339
385.76	47.396
386.12	47.866
386.48	47.477
386.83	48.289
387.19	47.762
387.55	48.587
387.91	46.767
388.27	46.698
388.62	46.772
388.98	47.055
389.34	46.460
389.70	46.344
390.06	47.988
390.42	47.378
390.77	46.130
391.13	47.254
391.49	45.675
391.85	46.523
392.20	46.305
392.56	46.774
392.92	45.929
393.28	45.348
393.64	45.298
393.99	44.813
394.35	45.262
394.71	44.451
395.07	45.073
395.42	46.019
395.78	46.823
396.14	44.639
396.50	45.247
396.85	44.878
397.21	45.909
397.57	45.846
397.92	44.079
398.28	44.181
398.64	45.084
399.00	43.773
399.35	44.552
399.71	43.709
400.07	44.521
400.42	43.224
400.78	43.284
401.14	44.745
401.49	44.643
401.85	43.917
402.21	43.292
402.57	43.327
402.92	44.061
403.28	43.019
403.63	43.143
403.99	43.124
404.35	43.025
404.70	43.768
405.06	41.887
405.42	43.387
405.77	43.550
406.13	42.354
406.49	42.069
406.84	42.922
407.20	43.721
407.55	42.523
407.91	43.714
408.27	42.753
408.62	42.164
408.98	42.224
409.34	41.905
409.69	40.946
410.05	41.264
410.40	42.108
410.76	40.240
411.11	41.114
411.47	40.802
411.83	40.187
412.18	41.486
412.54	41.021
412.89	40.177
413.25	41.391
413.60	40.187
413.96	41.592
414.31	41.204
414.67	40.596
415.03	40.166
415.38	39.874
415.74	41.314
416.09	40.662
416.45	41.112
416.80	42.399
417.16	39.020
417.51	40.318
417.87	40.426
418.22	40.401
418.58	40.127
418.93	39.619
419.29	39.495
419.64	39.794
420.00	39.737
420.35	40.244
420.71	39.732
421.06	39.317
421.42	39.609
421.77	39.811
422.12	39.967
422.48	39.291
422.83	39.397
423.19	38.607
423.54	38.453
423.90	40.374
424.25	39.571
424.61	39.292
424.96	39.187
425.31	39.190
425.67	40.011
426.02	39.148
426.38	38.973
426.73	39.618
427.09	39.324
427.44	40.236
427.79	38.765
428.15	40.660
428.50	40.229
428.85	38.272
429.21	39.060
429.56	38.584
429.92	38.687
430.27	38.655
430.62	37.690
430.98	37.525
431.33	39.063
431.68	37.481
432.04	38.438
432.39	39.572
432.74	39.286
433.10	38.594
433.45	39.115
433.80	39.768
434.16	37.940
434.51	37.564
434.86	39.140
435.22	38.628
435.57	37.819
435.92	39.328
436.28	38.652
436.63	38.142
436.98	39.020
437.34	37.785
437.69	38.522
438.04	38.817
438.39	37.303
438.75	38.252
439.10	37.345
439.45	37.535
439.81	38.057
440.16	38.470
440.51	37.782
440.86	38.974
441.22	36.688
441.57	37.218
441.92	37.611
442.27	36.701
442.63	36.941
442.98	37.716
443.33	37.172
443.68	37.173
444.03	37.559
444.39	37.382
444.74	37.629
445.09	37.757
445.44	37.194
445.79	37.086
446.15	37.053
446.50	36.392
446.85	37.450
447.20	36.070
447.55	37.575
447.91	38.839
448.26	38.072
448.61	37.645
448.96	37.527
449.31	38.119
449.66	38.261
450.02	36.413
450.37	37.590
450.72	36.694
451.07	37.813
451.42	37.759
451.77	37.743
452.12	38.003
452.47	37.789
452.83	37.127
453.18	37.357
453.53	37.123
453.88	37.200
454.23	38.059
454.58	37.762
454.93	37.155
455.28	38.311
455.63	37.589
455.98	36.379
456.34	37.994
456.69	36.585
457.04	37.053
457.39	36.971
457.74	37.669
458.09	36.889
458.44	37.021
458.79	36.658
459.14	36.116
459.49	37.373
459.84	36.196
460.19	36.215
460.54	35.499
460.89	36.461
461.24	36.369
461.59	36.735
461.94	36.348
462.29	36.270
462.64	37.437
462.99	35.765
463.34	37.265
463.69	36.419
464.04	36.097
464.39	35.432
464.74	34.174
465.09	34.707
465.44	35.582
465.79	35.656
466.14	34.605
466.49	35.486
466.84	34.783
467.19	35.852
467.54	34.775
467.89	35.681
468.24	35.900
468.59	35.833
468.94	35.085
469.29	36.714
469.64	36.013
469.99	36.889
470.34	35.863
470.68	35.793
471.03	36.224
471.38	36.358
471.73	36.185
472.08	37.704
472.43	37.182
472.78	36.876
473.13	34.731
473.48	34.963
473.83	36.219
474.17	36.413
474.52	34.893
474.87	34.338
475.22	35.580
475.57	34.313
475.92	35.411
476.27	33.624
476.61	35.442
476.96	34.274
477.31	35.476
477.66	35.480
478.01	35.121
478.36	35.376
478.70	34.045
479.05	34.623
479.40	35.615
479.75	35.353
480.10	35.092
480.45	34.360
480.79	34.516
481.14	35.473
481.49	33.943
481.84	33.817
482.19	32.838
482.53	33.509
482.88	34.095
483.23	33.333
483.58	34.156
483.92	35.649
484.27	33.818
484.62	34.380
484.97	32.957
485.31	31.950
485.66	30.469
486.01	29.594
486.36	29.408
486.70	29.525
487.05	30.457
487.40	31.410
487.75	31.743
488.09	32.131
488.44	32.569
488.79	32.523
489.13	33.333
489.48	33.640
489.83	33.028
490.17	33.485
490.52	34.582
490.87	34.397
491.22	34.087
491.56	33.992
491.91	34.229
492.26	34.076
492.60	34.351
492.95	33.802
493.30	34.122
493.64	34.726
493.99	33.318
494.34	33.617
494.68	34.440
495.03	34.486
495.37	34.039
495.72	34.639
496.07	33.558
496.41	33.449
496.76	33.136
497.11	34.147
497.45	34.020
497.80	33.642
498.14	34.073
498.49	33.612
498.84	34.766
499.18	32.724
499.53	33.808
499.87	33.827
500.22	33.809
500.56	33.473
500.91	33.581
501.26	33.762
501.60	33.789
501.95	33.020
502.29	34.000
502.64	33.083
502.98	32.681
503.33	33.140
503.67	33.068
504.02	33.229
504.36	32.986
504.71	33.444
505.06	33.412
505.40	33.926
505.75	33.302
506.09	33.831
506.44	33.506
506.78	33.554
507.13	34.319
507.47	34.837
507.82	34.258
508.16	35.326
508.51	33.816
508.85	33.571
509.19	35.047
509.54	33.447
509.88	34.858
510.23	33.873
510.57	33.349
510.92	34.915
511.26	35.141
511.61	33.580
511.95	33.748
512.30	34.100
512.64	33.022
512.98	34.854
513.33	32.941
513.67	34.283
514.02	33.818
514.36	33.853
514.70	33.867
515.05	33.458
515.39	35.252
515.74	35.867
516.08	35.022
516.42	36.995
516.77	35.147
517.11	34.933
517.46	34.537
517.80	34.353
518.14	35.099
518.49	34.950
518.83	34.725
519.17	34.886
519.52	34.517
519.86	34.550
520.20	35.178
520.55	35.726
520.89	34.655
521.23	35.572
521.58	35.169
521.92	33.878
522.26	35.071
522.61	36.542
522.95	36.156
523.29	36.316
523.64	35.318
523.98	34.977
524.32	34.256
524.66	34.145
525.01	34.438
525.35	35.298
525.69	35.581
526.04	35.574
526.38	34.903
526.72	33.831
527.06	34.477
527.41	34.825
527.75	35.058
528.09	34.557
528.43	35.570
528.78	35.480
529.12	34.919
529.46	34.191
529.80	34.755
530.15	34.885
530.49	34.296
530.83	34.918
531.17	34.625
531.51	34.335
531.86	35.447
532.20	34.858
532.54	33.773
532.88	34.416
533.22	36.076
533.57	34.655
533.91	33.916
534.25	32.891
534.59	34.561
534.93	33.504
535.27	33.295
535.62	33.022
535.96	33.806
536.30	34.491
536.64	33.478
536.98	34.235
537.32	34.375
537.66	34.503
538.01	34.303
538.35	33.874
538.69	32.585
539.03	33.582
539.37	32.888
539.71	34.012
540.05	33.538
540.39	34.843
540.73	33.165
541.07	32.371
541.42	33.520
541.76	33.909
542.10	33.231
542.44	33.978
542.78	32.788
543.12	33.067
543.46	33.208
543.80	33.333
544.14	32.755
544.48	32.482
544.82	32.722
545.16	31.573
545.50	33.251
545.84	33.712
546.18	34.850
546.52	34.754
546.86	33.462
547.20	33.140
547.54	33.122
547.88	32.117
548.22	32.726
548.56	31.232
548.90	32.740
549.24	32.912
549.58	32.410
549.92	33.595
550.26	33.063
550.60	34.265
550.94	32.904
551.28	33.931
551.62	34.621
551.96	33.581
552.30	32.564
552.64	33.010
552.98	32.152
553.32	32.202
553.66	32.313
554.00	33.269
554.34	33.555
554.68	33.266
555.02	33.673
555.36	32.979
555.69	32.919
556.03	32.420
556.37	32.696
556.71	34.224
557.05	31.520
557.39	33.267
557.73	33.693
558.07	33.870
558.41	32.831
558.75	33.721
559.08	34.668
559.42	33.286
559.76	33.927
560.10	32.966
560.44	33.112
560.78	32.289
561.12	31.786
561.45	31.852
561.79	32.584
562.13	33.039
562.47	32.317
562.81	33.442
563.15	31.545
563.48	30.807
563.82	33.001
564.16	33.333
564.50	31.163
564.84	31.125
565.17	31.194
565.51	32.266
565.85	32.326
566.19	31.488
566.52	31.047
566.86	31.582
567.20	31.517
567.54	30.786
567.88	30.934
568.21	29.905
568.55	30.350
568.89	29.288
569.23	28.818
569.56	28.794
569.90	27.704
570.24	27.257
570.57	26.282
570.91	26.552
571.25	25.919
571.59	25.155
571.92	25.377
572.26	25.256
572.60	25.604
572.93	25.733
573.27	26.020
573.61	25.311
573.95	25.448
574.28	25.206
574.62	24.639
574.96	24.729
575.29	24.632
575.63	24.523
575.97	24.659
576.30	24.905
576.64	24.666
576.98	24.402
577.31	25.062
577.65	24.073
577.98	23.725
578.32	23.672
578.66	23.950
578.99	24.082
579.33	24.380
579.67	24.348
580.00	23.894
580.34	24.430
580.67	23.826
581.01	24.578
581.35	23.395
581.68	23.056
582.02	23.158
582.35	23.741
582.69	23.420
583.02	23.630
583.36	24.446
583.70	24.487
584.03	24.981
584.37	24.634
584.70	24.185
585.04	23.721
585.37	23.828
585.71	24.090
586.04	23.740
586.38	24.324
586.72	24.582
587.05	24.910
587.39	24.223
587.72	24.884
588.06	24.187
588.39	24.437
588.73	24.653
589.06	25.474
589.40	25.696
589.73	26.057
590.07	26.150
590.40	26.481
590.73	27.323
591.07	26.755
591.40	26.587
591.74	26.502
592.07	26.040
592.41	26.139
592.74	25.558
593.08	24.967
593.41	24.446
593.75	24.890
594.08	25.008
594.41	24.959
594.75	25.788
595.08	25.617
595.42	25.642
595.75	25.436
596.09	25.860
596.42	25.892
596.75	27.123
597.09	26.496
597.42	26.408
597.75	26.613
598.09	26.016
598.42	26.112
598.76	25.790
599.09	25.855
599.42	25.260
599.76	25.102
600.09	25.186
600.42	24.896
600.76	24.677
601.09	24.853
601.42	25.484
601.76	25.492
602.09	26.196
602.42	24.991
602.76	25.617
603.09	25.641
603.42	25.505
603.76	25.054
604.09	24.828
604.42	24.557
604.76	25.879
605.09	25.592
605.42	25.843
605.75	25.819
606.09	25.631
606.42	25.216
606.75	25.534
607.09	25.424
607.42	25.512
607.75	26.234
608.08	25.589
608.42	26.594
608.75	26.444
609.08	26.045
609.41	26.000
609.75	26.557
610.08	26.124
610.41	26.702
610.74	25.931
611.07	26.876
611.41	27.340
611.74	26.960
612.07	26.830
612.40	26.706
612.73	27.059
613.07	26.964
613.40	26.767
613.73	27.309
614.06	26.800
614.39	27.828
614.72	26.921
615.06	26.805
615.39	25.792
615.72	26.137
616.05	26.369
616.38	26.484
616.71	26.696
617.05	26.634
617.38	27.753
617.71	27.840
618.04	27.201
618.37	26.959
618.70	26.674
619.03	28.022
619.36	29.837
619.69	29.090
620.03	29.811
620.36	28.773
620.69	29.757
621.02	30.027
621.35	30.158
621.68	30.088
622.01	30.185
622.34	29.497
622.67	28.933
623.00	29.612
623.33	29.487
623.66	28.343
623.99	29.452
624.32	29.065
624.65	28.571
624.99	29.682
625.32	28.858
625.65	29.034
625.98	29.358
626.31	30.712
626.64	29.916
626.97	30.069
627.30	31.289
627.63	31.476
627.96	30.203
628.29	31.601
628.62	30.368
628.95	31.915
629.28	31.025
629.61	31.107
629.94	30.424
630.26	31.976
630.59	32.624
630.92	31.839
631.25	32.185
631.58	33.751
631.91	33.111
632.24	32.362
632.57	31.336
632.90	35.197
633.23	33.998
633.56	34.668
633.89	34.941
634.22	35.199
634.55	33.656
634.88	35.487
635.20	34.305
635.53	35.540
635.86	35.570
636.19	33.895
636.52	33.297
636.85	35.491
637.18	35.536
637.51	33.631
637.83	35.698
638.16	34.701
638.49	35.569
638.82	35.446
639.15	35.723
639.48	35.427
639.81	35.165
640.13	35.706
640.46	36.789
640.79	36.541
641.12	36.220
641.45	36.352
641.77	36.460
642.10	35.074
642.43	39.260
642.76	37.358
643.09	37.464
643.41	38.850
643.74	37.842
644.07	36.283
644.40	36.095
644.73	37.387
645.05	39.970
645.38	37.979
645.71	37.785
646.04	38.473
646.36	37.872
646.69	37.760
647.02	38.400
647.35	35.118
647.67	40.032
648.00	38.925
648.33	37.744
648.66	37.121
648.98	35.072
649.31	33.603
649.64	34.302
649.96	34.993
650.29	35.286
650.62	35.935
650.94	37.801
651.27	39.553
651.60	38.185
651.92	36.559
652.25	38.110
652.58	36.170
652.90	35.629
653.23	35.894
653.56	37.092
653.88	35.830
654.21	34.751
654.54	33.821
654.86	36.431
655.19	33.377
655.52	27.683
655.84	19.091
656.17	21.573
656.49	30.219
656.82	35.000
657.15	27.819
657.47	21.233
657.80	16.245
658.13	13.012
658.45	17.613
658.78	21.061
659.10	21.923
659.43	22.468
659.75	23.751
660.08	26.128
660.41	28.675
660.73	34.504
661.06	35.586
661.38	38.501
661.71	39.388
662.03	37.833
662.36	41.333
662.68	40.223
663.01	39.640
663.33	40.000
663.66	39.842
663.98	40.873
664.31	41.045
664.63	41.571
664.96	37.523
665.28	37.100
665.61	37.925
665.93	39.811
666.26	36.822
666.58	39.083
666.91	40.154
667.23	38.755
667.56	40.246
667.88	42.116
668.21	39.549
668.53	38.306
668.86	40.681
669.18	39.308
669.50	40.496
669.83	39.425
670.15	40.333
670.48	39.258
670.80	37.649
671.13	39.641
671.45	39.078
671.77	39.518
672.10	36.625
672.42	36.513
672.75	34.652
673.07	33.545
673.39	34.505
673.72	36.505
674.04	39.068
674.37	36.479
674.69	36.617
675.01	36.381
675.34	37.791
675.66	38.672
675.98	40.828
676.31	39.200
676.63	34.990
676.95	40.675
677.28	38.337
677.60	37.425
677.92	37.698
678.25	36.822
678.57	38.175
678.89	37.613
679.22	35.294
679.54	37.900
679.86	34.555
680.18	36.380
680.51	34.826
680.83	33.108
681.15	34.489
681.48	33.854
681.80	36.252
682.12	37.024
682.44	35.495
682.77	36.299
683.09	38.252
683.41	39.184
683.73	38.189
684.06	36.111
684.38	38.372
684.70	34.173
685.02	35.243
685.34	35.387
685.67	32.958
685.99	35.304
686.31	32.049
686.63	34.309
686.96	34.641
687.28	35.235
687.60	34.983
687.92	32.328
688.24	36.034
688.56	36.121
688.89	34.417
689.21	34.489
689.53	37.154
689.85	35.569
690.17	37.864
690.49	35.887
690.82	36.134
691.14	37.576
691.46	33.676
691.78	38.596
692.10	36.260
692.42	34.301
692.74	37.403
693.06	36.628
693.39	34.585
693.71	36.739
694.03	38.067
694.35	38.353
694.67	34.216
694.99	37.916
695.31	40.315
695.63	38.462
695.95	38.235
696.27	39.823
696.59	36.993
696.91	36.203
697.23	36.425
697.56	35.270
697.88	32.136
698.20	35.849
698.52	33.074
698.84	36.756
699.16	37.740
699.48	37.712
699.80	38.344
700.12	38.337
700.44	36.916
700.76	39.857
701.08	38.642
701.40	39.740
701.72	42.246
702.04	43.631
702.36	42.204
702.68	40.160
703.00	39.348
703.32	40.199
703.64	41.562
703.96	41.406
704.28	38.095
704.60	43.944
704.91	38.936
705.23	40.341
705.55	42.136
705.87	44.127
706.19	47.022
706.51	49.216
706.83	41.003
707.15	39.572
707.47	39.709
707.79	37.931
708.11	33.560
708.43	34.157
708.74	34.615
709.06	38.605
709.38	38.710
709.70	38.965
710.02	36.957
710.34	39.227
710.66	44.167
710.98	39.891
711.29	40.390
711.61	38.440
711.93	41.641
712.25	37.952
712.57	41.158
712.89	37.879
713.20	47.284
713.52	43.302
713.84	40.785
714.16	37.101
714.48	38.040
714.80	36.314
715.11	38.564
715.43	37.151
715.75	37.746
716.07	38.728
716.39	39.429
716.70	36.760
717.02	43.771
717.34	43.525
717.66	42.014
717.97	45.833
718.29	44.718
718.61	36.149
718.93	41.522
719.24	39.597
719.56	40.345
719.88	40.446
720.20	39.677
720.51	39.542
720.83	38.462
721.15	40.476
721.46	40.411
721.78	40.070
722.10	43.403
722.42	39.799
722.73	40.794
723.05	45.263
723.37	44.170
723.68	41.016
724.00	46.970
724.32	41.445
724.63	43.846
724.95	43.137
725.27	40.892
725.58	43.382
725.90	38.380
726.22	39.384
726.53	42.475
726.85	41.368
727.16	46.644
727.48	37.209
727.80	44.604
728.11	45.714
728.43	40.580
728.74	40.559
729.06	37.993
729.38	40.351
729.69	41.000
730.01	38.816
730.32	37.248
730.64	40.864
730.96	38.438
731.27	31.498
731.59	37.644
731.90	33.426
732.22	36.571
732.53	33.903
732.85	39.474
733.16	35.241
733.48	35.737
733.80	37.681
734.11	37.423
734.43	33.041
734.74	34.048
735.06	35.450
735.37	32.474
735.69	33.043
736.00	37.309
736.32	36.061
736.63	34.385
736.95	35.714
737.26	35.671
737.58	36.196
737.89	32.530
738.21	35.762
738.52	36.789
738.83	41.026
739.15	39.721
739.46	40.345
739.78	34.354
740.09	39.359
740.41	35.583
740.72	36.508
741.04	41.958
741.35	39.453
741.66	44.269
741.98	44.206
742.29	41.204
742.61	41.150
742.92	41.525
743.23	44.800
743.55	36.981
743.86	43.529
744.18	43.220
744.49	42.562
744.80	48.387
745.12	41.518
745.43	47.196
745.74	43.556
746.06	42.982
746.37	48.372
746.68	50.442
747.00	43.946
747.31	42.857
747.62	38.525
747.94	42.918
748.25	39.300
748.56	41.949
748.88	48.214
749.19	39.070
749.50	40.183
749.82	41.564
750.13	39.130
750.44	36.667
750.75	37.584
751.07	38.158
751.38	34.323
751.69	34.343
752.01	37.063
752.32	35.548
752.63	38.926
752.94	37.762
753.26	41.797
753.57	38.911
753.88	38.951
754.19	38.628
754.51	36.877
754.82	33.557
755.13	36.486
755.44	37.778
755.75	42.268
756.07	40.068
756.38	35.948
756.69	35.000
757.00	36.202
757.31	36.338
757.63	31.956
757.94	31.649
758.25	33.575
758.56	30.664
758.87	31.078
759.18	34.302
759.50	31.915
759.81	37.685
760.12	32.022
760.43	33.894
760.74	30.633
761.05	33.687
761.36	31.771
761.67	30.458
761.99	32.676
762.30	34.405
762.61	35.069
762.92	33.712
763.23	40.755
763.54	40.000
763.85	36.187
764.16	37.847
764.47	33.108
764.78	34.853
765.10	31.707
765.41	31.534
765.72	31.215
766.03	32.931
766.34	35.540
766.65	37.643
766.96	36.437
767.27	44.393
767.58	46.040
767.89	48.619
768.20	53.659
768.51	40.306
768.82	38.596
769.13	38.824
769.44	36.090
769.75	35.581
770.06	40.336
770.37	37.719
770.68	38.667
770.99	41.102
771.30	35.565
771.61	39.615
771.92	38.168
772.23	36.290
772.54	40.889
772.85	45.545
773.16	39.674
773.47	43.889
773.78	44.554
774.09	48.295
774.39	49.091
774.70	45.294
775.01	44.079
775.32	52.795
775.63	45.890
775.94	57.407
776.25	59.310
776.56	53.435
776.87	54.962
777.18	53.788
777.48	57.480
777.79	55.385
778.10	42.424
778.41	46.269
778.72	51.128
779.03	42.949
779.34	54.730
779.65	47.826
779.95	47.826
780.26	41.667
780.57	52.381
780.88	58.865
781.19	60.833
781.50	50.296
781.80	44.262
782.11	41.799
782.42	45.977
782.73	41.808
783.04	45.161
783.34	44.961
783.65	42.177
783.96	47.097
784.27	44.371
784.57	42.105
784.88	41.304
785.19	55.833
785.50	52.586
785.81	64.341
786.11	47.407
786.42	46.457
786.73	44.144
787.04	49.057
787.34	51.220
787.65	50.758
787.96	58.333
788.26	51.181
788.57	50.365
788.88	45.070
789.19	62.595
789.49	51.351
789.80	42.188
790.11	46.281
790.41	53.704
790.72	57.407
791.03	53.846
791.33	59.596
791.64	60.000
791.95	58.947
792.25	63.542
792.56	64.000
792.87	74.390
793.17	59.091
793.48	68.235
793.79	66.667
794.09	64.773
794.40	64.655
794.70	47.619
795.01	43.846
795.32	51.145
795.62	58.120
795.93	58.824
796.23	52.846
796.54	58.163
796.85	59.091
797.15	77.922
797.46	64.634
797.76	73.750
798.07	74.667
798.37	77.500
798.68	62.500
798.99	63.415
799.29	60.000
799.60	54.651
799.90	65.789
800.21	74.242
800.51	76.056
800.82	77.586
801.12	75.385
801.43	73.333
801.73	77.586
802.04	58.442
802.34	71.233
802.65	90.196
802.95	91.304
803.26	85.484
803.56	110.000
803.87	76.119
804.17	84.127
804.48	77.358
804.78	62.500
805.09	80.303
805.39	82.540
805.70	68.421
806.00	61.429
806.30	78.125
806.61	57.647
806.91	70.000
807.22	50.000
807.52	61.842
807.83	77.632
808.13	65.217
808.43	83.871
808.74	80.822
809.04	75.000
809.35	91.176
809.65	80.303
809.95	100.000
810.26	101.852
810.56	85.937
810.86	73.469
811.17	96.491
811.47	91.304
811.77	89.655
812.08	77.586
812.38	119.048
812.69	119.048
812.99	91.111
813.29	122.857
813.59	122.581
813.90	86.207
814.20	77.049
814.50	84.000
814.81	75.439
815.11	100.000
815.41	80.357
815.72	94.643
816.02	114.000
816.32	112.195
816.62	101.724
816.93	151.515
817.23	92.683
817.53	94.643
817.84	95.556
818.14	111.905
818.44	85.417
818.74	98.113
819.04	89.744
819.35	127.273
819.65	105.769
819.95	96.296
820.25	102.128
820.56	118.919
820.86	105.263
821.16	63.830
821.46	107.895
821.76	90.909
822.07	66.667
822.37	92.105
822.67	97.674
822.97	118.421
823.27	110.870
823.57	115.625
823.88	117.949
824.18	118.182
824.48	156.522
824.78	94.444
825.08	160.870
825.38	144.828
825.69	79.412
825.99	91.489
826.29	91.667
826.59	117.143
826.89	126.667
827.19	82.857
827.49	132.258
827.79	180.769
828.09	88.095
828.39	122.222
828.70	100.000
829.00	125.000
829.30	181.250
829.60	108.333
829.90	148.387
830.20	124.242
830.50	137.838
830.80	150.000
831.10	165.385
831.40	142.857
831.70	170.833
832.00	106.667
832.30	208.696
832.60	170.833
832.90	172.727
833.20	185.000
833.50	139.474
833.80	120.588
834.10	113.158
834.40	178.947
834.70	110.000
835.00	152.000
835.30	121.622
835.60	115.625
835.90	127.027
836.20	138.462
836.50	122.727
836.80	97.561
837.10	160.870
837.40	284.615
837.70	100.000
838.00	153.333
838.30	145.833
838.60	168.000
838.90	290.000
839.19	200.000
839.49	143.333
839.79	141.379
840.09	153.846
840.39	253.333
840.69	210.526
840.99	152.381
841.29	143.478
841.59	235.000
841.88	156.000
842.18	288.889
842.48	121.429
842.78	151.852
843.08	230.769
843.38	200.000
843.68	300.000
843.97	442.857
844.27	173.913
844.57	1150.000
844.87	271.429
845.17	244.444
845.47	80.952
845.76	129.167
846.06	600.000
846.36	117.647
846.66	253.846
846.96	250.000
847.25	200.000
847.55	147.368
847.85	205.556
848.15	640.000
848.44	300.000
848.74	176.190
849.04	187.500
849.34	176.471
849.63	212.500
849.93	287.500
850.23	633.333
850.53	400.000
850.82	318.182
851.12	194.118
851.42	154.167
851.71	237.500
852.01	0.000
852.31	182.353
852.61	340.000
852.90	175.000
853.20	277.778
853.50	-1700.000
853.79	176.000
854.09	137.500
854.39	158.621
854.68	151.724
854.98	180.952
855.28	132.258
855.57	257.143
855.87	127.778
856.17	129.630
856.46	200.000
856.76	148.387
857.05	235.294
857.35	300.000
857.65	253.846
857.94	190.000
858.24	311.111
858.53	371.429
858.83	642.857
859.13	195.652
859.42	288.889
859.72	450.000
860.01	283.333
860.31	875.000
860.60	300.000
860.90	350.000
861.20	176.923
861.49	542.857
861.79	-2400.000
862.08	571.429
862.38	222.222
862.67	214.286
862.97	430.000
863.26	140.000
863.56	750.000
863.85	261.538
864.15	252.941
864.44	188.889
864.74	350.000
865.03	254.545
865.33	400.000
865.62	253.333
865.92	700.000
866.21	975.000
866.51	680.000
866.80	216.667
867.10	766.667
867.39	3200.000
867.69	520.000
867.98	875.000
868.27	180.952
868.57	193.333
868.86	900.000
869.16	171.429
869.45	3400.000
869.75	-516.667
870.04	575.000
870.33	720.000
870.63	350.000
870.92	200.000
871.22	725.000
871.51	400.000
871.80	300.000
872.10	300.000
>>>>>End Processed Spectral Data<<<<<
