SpectraSuite Data File
++++++++++++++++++++++++++++++++++++
Date: Tue May 12 17:07:54 PDT 2015
User: schluterlab
Dark Spectrum Present: Yes
Reference Spectrum Present: Yes
Number of Sampled Component Spectra: 1
Spectrometers: USB2E3373
Integration Time (usec): 3000 (USB2E3373)
Spectra Averaged: 3 (USB2E3373)
Boxcar Smoothing: 0 (USB2E3373)
Correct for Electrical Dark: No (USB2E3373)
Strobe/Lamp Enabled: No (USB2E3373)
Correct for Detector Non-linearity: No (USB2E3373)
Correct for Stray Light: No (USB2E3373)
Number of Pixels in Processed Spectrum: 2048
>>>>>Begin Processed Spectral Data<<<<<
178.53	0.000
178.91	-191.667
179.29	-650.000
179.67	-3700.000
180.04	-166.667
180.42	900.000
180.80	1450.000
181.18	0.000
181.56	-287.500
181.94	0.000
182.31	1233.333
182.69	-3600.000
183.07	657.143
183.45	-4100.000
183.83	-1900.000
184.20	380.000
184.58	471.429
184.96	-207.692
185.34	-225.000
185.72	1450.000
186.09	-1050.000
186.47	-3800.000
186.85	1233.333
187.23	680.000
187.61	1600.000
187.98	437.500
188.36	264.286
188.74	283.333
189.12	333.333
189.49	650.000
189.87	0.000
190.25	462.500
190.63	3100.000
191.00	-283.333
191.38	-3300.000
191.76	-850.000
192.14	637.500
192.51	-3000.000
192.89	1450.000
193.27	1200.000
193.65	-1200.000
194.02	-500.000
194.40	542.857
194.78	-192.857
195.15	293.333
195.53	-2600.000
195.91	-580.000
196.29	5000.000
196.66	225.000
197.04	850.000
197.42	-1450.000
197.79	700.000
198.17	358.333
198.55	0.000
198.92	514.286
199.30	833.333
199.68	1900.000
200.05	566.667
200.43	-500.000
200.81	250.000
201.18	3500.000
201.56	250.000
201.94	-650.000
202.31	-325.000
202.69	-420.000
203.07	3300.000
203.44	-283.333
203.82	300.000
204.19	560.000
204.57	-900.000
204.95	-900.000
205.32	-680.000
205.70	700.000
206.08	750.000
206.45	-633.333
206.83	366.667
207.20	189.474
207.58	283.333
207.96	800.000
208.33	0.000
208.71	457.143
209.08	780.000
209.46	-2900.000
209.84	-950.000
210.21	1000.000
210.59	-420.000
210.96	350.000
211.34	-1050.000
211.71	318.182
212.09	750.000
212.46	1500.000
212.84	-350.000
213.22	333.333
213.59	-2900.000
213.97	390.000
214.34	875.000
214.72	1333.333
215.09	1133.333
215.47	-2300.000
215.84	-330.000
216.22	-362.500
216.59	0.000
216.97	0.000
217.34	1100.000
217.72	-1500.000
218.09	1100.000
218.47	400.000
218.84	825.000
219.22	1100.000
219.59	1200.000
219.97	528.571
220.34	400.000
220.72	1650.000
221.09	2800.000
221.47	225.000
221.84	966.667
222.22	310.000
222.59	250.000
222.97	235.714
223.34	200.000
223.72	-1550.000
224.09	1100.000
224.46	223.077
224.84	-450.000
225.21	422.222
225.59	253.333
225.96	1533.333
226.34	-740.000
226.71	-575.000
227.08	-420.000
227.46	0.000
227.83	-400.000
228.21	-1600.000
228.58	283.333
228.95	875.000
229.33	377.778
229.70	1050.000
230.08	338.462
230.45	2300.000
230.82	-550.000
231.20	-1000.000
231.57	-1166.667
231.95	660.000
232.32	283.333
232.69	583.333
233.07	300.000
233.44	-1150.000
233.81	240.000
234.19	162.963
234.56	231.250
234.93	200.000
235.31	230.000
235.68	237.500
236.05	164.286
236.43	125.926
236.80	221.429
237.17	144.828
237.55	159.375
237.92	112.500
238.29	118.182
238.67	128.125
239.04	117.073
239.41	93.750
239.79	102.500
240.16	87.500
240.53	72.131
240.91	68.116
241.28	83.051
241.65	77.273
242.02	83.099
242.40	75.714
242.77	67.033
243.14	62.025
243.51	80.808
243.89	57.944
244.26	61.682
244.63	59.406
245.00	57.798
245.38	50.847
245.75	56.061
246.12	55.556
246.49	44.681
246.87	49.180
247.24	54.667
247.61	56.250
247.98	53.741
248.36	44.848
248.73	52.551
249.10	42.262
249.47	45.500
249.84	44.279
250.22	44.324
250.59	42.500
250.96	40.506
251.33	37.209
251.70	45.089
252.08	45.378
252.45	43.825
252.82	38.403
253.19	38.735
253.56	37.692
253.94	40.580
254.31	38.372
254.68	39.721
255.05	39.655
255.42	39.051
255.79	36.156
256.16	41.017
256.54	39.286
256.91	41.830
257.28	33.779
257.65	38.558
258.02	34.808
258.39	39.828
258.76	40.870
259.14	34.286
259.51	38.484
259.88	37.386
260.25	33.791
260.62	36.986
260.99	31.680
261.36	37.604
261.73	34.574
262.10	37.173
262.47	36.000
262.85	36.267
263.22	34.961
263.59	34.015
263.96	37.093
264.33	32.840
264.70	33.907
265.07	36.585
265.44	34.404
265.81	33.491
266.18	34.554
266.55	35.461
266.92	33.781
267.29	35.307
267.66	34.529
268.03	32.511
268.40	30.867
268.77	35.683
269.14	31.020
269.51	36.748
269.88	31.837
270.25	33.261
270.62	32.189
270.99	33.063
271.36	33.943
271.73	34.591
272.10	31.313
272.47	31.548
272.84	31.337
273.21	31.612
273.58	33.198
273.95	33.265
274.32	31.323
274.69	32.283
275.06	33.333
275.43	30.651
275.80	30.755
276.17	31.066
276.54	33.645
276.91	33.955
277.28	31.204
277.65	33.026
278.02	31.250
278.39	32.554
278.76	29.828
279.13	30.961
279.50	34.545
279.87	32.402
280.23	29.466
280.60	33.577
280.97	31.207
281.34	30.858
281.71	31.652
282.08	31.111
282.45	31.250
282.82	29.264
283.19	32.114
283.56	28.264
283.92	29.316
284.29	30.283
284.66	28.908
285.03	29.851
285.40	28.595
285.77	29.784
286.14	28.947
286.51	29.908
286.87	28.323
287.24	28.078
287.61	26.444
287.98	29.403
288.35	28.889
288.72	28.225
289.08	27.177
289.45	28.354
289.82	29.688
290.19	27.672
290.56	28.675
290.93	28.921
291.29	26.934
291.66	26.836
292.03	26.928
292.40	27.236
292.77	27.855
293.13	28.245
293.50	26.451
293.87	23.442
294.24	24.755
294.60	28.129
294.97	26.993
295.34	26.560
295.71	25.230
296.08	26.133
296.44	26.429
296.81	26.551
297.18	23.828
297.55	24.507
297.91	23.030
298.28	25.725
298.65	25.153
299.02	24.246
299.38	23.981
299.75	23.171
300.12	25.573
300.48	24.239
300.85	25.030
301.22	23.605
301.59	23.467
301.95	24.037
302.32	23.632
302.69	23.303
303.05	25.253
303.42	22.309
303.79	24.377
304.15	22.662
304.52	23.890
304.89	24.840
305.25	23.582
305.62	23.241
305.99	23.152
306.35	22.947
306.72	22.893
307.09	22.153
307.45	23.020
307.82	22.942
308.19	23.299
308.55	22.500
308.92	23.553
309.29	23.767
309.65	21.804
310.02	23.022
310.38	22.632
310.75	22.662
311.12	21.648
311.48	24.228
311.85	21.374
312.22	23.305
312.58	22.352
312.95	22.330
313.31	23.034
313.68	21.482
314.05	22.527
314.41	20.950
314.78	20.833
315.14	22.844
315.51	21.570
315.87	22.901
316.24	22.035
316.61	21.755
316.97	22.202
317.34	22.911
317.70	21.510
318.07	23.132
318.43	22.759
318.80	21.629
319.16	22.028
319.53	22.212
319.89	20.699
320.26	22.998
320.62	21.703
320.99	22.021
321.35	22.727
321.72	21.822
322.08	21.237
322.45	21.617
322.81	21.317
323.18	21.847
323.54	21.864
323.91	22.393
324.27	21.839
324.64	21.280
325.00	21.810
325.37	22.597
325.73	21.248
326.10	22.452
326.46	21.800
326.83	20.480
327.19	21.687
327.56	21.885
327.92	21.475
328.29	22.913
328.65	22.175
329.01	22.070
329.38	20.643
329.74	20.410
330.11	21.025
330.47	20.887
330.84	20.621
331.20	20.812
331.56	22.193
331.93	21.557
332.29	20.153
332.66	22.449
333.02	20.361
333.38	21.990
333.75	22.018
334.11	21.560
334.48	21.282
334.84	19.848
335.20	19.760
335.57	20.151
335.93	21.531
336.29	21.559
336.66	21.355
337.02	20.103
337.38	20.722
337.75	22.044
338.11	20.591
338.47	21.846
338.84	20.576
339.20	20.087
339.56	20.942
339.93	20.569
340.29	19.664
340.65	20.453
341.02	21.078
341.38	20.361
341.74	20.349
342.11	20.451
342.47	19.524
342.83	21.001
343.20	19.968
343.56	18.348
343.92	20.892
344.28	21.212
344.65	19.641
345.01	19.206
345.37	20.112
345.73	19.603
346.10	19.602
346.46	20.175
346.82	18.673
347.19	19.243
347.55	19.672
347.91	19.335
348.27	17.428
348.63	19.620
349.00	18.355
349.36	19.455
349.72	19.954
350.08	20.031
350.45	19.650
350.81	19.495
351.17	18.259
351.53	19.400
351.89	19.270
352.26	19.274
352.62	19.080
352.98	19.172
353.34	20.185
353.70	18.884
354.07	19.000
354.43	19.662
354.79	19.058
355.15	19.372
355.51	18.202
355.87	19.729
356.24	19.246
356.60	18.721
356.96	17.817
357.32	18.538
357.68	19.090
358.04	19.073
358.40	18.891
358.77	18.332
359.13	18.769
359.49	18.829
359.85	18.615
360.21	19.019
360.57	19.124
360.93	18.831
361.29	18.326
361.66	18.270
362.02	17.045
362.38	18.470
362.74	18.471
363.10	18.864
363.46	16.436
363.82	19.355
364.18	18.137
364.54	17.954
364.90	18.809
365.26	18.737
365.62	18.232
365.98	17.825
366.35	17.931
366.71	18.668
367.07	18.362
367.43	18.805
367.79	18.684
368.15	16.554
368.51	17.919
368.87	17.867
369.23	18.087
369.59	18.206
369.95	17.622
370.31	17.933
370.67	17.280
371.03	18.697
371.39	18.075
371.75	18.283
372.11	18.083
372.47	18.219
372.83	17.471
373.19	18.643
373.55	17.526
373.91	16.506
374.27	16.997
374.63	17.627
374.99	18.127
375.35	18.011
375.71	18.602
376.07	17.971
376.42	17.263
376.78	17.084
377.14	17.955
377.50	17.166
377.86	17.937
378.22	17.672
378.58	18.220
378.94	17.984
379.30	17.162
379.66	17.339
380.02	17.771
380.38	17.096
380.74	18.397
381.09	17.815
381.45	17.283
381.81	17.435
382.17	17.033
382.53	17.157
382.89	17.150
383.25	17.170
383.61	16.945
383.97	17.157
384.32	17.541
384.68	18.122
385.04	17.351
385.40	17.378
385.76	17.145
386.12	17.069
386.48	17.264
386.83	16.748
387.19	18.021
387.55	16.726
387.91	17.494
388.27	17.252
388.62	17.077
388.98	16.676
389.34	16.478
389.70	16.568
390.06	18.049
390.42	17.150
390.77	17.875
391.13	16.536
391.49	17.362
391.85	18.400
392.20	17.163
392.56	17.384
392.92	16.788
393.28	17.152
393.64	16.399
393.99	16.479
394.35	16.657
394.71	16.767
395.07	16.727
395.42	17.681
395.78	17.582
396.14	17.470
396.50	16.968
396.85	17.866
397.21	16.606
397.57	16.438
397.92	16.118
398.28	16.216
398.64	17.394
399.00	16.462
399.35	15.888
399.71	16.115
400.07	17.009
400.42	15.821
400.78	17.361
401.14	16.853
401.49	16.878
401.85	17.555
402.21	16.637
402.57	16.936
402.92	16.727
403.28	15.573
403.63	16.892
403.99	16.285
404.35	16.354
404.70	16.952
405.06	15.946
405.42	16.756
405.77	16.428
406.13	16.703
406.49	16.259
406.84	16.300
407.20	17.237
407.55	16.062
407.91	16.784
408.27	17.223
408.62	17.090
408.98	16.677
409.34	16.072
409.69	16.366
410.05	16.219
410.40	16.372
410.76	16.371
411.11	16.825
411.47	16.605
411.83	16.344
412.18	16.184
412.54	16.517
412.89	16.106
413.25	16.933
413.60	16.472
413.96	16.637
414.31	16.057
414.67	16.636
415.03	16.603
415.38	16.719
415.74	15.793
416.09	16.115
416.45	17.065
416.80	17.383
417.16	16.614
417.51	16.752
417.87	16.208
418.22	16.100
418.58	17.134
418.93	16.776
419.29	15.835
419.64	16.233
420.00	16.468
420.35	16.318
420.71	15.578
421.06	15.892
421.42	15.832
421.77	15.547
422.12	16.152
422.48	16.076
422.83	16.574
423.19	16.307
423.54	16.566
423.90	17.157
424.25	16.731
424.61	15.612
424.96	16.206
425.31	16.530
425.67	16.330
426.02	16.040
426.38	16.278
426.73	16.136
427.09	15.896
427.44	16.038
427.79	16.238
428.15	16.735
428.50	17.314
428.85	16.108
429.21	16.802
429.56	16.251
429.92	15.564
430.27	15.675
430.62	16.153
430.98	15.968
431.33	16.079
431.68	15.704
432.04	16.037
432.39	16.026
432.74	16.979
433.10	16.224
433.45	16.370
433.80	16.657
434.16	15.922
434.51	16.718
434.86	17.093
435.22	15.721
435.57	16.420
435.92	17.018
436.28	15.956
436.63	16.856
436.98	16.216
437.34	16.553
437.69	14.950
438.04	16.022
438.39	15.879
438.75	16.648
439.10	16.136
439.45	15.828
439.81	17.004
440.16	16.236
440.51	16.273
440.86	17.151
441.22	16.126
441.57	16.325
441.92	15.647
442.27	16.340
442.63	15.854
442.98	16.703
443.33	16.551
443.68	15.895
444.03	15.881
444.39	16.008
444.74	15.942
445.09	16.324
445.44	16.525
445.79	15.546
446.15	15.947
446.50	16.192
446.85	15.837
447.20	15.025
447.55	16.585
447.91	16.782
448.26	16.400
448.61	16.805
448.96	16.231
449.31	16.502
449.66	16.999
450.02	15.991
450.37	16.713
450.72	16.639
451.07	16.056
451.42	15.945
451.77	16.323
452.12	16.619
452.47	17.315
452.83	17.296
453.18	16.757
453.53	17.111
453.88	17.200
454.23	16.967
454.58	16.608
454.93	16.002
455.28	17.136
455.63	17.021
455.98	17.146
456.34	16.960
456.69	16.524
457.04	16.587
457.39	16.229
457.74	16.779
458.09	16.732
458.44	16.046
458.79	16.711
459.14	15.657
459.49	17.441
459.84	16.467
460.19	16.497
460.54	16.752
460.89	16.738
461.24	17.640
461.59	16.837
461.94	16.548
462.29	17.105
462.64	17.085
462.99	17.083
463.34	16.980
463.69	17.544
464.04	17.098
464.39	17.344
464.74	16.647
465.09	16.367
465.44	16.376
465.79	16.875
466.14	15.951
466.49	15.681
466.84	16.276
467.19	16.930
467.54	17.057
467.89	16.725
468.24	16.676
468.59	16.607
468.94	17.150
469.29	16.616
469.64	17.106
469.99	17.481
470.34	16.698
470.68	17.310
471.03	17.945
471.38	17.748
471.73	17.505
472.08	17.613
472.43	17.070
472.78	17.350
473.13	17.146
473.48	17.726
473.83	17.138
474.17	16.413
474.52	16.647
474.87	16.146
475.22	17.019
475.57	16.527
475.92	16.300
476.27	16.213
476.61	16.836
476.96	17.085
477.31	17.481
477.66	17.123
478.01	16.916
478.36	16.529
478.70	16.774
479.05	16.370
479.40	17.163
479.75	16.981
480.10	16.457
480.45	16.807
480.79	16.359
481.14	16.595
481.49	16.468
481.84	16.007
482.19	15.895
482.53	15.854
482.88	16.622
483.23	16.915
483.58	16.876
483.92	16.910
484.27	16.524
484.62	16.511
484.97	16.206
485.31	15.626
485.66	14.892
486.01	14.714
486.36	14.463
486.70	14.664
487.05	14.761
487.40	15.337
487.75	15.067
488.09	15.625
488.44	15.615
488.79	15.828
489.13	16.424
489.48	16.300
489.83	16.639
490.17	16.020
490.52	16.624
490.87	16.422
491.22	16.401
491.56	16.557
491.91	16.084
492.26	16.927
492.60	16.674
492.95	16.991
493.30	17.698
493.64	16.667
493.99	16.950
494.34	16.674
494.68	16.467
495.03	16.974
495.37	17.470
495.72	17.483
496.07	16.801
496.41	16.507
496.76	16.420
497.11	16.324
497.45	17.229
497.80	17.331
498.14	16.505
498.49	16.992
498.84	17.336
499.18	15.905
499.53	17.226
499.87	17.026
500.22	16.859
500.56	16.435
500.91	17.486
501.26	17.088
501.60	17.395
501.95	16.577
502.29	17.467
502.64	16.630
502.98	16.141
503.33	16.704
503.67	16.909
504.02	16.391
504.36	16.652
504.71	17.975
505.06	16.800
505.40	16.565
505.75	16.932
506.09	17.965
506.44	17.669
506.78	17.344
507.13	16.238
507.47	17.079
507.82	16.983
508.16	17.883
508.51	17.536
508.85	16.857
509.19	16.838
509.54	17.236
509.88	17.653
510.23	17.108
510.57	17.037
510.92	17.383
511.26	17.821
511.61	17.824
511.95	17.621
512.30	18.000
512.64	17.290
512.98	17.734
513.33	17.469
513.67	17.297
514.02	17.039
514.36	17.549
514.70	17.280
515.05	17.155
515.39	18.311
515.74	18.644
516.08	17.375
516.42	18.579
516.77	17.920
517.11	18.293
517.46	17.996
517.80	18.132
518.14	18.423
518.49	17.696
518.83	17.747
519.17	18.414
519.52	19.061
519.86	17.984
520.20	18.904
520.55	17.920
520.89	17.989
521.23	17.290
521.58	17.728
521.92	17.668
522.26	18.069
522.61	18.954
522.95	18.619
523.29	18.655
523.64	17.919
523.98	19.073
524.32	18.397
524.66	17.623
525.01	18.698
525.35	18.268
525.69	18.663
526.04	18.382
526.38	18.423
526.72	18.079
527.06	17.918
527.41	19.407
527.75	18.624
528.09	18.423
528.43	19.036
528.78	18.068
529.12	19.446
529.46	17.650
529.80	17.757
530.15	18.562
530.49	16.787
530.83	17.977
531.17	18.081
531.51	18.700
531.86	17.452
532.20	18.356
532.54	17.765
532.88	18.114
533.22	18.221
533.57	17.633
533.91	17.308
534.25	17.196
534.59	18.304
534.93	18.032
535.27	17.871
535.62	17.795
535.96	17.849
536.30	18.586
536.64	18.012
536.98	17.936
537.32	18.938
537.66	18.112
538.01	18.514
538.35	18.528
538.69	17.900
539.03	17.724
539.37	17.840
539.71	18.395
540.05	18.277
540.39	18.176
540.73	18.481
541.07	16.562
541.42	17.662
541.76	18.126
542.10	17.509
542.44	17.893
542.78	18.502
543.12	17.791
543.46	18.985
543.80	19.298
544.14	18.266
544.48	18.248
544.82	18.716
545.16	17.365
545.50	18.500
545.84	17.866
546.18	18.921
546.52	19.213
546.86	18.633
547.20	17.829
547.54	18.746
547.88	17.640
548.22	18.094
548.56	18.032
548.90	18.387
549.24	17.498
549.58	17.332
549.92	16.961
550.26	18.391
550.60	18.297
550.94	17.639
551.28	18.621
551.62	19.310
551.96	18.851
552.30	17.403
552.64	17.929
552.98	19.072
553.32	17.350
553.66	18.241
554.00	18.983
554.34	18.642
554.68	18.481
555.02	17.990
555.36	18.152
555.69	18.652
556.03	18.662
556.37	17.973
556.71	17.992
557.05	17.824
557.39	18.333
557.73	18.329
558.07	18.846
558.41	18.711
558.75	18.605
559.08	18.513
559.42	18.468
559.76	18.603
560.10	18.513
560.44	18.447
560.78	19.182
561.12	19.135
561.45	17.897
561.79	16.979
562.13	18.130
562.47	18.300
562.81	18.478
563.15	17.324
563.48	16.335
563.82	17.904
564.16	18.843
564.50	16.817
564.84	18.419
565.17	17.647
565.51	17.980
565.85	17.520
566.19	17.917
566.52	16.787
566.86	18.214
567.20	17.640
567.54	17.303
567.88	17.840
568.21	16.276
568.55	17.267
568.89	16.651
569.23	16.350
569.56	16.054
569.90	15.846
570.24	15.639
570.57	15.574
570.91	15.195
571.25	15.273
571.59	14.975
571.92	14.747
572.26	14.879
572.60	14.857
572.93	15.382
573.27	14.905
573.61	15.051
573.95	14.617
574.28	15.196
574.62	14.509
574.96	14.693
575.29	14.535
575.63	14.276
575.97	14.581
576.30	14.553
576.64	14.473
576.98	14.813
577.31	14.759
577.65	14.744
577.98	14.374
578.32	13.835
578.66	14.269
578.99	14.978
579.33	14.637
579.67	14.840
580.00	14.286
580.34	14.506
580.67	14.385
581.01	14.439
581.35	14.132
581.68	13.906
582.02	13.905
582.35	14.171
582.69	14.296
583.02	14.106
583.36	14.448
583.70	14.641
584.03	14.964
584.37	14.791
584.70	14.730
585.04	14.609
585.37	14.495
585.71	14.921
586.04	14.199
586.38	14.747
586.72	14.801
587.05	14.694
587.39	14.311
587.72	14.613
588.06	14.850
588.39	14.841
588.73	14.655
589.06	15.144
589.40	14.992
589.73	14.585
590.07	15.340
590.40	15.854
590.73	15.791
591.07	15.712
591.40	15.529
591.74	15.990
592.07	15.433
592.41	16.027
592.74	15.123
593.08	14.779
593.41	15.230
593.75	15.022
594.08	15.276
594.41	15.119
594.75	15.377
595.08	15.089
595.42	15.635
595.75	15.696
596.09	15.780
596.42	15.040
596.75	16.146
597.09	15.312
597.42	15.755
597.75	15.740
598.09	15.962
598.42	15.259
598.76	15.767
599.09	15.337
599.42	14.948
599.76	15.129
600.09	15.051
600.42	15.331
600.76	15.228
601.09	15.292
601.42	15.523
601.76	14.680
602.09	15.121
602.42	15.564
602.76	15.522
603.09	15.724
603.42	15.780
603.76	15.691
604.09	14.911
604.42	15.405
604.76	15.923
605.09	15.347
605.42	15.685
605.75	15.397
606.09	15.493
606.42	15.520
606.75	15.740
607.09	15.436
607.42	15.468
607.75	15.406
608.08	14.947
608.42	16.065
608.75	15.789
609.08	15.838
609.41	16.091
609.75	16.163
610.08	15.872
610.41	15.986
610.74	16.061
611.07	16.235
611.41	16.080
611.74	15.870
612.07	16.474
612.40	16.277
612.73	16.126
613.07	16.523
613.40	16.541
613.73	15.826
614.06	15.900
614.39	17.020
614.72	15.771
615.06	15.875
615.39	16.139
615.72	16.360
616.05	16.424
616.38	16.388
616.71	15.789
617.05	16.694
617.38	16.124
617.71	16.704
618.04	16.657
618.37	16.676
618.70	16.397
619.03	16.972
619.36	17.337
619.69	16.953
620.03	18.395
620.36	17.213
620.69	17.369
621.02	17.255
621.35	16.261
621.68	17.330
622.01	17.786
622.34	17.553
622.67	18.469
623.00	17.427
623.33	17.679
623.66	16.700
623.99	18.082
624.32	17.480
624.65	17.709
624.99	17.715
625.32	18.103
625.65	16.690
625.98	17.155
626.31	18.398
626.64	16.781
626.97	16.756
627.30	17.780
627.63	18.289
627.96	17.527
628.29	18.069
628.62	18.392
628.95	19.326
629.28	20.333
629.61	18.014
629.94	19.360
630.26	20.537
630.59	20.035
630.92	18.296
631.25	19.764
631.58	19.479
631.91	18.934
632.24	19.436
632.57	19.155
632.90	19.772
633.23	19.727
633.56	20.337
633.89	21.758
634.22	20.344
634.55	20.430
634.88	20.044
635.20	21.300
635.53	19.977
635.86	20.470
636.19	21.100
636.52	20.108
636.85	20.065
637.18	20.802
637.51	20.000
637.83	20.137
638.16	20.281
638.49	20.958
638.82	20.305
639.15	19.389
639.48	21.801
639.81	21.001
640.13	21.104
640.46	22.124
640.79	19.246
641.12	19.160
641.45	23.027
641.77	21.004
642.10	21.151
642.43	21.764
642.76	19.886
643.09	21.470
643.41	21.599
643.74	22.590
644.07	22.271
644.40	22.337
644.73	23.724
645.05	23.626
645.38	22.205
645.71	21.700
646.04	22.901
646.36	23.005
646.69	23.200
647.02	23.840
647.35	23.465
647.67	22.204
648.00	20.358
648.33	21.203
648.66	21.818
648.98	21.594
649.31	18.623
649.64	20.470
649.96	19.772
650.29	20.143
650.62	20.913
650.94	23.494
651.27	22.967
651.60	23.005
651.92	22.734
652.25	22.362
652.58	20.426
652.90	21.707
653.23	20.827
653.56	20.623
653.88	22.320
654.21	22.727
654.54	21.083
654.86	20.354
655.19	21.636
655.52	17.973
655.84	12.792
656.17	14.198
656.49	20.112
656.82	23.169
657.15	18.554
657.47	14.209
657.80	10.261
658.13	8.304
658.45	11.742
658.78	13.678
659.10	14.240
659.43	14.200
659.75	16.170
660.08	15.664
660.41	17.151
660.73	20.954
661.06	21.321
661.38	22.998
661.71	24.281
662.03	23.004
662.36	23.238
662.68	23.650
663.01	24.324
663.33	21.321
663.66	25.838
663.98	24.603
664.31	22.575
664.63	24.904
664.96	23.452
665.28	23.352
665.61	23.396
665.93	23.585
666.26	22.430
666.58	26.606
666.91	24.517
667.23	23.896
667.56	25.051
667.88	26.971
668.21	21.721
668.53	25.806
668.86	25.852
669.18	25.866
669.50	25.000
669.83	22.998
670.15	23.909
670.48	22.852
670.80	24.900
671.13	24.303
671.45	21.844
671.77	25.232
672.10	23.519
672.42	21.217
672.75	21.203
673.07	19.396
673.39	22.204
673.72	23.183
674.04	24.194
674.37	23.775
674.69	21.561
675.01	22.761
675.34	22.481
675.66	26.563
675.98	24.852
676.31	24.000
676.63	23.857
676.95	24.405
677.28	22.312
677.60	23.340
677.92	21.825
678.25	24.031
678.57	24.022
678.89	24.774
679.22	23.346
679.54	22.420
679.86	20.593
680.18	21.265
680.51	19.237
680.83	21.284
681.15	21.144
681.48	22.917
681.80	19.615
682.12	23.010
682.44	19.820
682.77	24.021
683.09	23.107
683.41	24.694
683.73	23.228
684.06	23.810
684.38	22.481
684.70	22.122
685.02	21.354
685.34	22.887
685.67	22.347
685.99	21.511
686.31	22.188
686.63	20.813
686.96	21.569
687.28	20.805
687.60	19.454
687.92	22.446
688.24	23.793
688.56	21.352
688.89	22.753
689.21	21.580
689.53	24.308
689.85	20.732
690.17	23.883
690.49	23.992
690.82	24.580
691.14	25.253
691.46	22.177
691.78	20.273
692.10	23.664
692.42	20.327
692.74	22.093
693.06	21.899
693.39	21.739
693.71	21.807
694.03	23.669
694.35	24.096
694.67	20.978
694.99	24.169
695.31	24.775
695.63	24.887
695.95	23.077
696.27	24.115
696.59	24.582
696.91	25.063
697.23	23.303
697.56	23.029
697.88	20.359
698.20	21.887
698.52	20.233
698.84	24.025
699.16	25.160
699.48	25.424
699.80	25.272
700.12	22.402
700.44	25.701
700.76	22.434
701.08	24.021
701.40	21.818
701.72	30.214
702.04	27.371
702.36	27.151
702.68	24.734
703.00	23.308
703.32	25.062
703.64	25.693
703.96	24.219
704.28	24.603
704.60	25.352
704.91	25.770
705.23	29.830
705.55	25.223
705.87	24.127
706.19	25.392
706.51	27.586
706.83	23.009
707.15	27.540
707.47	25.424
707.79	22.759
708.11	22.449
708.43	20.674
708.74	22.851
709.06	23.488
709.38	23.325
709.70	21.526
710.02	24.185
710.34	24.862
710.66	28.333
710.98	26.776
711.29	25.627
711.61	23.955
711.93	23.404
712.25	28.614
712.57	30.868
712.89	28.485
713.20	25.879
713.52	24.299
713.84	30.514
714.16	21.739
714.48	23.919
714.80	23.035
715.11	23.936
715.43	23.743
715.75	22.817
716.07	27.746
716.39	27.714
716.70	25.545
717.02	23.569
717.34	30.576
717.66	25.000
717.97	35.606
718.29	29.577
718.61	23.649
718.93	28.374
719.24	28.188
719.56	23.793
719.88	22.293
720.20	26.129
720.51	23.856
720.83	28.094
721.15	25.850
721.46	28.082
721.78	26.481
722.10	26.042
722.42	28.428
722.73	23.827
723.05	30.877
723.37	32.509
723.68	27.344
724.00	28.030
724.32	30.038
724.63	28.846
724.95	27.451
725.27	29.740
725.58	28.676
725.90	27.113
726.22	26.370
726.53	26.756
726.85	29.316
727.16	29.866
727.48	25.914
727.80	29.856
728.11	26.071
728.43	29.710
728.74	30.420
729.06	22.581
729.38	27.719
729.69	26.667
730.01	29.934
730.32	25.168
730.64	29.236
730.96	24.324
731.27	21.713
731.59	22.701
731.90	23.955
732.22	26.000
732.53	23.362
732.85	28.947
733.16	24.398
733.48	25.705
733.80	27.826
734.11	28.528
734.43	24.269
734.74	22.252
735.06	26.984
735.37	23.196
735.69	25.507
736.00	25.382
736.32	22.424
736.63	24.290
736.95	25.466
737.26	25.610
737.58	23.313
737.89	22.892
738.21	25.166
738.52	28.428
738.83	29.304
739.15	28.223
739.46	26.897
739.78	26.871
740.09	23.615
740.41	21.779
740.72	25.079
741.04	26.573
741.35	25.781
741.66	27.273
741.98	26.180
742.29	28.241
742.61	31.416
742.92	27.542
743.23	31.600
743.55	30.566
743.86	30.196
744.18	27.966
744.49	33.058
744.80	34.101
745.12	34.375
745.43	30.841
745.74	32.889
746.06	24.561
746.37	26.977
746.68	35.398
747.00	30.942
747.31	28.151
747.62	27.459
747.94	26.609
748.25	31.128
748.56	30.932
748.88	31.250
749.19	33.488
749.50	30.137
749.82	27.572
750.13	26.482
750.44	23.000
750.75	28.859
751.07	25.000
751.38	23.102
751.69	26.936
752.01	23.776
752.32	25.249
752.63	25.839
752.94	25.175
753.26	29.297
753.57	28.794
753.88	23.970
754.19	29.603
754.51	25.581
754.82	26.174
755.13	27.027
755.44	29.630
755.75	30.928
756.07	26.712
756.38	23.529
756.69	23.750
757.00	25.223
757.31	26.479
757.63	21.488
757.94	21.277
758.25	24.396
758.56	24.485
758.87	23.058
759.18	22.965
759.50	21.581
759.81	25.519
760.12	23.876
760.43	24.090
760.74	21.266
761.05	22.281
761.36	20.312
761.67	23.720
761.99	26.479
762.30	27.331
762.61	27.431
762.92	24.242
763.23	26.038
763.54	28.077
763.85	23.346
764.16	27.778
764.47	27.027
764.78	22.476
765.10	21.646
765.41	21.875
765.72	22.928
766.03	24.169
766.34	24.390
766.65	30.798
766.96	29.960
767.27	31.308
767.58	32.673
767.89	34.807
768.20	35.366
768.51	28.061
768.82	32.456
769.13	22.353
769.44	22.932
769.75	22.846
770.06	29.412
770.37	26.754
770.68	27.111
770.99	31.356
771.30	29.707
771.61	28.846
771.92	26.336
772.23	33.871
772.54	33.778
772.85	26.238
773.16	32.609
773.47	27.778
773.78	34.158
774.09	32.386
774.39	35.152
774.70	34.706
775.01	36.842
775.32	31.056
775.63	43.836
775.94	45.679
776.25	36.552
776.56	35.878
776.87	46.565
777.18	41.667
777.48	45.669
777.79	40.769
778.10	40.909
778.41	47.015
778.72	42.105
779.03	36.538
779.34	37.162
779.65	41.615
779.95	37.888
780.26	35.119
780.57	42.857
780.88	33.333
781.19	39.167
781.50	40.237
781.80	34.973
782.11	34.392
782.42	28.736
782.73	40.678
783.04	34.194
783.34	34.884
783.65	27.211
783.96	35.484
784.27	39.073
784.57	34.211
784.88	44.203
785.19	39.167
785.50	43.966
785.81	49.612
786.11	48.148
786.42	45.669
786.73	43.243
787.04	47.170
787.34	39.024
787.65	43.182
787.96	37.879
788.26	48.819
788.57	35.766
788.88	41.549
789.19	32.824
789.49	37.162
789.80	39.062
790.11	46.281
790.41	41.667
790.72	42.593
791.03	50.000
791.33	47.475
791.64	44.211
791.95	58.947
792.25	47.917
792.56	49.000
792.87	57.317
793.17	46.591
793.48	52.941
793.79	63.218
794.09	50.000
794.40	56.897
794.70	49.206
795.01	35.385
795.32	40.458
795.62	35.043
795.93	48.739
796.23	35.772
796.54	55.102
796.85	57.955
797.15	55.844
797.46	65.854
797.76	53.750
798.07	61.333
798.37	73.750
798.68	50.000
798.99	79.268
799.29	56.000
799.60	38.372
799.90	52.632
800.21	69.697
800.51	54.930
800.82	79.310
801.12	80.000
801.43	58.667
801.73	63.793
802.04	63.636
802.34	64.384
802.65	68.627
802.95	54.348
803.26	62.903
803.56	85.000
803.87	77.612
804.17	66.667
804.48	67.925
804.78	58.333
805.09	71.212
805.39	68.254
805.70	77.193
806.00	72.857
806.30	60.937
806.61	54.118
806.91	72.222
807.22	65.217
807.52	57.895
807.83	69.737
808.13	82.609
808.43	61.290
808.74	67.123
809.04	62.500
809.35	66.176
809.65	66.667
809.95	78.431
810.26	85.185
810.56	95.312
810.86	79.592
811.17	70.175
811.47	67.391
811.77	60.345
812.08	77.586
812.38	92.857
812.69	71.429
812.99	95.556
813.29	65.714
813.59	87.097
813.90	82.759
814.20	85.246
814.50	84.000
814.81	71.930
815.11	88.889
815.41	71.429
815.72	78.571
816.02	76.000
816.32	60.976
816.62	94.828
816.93	130.303
817.23	104.878
817.53	83.929
817.84	73.333
818.14	107.143
818.44	97.917
818.74	77.358
819.04	97.436
819.35	127.273
819.65	84.615
819.95	90.741
820.25	104.255
820.56	105.405
820.86	100.000
821.16	57.447
821.46	97.368
821.76	90.909
822.07	64.286
822.37	105.263
822.67	100.000
822.97	73.684
823.27	113.043
823.57	81.250
823.88	128.205
824.18	90.909
824.48	147.826
824.78	111.111
825.08	113.043
825.38	134.483
825.69	117.647
825.99	51.064
826.29	86.111
826.59	151.429
826.89	133.333
827.19	85.714
827.49	132.258
827.79	153.846
828.09	109.524
828.39	77.778
828.70	62.162
829.00	160.714
829.30	168.750
829.60	105.556
829.90	109.677
830.20	115.152
830.50	129.730
830.80	154.167
831.10	161.538
831.40	128.571
831.70	162.500
832.00	133.333
832.30	173.913
832.60	179.167
832.90	133.333
833.20	170.000
833.50	118.421
833.80	117.647
834.10	110.526
834.40	152.632
834.70	120.000
835.00	156.000
835.30	118.919
835.60	140.625
835.90	121.622
836.20	123.077
836.50	150.000
836.80	104.878
837.10	147.826
837.40	292.308
837.70	121.053
838.00	140.000
838.30	162.500
838.60	180.000
838.90	300.000
839.19	112.500
839.49	110.000
839.79	127.586
840.09	165.385
840.39	140.000
840.69	189.474
840.99	142.857
841.29	186.957
841.59	215.000
841.88	172.000
842.18	311.111
842.48	167.857
842.78	148.148
843.08	284.615
843.38	172.727
843.68	285.714
843.97	571.429
844.27	152.174
844.57	1350.000
844.87	285.714
845.17	172.222
845.47	123.810
845.76	137.500
846.06	400.000
846.36	164.706
846.66	292.308
846.96	206.250
847.25	238.462
847.55	173.684
847.85	216.667
848.15	540.000
848.44	245.455
848.74	152.381
849.04	175.000
849.34	188.235
849.63	275.000
849.93	206.250
850.23	733.333
850.53	512.500
850.82	354.545
851.12	200.000
851.42	191.667
851.71	243.750
852.01	0.000
852.31	152.941
852.61	320.000
852.90	170.833
853.20	266.667
853.50	-2600.000
853.79	128.000
854.09	150.000
854.39	124.138
854.68	137.931
854.98	190.476
855.28	125.806
855.57	271.429
855.87	200.000
856.17	137.037
856.46	194.737
856.76	129.032
857.05	217.647
857.35	254.545
857.65	253.846
857.94	180.000
858.24	422.222
858.53	228.571
858.83	557.143
859.13	182.609
859.42	333.333
859.72	412.500
860.01	183.333
860.31	1025.000
860.60	390.000
860.90	387.500
861.20	253.846
861.49	385.714
861.79	-3100.000
862.08	414.286
862.38	344.444
862.67	157.143
862.97	320.000
863.26	116.667
863.56	950.000
863.85	307.692
864.15	229.412
864.44	216.667
864.74	291.667
865.03	354.545
865.33	337.500
865.62	220.000
865.92	433.333
866.21	925.000
866.51	600.000
866.80	166.667
867.10	900.000
867.39	3000.000
867.69	420.000
867.98	750.000
868.27	147.619
868.57	260.000
868.86	800.000
869.16	195.238
869.45	4100.000
869.75	-400.000
870.04	775.000
870.33	500.000
870.63	337.500
870.92	200.000
871.22	775.000
871.51	528.571
871.80	300.000
872.10	292.308
>>>>>End Processed Spectral Data<<<<<
