SpectraSuite Data File
++++++++++++++++++++++++++++++++++++
Date: Tue May 12 17:24:09 PDT 2015
User: schluterlab
Dark Spectrum Present: Yes
Reference Spectrum Present: Yes
Number of Sampled Component Spectra: 1
Spectrometers: USB2E3373
Integration Time (usec): 3000 (USB2E3373)
Spectra Averaged: 3 (USB2E3373)
Boxcar Smoothing: 0 (USB2E3373)
Correct for Electrical Dark: No (USB2E3373)
Strobe/Lamp Enabled: No (USB2E3373)
Correct for Detector Non-linearity: No (USB2E3373)
Correct for Stray Light: No (USB2E3373)
Number of Pixels in Processed Spectrum: 2048
>>>>>Begin Processed Spectral Data<<<<<
178.53	0.000
178.91	-250.000
179.29	-750.000
179.67	-2800.000
180.04	-86.667
180.42	800.000
180.80	1650.000
181.18	0.000
181.56	-387.500
181.94	0.000
182.31	1166.667
182.69	-2700.000
183.07	514.286
183.45	-4200.000
183.83	-1900.000
184.20	280.000
184.58	542.857
184.96	-261.538
185.34	-175.000
185.72	700.000
186.09	-725.000
186.47	-3100.000
186.85	1066.667
187.23	580.000
187.61	2000.000
187.98	450.000
188.36	250.000
188.74	316.667
189.12	341.667
189.49	750.000
189.87	0.000
190.25	475.000
190.63	2700.000
191.00	-183.333
191.38	-4900.000
191.76	-950.000
192.14	600.000
192.51	-3200.000
192.89	1950.000
193.27	866.667
193.65	-1233.333
194.02	-780.000
194.40	385.714
194.78	-200.000
195.15	260.000
195.53	-3100.000
195.91	-520.000
196.29	4200.000
196.66	268.750
197.04	825.000
197.42	-1500.000
197.79	600.000
198.17	341.667
198.55	0.000
198.92	342.857
199.30	1200.000
199.68	2250.000
200.05	616.667
200.43	-466.667
200.81	188.889
201.18	2500.000
201.56	283.333
201.94	-650.000
202.31	-262.500
202.69	-500.000
203.07	3000.000
203.44	-433.333
203.82	250.000
204.19	700.000
204.57	-1150.000
204.95	-700.000
205.32	-560.000
205.70	450.000
206.08	700.000
206.45	-766.667
206.83	344.444
207.20	200.000
207.58	275.000
207.96	620.000
208.33	0.000
208.71	614.286
209.08	640.000
209.46	-2400.000
209.84	-875.000
210.21	740.000
210.59	-560.000
210.96	316.667
211.34	-725.000
211.71	318.182
212.09	775.000
212.46	1800.000
212.84	-516.667
213.22	377.778
213.59	-2700.000
213.97	300.000
214.34	975.000
214.72	1366.667
215.09	1033.333
215.47	-3000.000
215.84	-310.000
216.22	-437.500
216.59	0.000
216.97	0.000
217.34	1550.000
217.72	-1750.000
218.09	1066.667
218.47	425.000
218.84	1075.000
219.22	1166.667
219.59	866.667
219.97	571.429
220.34	488.889
220.72	1850.000
221.09	3100.000
221.47	266.667
221.84	1100.000
222.22	350.000
222.59	222.222
222.97	185.714
223.34	237.500
223.72	-1850.000
224.09	866.667
224.46	284.615
224.84	-525.000
225.21	377.778
225.59	233.333
225.96	1033.333
226.34	-580.000
226.71	-575.000
227.08	-560.000
227.46	0.000
227.83	-550.000
228.21	-1400.000
228.58	391.667
228.95	675.000
229.33	444.444
229.70	1350.000
230.08	307.692
230.45	4100.000
230.82	-625.000
231.20	-600.000
231.57	-833.333
231.95	540.000
232.32	258.333
232.69	500.000
233.07	291.667
233.44	-1900.000
233.81	200.000
234.19	177.778
234.56	231.250
234.93	235.294
235.31	185.000
235.68	300.000
236.05	185.714
236.43	192.593
236.80	292.857
237.17	155.172
237.55	125.000
237.92	122.500
238.29	127.273
238.67	140.625
239.04	141.463
239.41	110.417
239.79	105.000
240.16	100.000
240.53	75.410
240.91	68.116
241.28	77.966
241.65	77.273
242.02	80.282
242.40	72.857
242.77	74.725
243.14	64.557
243.51	72.727
243.89	65.421
244.26	58.879
244.63	68.317
245.00	68.807
245.38	58.475
245.75	56.818
246.12	68.148
246.49	58.156
246.87	50.820
247.24	57.333
247.61	56.250
247.98	52.381
248.36	50.909
248.73	51.020
249.10	48.810
249.47	44.000
249.84	48.259
250.22	54.595
250.59	48.000
250.96	46.835
251.33	50.698
251.70	46.875
252.08	50.000
252.45	45.020
252.82	44.487
253.19	45.455
253.56	41.154
253.94	44.928
254.31	44.961
254.68	43.206
255.05	46.207
255.42	45.255
255.79	42.997
256.16	43.729
256.54	44.156
256.91	41.503
257.28	44.482
257.65	39.812
258.02	41.298
258.39	42.120
258.76	43.768
259.14	40.286
259.51	44.606
259.88	43.161
260.25	34.615
260.62	36.438
260.99	39.394
261.36	41.226
261.73	39.096
262.10	44.241
262.47	41.250
262.85	39.733
263.22	42.416
263.59	41.688
263.96	39.850
264.33	40.494
264.70	42.998
265.07	40.732
265.44	41.284
265.81	37.500
266.18	38.215
266.55	37.352
266.92	38.031
267.29	39.035
267.66	37.892
268.03	38.341
268.40	39.112
268.77	40.308
269.14	35.792
269.51	36.526
269.88	38.571
270.25	36.285
270.62	39.700
270.99	39.959
271.36	38.821
271.73	37.945
272.10	39.192
272.47	38.095
272.84	37.126
273.21	36.364
273.58	36.640
273.95	38.398
274.32	39.494
274.69	36.811
275.06	36.066
275.43	37.739
275.80	35.660
276.17	36.397
276.54	37.757
276.91	39.552
277.28	35.949
277.65	35.055
278.02	36.581
278.39	36.331
278.76	36.897
279.13	35.587
279.50	36.909
279.87	34.451
280.23	35.359
280.60	38.869
280.97	39.310
281.34	33.993
281.71	35.478
282.08	36.410
282.45	33.277
282.82	36.622
283.19	34.022
283.56	34.711
283.92	36.971
284.29	33.611
284.66	34.286
285.03	35.655
285.40	36.364
285.77	32.716
286.14	34.985
286.51	36.043
286.87	30.063
287.24	31.532
287.61	32.979
287.98	33.284
288.35	33.778
288.72	32.625
289.08	32.583
289.45	33.079
289.82	34.063
290.19	33.382
290.56	33.916
290.93	33.957
291.29	31.492
291.66	30.367
292.03	31.136
292.40	32.520
292.77	28.969
293.13	32.810
293.50	30.634
293.87	28.049
294.24	30.909
294.60	30.148
294.97	30.769
295.34	31.341
295.71	28.778
296.08	30.667
296.44	31.639
296.81	28.660
297.18	28.644
297.55	29.926
297.91	27.586
298.28	28.140
298.65	28.712
299.02	29.554
299.38	28.177
299.75	27.317
300.12	27.294
300.48	28.923
300.85	29.559
301.22	26.744
301.59	27.241
301.95	28.005
302.32	29.569
302.69	28.394
303.05	27.497
303.42	27.130
303.79	27.086
304.15	28.273
304.52	26.216
304.89	27.719
305.25	28.476
305.62	27.399
305.99	27.717
306.35	26.316
306.72	26.743
307.09	27.019
307.45	27.350
307.82	26.955
308.19	27.423
308.55	27.600
308.92	29.048
309.29	28.107
309.65	28.246
310.02	29.209
310.38	28.215
310.75	28.447
311.12	28.448
311.48	28.958
311.85	30.057
312.22	30.468
312.58	30.126
312.95	30.485
313.31	31.367
313.68	30.957
314.05	29.853
314.41	30.354
314.78	31.534
315.14	31.469
315.51	33.113
315.87	31.752
316.24	33.053
316.61	33.483
316.97	31.835
317.34	33.243
317.70	35.382
318.07	35.943
318.43	35.589
318.80	36.515
319.16	36.538
319.53	35.752
319.89	36.828
320.26	39.292
320.62	39.744
320.99	38.513
321.35	39.239
321.72	40.323
322.08	40.166
322.45	40.781
322.81	41.812
323.18	42.718
323.54	42.683
323.91	44.968
324.27	44.651
324.64	44.377
325.00	45.948
325.37	45.278
325.73	45.447
326.10	47.556
326.46	45.912
326.83	47.120
327.19	48.514
327.56	48.003
327.92	50.656
328.29	50.573
328.65	51.627
329.01	50.470
329.38	51.184
329.74	49.957
330.11	52.042
330.47	54.390
330.84	50.820
331.20	51.523
331.56	52.936
331.93	54.577
332.29	52.211
332.66	54.082
333.02	52.835
333.38	54.974
333.75	52.544
334.11	53.272
334.48	53.846
334.84	52.280
335.20	54.919
335.57	52.477
335.93	54.163
336.29	51.990
336.66	55.403
337.02	54.491
337.38	53.826
337.75	55.321
338.11	53.249
338.47	55.123
338.84	54.869
339.20	55.152
339.56	55.088
339.93	54.097
340.29	53.445
340.65	55.658
341.02	54.787
341.38	53.366
341.74	56.312
342.11	54.341
342.47	54.143
342.83	56.358
343.20	54.325
343.56	53.693
343.92	54.831
344.28	55.981
344.65	55.420
345.01	53.571
345.37	55.048
345.73	55.000
346.10	55.936
346.46	55.662
346.82	54.321
347.19	54.637
347.55	53.864
347.91	54.305
348.27	54.996
348.63	56.171
349.00	55.065
349.36	56.654
349.72	55.275
350.08	56.444
350.45	56.055
350.81	55.887
351.17	54.777
351.53	55.273
351.89	54.856
352.26	54.573
352.62	56.410
352.98	56.672
353.34	56.086
353.70	55.275
354.07	56.462
354.43	56.375
354.79	54.366
355.15	56.585
355.51	57.855
355.87	56.401
356.24	57.121
356.60	55.479
356.96	55.951
357.32	55.388
357.68	56.314
358.04	56.763
358.40	57.946
358.77	56.875
359.13	55.856
359.49	57.598
359.85	57.856
360.21	56.686
360.57	56.058
360.93	55.556
361.29	56.926
361.66	58.538
362.02	57.102
362.38	57.143
362.74	57.749
363.10	58.906
363.46	57.044
363.82	56.171
364.18	58.321
364.54	59.514
364.90	57.028
365.26	59.334
365.62	59.116
365.98	58.706
366.35	59.034
366.71	57.668
367.07	58.908
367.43	59.234
367.79	58.644
368.15	57.327
368.51	58.649
368.87	59.103
369.23	58.974
369.59	57.856
369.95	59.790
370.31	58.385
370.67	59.126
371.03	58.754
371.39	59.903
371.75	60.851
372.11	59.687
372.47	59.932
372.83	59.619
373.19	60.178
373.55	61.375
373.91	58.702
374.27	59.325
374.63	61.288
374.99	59.704
375.35	60.148
375.71	59.499
376.07	60.676
376.42	59.847
376.78	60.822
377.14	61.664
377.50	59.988
377.86	60.410
378.22	60.938
378.58	61.985
378.94	61.255
379.30	61.128
379.66	62.131
380.02	61.935
380.38	60.187
380.74	61.361
381.09	61.624
381.45	61.850
381.81	61.407
382.17	60.501
382.53	61.068
382.89	61.325
383.25	61.575
383.61	61.153
383.97	61.668
384.32	61.784
384.68	63.458
385.04	62.544
385.40	61.922
385.76	62.434
386.12	63.451
386.48	62.736
386.83	63.998
387.19	62.309
387.55	63.015
387.91	62.933
388.27	63.891
388.62	63.028
388.98	63.324
389.34	61.273
389.70	62.736
390.06	63.537
390.42	61.875
390.77	62.654
391.13	64.333
391.49	63.158
391.85	63.815
392.20	63.349
392.56	63.082
392.92	62.493
393.28	63.004
393.64	62.959
393.99	63.426
394.35	62.036
394.71	61.460
395.07	63.017
395.42	62.119
395.78	64.775
396.14	63.133
396.50	64.320
396.85	62.988
397.21	63.057
397.57	62.343
397.92	61.872
398.28	62.934
398.64	63.060
399.00	62.854
399.35	62.050
399.71	62.914
400.07	62.100
400.42	63.463
400.78	62.405
401.14	63.300
401.49	62.961
401.85	62.630
402.21	63.562
402.57	62.956
402.92	63.576
403.28	61.337
403.63	62.566
403.99	62.726
404.35	62.251
404.70	63.615
405.06	61.875
405.42	61.819
405.77	61.852
406.13	61.659
406.49	61.740
406.84	61.309
407.20	62.785
407.55	62.462
407.91	63.816
408.27	62.341
408.62	61.916
408.98	61.561
409.34	62.069
409.69	62.041
410.05	61.479
410.40	61.484
410.76	61.133
411.11	60.545
411.47	60.926
411.83	61.277
412.18	61.836
412.54	62.282
412.89	60.944
413.25	62.201
413.60	61.332
413.96	61.700
414.31	61.629
414.67	63.439
415.03	61.941
415.38	61.451
415.74	62.666
416.09	61.149
416.45	62.637
416.80	63.053
417.16	62.317
417.51	63.822
417.87	61.827
418.22	60.875
418.58	63.885
418.93	61.630
419.29	60.937
419.64	61.962
420.00	61.337
420.35	63.647
420.71	63.011
421.06	61.036
421.42	62.234
421.77	62.410
422.12	63.010
422.48	61.736
422.83	61.607
423.19	62.527
423.54	61.273
423.90	62.061
424.25	62.796
424.61	62.159
424.96	62.225
425.31	63.437
425.67	64.141
426.02	62.535
426.38	62.427
426.73	64.835
427.09	62.989
427.44	63.478
427.79	64.037
428.15	64.997
428.50	63.371
428.85	63.786
429.21	62.993
429.56	62.812
429.92	62.954
430.27	62.700
430.62	61.723
430.98	63.523
431.33	63.004
431.68	63.012
432.04	62.856
432.39	63.996
432.74	63.759
433.10	63.843
433.45	64.905
433.80	65.141
434.16	63.584
434.51	64.861
434.86	64.507
435.22	65.262
435.57	63.545
435.92	64.428
436.28	64.343
436.63	64.614
436.98	64.865
437.34	64.783
437.69	63.158
438.04	64.194
438.39	64.156
438.75	63.920
439.10	64.220
439.45	63.595
439.81	65.471
440.16	64.172
440.51	65.541
440.86	65.983
441.22	63.690
441.57	63.255
441.92	63.870
442.27	63.299
442.63	63.465
442.98	63.147
443.33	65.238
443.68	64.386
444.03	63.949
444.39	64.736
444.74	64.027
445.09	64.034
445.44	64.665
445.79	64.961
446.15	63.579
446.50	65.981
446.85	64.442
447.20	64.577
447.55	65.525
447.91	64.784
448.26	64.271
448.61	66.169
448.96	65.632
449.31	64.576
449.66	65.061
450.02	64.452
450.37	65.353
450.72	65.950
451.07	65.678
451.42	65.501
451.77	64.605
452.12	65.003
452.47	64.520
452.83	64.563
453.18	64.565
453.53	66.134
453.88	66.057
454.23	65.718
454.58	64.394
454.93	64.991
455.28	64.933
455.63	65.780
455.98	65.313
456.34	66.079
456.69	65.976
457.04	65.692
457.39	66.400
457.74	65.709
458.09	65.357
458.44	64.732
458.79	64.562
459.14	65.194
459.49	65.062
459.84	66.141
460.19	64.689
460.54	65.641
460.89	65.032
461.24	64.834
461.59	65.476
461.94	65.662
462.29	64.760
462.64	65.389
462.99	64.747
463.34	65.133
463.69	65.759
464.04	65.861
464.39	63.709
464.74	64.068
465.09	64.016
465.44	65.016
465.79	65.324
466.14	63.540
466.49	65.274
466.84	63.824
467.19	65.436
467.54	63.604
467.89	65.023
468.24	65.489
468.59	64.405
468.94	65.399
469.29	65.119
469.64	64.309
469.99	64.781
470.34	64.896
470.68	64.138
471.03	65.043
471.38	66.358
471.73	65.709
472.08	67.189
472.43	65.922
472.78	65.813
473.13	62.954
473.48	64.792
473.83	64.900
474.17	64.377
474.52	64.929
474.87	65.662
475.22	65.448
475.57	63.746
475.92	65.049
476.27	64.200
476.61	64.665
476.96	64.316
477.31	65.553
477.66	64.895
478.01	65.137
478.36	65.088
478.70	64.169
479.05	65.743
479.40	65.129
479.75	65.144
480.10	64.424
480.45	64.146
480.79	64.286
481.14	64.242
481.49	62.717
481.84	64.336
482.19	64.629
482.53	63.944
482.88	63.486
483.23	63.780
483.58	64.767
483.92	65.219
484.27	63.913
484.62	64.856
484.97	62.797
485.31	61.946
485.66	60.174
486.01	59.226
486.36	59.453
486.70	59.724
487.05	61.218
487.40	60.708
487.75	62.033
488.09	61.619
488.44	62.269
488.79	63.277
489.13	63.345
489.48	63.364
489.83	63.386
490.17	62.841
490.52	65.073
490.87	63.664
491.22	64.450
491.56	64.998
491.91	64.382
492.26	63.786
492.60	66.743
492.95	65.428
493.30	64.240
493.64	65.274
493.99	63.730
494.34	63.245
494.68	65.250
495.03	63.493
495.37	64.295
495.72	65.082
496.07	64.151
496.41	64.292
496.76	64.331
497.11	63.967
497.45	62.911
497.80	65.292
498.14	64.725
498.49	64.949
498.84	64.860
499.18	63.071
499.53	64.814
499.87	64.061
500.22	64.809
500.56	64.624
500.91	65.538
501.26	64.171
501.60	65.710
501.95	64.158
502.29	65.022
502.64	63.123
502.98	64.340
503.33	64.855
503.67	64.415
504.02	63.950
504.36	64.344
504.71	64.711
505.06	64.899
505.40	64.530
505.75	65.622
506.09	64.116
506.44	64.568
506.78	65.643
507.13	66.263
507.47	66.084
507.82	65.547
508.16	66.487
508.51	66.377
508.85	66.144
509.19	66.079
509.54	65.234
509.88	65.440
510.23	65.392
510.57	63.948
510.92	66.384
511.26	65.964
511.61	64.746
511.95	65.704
512.30	66.200
512.64	66.147
512.98	66.222
513.33	64.908
513.67	65.976
514.02	65.351
514.36	66.251
514.70	67.733
515.05	67.395
515.39	68.202
515.74	67.250
516.08	67.429
516.42	68.470
516.77	67.413
517.11	67.733
517.46	67.241
517.80	66.357
518.14	68.620
518.49	66.538
518.83	67.198
519.17	67.610
519.52	66.849
519.86	66.594
520.20	66.904
520.55	68.061
520.89	67.299
521.23	69.918
521.58	67.699
521.92	68.688
522.26	67.891
522.61	68.271
522.95	68.889
523.29	68.480
523.64	68.266
523.98	69.366
524.32	67.474
524.66	67.768
525.01	67.811
525.35	67.885
525.69	70.620
526.04	68.650
526.38	68.570
526.72	68.317
527.06	68.421
527.41	69.045
527.75	69.568
528.09	67.790
528.43	69.005
528.78	70.066
529.12	69.717
529.46	68.147
529.80	66.881
530.15	67.826
530.49	67.870
530.83	70.506
531.17	69.803
531.51	68.853
531.86	66.848
532.20	67.429
532.54	69.366
532.88	69.144
533.22	70.445
533.57	69.677
533.91	67.657
534.25	67.571
534.59	67.836
534.93	67.520
535.27	66.591
535.62	66.628
535.96	68.617
536.30	69.409
536.64	67.578
536.98	67.778
537.32	68.188
537.66	68.048
538.01	68.607
538.35	68.684
538.69	68.143
539.03	67.475
539.37	65.837
539.71	68.086
540.05	68.185
540.39	68.302
540.73	67.848
541.07	67.315
541.42	68.159
541.76	67.694
542.10	68.002
542.44	68.953
542.78	68.219
543.12	67.117
543.46	67.607
543.80	68.358
544.14	69.102
544.48	67.579
544.82	68.135
545.16	66.606
545.50	66.687
545.84	68.371
546.18	71.586
546.52	70.557
546.86	68.279
547.20	68.475
547.54	66.878
547.88	67.701
548.22	66.667
548.56	66.117
548.90	66.548
549.24	68.667
549.58	68.106
549.92	68.697
550.26	69.777
550.60	67.798
550.94	70.014
551.28	69.379
551.62	69.931
551.96	69.865
552.30	68.820
552.64	68.544
552.98	69.137
553.32	67.670
553.66	67.622
554.00	67.889
554.34	69.308
554.68	68.884
555.02	70.401
555.36	68.019
555.69	68.586
556.03	68.280
556.37	67.750
556.71	68.514
557.05	68.152
557.39	67.600
557.73	69.003
558.07	69.148
558.41	67.718
558.75	69.289
559.08	71.337
559.42	70.723
559.76	70.848
560.10	68.961
560.44	68.414
560.78	68.286
561.12	68.659
561.45	67.960
561.79	66.542
562.13	67.720
562.47	68.138
562.81	68.055
563.15	68.261
563.48	65.590
563.82	68.185
564.16	67.662
564.50	67.932
564.84	69.058
565.17	66.310
565.51	70.074
565.85	69.340
566.19	67.798
566.52	66.667
566.86	67.951
567.20	68.483
567.54	65.993
567.88	66.615
568.21	65.252
568.55	65.516
568.89	64.918
569.23	63.934
569.56	63.898
569.90	62.127
570.24	62.487
570.57	62.265
570.91	61.248
571.25	60.380
571.59	59.927
571.92	59.957
572.26	60.081
572.60	60.011
572.93	60.437
573.27	61.258
573.61	59.746
573.95	59.811
574.28	60.373
574.62	59.595
574.96	58.974
575.29	58.750
575.63	58.822
575.97	58.642
576.30	58.593
576.64	59.572
576.98	58.858
577.31	59.306
577.65	59.080
577.98	58.130
578.32	58.532
578.66	58.243
578.99	58.506
579.33	59.562
579.67	59.197
580.00	58.748
580.34	59.477
580.67	58.680
581.01	58.723
581.35	58.795
581.68	57.378
582.02	57.536
582.35	58.039
582.69	58.523
583.02	58.962
583.36	59.397
583.70	59.788
584.03	60.726
584.37	59.818
584.70	59.716
585.04	58.649
585.37	58.544
585.71	59.416
586.04	58.693
586.38	59.325
586.72	59.562
587.05	59.393
587.39	59.393
587.72	59.283
588.06	59.921
588.39	60.082
588.73	59.439
589.06	60.344
589.40	61.534
589.73	61.062
590.07	62.869
590.40	61.882
590.73	62.211
591.07	61.594
591.40	61.916
591.74	61.769
592.07	62.146
592.41	61.071
592.74	61.406
593.08	60.254
593.41	59.455
593.75	59.824
594.08	60.086
594.41	59.954
594.75	60.514
595.08	61.557
595.42	60.171
595.75	60.217
596.09	62.461
596.42	61.289
596.75	62.540
597.09	62.361
597.42	62.082
597.75	61.907
598.09	61.141
598.42	62.179
598.76	59.830
599.09	61.787
599.42	59.862
599.76	59.905
600.09	60.508
600.42	60.083
600.76	60.979
601.09	60.442
601.42	60.190
601.76	60.938
602.09	61.737
602.42	59.630
602.76	60.797
603.09	62.179
603.42	61.248
603.76	60.231
604.09	61.129
604.42	60.490
604.76	61.912
605.09	61.388
605.42	61.682
605.75	60.047
606.09	60.979
606.42	60.541
606.75	60.707
607.09	60.758
607.42	60.747
607.75	59.912
608.08	60.601
608.42	60.822
608.75	60.762
609.08	60.449
609.41	63.000
609.75	61.813
610.08	61.601
610.41	61.616
610.74	61.082
611.07	62.847
611.41	62.187
611.74	62.333
612.07	62.042
612.40	62.963
612.73	64.004
613.07	63.305
613.40	63.108
613.73	62.406
614.06	61.400
614.39	63.283
614.72	61.477
615.06	61.128
615.39	61.436
615.72	61.229
616.05	62.883
616.38	61.796
616.71	63.049
617.05	62.109
617.38	63.202
617.71	63.217
618.04	63.825
618.37	62.257
618.70	63.337
619.03	63.919
619.36	64.259
619.69	64.380
620.03	66.601
620.36	64.290
620.69	65.964
621.02	64.810
621.35	64.255
621.68	66.667
622.01	66.716
622.34	66.205
622.67	64.045
623.00	64.466
623.33	64.845
623.66	64.937
623.99	65.616
624.32	64.160
624.65	64.253
624.99	66.126
625.32	64.729
625.65	64.414
625.98	64.296
626.31	67.136
626.64	66.591
626.97	65.340
627.30	65.450
627.63	67.896
627.96	66.510
628.29	66.914
628.62	65.954
628.95	68.972
629.28	69.500
629.61	68.102
629.94	67.416
630.26	68.371
630.59	67.553
630.92	67.265
631.25	68.178
631.58	70.395
631.91	69.172
632.24	67.833
632.57	70.138
632.90	72.257
633.23	72.298
633.56	69.336
633.89	72.347
634.22	71.798
634.55	69.892
634.88	70.975
635.20	70.628
635.53	73.403
635.86	72.371
636.19	69.921
636.52	69.514
636.85	68.716
637.18	68.581
637.51	69.497
637.83	70.137
638.16	71.630
638.49	72.695
638.82	71.009
639.15	70.623
639.48	71.801
639.81	73.260
640.13	71.288
640.46	73.072
640.79	73.082
641.12	72.572
641.45	73.739
641.77	73.316
642.10	72.155
642.43	76.529
642.76	73.153
643.09	74.352
643.41	73.913
643.74	73.669
644.07	77.434
644.40	73.373
644.73	76.426
645.05	74.591
645.38	75.651
645.71	74.507
646.04	75.267
646.36	75.117
646.69	76.800
647.02	75.680
647.35	72.283
647.67	76.661
648.00	77.036
648.33	72.180
648.66	76.061
648.98	72.609
649.31	70.310
649.64	69.986
649.96	69.417
650.29	69.857
650.62	70.692
650.94	73.193
651.27	75.439
651.60	71.987
651.92	72.965
652.25	75.748
652.58	71.915
652.90	73.204
653.23	72.821
653.56	69.139
653.88	70.485
654.21	71.554
654.54	68.521
654.86	70.796
655.19	67.942
655.52	60.307
655.84	50.114
656.17	56.734
656.49	79.930
656.82	89.969
657.15	72.334
657.47	55.209
657.80	41.266
658.13	32.963
658.45	44.549
658.78	53.979
659.10	54.319
659.43	55.033
659.75	56.705
660.08	59.336
660.41	62.704
660.73	67.754
661.06	71.772
661.38	72.913
661.71	72.662
662.03	74.525
662.36	75.048
662.68	74.674
663.01	73.333
663.33	72.453
663.66	73.176
663.98	72.817
664.31	73.134
664.63	77.203
664.96	73.171
665.28	72.128
665.61	72.642
665.93	74.340
666.26	72.336
666.58	74.128
666.91	74.903
667.23	73.494
667.56	73.101
667.88	78.631
668.21	75.615
668.53	72.782
668.86	74.749
669.18	72.709
669.50	75.207
669.83	75.359
670.15	76.091
670.48	72.266
670.80	70.518
671.13	71.912
671.45	75.551
671.77	71.243
672.10	71.095
672.42	66.941
672.75	69.462
673.07	68.998
673.39	67.093
673.72	70.761
674.04	71.685
674.37	67.151
674.69	70.818
675.01	72.015
675.34	70.155
675.66	73.438
675.98	73.964
676.31	70.800
676.63	75.149
676.95	72.024
677.28	70.385
677.60	69.215
677.92	69.643
678.25	73.062
678.57	67.970
678.89	70.344
679.22	69.669
679.54	67.616
679.86	68.586
680.18	69.772
680.51	63.682
680.83	65.878
681.15	68.458
681.48	66.319
681.80	65.674
682.12	66.955
682.44	66.126
682.77	65.125
683.09	68.932
683.41	70.000
683.73	68.701
684.06	68.651
684.38	67.054
684.70	65.468
685.02	65.104
685.34	66.901
685.67	64.630
685.99	64.860
686.31	61.017
686.63	63.415
686.96	64.379
687.28	62.752
687.60	66.041
687.92	65.494
688.24	66.897
688.56	66.192
688.89	66.730
689.21	65.125
689.53	68.972
689.85	63.821
690.17	63.301
690.49	68.145
690.82	70.168
691.14	68.889
691.46	66.735
691.78	67.446
692.10	66.794
692.42	63.339
692.74	67.829
693.06	64.535
693.39	69.960
693.71	65.619
694.03	69.822
694.35	69.478
694.67	60.081
694.99	66.075
695.31	68.468
695.63	69.231
695.95	63.575
696.27	70.354
696.59	71.360
696.91	67.848
697.23	67.647
697.56	62.863
697.88	63.273
698.20	61.887
698.52	58.171
698.84	65.503
699.16	68.657
699.48	66.102
699.80	66.667
700.12	68.129
700.44	66.822
700.76	67.542
701.08	72.063
701.40	66.494
701.72	69.251
702.04	73.713
702.36	68.817
702.68	71.011
703.00	62.907
703.32	67.494
703.64	67.506
703.96	70.052
704.28	65.079
704.60	69.859
704.91	69.188
705.23	69.034
705.55	72.404
705.87	70.794
706.19	69.906
706.51	74.922
706.83	68.732
707.15	66.310
707.47	68.039
707.79	62.529
708.11	64.399
708.43	61.798
708.74	63.575
709.06	61.395
709.38	65.012
709.70	67.575
710.02	65.217
710.34	66.851
710.66	67.778
710.98	67.760
711.29	65.460
711.61	65.181
711.93	68.389
712.25	66.867
712.57	70.740
712.89	65.758
713.20	69.968
713.52	72.274
713.84	65.861
714.16	64.638
714.48	64.265
714.80	63.957
715.11	61.968
715.43	65.084
715.75	65.634
716.07	64.740
716.39	62.571
716.70	63.551
717.02	69.360
717.34	74.460
717.66	73.611
717.97	76.136
718.29	70.070
718.61	61.149
718.93	71.280
719.24	68.456
719.56	68.276
719.88	63.694
720.20	66.774
720.51	65.359
720.83	67.224
721.15	68.367
721.46	65.753
721.78	70.732
722.10	68.403
722.42	64.883
722.73	68.231
723.05	68.070
723.37	69.611
723.68	71.484
724.00	68.561
724.32	71.483
724.63	68.077
724.95	69.412
725.27	65.799
725.58	65.441
725.90	65.141
726.22	63.699
726.53	63.545
726.85	66.775
727.16	67.114
727.48	66.113
727.80	66.547
728.11	71.429
728.43	57.971
728.74	66.434
729.06	63.082
729.38	65.965
729.69	64.000
730.01	66.776
730.32	64.765
730.64	65.116
730.96	62.462
731.27	57.798
731.59	60.920
731.90	61.560
732.22	60.857
732.53	56.980
732.85	61.696
733.16	60.843
733.48	60.188
733.80	59.130
734.11	64.110
734.43	59.649
734.74	54.960
735.06	60.317
735.37	55.670
735.69	57.101
736.00	60.550
736.32	56.061
736.63	57.729
736.95	59.938
737.26	57.012
737.58	58.896
737.89	58.133
738.21	60.596
738.52	56.856
738.83	64.469
739.15	60.627
739.46	61.724
739.78	59.864
740.09	56.851
740.41	62.577
740.72	62.857
741.04	65.734
741.35	67.188
741.66	63.636
741.98	68.240
742.29	68.981
742.61	65.929
742.92	61.017
743.23	62.000
743.55	58.113
743.86	62.353
744.18	65.254
744.49	65.289
744.80	65.899
745.12	68.304
745.43	70.093
745.74	74.667
746.06	60.526
746.37	66.047
746.68	72.566
747.00	67.265
747.31	59.244
747.62	60.656
747.94	64.807
748.25	59.533
748.56	66.102
748.88	64.286
749.19	65.581
749.50	67.123
749.82	65.432
750.13	62.055
750.44	55.000
750.75	61.074
751.07	63.158
751.38	59.406
751.69	56.229
752.01	57.692
752.32	58.804
752.63	57.718
752.94	58.392
753.26	64.844
753.57	64.591
753.88	55.805
754.19	58.484
754.51	57.475
754.82	58.054
755.13	54.730
755.44	59.259
755.75	57.388
756.07	54.110
756.38	52.614
756.69	55.625
757.00	59.050
757.31	55.775
757.63	51.240
757.94	57.447
758.25	49.758
758.56	51.259
758.87	52.882
759.18	55.233
759.50	55.015
759.81	55.786
760.12	53.933
760.43	56.303
760.74	54.177
761.05	50.398
761.36	50.260
761.67	51.752
761.99	55.493
762.30	54.341
762.61	55.903
762.92	57.197
763.23	56.604
763.54	57.308
763.85	57.198
764.16	55.556
764.47	56.081
764.78	54.723
765.10	51.220
765.41	50.000
765.72	50.000
766.03	49.849
766.34	56.098
766.65	62.357
766.96	57.895
767.27	64.486
767.58	65.842
767.89	65.746
768.20	78.659
768.51	59.184
768.82	58.333
769.13	58.039
769.44	53.759
769.75	55.431
770.06	57.563
770.37	54.386
770.68	58.667
770.99	55.932
771.30	60.251
771.61	60.769
771.92	55.344
772.23	58.468
772.54	53.778
772.85	63.861
773.16	65.217
773.47	70.556
773.78	57.426
774.09	60.795
774.39	66.667
774.70	60.000
775.01	62.500
775.32	65.839
775.63	74.658
775.94	72.222
776.25	71.034
776.56	73.282
776.87	72.519
777.18	67.424
777.48	83.465
777.79	77.692
778.10	72.727
778.41	76.866
778.72	68.421
779.03	63.462
779.34	61.486
779.65	59.006
779.95	65.839
780.26	61.310
780.57	82.313
780.88	75.887
781.19	83.333
781.50	60.947
781.80	68.852
782.11	57.143
782.42	56.897
782.73	58.757
783.04	63.871
783.34	61.240
783.65	65.306
783.96	72.903
784.27	64.901
784.57	57.895
784.88	66.667
785.19	60.000
785.50	69.828
785.81	73.643
786.11	66.667
786.42	66.929
786.73	69.369
787.04	75.472
787.34	59.350
787.65	61.364
787.96	75.758
788.26	76.378
788.57	68.613
788.88	68.310
789.19	59.542
789.49	64.189
789.80	70.313
790.11	71.074
790.41	76.852
790.72	65.741
791.03	75.962
791.33	75.758
791.64	82.105
791.95	82.105
792.25	75.000
792.56	80.000
792.87	80.488
793.17	78.409
793.48	91.765
793.79	88.506
794.09	80.682
794.40	72.414
794.70	68.254
795.01	66.154
795.32	55.725
795.62	65.812
795.93	75.630
796.23	65.041
796.54	65.306
796.85	81.818
797.15	96.104
797.46	91.463
797.76	75.000
798.07	81.333
798.37	77.500
798.68	80.000
798.99	97.561
799.29	82.667
799.60	77.907
799.90	81.579
800.21	90.909
800.51	90.141
800.82	100.000
801.12	92.308
801.43	92.000
801.73	81.034
802.04	77.922
802.34	73.973
802.65	123.529
802.95	117.391
803.26	104.839
803.56	118.333
803.87	110.448
804.17	103.175
804.48	105.660
804.78	91.667
805.09	100.000
805.39	93.651
805.70	103.509
806.00	77.143
806.30	92.187
806.61	72.941
806.91	84.444
807.22	71.739
807.52	77.632
807.83	102.632
808.13	91.304
808.43	106.452
808.74	87.671
809.04	92.857
809.35	111.765
809.65	89.394
809.95	121.569
810.26	116.667
810.56	98.438
810.86	104.082
811.17	107.018
811.47	113.043
811.77	100.000
812.08	72.414
812.38	111.905
812.69	88.095
812.99	100.000
813.29	111.429
813.59	148.387
813.90	108.621
814.20	90.164
814.50	126.000
814.81	77.193
815.11	116.667
815.41	92.857
815.72	121.429
816.02	110.000
816.32	117.073
816.62	98.276
816.93	145.455
817.23	134.146
817.53	114.286
817.84	95.556
818.14	111.905
818.44	89.583
818.74	109.434
819.04	130.769
819.35	154.545
819.65	101.923
819.95	131.481
820.25	119.149
820.56	143.243
820.86	110.526
821.16	89.362
821.46	131.579
821.76	120.000
822.07	109.524
822.37	110.526
822.67	118.605
822.97	92.105
823.27	117.391
823.57	96.875
823.88	141.026
824.18	136.364
824.48	147.826
824.78	133.333
825.08	173.913
825.38	168.966
825.69	132.353
825.99	95.745
826.29	127.778
826.59	131.429
826.89	143.333
827.19	111.429
827.49	148.387
827.79	161.538
828.09	104.762
828.39	127.778
828.70	89.189
829.00	182.143
829.30	218.750
829.60	125.000
829.90	145.161
830.20	118.182
830.50	129.730
830.80	150.000
831.10	161.538
831.40	171.429
831.70	183.333
832.00	146.667
832.30	152.174
832.60	195.833
832.90	151.515
833.20	260.000
833.50	136.842
833.80	126.471
834.10	128.947
834.40	152.632
834.70	110.000
835.00	156.000
835.30	124.324
835.60	140.625
835.90	137.838
836.20	196.154
836.50	150.000
836.80	117.073
837.10	213.043
837.40	376.923
837.70	221.053
838.00	150.000
838.30	166.667
838.60	196.000
838.90	350.000
839.19	206.250
839.49	153.333
839.79	158.621
840.09	173.077
840.39	313.333
840.69	231.579
840.99	123.810
841.29	208.696
841.59	205.000
841.88	196.000
842.18	244.444
842.48	150.000
842.78	185.185
843.08	230.769
843.38	168.182
843.68	250.000
843.97	485.714
844.27	160.870
844.57	1650.000
844.87	314.286
845.17	200.000
845.47	142.857
845.76	179.167
846.06	400.000
846.36	200.000
846.66	253.846
846.96	243.750
847.25	200.000
847.55	252.632
847.85	216.667
848.15	480.000
848.44	254.545
848.74	214.286
849.04	170.833
849.34	235.294
849.63	168.750
849.93	243.750
850.23	1333.333
850.53	450.000
850.82	318.182
851.12	223.529
851.42	175.000
851.71	293.750
852.01	0.000
852.31	200.000
852.61	370.000
852.90	129.167
853.20	400.000
853.50	-1300.000
853.79	168.000
854.09	162.500
854.39	144.828
854.68	175.862
854.98	214.286
855.28	138.710
855.57	271.429
855.87	227.778
856.17	155.556
856.46	184.211
856.76	125.806
857.05	247.059
857.35	254.545
857.65	215.385
857.94	195.000
858.24	411.111
858.53	292.857
858.83	671.429
859.13	230.435
859.42	288.889
859.72	387.500
860.01	333.333
860.31	675.000
860.60	420.000
860.90	412.500
861.20	253.846
861.49	528.571
861.79	-3800.000
862.08	500.000
862.38	377.778
862.67	228.571
862.97	330.000
863.26	153.333
863.56	775.000
863.85	238.462
864.15	335.294
864.44	255.556
864.74	375.000
865.03	218.182
865.33	325.000
865.62	286.667
865.92	566.667
866.21	700.000
866.51	640.000
866.80	194.444
867.10	1166.667
867.39	2700.000
867.69	800.000
867.98	900.000
868.27	190.476
868.57	260.000
868.86	1075.000
869.16	166.667
869.45	3300.000
869.75	-500.000
870.04	800.000
870.33	620.000
870.63	487.500
870.92	194.118
871.22	975.000
871.51	342.857
871.80	300.000
872.10	292.308
>>>>>End Processed Spectral Data<<<<<
