SpectraSuite Data File
++++++++++++++++++++++++++++++++++++
Date: Tue May 12 16:51:57 PDT 2015
User: schluterlab
Dark Spectrum Present: Yes
Reference Spectrum Present: Yes
Number of Sampled Component Spectra: 1
Spectrometers: USB2E3373
Integration Time (usec): 3000 (USB2E3373)
Spectra Averaged: 3 (USB2E3373)
Boxcar Smoothing: 0 (USB2E3373)
Correct for Electrical Dark: No (USB2E3373)
Strobe/Lamp Enabled: No (USB2E3373)
Correct for Detector Non-linearity: No (USB2E3373)
Correct for Stray Light: No (USB2E3373)
Number of Pixels in Processed Spectrum: 2048
>>>>>Begin Processed Spectral Data<<<<<
178.53	0.000
178.91	-216.667
179.29	-950.000
179.67	-3800.000
180.04	-140.000
180.42	400.000
180.80	1600.000
181.18	0.000
181.56	-312.500
181.94	0.000
182.31	866.667
182.69	-2500.000
183.07	757.143
183.45	-3200.000
183.83	-1900.000
184.20	330.000
184.58	471.429
184.96	-176.923
185.34	-250.000
185.72	1750.000
186.09	-875.000
186.47	-3400.000
186.85	1066.667
187.23	640.000
187.61	1600.000
187.98	487.500
188.36	335.714
188.74	366.667
189.12	383.333
189.49	975.000
189.87	0.000
190.25	475.000
190.63	2200.000
191.00	-225.000
191.38	-4000.000
191.76	-650.000
192.14	637.500
192.51	-3800.000
192.89	1100.000
193.27	1133.333
193.65	-1133.333
194.02	-760.000
194.40	671.429
194.78	-164.286
195.15	206.667
195.53	-3000.000
195.91	-660.000
196.29	3500.000
196.66	212.500
197.04	725.000
197.42	-1200.000
197.79	450.000
198.17	350.000
198.55	0.000
198.92	514.286
199.30	1066.667
199.68	2000.000
200.05	566.667
200.43	-483.333
200.81	161.111
201.18	2800.000
201.56	258.333
201.94	-725.000
202.31	-375.000
202.69	-460.000
203.07	3400.000
203.44	-516.667
203.82	358.333
204.19	640.000
204.57	-1550.000
204.95	-725.000
205.32	-760.000
205.70	516.667
206.08	700.000
206.45	-1000.000
206.83	411.111
207.20	210.526
207.58	283.333
207.96	540.000
208.33	0.000
208.71	485.714
209.08	580.000
209.46	-3400.000
209.84	-750.000
210.21	900.000
210.59	-600.000
210.96	275.000
211.34	-900.000
211.71	445.455
212.09	950.000
212.46	1600.000
212.84	-366.667
213.22	500.000
213.59	-3300.000
213.97	400.000
214.34	1100.000
214.72	1333.333
215.09	866.667
215.47	-3700.000
215.84	-290.000
216.22	-325.000
216.59	0.000
216.97	0.000
217.34	1100.000
217.72	-1200.000
218.09	1300.000
218.47	525.000
218.84	825.000
219.22	900.000
219.59	900.000
219.97	514.286
220.34	355.556
220.72	1900.000
221.09	3700.000
221.47	316.667
221.84	1166.667
222.22	380.000
222.59	238.889
222.97	235.714
223.34	193.750
223.72	-1850.000
224.09	1033.333
224.46	338.462
224.84	-900.000
225.21	411.111
225.59	313.333
225.96	1533.333
226.34	-680.000
226.71	-775.000
227.08	-480.000
227.46	0.000
227.83	-683.333
228.21	-1850.000
228.58	425.000
228.95	875.000
229.33	377.778
229.70	900.000
230.08	369.231
230.45	3900.000
230.82	-850.000
231.20	-900.000
231.57	-933.333
231.95	480.000
232.32	275.000
232.69	416.667
233.07	250.000
233.44	-1350.000
233.81	313.333
234.19	177.778
234.56	231.250
234.93	235.294
235.31	220.000
235.68	262.500
236.05	178.571
236.43	148.148
236.80	242.857
237.17	134.483
237.55	156.250
237.92	112.500
238.29	130.303
238.67	153.125
239.04	126.829
239.41	85.417
239.79	97.500
240.16	114.583
240.53	93.443
240.91	78.261
241.28	86.441
241.65	86.364
242.02	88.732
242.40	88.571
242.77	72.527
243.14	73.418
243.51	82.828
243.89	65.421
244.26	65.421
244.63	69.307
245.00	84.404
245.38	61.017
245.75	59.091
246.12	71.852
246.49	63.830
246.87	56.557
247.24	62.000
247.61	58.750
247.98	67.347
248.36	56.970
248.73	64.286
249.10	57.143
249.47	57.000
249.84	53.234
250.22	58.919
250.59	59.500
250.96	55.274
251.33	52.093
251.70	53.125
252.08	57.563
252.45	51.793
252.82	51.711
253.19	52.569
253.56	51.154
253.94	46.739
254.31	55.039
254.68	48.780
255.05	51.724
255.42	56.934
255.79	52.117
256.16	50.169
256.54	50.974
256.91	50.000
257.28	50.836
257.65	45.141
258.02	49.558
258.39	47.564
258.76	48.696
259.14	46.000
259.51	48.980
259.88	47.416
260.25	48.901
260.62	49.315
260.99	42.975
261.36	45.682
261.73	50.532
262.10	47.644
262.47	47.750
262.85	47.467
263.22	49.357
263.59	48.849
263.96	47.619
264.33	45.185
264.70	46.683
265.07	45.122
265.44	46.789
265.81	47.642
266.18	43.249
266.55	46.809
266.92	46.085
267.29	47.588
267.66	45.964
268.03	45.516
268.40	41.015
268.77	43.172
269.14	42.950
269.51	44.321
269.88	44.490
270.25	42.765
270.62	44.421
270.99	44.625
271.36	44.106
271.73	44.025
272.10	42.222
272.47	44.841
272.84	43.313
273.21	43.388
273.58	44.737
273.95	44.353
274.32	43.969
274.69	44.882
275.06	45.173
275.43	41.954
275.80	40.377
276.17	42.096
276.54	41.869
276.91	41.231
277.28	43.613
277.65	42.435
278.02	41.360
278.39	41.187
278.76	43.276
279.13	42.883
279.50	43.636
279.87	40.037
280.23	42.357
280.60	42.336
280.97	40.862
281.34	40.594
281.71	43.130
282.08	40.513
282.45	41.892
282.82	41.137
283.19	40.859
283.56	41.488
283.92	42.997
284.29	40.433
284.66	40.672
285.03	41.294
285.40	38.843
285.77	37.654
286.14	40.557
286.51	40.337
286.87	39.241
287.24	36.937
287.61	39.818
287.98	39.403
288.35	38.370
288.72	37.329
289.08	39.339
289.45	39.787
289.82	39.531
290.19	37.921
290.56	37.555
290.93	38.129
291.29	37.155
291.66	35.593
292.03	37.027
292.40	35.637
292.77	34.958
293.13	35.949
293.50	34.683
293.87	34.688
294.24	34.266
294.60	35.532
294.97	36.364
295.34	33.732
295.71	35.480
296.08	34.800
296.44	33.672
296.81	33.747
297.18	31.686
297.55	33.128
297.91	30.911
298.28	31.884
298.65	31.043
299.02	31.966
299.38	33.333
299.75	32.195
300.12	30.734
300.48	32.904
300.85	31.824
301.22	31.279
301.59	29.363
301.95	29.988
302.32	30.966
302.69	30.204
303.05	31.762
303.42	30.045
303.79	30.444
304.15	30.473
304.52	29.915
304.89	30.597
305.25	30.812
305.62	30.810
305.99	27.826
306.35	29.053
306.72	29.240
307.09	29.710
307.45	27.455
307.82	29.630
308.19	29.691
308.55	30.000
308.92	28.950
309.29	29.290
309.65	27.750
310.02	28.702
310.38	27.617
310.75	27.772
311.12	28.257
311.48	29.151
311.85	28.244
312.22	28.653
312.58	28.571
312.95	27.767
313.31	27.715
313.68	27.205
314.05	29.762
314.41	27.002
314.78	27.746
315.14	28.720
315.51	28.193
315.87	27.190
316.24	28.198
316.61	26.858
316.97	27.064
317.34	28.302
317.70	27.831
318.07	27.491
318.43	27.504
318.80	27.583
319.16	28.147
319.53	26.106
319.89	26.613
320.26	29.609
320.62	26.740
320.99	26.883
321.35	27.829
321.72	28.178
322.08	27.424
322.45	25.159
322.81	25.892
323.18	26.732
323.54	27.962
323.91	24.932
324.27	25.641
324.64	26.125
325.00	25.345
325.37	26.391
325.73	25.885
326.10	26.181
326.46	25.764
326.83	25.120
327.19	27.068
327.56	25.080
327.92	25.656
328.29	26.841
328.65	26.455
329.01	25.920
329.38	26.058
329.74	25.363
330.11	25.977
330.47	25.746
330.84	24.935
331.20	25.888
331.56	24.698
331.93	25.577
332.29	23.895
332.66	26.616
333.02	25.172
333.38	25.829
333.75	25.521
334.11	24.916
334.48	25.043
334.84	24.916
335.20	25.406
335.57	24.853
335.93	25.988
336.29	24.959
336.66	25.557
337.02	25.235
337.38	25.623
337.75	25.591
338.11	25.485
338.47	25.402
338.84	24.047
339.20	23.810
339.56	25.315
339.93	25.334
340.29	23.529
340.65	25.314
341.02	24.457
341.38	24.466
341.74	25.166
342.11	23.873
342.47	23.954
342.83	25.103
343.20	23.848
343.56	23.272
343.92	24.030
344.28	25.120
344.65	25.591
345.01	23.889
345.37	23.237
345.73	23.492
346.10	24.143
346.46	25.359
346.82	22.685
347.19	24.189
347.55	23.263
347.91	22.432
348.27	23.083
348.63	23.339
349.00	24.448
349.36	23.813
349.72	24.618
350.08	24.224
350.45	23.229
350.81	24.388
351.17	22.727
351.53	23.480
351.89	23.621
352.26	22.902
352.62	23.228
352.98	24.080
353.34	24.114
353.70	22.477
354.07	23.769
354.43	23.425
354.79	23.159
355.15	23.507
355.51	24.396
355.87	22.816
356.24	23.480
356.60	23.288
356.96	22.365
357.32	22.155
357.68	24.156
358.04	23.556
358.40	23.688
358.77	23.291
359.13	23.724
359.49	23.202
359.85	23.455
360.21	22.808
360.57	22.920
360.93	22.294
361.29	22.294
361.66	24.310
362.02	22.230
362.38	23.304
362.74	22.788
363.10	22.861
363.46	22.099
363.82	23.633
364.18	22.902
364.54	23.104
364.90	23.025
365.26	23.248
365.62	22.099
365.98	22.092
366.35	22.414
366.71	23.109
367.07	22.526
367.43	21.827
367.79	21.875
368.15	20.896
368.51	22.812
368.87	21.535
369.23	22.592
369.59	22.252
369.95	22.308
370.31	21.287
370.67	21.929
371.03	22.479
371.39	21.745
371.75	21.842
372.11	22.366
372.47	22.260
372.83	22.706
373.19	22.138
373.55	22.199
373.91	20.166
374.27	21.892
374.63	20.339
374.99	22.305
375.35	22.043
375.71	22.230
376.07	22.281
376.42	21.803
376.78	22.158
377.14	22.215
377.50	21.411
377.86	21.461
378.22	21.450
378.58	21.671
378.94	21.605
379.30	21.043
379.66	21.854
380.02	22.522
380.38	22.014
380.74	21.453
381.09	21.904
381.45	20.867
381.81	20.567
382.17	20.940
382.53	21.656
382.89	22.354
383.25	20.900
383.61	20.807
383.97	20.936
384.32	21.398
384.68	21.866
385.04	22.392
385.40	22.005
385.76	20.831
386.12	22.016
386.48	20.790
386.83	21.577
387.19	20.848
387.55	21.319
387.91	21.478
388.27	21.832
388.62	21.127
388.98	21.050
389.34	20.405
389.70	20.401
390.06	21.829
390.42	20.234
390.77	20.885
391.13	21.424
391.49	21.416
391.85	21.969
392.20	21.871
392.56	22.103
392.92	20.943
393.28	20.235
393.64	20.872
393.99	20.865
394.35	20.306
394.71	20.627
395.07	21.715
395.42	20.960
395.78	21.036
396.14	21.988
396.50	21.420
396.85	20.732
397.21	21.841
397.57	20.622
397.92	20.451
398.28	19.967
398.64	20.477
399.00	19.936
399.35	20.344
399.71	21.082
400.07	20.662
400.42	21.075
400.78	20.645
401.14	21.609
401.49	20.449
401.85	21.553
402.21	20.972
402.57	22.023
402.92	20.848
403.28	19.570
403.63	20.483
403.99	20.567
404.35	21.688
404.70	21.737
405.06	21.056
405.42	21.005
405.77	20.673
406.13	20.011
406.49	20.921
406.84	20.135
407.20	21.062
407.55	21.169
407.91	21.570
408.27	20.861
408.62	20.580
408.98	20.520
409.34	20.164
409.69	20.411
410.05	19.499
410.40	19.965
410.76	19.519
411.11	20.261
411.47	20.432
411.83	20.328
412.18	19.928
412.54	20.360
412.89	19.528
413.25	20.410
413.60	20.093
413.96	19.808
414.31	19.953
414.67	21.415
415.03	20.307
415.38	20.379
415.74	20.278
416.09	20.675
416.45	21.138
416.80	22.065
417.16	21.197
417.51	20.701
417.87	20.213
418.22	20.109
418.58	20.892
418.93	20.583
419.29	20.456
419.64	20.533
420.00	20.525
420.35	20.035
420.71	19.545
421.06	20.247
421.42	20.553
421.77	19.600
422.12	20.342
422.48	20.134
422.83	19.978
423.19	19.924
423.54	19.254
423.90	21.121
424.25	20.253
424.61	20.429
424.96	19.085
425.31	19.759
425.67	20.090
426.02	20.135
426.38	19.837
426.73	20.127
427.09	20.581
427.44	19.696
427.79	19.954
428.15	21.450
428.50	20.629
428.85	19.929
429.21	20.421
429.56	20.189
429.92	20.587
430.27	19.884
430.62	19.530
430.98	20.010
431.33	19.204
431.68	18.765
432.04	19.245
432.39	19.594
432.74	20.141
433.10	20.266
433.45	21.080
433.80	20.794
434.16	19.653
434.51	20.279
434.86	20.142
435.22	19.233
435.57	20.510
435.92	20.774
436.28	20.334
436.63	20.151
436.98	20.327
437.34	20.091
437.69	19.373
438.04	20.000
438.39	20.140
438.75	19.822
439.10	19.590
439.45	20.350
439.81	19.722
440.16	20.748
440.51	20.495
440.86	20.342
441.22	19.535
441.57	19.685
441.92	19.595
442.27	20.052
442.63	20.173
442.98	20.151
443.33	20.193
443.68	19.970
444.03	19.133
444.39	19.444
444.74	19.203
445.09	20.221
445.44	19.819
445.79	19.932
446.15	19.053
446.50	20.833
446.85	19.671
447.20	19.005
447.55	19.250
447.91	20.831
448.26	19.223
448.61	19.790
448.96	20.044
449.31	19.912
449.66	20.377
450.02	19.773
450.37	19.933
450.72	20.331
451.07	20.652
451.42	19.324
451.77	19.817
452.12	20.136
452.47	20.049
452.83	20.338
453.18	21.021
453.53	20.367
453.88	20.229
454.23	19.640
454.58	20.163
454.93	20.417
455.28	19.461
455.63	19.976
455.98	19.177
456.34	20.486
456.69	19.512
457.04	20.167
457.39	20.114
457.74	20.270
458.09	19.147
458.44	19.441
458.79	20.318
459.14	20.076
459.49	19.139
459.84	20.272
460.19	19.548
460.54	18.974
460.89	19.670
461.24	19.359
461.59	20.125
461.94	19.090
462.29	20.366
462.64	20.226
462.99	19.834
463.34	20.739
463.69	20.871
464.04	20.380
464.39	19.748
464.74	19.285
465.09	19.733
465.44	20.131
465.79	19.597
466.14	19.184
466.49	19.316
466.84	19.732
467.19	20.387
467.54	19.580
467.89	20.012
468.24	20.266
468.59	19.107
468.94	19.082
469.29	20.770
469.64	20.064
469.99	19.087
470.34	19.608
470.68	19.172
471.03	20.680
471.38	20.331
471.73	20.379
472.08	19.700
472.43	19.119
472.78	19.910
473.13	19.587
473.48	19.071
473.83	19.788
474.17	19.392
474.52	19.727
474.87	18.931
475.22	19.589
475.57	19.150
475.92	19.366
476.27	18.825
476.61	19.410
476.96	19.645
477.31	18.972
477.66	19.592
478.01	19.495
478.36	19.773
478.70	19.504
479.05	19.561
479.40	19.940
479.75	20.109
480.10	19.797
480.45	19.048
480.79	19.493
481.14	19.211
481.49	19.076
481.84	18.777
482.19	19.039
482.53	19.192
482.88	19.265
483.23	18.990
483.58	19.569
483.92	20.201
484.27	18.536
484.62	19.567
484.97	19.127
485.31	18.765
485.66	18.793
486.01	18.657
486.36	18.642
486.70	18.494
487.05	18.396
487.40	18.139
487.75	18.205
488.09	18.523
488.44	18.706
488.79	18.674
489.13	18.402
489.48	18.698
489.83	18.641
490.17	18.662
490.52	18.260
490.87	18.578
491.22	18.927
491.56	19.280
491.91	18.280
492.26	19.465
492.60	18.724
492.95	19.257
493.30	18.972
493.64	18.553
493.99	19.275
494.34	19.274
494.68	19.124
495.03	19.039
495.37	19.586
495.72	18.695
496.07	18.688
496.41	18.940
496.76	18.827
497.11	19.066
497.45	18.544
497.80	18.767
498.14	18.909
498.49	18.477
498.84	18.598
499.18	18.236
499.53	18.695
499.87	18.733
500.22	19.300
500.56	18.431
500.91	19.481
501.26	19.247
501.60	18.807
501.95	18.145
502.29	18.533
502.64	18.615
502.98	18.141
503.33	18.664
503.67	18.896
504.02	18.540
504.36	18.597
504.71	19.868
505.06	18.771
505.40	18.437
505.75	18.148
506.09	18.385
506.44	19.032
506.78	19.140
507.13	18.226
507.47	18.583
507.82	18.978
508.16	19.206
508.51	19.227
508.85	19.183
509.19	18.943
509.54	19.287
509.88	18.299
510.23	17.990
510.57	18.871
510.92	18.831
511.26	18.926
511.61	18.858
511.95	18.865
512.30	19.000
512.64	18.172
512.98	19.016
513.33	18.750
513.67	18.799
514.02	19.065
514.36	18.588
514.70	18.560
515.05	18.114
515.39	18.311
515.74	19.628
516.08	18.627
516.42	20.055
516.77	19.093
517.11	18.400
517.46	19.019
517.80	18.078
518.14	19.606
518.49	18.026
518.83	17.967
519.17	18.747
519.52	18.788
519.86	19.237
520.20	19.123
520.55	19.163
520.89	18.736
521.23	19.451
521.58	18.187
521.92	18.017
522.26	18.780
522.61	19.133
522.95	19.039
523.29	18.713
523.64	18.786
523.98	18.721
524.32	18.570
524.66	19.362
525.01	18.876
525.35	18.562
525.69	19.747
526.04	19.096
526.38	18.952
526.72	18.974
527.06	18.155
527.41	19.468
527.75	18.868
528.09	18.904
528.43	19.890
528.78	19.797
529.12	19.807
529.46	18.410
529.80	19.568
530.15	18.916
530.49	18.412
530.83	19.074
531.17	19.188
531.51	18.884
531.86	18.357
532.20	19.159
532.54	19.083
532.88	18.988
533.22	18.525
533.57	18.853
533.91	18.998
534.25	18.119
534.59	18.655
534.93	17.235
535.27	18.042
535.62	18.786
535.96	18.794
536.30	19.622
536.64	18.012
536.98	18.691
537.32	19.437
537.66	17.666
538.01	18.947
538.35	18.964
538.69	17.961
539.03	18.221
539.37	19.053
539.71	18.827
540.05	18.277
540.39	18.553
540.73	18.165
541.07	18.758
541.42	19.527
541.76	19.482
542.10	18.681
542.44	19.825
542.78	19.069
543.12	19.325
543.46	18.734
543.80	18.860
544.14	18.885
544.48	17.883
544.82	19.327
545.16	18.336
545.50	18.500
545.84	19.444
546.18	20.221
546.52	18.492
546.86	19.278
547.20	18.605
547.54	18.619
547.88	18.613
548.22	18.397
548.56	19.446
548.90	19.336
549.24	19.330
549.58	18.750
549.92	18.337
550.26	18.864
550.60	18.696
550.94	18.792
551.28	20.345
551.62	20.207
551.96	19.324
552.30	18.655
552.64	19.741
552.98	18.879
553.32	19.462
553.66	18.241
554.00	18.983
554.34	18.908
554.68	19.288
555.02	19.280
555.36	17.952
555.69	19.372
556.03	18.535
556.37	18.292
556.71	20.078
557.05	18.480
557.39	18.733
557.73	18.261
558.07	19.182
558.41	18.986
558.75	19.152
559.08	19.657
559.42	19.256
559.76	18.674
560.10	19.202
560.44	18.646
560.78	19.821
561.12	19.263
561.45	18.461
561.79	18.477
562.13	19.015
562.47	19.403
562.81	18.347
563.15	18.487
563.48	18.447
563.82	19.027
564.16	18.719
564.50	17.782
564.84	18.967
565.17	19.133
565.51	19.520
565.85	19.062
566.19	18.214
566.52	17.870
566.86	18.681
567.20	18.764
567.54	19.323
567.88	18.623
568.21	18.023
568.55	18.580
568.89	18.659
569.23	18.378
569.56	18.331
569.90	18.397
570.24	18.433
570.57	18.430
570.91	17.847
571.25	18.120
571.59	18.331
571.92	17.869
572.26	17.871
572.60	17.912
572.93	17.769
573.27	18.409
573.61	17.569
573.95	18.376
574.28	18.202
574.62	17.629
574.96	17.676
575.29	17.931
575.63	18.021
575.97	17.308
576.30	17.236
576.64	18.025
576.98	17.715
577.31	18.007
577.65	17.951
577.98	17.972
578.32	17.796
578.66	18.118
578.99	18.083
579.33	17.952
579.67	17.563
580.00	17.542
580.34	17.479
580.67	17.673
581.01	17.885
581.35	17.949
581.68	17.559
582.02	17.689
582.35	17.567
582.69	17.883
583.02	17.656
583.36	17.549
583.70	17.916
584.03	17.997
584.37	17.542
584.70	18.039
585.04	17.583
585.37	17.764
585.71	18.157
586.04	17.703
586.38	17.668
586.72	17.555
587.05	18.194
587.39	17.699
587.72	17.907
588.06	17.755
588.39	17.579
588.73	17.570
589.06	17.771
589.40	18.404
589.73	17.765
590.07	18.600
590.40	18.676
590.73	18.472
591.07	18.482
591.40	18.483
591.74	18.304
592.07	17.637
592.41	18.066
592.74	17.979
593.08	17.969
593.41	17.923
593.75	17.570
594.08	17.616
594.41	17.986
594.75	17.637
595.08	18.141
595.42	18.302
595.75	18.131
596.09	18.422
596.42	17.917
596.75	18.470
597.09	18.407
597.42	18.449
597.75	17.444
598.09	18.137
598.42	17.625
598.76	17.887
599.09	18.095
599.42	17.682
599.76	18.453
600.09	17.763
600.42	18.474
600.76	18.287
601.09	18.295
601.42	18.303
601.76	18.332
602.09	18.322
602.42	17.338
602.76	17.723
603.09	17.685
603.42	18.275
603.76	17.498
604.09	17.553
604.42	17.702
604.76	18.254
605.09	18.571
605.42	18.082
605.75	18.279
606.09	18.630
606.42	18.001
606.75	18.422
607.09	17.805
607.42	17.838
607.75	18.073
608.08	18.075
608.42	18.918
608.75	17.373
609.08	17.950
609.41	19.091
609.75	18.636
610.08	18.210
610.41	17.699
610.74	17.922
611.07	18.417
611.41	18.258
611.74	18.451
612.07	18.593
612.40	18.177
612.73	18.522
613.07	19.007
613.40	18.596
613.73	17.624
614.06	18.100
614.39	18.333
614.72	18.232
615.06	18.002
615.39	18.317
615.72	17.764
616.05	18.533
616.38	18.671
616.71	18.177
617.05	18.506
617.38	18.258
617.71	19.179
618.04	18.564
618.37	18.344
618.70	17.956
619.03	18.193
619.36	18.279
619.69	18.602
620.03	19.569
620.36	18.176
620.69	19.987
621.02	18.886
621.35	17.192
621.68	19.027
622.01	19.262
622.34	18.063
622.67	20.014
623.00	18.993
623.33	18.556
623.66	18.031
623.99	18.699
624.32	19.173
624.65	18.038
624.99	18.526
625.32	18.036
625.65	17.586
625.98	18.410
626.31	18.694
626.64	18.299
626.97	17.368
627.30	19.022
627.63	19.859
627.96	19.092
628.29	19.142
628.62	18.477
628.95	19.681
629.28	20.070
629.61	18.366
629.94	18.583
630.26	18.891
630.59	19.858
630.92	18.475
631.25	19.764
631.58	20.058
631.91	18.744
632.24	19.242
632.57	18.369
632.90	20.393
633.23	20.776
633.56	20.653
633.89	19.829
634.22	18.945
634.55	20.000
634.88	20.372
635.20	20.179
635.53	20.093
635.86	20.022
636.19	19.304
636.52	19.135
636.85	19.094
637.18	19.610
637.51	20.223
637.83	19.794
638.16	20.750
638.49	19.521
638.82	19.718
639.15	19.741
639.48	20.972
639.81	18.926
640.13	20.982
640.46	20.228
640.79	20.156
641.12	21.260
641.45	21.604
641.77	21.136
642.10	18.206
642.43	20.484
642.76	20.170
643.09	21.470
643.41	20.898
643.74	20.288
644.07	20.059
644.40	20.710
644.73	20.420
645.05	20.802
645.38	20.980
645.71	20.182
646.04	21.832
646.36	20.814
646.69	20.320
647.02	21.440
647.35	20.945
647.67	21.070
648.00	19.055
648.33	20.150
648.66	21.212
648.98	18.841
649.31	19.703
649.64	18.396
649.96	21.053
650.29	19.143
650.62	20.766
650.94	22.289
651.27	20.893
651.60	21.440
651.92	21.813
652.25	21.102
652.58	20.993
652.90	22.006
653.23	22.304
653.56	21.513
653.88	19.824
654.21	20.528
654.54	20.059
654.86	20.649
655.19	20.317
655.52	18.569
655.84	16.564
656.17	18.943
656.49	27.716
656.82	32.046
657.15	25.808
657.47	19.130
657.80	13.953
658.13	10.908
658.45	14.621
658.78	17.538
659.10	17.568
659.43	17.703
659.75	18.580
660.08	19.110
660.41	19.147
660.73	21.957
661.06	21.471
661.38	23.850
661.71	22.302
662.03	21.293
662.36	19.619
662.68	21.229
663.01	21.441
663.33	22.264
663.66	22.091
663.98	21.825
664.31	24.440
664.63	22.797
664.96	23.265
665.28	21.657
665.61	18.113
665.93	22.830
666.26	21.121
666.58	24.587
666.91	22.008
667.23	22.289
667.56	24.025
667.88	20.954
668.21	22.336
668.53	19.758
668.86	23.447
669.18	21.792
669.50	20.661
669.83	22.177
670.15	22.661
670.48	19.727
670.80	21.116
671.13	22.709
671.45	21.242
671.77	22.449
672.10	22.083
672.42	21.546
672.75	20.411
673.07	22.576
673.39	19.968
673.72	21.107
674.04	22.939
674.37	22.142
674.69	23.792
675.01	21.828
675.34	20.543
675.66	22.070
675.98	24.260
676.31	22.000
676.63	22.068
676.95	23.413
677.28	23.124
677.60	22.535
677.92	20.635
678.25	22.093
678.57	23.464
678.89	24.051
679.22	22.243
679.54	22.954
679.86	20.942
680.18	23.374
680.51	22.056
680.83	20.439
681.15	21.144
681.48	21.354
681.80	21.716
682.12	20.761
682.44	20.901
682.77	22.776
683.09	22.136
683.41	22.653
683.73	24.016
684.06	22.222
684.38	25.194
684.70	20.683
685.02	20.139
685.34	21.479
685.67	22.990
685.99	21.346
686.31	20.339
686.63	22.114
686.96	22.222
687.28	19.799
687.60	23.038
687.92	22.278
688.24	23.621
688.56	21.174
688.89	21.224
689.21	20.809
689.53	23.518
689.85	21.748
690.17	20.583
690.49	23.790
690.82	22.479
691.14	25.253
691.46	23.203
691.78	25.146
692.10	25.191
692.42	20.508
692.74	22.287
693.06	23.256
693.39	23.518
693.71	21.218
694.03	23.274
694.35	25.301
694.67	20.570
694.99	22.838
695.31	23.423
695.63	21.041
695.95	21.719
696.27	24.336
696.59	22.673
696.91	21.772
697.23	23.529
697.56	23.651
697.88	21.956
698.20	22.264
698.52	20.428
698.84	22.793
699.16	25.160
699.48	22.669
699.80	23.965
700.12	25.173
700.44	22.664
700.76	25.776
701.08	24.021
701.40	24.156
701.72	28.877
702.04	26.558
702.36	24.731
702.68	25.532
703.00	24.311
703.32	21.836
703.64	24.937
703.96	26.302
704.28	22.487
704.60	26.197
704.91	24.930
705.23	25.284
705.55	24.926
705.87	27.937
706.19	27.900
706.51	31.348
706.83	25.959
707.15	25.668
707.47	23.002
707.79	23.678
708.11	24.717
708.43	22.921
708.74	22.398
709.06	25.116
709.38	24.814
709.70	26.431
710.02	23.641
710.34	25.414
710.66	26.111
710.98	25.410
711.29	27.855
711.61	26.184
711.93	24.620
712.25	23.795
712.57	21.543
712.89	28.182
713.20	27.476
713.52	26.168
713.84	31.420
714.16	23.478
714.48	21.326
714.80	28.184
715.11	23.936
715.43	23.184
715.75	24.789
716.07	22.832
716.39	27.714
716.70	21.495
717.02	27.273
717.34	26.619
717.66	27.778
717.97	32.197
718.29	25.352
718.61	25.338
718.93	27.682
719.24	27.852
719.56	26.552
719.88	22.930
720.20	25.806
720.51	23.529
720.83	26.756
721.15	31.293
721.46	26.027
721.78	24.739
722.10	29.514
722.42	29.097
722.73	27.798
723.05	27.719
723.37	30.035
723.68	28.125
724.00	27.273
724.32	26.616
724.63	26.154
724.95	27.451
725.27	26.766
725.58	29.412
725.90	29.225
726.22	25.685
726.53	26.087
726.85	27.687
727.16	28.523
727.48	30.233
727.80	29.856
728.11	29.643
728.43	24.638
728.74	27.622
729.06	24.731
729.38	27.719
729.69	31.667
730.01	28.947
730.32	26.510
730.64	29.236
730.96	27.928
731.27	22.630
731.59	25.000
731.90	23.677
732.22	24.857
732.53	24.786
732.85	27.778
733.16	23.193
733.48	27.900
733.80	27.826
734.11	29.448
734.43	26.608
734.74	22.252
735.06	24.868
735.37	25.515
735.69	25.217
736.00	27.523
736.32	25.455
736.63	24.606
736.95	27.019
737.26	26.220
737.58	27.301
737.89	24.699
738.21	27.152
738.52	29.431
738.83	26.740
739.15	26.829
739.46	26.897
739.78	27.551
740.09	28.280
740.41	26.994
740.72	30.159
741.04	28.671
741.35	29.297
741.66	29.249
741.98	32.189
742.29	29.167
742.61	27.434
742.92	32.627
743.23	27.200
743.55	28.302
743.86	27.451
744.18	33.898
744.49	30.992
744.80	31.797
745.12	27.679
745.43	38.785
745.74	37.333
746.06	28.947
746.37	35.349
746.68	29.646
747.00	27.803
747.31	31.092
747.62	26.639
747.94	27.897
748.25	30.350
748.56	33.051
748.88	26.786
749.19	32.093
749.50	31.507
749.82	32.510
750.13	25.692
750.44	25.333
750.75	32.886
751.07	26.974
751.38	24.752
751.69	24.916
752.01	25.874
752.32	26.578
752.63	31.544
752.94	30.769
753.26	28.516
753.57	28.794
753.88	30.712
754.19	28.159
754.51	28.239
754.82	25.839
755.13	28.041
755.44	25.185
755.75	28.179
756.07	28.082
756.38	30.392
756.69	27.188
757.00	28.783
757.31	27.324
757.63	26.171
757.94	27.394
758.25	25.845
758.56	23.112
758.87	26.817
759.18	26.744
759.50	28.875
759.81	29.674
760.12	27.247
760.43	26.050
760.74	26.076
761.05	26.525
761.36	25.781
761.67	28.841
761.99	26.479
762.30	27.331
762.61	27.778
762.92	30.303
763.23	31.698
763.54	28.077
763.85	29.961
764.16	31.250
764.47	31.757
764.78	25.733
765.10	25.915
765.41	26.705
765.72	26.796
766.03	22.054
766.34	27.178
766.65	31.179
766.96	29.555
767.27	31.776
767.58	36.634
767.89	35.912
768.20	42.073
768.51	29.082
768.82	31.140
769.13	30.980
769.44	29.699
769.75	28.839
770.06	28.571
770.37	32.456
770.68	25.333
770.99	36.441
771.30	35.146
771.61	32.308
771.92	30.153
772.23	28.226
772.54	31.556
772.85	37.624
773.16	35.870
773.47	30.000
773.78	33.663
774.09	38.068
774.39	34.545
774.70	30.588
775.01	30.263
775.32	31.677
775.63	43.151
775.94	45.062
776.25	40.690
776.56	46.565
776.87	46.565
777.18	39.394
777.48	59.055
777.79	43.077
778.10	39.394
778.41	48.507
778.72	36.842
779.03	35.256
779.34	35.811
779.65	38.509
779.95	36.025
780.26	36.905
780.57	45.578
780.88	39.007
781.19	41.667
781.50	37.870
781.80	39.891
782.11	34.921
782.42	31.609
782.73	36.158
783.04	39.355
783.34	40.310
783.65	34.694
783.96	41.935
784.27	42.384
784.57	34.868
784.88	40.580
785.19	45.000
785.50	46.552
785.81	43.411
786.11	42.222
786.42	44.882
786.73	40.541
787.04	46.226
787.34	41.463
787.65	43.182
787.96	48.485
788.26	44.094
788.57	49.635
788.88	35.211
789.19	40.458
789.49	45.946
789.80	42.188
790.11	44.628
790.41	52.778
790.72	47.222
791.03	46.154
791.33	53.535
791.64	48.421
791.95	46.316
792.25	51.042
792.56	51.000
792.87	59.756
793.17	53.409
793.48	54.118
793.79	65.517
794.09	46.591
794.40	47.414
794.70	47.619
795.01	42.308
795.32	48.092
795.62	34.188
795.93	54.622
796.23	48.780
796.54	47.959
796.85	57.955
797.15	64.935
797.46	71.951
797.76	55.000
798.07	68.000
798.37	58.750
798.68	67.500
798.99	62.195
799.29	49.333
799.60	54.651
799.90	57.895
800.21	69.697
800.51	63.380
800.82	63.793
801.12	70.769
801.43	62.667
801.73	77.586
802.04	58.442
802.34	53.425
802.65	66.667
802.95	78.261
803.26	87.097
803.56	81.667
803.87	71.642
804.17	65.079
804.48	75.472
804.78	68.056
805.09	69.697
805.39	73.016
805.70	85.965
806.00	62.857
806.30	75.000
806.61	67.059
806.91	61.111
807.22	41.304
807.52	59.211
807.83	60.526
808.13	55.072
808.43	69.355
808.74	54.795
809.04	57.143
809.35	85.294
809.65	62.121
809.95	84.314
810.26	98.148
810.56	82.813
810.86	75.510
811.17	73.684
811.47	93.478
811.77	79.310
812.08	51.724
812.38	73.810
812.69	107.143
812.99	48.889
813.29	102.857
813.59	119.355
813.90	72.414
814.20	90.164
814.50	78.000
814.81	68.421
815.11	100.000
815.41	76.786
815.72	96.429
816.02	78.000
816.32	97.561
816.62	79.310
816.93	100.000
817.23	114.634
817.53	91.071
817.84	68.889
818.14	78.571
818.44	81.250
818.74	73.585
819.04	84.615
819.35	100.000
819.65	103.846
819.95	94.444
820.25	108.511
820.56	135.135
820.86	94.737
821.16	70.213
821.46	89.474
821.76	103.636
822.07	66.667
822.37	102.632
822.67	106.977
822.97	71.053
823.27	110.870
823.57	93.750
823.88	120.513
824.18	112.121
824.48	147.826
824.78	122.222
825.08	156.522
825.38	141.379
825.69	97.059
825.99	76.596
826.29	91.667
826.59	108.571
826.89	126.667
827.19	97.143
827.49	151.613
827.79	134.615
828.09	107.143
828.39	116.667
828.70	121.622
829.00	121.429
829.30	231.250
829.60	97.222
829.90	132.258
830.20	115.152
830.50	110.811
830.80	141.667
831.10	138.462
831.40	119.048
831.70	183.333
832.00	113.333
832.30	213.043
832.60	175.000
832.90	148.485
833.20	230.000
833.50	144.737
833.80	108.824
834.10	105.263
834.40	157.895
834.70	130.000
835.00	148.000
835.30	70.270
835.60	140.625
835.90	108.108
836.20	153.846
836.50	163.636
836.80	87.805
837.10	126.087
837.40	292.308
837.70	147.368
838.00	143.333
838.30	154.167
838.60	156.000
838.90	310.000
839.19	193.750
839.49	123.333
839.79	131.034
840.09	130.769
840.39	233.333
840.69	226.316
840.99	100.000
841.29	165.217
841.59	175.000
841.88	180.000
842.18	300.000
842.48	160.714
842.78	166.667
843.08	215.385
843.38	159.091
843.68	314.286
843.97	428.571
844.27	195.652
844.57	1650.000
844.87	250.000
845.17	194.444
845.47	157.143
845.76	179.167
846.06	485.714
846.36	211.765
846.66	253.846
846.96	243.750
847.25	253.846
847.55	178.947
847.85	150.000
848.15	420.000
848.44	336.364
848.74	204.762
849.04	187.500
849.34	141.176
849.63	225.000
849.93	212.500
850.23	1066.667
850.53	512.500
850.82	290.909
851.12	223.529
851.42	166.667
851.71	231.250
852.01	0.000
852.31	188.235
852.61	390.000
852.90	162.500
853.20	344.444
853.50	-2800.000
853.79	172.000
854.09	140.625
854.39	127.586
854.68	155.172
854.98	157.143
855.28	119.355
855.57	264.286
855.87	133.333
856.17	133.333
856.46	200.000
856.76	119.355
857.05	194.118
857.35	318.182
857.65	246.154
857.94	180.000
858.24	433.333
858.53	328.571
858.83	685.714
859.13	160.870
859.42	277.778
859.72	375.000
860.01	308.333
860.31	750.000
860.60	310.000
860.90	387.500
861.20	300.000
861.49	414.286
861.79	-2600.000
862.08	500.000
862.38	355.556
862.67	207.143
862.97	510.000
863.26	176.667
863.56	750.000
863.85	361.538
864.15	241.176
864.44	188.889
864.74	283.333
865.03	309.091
865.33	412.500
865.62	226.667
865.92	683.333
866.21	650.000
866.51	680.000
866.80	244.444
867.10	800.000
867.39	3100.000
867.69	600.000
867.98	975.000
868.27	147.619
868.57	253.333
868.86	1050.000
869.16	161.905
869.45	3200.000
869.75	-316.667
870.04	875.000
870.33	520.000
870.63	375.000
870.92	211.765
871.22	975.000
871.51	442.857
871.80	283.333
872.10	376.923
>>>>>End Processed Spectral Data<<<<<
