SpectraSuite Data File
++++++++++++++++++++++++++++++++++++
Date: Tue May 12 16:52:22 PDT 2015
User: schluterlab
Dark Spectrum Present: Yes
Reference Spectrum Present: Yes
Number of Sampled Component Spectra: 1
Spectrometers: USB2E3373
Integration Time (usec): 3000 (USB2E3373)
Spectra Averaged: 3 (USB2E3373)
Boxcar Smoothing: 0 (USB2E3373)
Correct for Electrical Dark: No (USB2E3373)
Strobe/Lamp Enabled: No (USB2E3373)
Correct for Detector Non-linearity: No (USB2E3373)
Correct for Stray Light: No (USB2E3373)
Number of Pixels in Processed Spectrum: 2048
>>>>>Begin Processed Spectral Data<<<<<
178.53	0.000
178.91	-241.667
179.29	-675.000
179.67	-2600.000
180.04	-146.667
180.42	950.000
180.80	1550.000
181.18	0.000
181.56	-287.500
181.94	0.000
182.31	1133.333
182.69	-2600.000
183.07	571.429
183.45	-4000.000
183.83	-1550.000
184.20	310.000
184.58	414.286
184.96	-330.769
185.34	-283.333
185.72	1650.000
186.09	-1050.000
186.47	-3900.000
186.85	1100.000
187.23	580.000
187.61	1750.000
187.98	400.000
188.36	271.429
188.74	383.333
189.12	400.000
189.49	975.000
189.87	0.000
190.25	537.500
190.63	3200.000
191.00	-216.667
191.38	-3800.000
191.76	-825.000
192.14	550.000
192.51	-3900.000
192.89	1800.000
193.27	966.667
193.65	-933.333
194.02	-820.000
194.40	471.429
194.78	-192.857
195.15	240.000
195.53	-2900.000
195.91	-760.000
196.29	4400.000
196.66	281.250
197.04	875.000
197.42	-1800.000
197.79	800.000
198.17	308.333
198.55	0.000
198.92	457.143
199.30	1266.667
199.68	1650.000
200.05	733.333
200.43	-433.333
200.81	200.000
201.18	3000.000
201.56	250.000
201.94	-925.000
202.31	-312.500
202.69	-540.000
203.07	3400.000
203.44	-433.333
203.82	291.667
204.19	780.000
204.57	-1100.000
204.95	-900.000
205.32	-840.000
205.70	650.000
206.08	700.000
206.45	-633.333
206.83	444.444
207.20	173.684
207.58	258.333
207.96	640.000
208.33	0.000
208.71	485.714
209.08	640.000
209.46	-2200.000
209.84	-675.000
210.21	740.000
210.59	-640.000
210.96	291.667
211.34	-850.000
211.71	390.909
212.09	1175.000
212.46	2050.000
212.84	-500.000
213.22	466.667
213.59	-3000.000
213.97	270.000
214.34	775.000
214.72	1233.333
215.09	1100.000
215.47	-2300.000
215.84	-310.000
216.22	-450.000
216.59	0.000
216.97	0.000
217.34	1600.000
217.72	-1750.000
218.09	1400.000
218.47	400.000
218.84	925.000
219.22	1166.667
219.59	1066.667
219.97	571.429
220.34	477.778
220.72	2200.000
221.09	3000.000
221.47	275.000
221.84	1233.333
222.22	360.000
222.59	194.444
222.97	228.571
223.34	256.250
223.72	-1750.000
224.09	866.667
224.46	253.846
224.84	-650.000
225.21	455.556
225.59	306.667
225.96	1433.333
226.34	-520.000
226.71	-725.000
227.08	-400.000
227.46	0.000
227.83	-533.333
228.21	-1600.000
228.58	425.000
228.95	900.000
229.33	444.444
229.70	1000.000
230.08	353.846
230.45	3300.000
230.82	-825.000
231.20	-1000.000
231.57	-1200.000
231.95	680.000
232.32	258.333
232.69	516.667
233.07	300.000
233.44	-1750.000
233.81	266.667
234.19	188.889
234.56	225.000
234.93	211.765
235.31	230.000
235.68	287.500
236.05	192.857
236.43	133.333
236.80	321.429
237.17	141.379
237.55	140.625
237.92	140.000
238.29	103.030
238.67	143.750
239.04	104.878
239.41	108.333
239.79	82.500
240.16	106.250
240.53	90.164
240.91	82.609
241.28	86.441
241.65	77.273
242.02	94.366
242.40	87.143
242.77	64.835
243.14	63.291
243.51	72.727
243.89	54.206
244.26	56.075
244.63	59.406
245.00	54.128
245.38	43.220
245.75	53.030
246.12	51.852
246.49	51.064
246.87	44.262
247.24	46.000
247.61	53.125
247.98	55.782
248.36	49.091
248.73	50.510
249.10	45.833
249.47	45.500
249.84	47.761
250.22	45.946
250.59	44.500
250.96	41.772
251.33	41.860
251.70	41.964
252.08	45.798
252.45	38.645
252.82	43.726
253.19	38.735
253.56	37.308
253.94	42.754
254.31	43.411
254.68	41.463
255.05	37.586
255.42	40.511
255.79	39.414
256.16	39.322
256.54	33.442
256.91	40.523
257.28	41.137
257.65	34.796
258.02	35.988
258.39	36.103
258.76	38.261
259.14	36.571
259.51	38.484
259.88	39.210
260.25	36.264
260.62	36.438
260.99	37.190
261.36	38.997
261.73	37.500
262.10	36.911
262.47	35.250
262.85	35.733
263.22	35.476
263.59	36.317
263.96	39.098
264.33	36.543
264.70	36.855
265.07	36.829
265.44	36.009
265.81	36.085
266.18	34.783
266.55	35.934
266.92	39.150
267.29	37.281
267.66	35.426
268.03	36.323
268.40	34.461
268.77	37.885
269.14	30.803
269.51	34.521
269.88	34.082
270.25	30.670
270.62	37.124
270.99	36.511
271.36	34.146
271.73	33.753
272.10	33.737
272.47	33.929
272.84	35.529
273.21	33.058
273.58	35.425
273.95	35.113
274.32	36.381
274.69	34.449
275.06	33.515
275.43	33.716
275.80	31.698
276.17	33.824
276.54	36.262
276.91	34.515
277.28	29.927
277.65	34.686
278.02	33.272
278.39	33.633
278.76	33.276
279.13	32.028
279.50	34.727
279.87	31.657
280.23	34.622
280.60	33.394
280.97	31.897
281.34	34.488
281.71	34.783
282.08	34.530
282.45	31.419
282.82	33.612
283.19	33.545
283.56	32.727
283.92	33.713
284.29	32.612
284.66	32.101
285.03	31.343
285.40	32.397
285.77	30.401
286.14	33.127
286.51	31.748
286.87	30.222
287.24	30.180
287.61	30.699
287.98	31.791
288.35	29.481
288.72	30.501
289.08	30.931
289.45	30.640
289.82	31.406
290.19	31.332
290.56	32.314
290.93	31.511
291.29	31.077
291.66	31.073
292.03	28.331
292.40	31.572
292.77	29.944
293.13	31.241
293.50	29.690
293.87	28.455
294.24	28.531
294.60	29.610
294.97	30.769
295.34	29.748
295.71	29.172
296.08	29.600
296.44	28.971
296.81	29.032
297.18	30.165
297.55	29.310
297.91	27.217
298.28	29.227
298.65	29.202
299.02	30.036
299.38	29.856
299.75	28.171
300.12	28.440
300.48	29.040
300.85	29.917
301.22	28.721
301.59	28.656
301.95	29.522
302.32	31.199
302.69	28.167
303.05	30.303
303.42	28.587
303.79	28.494
304.15	29.263
304.52	28.118
304.89	28.891
305.25	30.812
305.62	29.211
305.99	29.239
306.35	29.474
306.72	29.344
307.09	29.814
307.45	28.933
307.82	29.012
308.19	29.381
308.55	30.100
308.92	30.029
309.29	30.572
309.65	29.732
310.02	30.730
310.38	30.110
310.75	29.122
311.12	29.981
311.48	31.853
311.85	30.630
312.22	30.468
312.58	29.932
312.95	30.874
313.31	31.086
313.68	31.332
314.05	32.692
314.41	30.354
314.78	30.303
315.14	31.848
315.51	32.923
315.87	32.208
316.24	32.773
316.61	30.528
316.97	31.927
317.34	32.704
317.70	32.485
318.07	33.185
318.43	33.304
318.80	33.975
319.16	32.867
319.53	32.389
319.89	32.079
320.26	34.823
320.62	34.432
320.99	33.651
321.35	34.045
321.72	34.535
322.08	33.241
322.45	32.788
322.81	33.394
323.18	33.481
323.54	34.321
323.91	35.086
324.27	34.660
324.64	34.083
325.00	34.914
325.37	33.895
325.73	34.739
326.10	34.300
326.46	34.269
326.83	33.200
327.19	35.181
327.56	34.026
327.92	35.492
328.29	34.697
328.65	35.445
329.01	36.185
329.38	34.856
329.74	35.098
330.11	35.187
330.47	35.294
330.84	33.650
331.20	34.264
331.56	35.406
331.93	36.441
332.29	34.524
332.66	35.884
333.02	33.935
333.38	34.642
333.75	34.862
334.11	35.319
334.48	35.812
334.84	34.375
335.20	34.731
335.57	34.257
335.93	33.305
336.29	33.582
336.66	35.763
337.02	34.388
337.38	33.448
337.75	34.291
338.11	34.346
338.47	34.293
338.84	34.716
339.20	34.719
339.56	33.558
339.93	34.030
340.29	33.613
340.65	34.367
341.02	33.789
341.38	34.154
341.74	32.890
342.11	33.306
342.47	32.568
342.83	34.290
343.20	34.196
343.56	31.930
343.92	33.443
344.28	33.573
344.65	33.904
345.01	32.619
345.37	33.093
345.73	33.175
346.10	32.669
346.46	32.695
346.82	31.250
347.19	33.617
347.55	33.099
347.91	32.175
348.27	31.991
348.63	32.753
349.00	33.054
349.36	33.230
349.72	32.187
350.08	32.531
350.45	31.455
350.81	33.104
351.17	31.818
351.53	31.948
351.89	31.779
352.26	32.577
352.62	31.900
352.98	32.209
353.34	32.820
353.70	31.422
354.07	31.923
354.43	31.106
354.79	31.967
355.15	32.312
355.51	32.175
355.87	33.133
356.24	32.102
356.60	30.670
356.96	30.705
357.32	30.294
357.68	32.012
358.04	31.383
358.40	30.585
358.77	30.879
359.13	31.231
359.49	30.912
359.85	31.571
360.21	30.684
360.57	31.898
360.93	33.045
361.29	32.540
361.66	32.140
362.02	31.037
362.38	31.241
362.74	31.352
363.10	31.066
363.46	30.249
363.82	30.785
364.18	30.797
364.54	31.617
364.90	30.991
365.26	31.367
365.62	31.008
365.98	30.351
366.35	31.034
366.71	31.575
367.07	31.195
367.43	30.490
367.79	30.186
368.15	29.919
368.51	29.841
368.87	30.707
369.23	31.532
369.59	32.030
369.95	31.049
370.31	30.664
370.67	30.881
371.03	30.252
371.39	30.332
371.75	30.705
372.11	30.727
372.47	30.068
372.83	31.611
373.19	31.803
373.55	30.722
373.91	29.765
374.27	30.225
374.63	29.220
374.99	30.458
375.35	30.914
375.71	31.596
376.07	29.973
376.42	29.412
376.78	30.186
377.14	29.161
377.50	30.025
377.86	29.853
378.22	29.311
378.58	29.903
378.94	30.899
379.30	29.109
379.66	29.380
380.02	30.323
380.38	30.152
380.74	29.527
381.09	28.972
381.45	29.306
381.81	29.433
382.17	29.060
382.53	29.334
382.89	29.568
383.25	29.189
383.61	28.876
383.97	28.914
384.32	29.295
384.68	29.590
385.04	29.543
385.40	29.300
385.76	29.432
386.12	29.746
386.48	29.726
386.83	29.095
387.19	29.211
387.55	28.975
387.91	29.446
388.27	29.982
388.62	28.638
388.98	28.571
389.34	28.733
389.70	28.243
390.06	28.537
390.42	28.007
390.77	29.177
391.13	29.028
391.49	29.038
391.85	29.108
392.20	28.605
392.56	28.973
392.92	28.130
393.28	28.195
393.64	28.727
393.99	27.801
394.35	28.605
394.71	27.382
395.07	27.798
395.42	28.513
395.78	28.933
396.14	28.614
396.50	28.339
396.85	27.805
397.21	27.858
397.57	27.675
397.92	27.210
398.28	27.468
398.64	27.632
399.00	27.205
399.35	26.785
399.71	26.711
400.07	27.340
400.42	27.522
400.78	27.331
401.14	27.129
401.49	26.728
401.85	27.636
402.21	26.655
402.57	27.828
402.92	27.818
403.28	27.208
403.63	26.604
403.99	27.624
404.35	27.022
404.70	27.584
405.06	26.165
405.42	26.810
405.77	27.453
406.13	27.278
406.49	26.777
406.84	26.565
407.20	26.998
407.55	27.508
407.91	27.058
408.27	27.411
408.62	26.730
408.98	27.144
409.34	26.768
409.69	26.322
410.05	26.237
410.40	26.031
410.76	26.274
411.11	26.422
411.47	26.728
411.83	25.893
412.18	26.147
412.54	26.426
412.89	25.015
413.25	25.485
413.60	26.577
413.96	27.229
414.31	26.210
414.67	27.933
415.03	26.501
415.38	27.571
415.74	26.279
416.09	27.108
416.45	27.473
416.80	27.967
417.16	26.480
417.51	26.497
417.87	27.409
418.22	25.699
418.58	27.070
418.93	26.948
419.29	25.262
419.64	26.651
420.00	26.790
420.35	26.481
420.71	26.371
421.06	26.074
421.42	26.598
421.77	26.763
422.12	26.681
422.48	26.246
422.83	26.395
423.19	27.052
423.54	26.385
423.90	26.954
424.25	27.628
424.61	27.104
424.96	26.990
425.31	26.765
425.67	27.273
426.02	27.818
426.38	26.488
426.73	27.126
427.09	28.055
427.44	27.349
427.79	26.701
428.15	28.226
428.50	27.486
428.85	27.572
429.21	27.066
429.56	27.567
429.92	27.250
430.27	27.286
430.62	26.187
430.98	27.046
431.33	26.462
431.68	26.617
432.04	26.953
432.39	28.156
432.74	28.571
433.10	28.184
433.45	28.604
433.80	28.185
434.16	28.271
434.51	27.812
434.86	28.634
435.22	27.877
435.57	28.156
435.92	28.913
436.28	29.493
436.63	28.417
436.98	28.153
437.34	28.596
437.69	28.108
438.04	27.634
438.39	28.546
438.75	28.341
439.10	28.980
439.45	28.208
439.81	29.786
440.16	29.664
440.51	27.928
440.86	28.832
441.22	28.950
441.57	28.819
441.92	28.924
442.27	28.299
442.63	28.811
442.98	28.825
443.33	29.031
443.68	29.225
444.03	28.652
444.39	29.237
444.74	28.054
445.09	28.225
445.44	29.490
445.79	29.337
446.15	28.368
446.50	28.903
446.85	29.781
447.20	29.453
447.55	29.527
447.91	29.728
448.26	29.127
448.61	29.132
448.96	29.847
449.31	29.593
449.66	29.845
450.02	28.849
450.37	29.317
450.72	29.972
451.07	30.017
451.42	29.698
451.77	30.928
452.12	29.212
452.47	29.830
452.83	30.761
453.18	29.910
453.53	30.018
453.88	30.514
454.23	30.796
454.58	29.953
454.93	30.472
455.28	30.600
455.63	30.437
455.98	29.893
456.34	30.699
456.69	30.732
457.04	29.475
457.39	30.057
457.74	30.236
458.09	29.085
458.44	30.778
458.79	30.875
459.14	29.405
459.49	29.558
459.84	30.707
460.19	30.113
460.54	29.516
460.89	30.757
461.24	28.981
461.59	30.215
461.94	29.965
462.29	29.634
462.64	31.972
462.99	30.902
463.34	30.914
463.69	31.095
464.04	30.455
464.39	29.880
464.74	29.543
465.09	30.238
465.44	30.468
465.79	29.559
466.14	29.995
466.49	30.602
466.84	29.543
467.19	30.463
467.54	30.931
467.89	31.162
468.24	30.284
468.59	30.179
468.94	30.254
469.29	30.605
469.64	31.061
469.99	31.041
470.34	30.550
470.68	29.862
471.03	31.154
471.38	30.861
471.73	30.176
472.08	30.333
472.43	31.471
472.78	30.730
473.13	30.413
473.48	30.868
473.83	30.448
474.17	31.003
474.52	30.569
474.87	30.188
475.22	31.354
475.57	29.486
475.92	30.455
476.27	29.869
476.61	30.241
476.96	30.460
477.31	30.848
477.66	30.918
478.01	30.634
478.36	31.153
478.70	29.975
479.05	29.812
479.40	30.258
479.75	30.139
480.10	30.542
480.45	29.552
480.79	29.724
481.14	29.910
481.49	29.872
481.84	30.211
482.19	29.782
482.53	30.171
482.88	30.421
483.23	28.913
483.58	30.296
483.92	29.936
484.27	29.538
484.62	30.136
484.97	29.684
485.31	28.845
485.66	28.071
486.01	27.381
486.36	27.171
486.70	27.207
487.05	27.411
487.40	28.134
487.75	28.164
488.09	28.210
488.44	28.649
488.79	28.671
489.13	28.742
489.48	29.165
489.83	29.608
490.17	29.397
490.52	29.974
490.87	29.784
491.22	30.984
491.56	30.215
491.91	29.122
492.26	29.666
492.60	30.296
492.95	29.724
493.30	29.663
493.64	29.515
493.99	29.606
494.34	30.076
494.68	30.367
495.03	30.804
495.37	30.392
495.72	29.184
496.07	30.323
496.41	30.365
496.76	29.802
497.11	30.249
497.45	30.031
497.80	30.120
498.14	30.005
498.49	30.084
498.84	30.093
499.18	29.433
499.53	29.536
499.87	29.245
500.22	29.940
500.56	30.501
500.91	30.659
501.26	30.593
501.60	30.055
501.95	29.659
502.29	30.622
502.64	29.863
502.98	28.724
503.33	30.022
503.67	29.845
504.02	29.781
504.36	29.819
504.71	30.274
505.06	30.033
505.40	29.949
505.75	30.122
506.09	29.538
506.44	29.417
506.78	29.584
507.13	30.005
507.47	30.180
507.82	30.900
508.16	31.259
508.51	29.807
508.85	30.152
509.19	30.103
509.54	30.273
509.88	30.582
510.23	30.147
510.57	30.309
510.92	30.619
511.26	29.869
511.61	30.379
511.95	30.015
512.30	30.300
512.64	29.751
512.98	29.933
513.33	30.174
513.67	30.295
514.02	30.753
514.36	30.893
514.70	29.653
515.05	29.888
515.39	30.263
515.74	31.110
516.08	31.590
516.42	31.257
516.77	30.027
517.11	30.027
517.46	30.172
517.80	29.765
518.14	31.549
518.49	31.147
518.83	29.451
519.17	30.394
519.52	30.803
519.86	30.354
520.20	31.014
520.55	30.808
520.89	30.862
521.23	31.600
521.58	31.038
521.92	30.321
522.26	30.983
522.61	31.610
522.95	31.471
523.29	31.988
523.64	30.347
523.98	31.573
524.32	30.277
524.66	31.130
525.01	31.657
525.35	30.819
525.69	31.908
526.04	30.815
526.38	30.606
526.72	30.549
527.06	30.869
527.41	31.137
527.75	31.528
528.09	30.885
528.43	30.995
528.78	30.471
529.12	31.547
529.46	30.625
529.80	31.425
530.15	29.582
530.49	30.144
530.83	30.591
531.17	30.504
531.51	31.698
531.86	30.133
532.20	30.593
532.54	30.132
532.88	31.043
533.22	30.774
533.57	30.506
533.91	29.604
534.25	29.890
534.59	30.819
534.93	29.863
535.27	28.799
535.62	29.872
535.96	30.378
536.30	30.165
536.64	29.876
536.98	30.019
537.32	30.188
537.66	29.464
538.01	30.650
538.35	30.069
538.69	29.854
539.03	29.291
539.37	29.066
539.71	30.000
540.05	29.354
540.39	29.748
540.73	29.494
541.07	29.737
541.42	29.229
541.76	29.963
542.10	29.285
542.44	30.050
542.78	29.452
543.12	29.080
543.46	28.822
543.80	29.261
544.14	29.659
544.48	29.075
544.82	29.174
545.16	28.780
545.50	29.809
545.84	29.482
546.18	31.079
546.52	29.770
546.86	30.303
547.20	28.811
547.54	29.259
547.88	29.197
548.22	30.176
548.56	29.051
548.90	27.758
549.24	29.375
549.58	28.737
549.92	29.601
550.26	30.088
550.60	29.674
550.94	30.054
551.28	30.414
551.62	31.655
551.96	29.730
552.30	28.016
552.64	29.968
552.98	29.253
553.32	29.001
553.66	28.860
554.00	29.022
554.34	30.826
554.68	29.637
555.02	29.056
555.36	28.989
555.69	29.450
556.03	28.981
556.37	30.019
556.71	29.857
557.05	28.506
557.39	29.933
557.73	29.447
558.07	28.974
558.41	30.500
558.75	28.591
559.08	30.236
559.42	30.494
559.76	29.651
560.10	29.250
560.44	29.263
560.78	29.348
561.12	29.434
561.45	29.161
561.79	29.463
562.13	28.932
562.47	28.293
562.81	29.668
563.15	28.636
563.48	27.764
563.82	29.070
564.16	28.794
564.50	28.632
564.84	28.024
565.17	29.055
565.51	29.126
565.85	29.611
566.19	27.917
566.52	27.918
566.86	28.605
567.20	28.539
567.54	28.384
567.88	28.221
568.21	27.459
568.55	27.189
568.89	26.734
569.23	27.265
569.56	26.877
569.90	25.943
570.24	25.826
570.57	25.276
570.91	24.992
571.25	25.148
571.59	24.083
571.92	24.193
572.26	23.693
572.60	24.604
572.93	24.727
573.27	24.612
573.61	23.877
573.95	24.328
574.28	24.333
574.62	23.871
574.96	23.146
575.29	23.206
575.63	23.392
575.97	23.880
576.30	23.791
576.64	23.547
576.98	23.311
577.31	23.897
577.65	23.761
577.98	23.052
578.32	22.959
578.66	22.745
578.99	23.642
579.33	23.387
579.67	23.563
580.00	22.793
580.34	23.111
580.67	23.378
581.01	23.875
581.35	23.097
581.68	22.839
582.02	22.691
582.35	22.821
582.69	22.915
583.02	22.810
583.36	23.497
583.70	23.749
584.03	23.888
584.37	23.423
584.70	23.414
585.04	23.293
585.37	23.219
585.71	24.045
586.04	23.400
586.38	23.605
586.72	24.299
587.05	23.829
587.39	23.515
587.72	23.762
588.06	23.318
588.39	23.849
588.73	23.835
589.06	24.219
589.40	24.789
589.73	24.385
590.07	24.605
590.40	25.087
590.73	25.927
591.07	25.009
591.40	25.948
591.74	25.244
592.07	24.459
592.41	24.580
592.74	24.167
593.08	23.698
593.41	23.968
593.75	23.895
594.08	23.961
594.41	24.308
594.75	24.452
595.08	24.726
595.42	24.819
595.75	24.383
596.09	24.678
596.42	24.217
596.75	25.801
597.09	24.598
597.42	24.776
597.75	24.381
598.09	24.046
598.42	24.357
598.76	25.019
599.09	25.156
599.42	24.118
599.76	24.152
600.09	24.305
600.42	24.344
600.76	23.623
601.09	23.921
601.42	24.498
601.76	24.096
602.09	25.092
602.42	24.399
602.76	24.478
603.09	24.849
603.42	24.330
603.76	24.331
604.09	23.706
604.42	24.331
604.76	24.496
605.09	24.531
605.42	23.974
605.75	24.358
606.09	24.063
606.42	24.126
606.75	24.174
607.09	24.793
607.42	24.267
607.75	24.084
608.08	24.695
608.42	25.168
608.75	24.433
609.08	24.901
609.41	25.500
609.75	25.229
610.08	24.685
610.41	24.638
610.74	25.022
611.07	24.920
611.41	24.791
611.74	25.478
612.07	25.337
612.40	25.682
612.73	25.562
613.07	26.102
613.40	25.664
613.73	25.662
614.06	24.350
614.39	25.859
614.72	25.414
615.06	24.481
615.39	24.208
615.72	25.073
616.05	25.314
616.38	25.977
616.71	25.719
617.05	24.437
617.38	24.607
617.71	25.703
618.04	25.687
618.37	25.737
618.70	25.346
619.03	25.885
619.36	27.575
619.69	26.781
620.03	26.941
620.36	26.782
620.69	26.437
621.02	27.310
621.35	26.218
621.68	27.360
622.01	28.635
622.34	27.167
622.67	27.177
623.00	26.481
623.33	27.328
623.66	26.480
623.99	26.712
624.32	26.829
624.65	26.531
624.99	26.842
625.32	27.188
625.65	26.000
625.98	27.197
626.31	27.077
626.64	26.576
626.97	27.927
627.30	28.804
627.63	27.237
627.96	27.230
628.29	28.135
628.62	27.288
628.95	29.965
629.28	29.360
629.61	28.998
629.94	27.571
630.26	27.556
630.59	29.610
630.92	29.058
631.25	30.372
631.58	29.412
631.91	28.354
632.24	28.863
632.57	29.077
632.90	30.642
633.23	30.955
633.56	29.399
633.89	30.439
634.22	30.032
634.55	30.753
634.88	30.449
635.20	31.166
635.53	31.940
635.86	32.103
636.19	31.313
636.52	29.622
636.85	29.126
637.18	30.986
637.51	30.056
637.83	28.947
638.16	30.363
638.49	30.419
638.82	30.516
639.15	31.492
639.48	30.806
639.81	31.136
640.13	30.798
640.46	31.100
640.79	30.949
641.12	32.152
641.45	32.212
641.77	31.968
642.10	31.727
642.43	33.286
642.76	33.665
643.09	32.421
643.41	32.819
643.74	33.525
644.07	32.448
644.40	31.657
644.73	33.183
645.05	33.432
645.38	32.772
645.71	32.929
646.04	32.824
646.36	31.612
646.69	31.840
647.02	33.280
647.35	29.764
647.67	32.577
648.00	32.248
648.33	32.481
648.66	31.061
648.98	32.029
649.31	29.015
649.64	30.429
649.96	30.583
650.29	30.714
650.62	32.695
650.94	33.133
651.27	34.769
651.60	35.211
651.92	30.415
652.25	33.701
652.58	33.191
652.90	31.587
653.23	29.838
653.56	33.234
653.88	28.928
654.21	32.551
654.54	30.015
654.86	30.678
655.19	30.871
655.52	25.128
655.84	19.530
656.17	22.320
656.49	32.094
656.82	37.011
657.15	29.677
657.47	21.878
657.80	16.381
658.13	12.690
658.45	17.207
658.78	20.269
659.10	21.263
659.43	21.963
659.75	22.918
660.08	23.246
660.41	25.318
660.73	31.493
661.06	31.231
661.38	32.538
661.71	32.014
662.03	34.981
662.36	32.952
662.68	32.216
663.01	34.234
663.33	31.321
663.66	33.136
663.98	31.746
664.31	34.142
664.63	35.249
664.96	33.959
665.28	33.710
665.61	31.887
665.93	32.264
666.26	34.393
666.58	34.862
666.91	34.556
667.23	34.337
667.56	36.140
667.88	36.722
668.21	37.090
668.53	35.282
668.86	37.074
669.18	35.845
669.50	32.851
669.83	36.345
670.15	39.293
670.48	30.859
670.80	35.259
671.13	34.462
671.45	35.872
671.77	33.395
672.10	33.034
672.42	31.086
672.75	30.696
673.07	31.161
673.39	31.949
673.72	32.180
674.04	32.437
674.37	32.305
674.69	32.900
675.01	32.649
675.34	30.233
675.66	34.570
675.98	34.517
676.31	36.200
676.63	31.610
676.95	34.722
677.28	31.034
677.60	32.193
677.92	31.349
678.25	29.845
678.57	32.588
678.89	32.550
679.22	32.537
679.54	32.028
679.86	31.414
680.18	30.404
680.51	28.358
680.83	30.405
681.15	32.582
681.48	30.556
681.80	30.823
682.12	30.969
682.44	28.649
682.77	30.783
683.09	32.621
683.41	34.694
683.73	34.252
684.06	32.738
684.38	33.333
684.70	33.094
685.02	31.597
685.34	32.394
685.67	31.190
685.99	29.064
686.31	27.581
686.63	31.707
686.96	31.536
687.28	29.530
687.60	29.010
687.92	31.491
688.24	32.241
688.56	33.096
688.89	29.828
689.21	31.792
689.53	35.375
689.85	31.098
690.17	32.816
690.49	33.468
690.82	33.824
691.14	33.131
691.46	33.470
691.78	33.333
692.10	31.107
692.42	28.675
692.74	32.946
693.06	33.721
693.39	29.249
693.71	31.041
694.03	31.953
694.35	34.337
694.67	30.346
694.99	33.038
695.31	31.306
695.63	34.163
695.95	31.900
696.27	35.841
696.59	34.606
696.91	36.456
697.23	31.222
697.56	29.668
697.88	29.940
698.20	31.887
698.52	31.518
698.84	32.033
699.16	32.623
699.48	34.534
699.80	34.858
700.12	36.028
700.44	33.411
700.76	33.652
701.08	35.770
701.40	34.286
701.72	35.294
702.04	36.314
702.36	38.441
702.68	34.840
703.00	31.579
703.32	36.476
703.64	33.501
703.96	33.333
704.28	34.921
704.60	37.465
704.91	36.415
705.23	39.489
705.55	38.279
705.87	36.190
706.19	40.752
706.51	39.498
706.83	35.398
707.15	36.096
707.47	32.930
707.79	31.954
708.11	31.519
708.43	30.562
708.74	28.507
709.06	33.721
709.38	32.010
709.70	33.515
710.02	30.978
710.34	34.807
710.66	36.667
710.98	33.880
711.29	37.604
711.61	38.997
711.93	35.258
712.25	31.928
712.57	36.334
712.89	40.606
713.20	37.061
713.52	40.498
713.84	37.462
714.16	31.594
714.48	30.548
714.80	35.501
715.11	32.447
715.43	32.123
715.75	32.394
716.07	35.838
716.39	36.000
716.70	36.760
717.02	36.700
717.34	40.647
717.66	42.708
717.97	39.394
718.29	38.732
718.61	34.797
718.93	35.640
719.24	38.926
719.56	37.931
719.88	36.306
720.20	37.097
720.51	33.660
720.83	35.786
721.15	39.796
721.46	37.671
721.78	40.767
722.10	35.069
722.42	37.124
722.73	34.657
723.05	39.298
723.37	37.456
723.68	41.406
724.00	37.500
724.32	41.825
724.63	39.231
724.95	36.471
725.27	36.431
725.58	37.868
725.90	32.394
726.22	34.589
726.53	36.455
726.85	35.179
727.16	41.275
727.48	37.874
727.80	39.568
728.11	36.071
728.43	35.145
728.74	36.713
729.06	34.050
729.38	41.053
729.69	35.333
730.01	34.211
730.32	36.242
730.64	35.880
730.96	35.736
731.27	30.581
731.59	29.023
731.90	30.084
732.22	29.714
732.53	26.496
732.85	31.579
733.16	33.735
733.48	33.229
733.80	37.101
734.11	34.969
734.43	30.117
734.74	32.440
735.06	33.598
735.37	31.701
735.69	28.406
736.00	33.945
736.32	30.606
736.63	29.338
736.95	36.335
737.26	31.707
737.58	34.663
737.89	34.639
738.21	33.444
738.52	33.779
738.83	35.531
739.15	34.843
739.46	35.862
739.78	34.354
740.09	36.735
740.41	33.129
740.72	35.556
741.04	37.762
741.35	36.328
741.66	41.107
741.98	38.197
742.29	37.500
742.61	37.168
742.92	33.898
743.23	35.600
743.55	33.585
743.86	36.863
744.18	36.864
744.49	41.322
744.80	42.396
745.12	41.071
745.43	42.056
745.74	43.111
746.06	39.035
746.37	43.256
746.68	43.805
747.00	38.565
747.31	39.496
747.62	36.066
747.94	36.910
748.25	34.630
748.56	38.983
748.88	38.839
749.19	41.395
749.50	41.553
749.82	36.214
750.13	38.340
750.44	35.000
750.75	33.557
751.07	33.882
751.38	30.033
751.69	34.007
752.01	34.965
752.32	33.223
752.63	34.564
752.94	36.713
753.26	37.500
753.57	36.576
753.88	32.584
754.19	36.823
754.51	34.884
754.82	30.872
755.13	36.486
755.44	34.444
755.75	35.395
756.07	32.534
756.38	32.680
756.69	33.125
757.00	30.861
757.31	31.549
757.63	29.752
757.94	31.649
758.25	29.227
758.56	27.918
758.87	33.333
759.18	35.756
759.50	33.435
759.81	29.970
760.12	31.461
760.43	31.653
760.74	32.405
761.05	27.321
761.36	27.083
761.67	29.919
761.99	31.549
762.30	30.868
762.61	30.903
762.92	31.439
763.23	38.113
763.54	35.769
763.85	32.685
764.16	37.847
764.47	34.459
764.78	33.550
765.10	32.317
765.41	32.102
765.72	29.834
766.03	31.722
766.34	34.495
766.65	35.741
766.96	44.130
767.27	41.589
767.58	38.119
767.89	37.017
768.20	50.610
768.51	40.816
768.82	38.158
769.13	38.824
769.44	32.707
769.75	37.453
770.06	34.034
770.37	29.386
770.68	32.000
770.99	38.983
771.30	39.331
771.61	36.154
771.92	32.061
772.23	32.258
772.54	36.889
772.85	46.535
773.16	44.565
773.47	39.444
773.78	39.604
774.09	41.477
774.39	40.606
774.70	45.294
775.01	37.500
775.32	35.404
775.63	45.890
775.94	51.235
776.25	48.966
776.56	38.931
776.87	53.435
777.18	53.030
777.48	54.331
777.79	46.154
778.10	48.485
778.41	44.776
778.72	46.617
779.03	41.026
779.34	49.324
779.65	50.932
779.95	36.646
780.26	47.619
780.57	51.701
780.88	42.553
781.19	56.667
781.50	43.787
781.80	37.158
782.11	39.683
782.42	36.782
782.73	46.328
783.04	38.065
783.34	35.659
783.65	40.816
783.96	41.935
784.27	40.397
784.57	46.711
784.88	49.275
785.19	45.000
785.50	50.000
785.81	49.612
786.11	42.222
786.42	45.669
786.73	55.856
787.04	52.830
787.34	43.902
787.65	56.818
787.96	46.970
788.26	54.331
788.57	53.285
788.88	47.887
789.19	45.802
789.49	45.946
789.80	48.437
790.11	53.719
790.41	56.481
790.72	47.222
791.03	60.577
791.33	68.687
791.64	49.474
791.95	64.211
792.25	50.000
792.56	55.000
792.87	65.854
793.17	57.955
793.48	55.294
793.79	62.069
794.09	61.364
794.40	58.621
794.70	42.063
795.01	47.692
795.32	42.748
795.62	44.444
795.93	47.059
796.23	46.341
796.54	53.061
796.85	57.955
797.15	72.727
797.46	74.390
797.76	57.500
798.07	69.333
798.37	65.000
798.68	67.500
798.99	82.927
799.29	76.000
799.60	50.000
799.90	56.579
800.21	71.212
800.51	64.789
800.82	82.759
801.12	83.077
801.43	68.000
801.73	68.966
802.04	68.831
802.34	67.123
802.65	90.196
802.95	97.826
803.26	82.258
803.56	95.000
803.87	89.552
804.17	77.778
804.48	86.792
804.78	68.056
805.09	65.152
805.39	79.365
805.70	94.737
806.00	62.857
806.30	68.750
806.61	63.529
806.91	66.667
807.22	55.435
807.52	60.526
807.83	71.053
808.13	71.014
808.43	83.871
808.74	54.795
809.04	80.357
809.35	70.588
809.65	89.394
809.95	90.196
810.26	96.296
810.56	98.438
810.86	87.755
811.17	85.965
811.47	121.739
811.77	70.690
812.08	58.621
812.38	78.571
812.69	109.524
812.99	84.444
813.29	137.143
813.59	100.000
813.90	68.966
814.20	81.967
814.50	72.000
814.81	89.474
815.11	90.741
815.41	76.786
815.72	105.357
816.02	100.000
816.32	92.683
816.62	101.724
816.93	103.030
817.23	114.634
817.53	91.071
817.84	84.444
818.14	102.381
818.44	64.583
818.74	100.000
819.04	102.564
819.35	124.242
819.65	92.308
819.95	100.000
820.25	85.106
820.56	97.297
820.86	110.526
821.16	65.957
821.46	113.158
821.76	70.909
822.07	80.952
822.37	94.737
822.67	100.000
822.97	100.000
823.27	108.696
823.57	131.250
823.88	115.385
824.18	93.939
824.48	134.783
824.78	127.778
825.08	117.391
825.38	151.724
825.69	108.824
825.99	89.362
826.29	108.333
826.59	105.714
826.89	166.667
827.19	91.429
827.49	112.903
827.79	169.231
828.09	123.810
828.39	105.556
828.70	116.216
829.00	153.571
829.30	206.250
829.60	116.667
829.90	151.613
830.20	115.152
830.50	127.027
830.80	158.333
831.10	126.923
831.40	180.952
831.70	208.333
832.00	150.000
832.30	143.478
832.60	166.667
832.90	124.242
833.20	265.000
833.50	110.526
833.80	117.647
834.10	113.158
834.40	173.684
834.70	96.667
835.00	176.000
835.30	97.297
835.60	140.625
835.90	137.838
836.20	150.000
836.50	150.000
836.80	126.829
837.10	152.174
837.40	215.385
837.70	168.421
838.00	123.333
838.30	145.833
838.60	188.000
838.90	260.000
839.19	181.250
839.49	136.667
839.79	113.793
840.09	153.846
840.39	233.333
840.69	226.316
840.99	142.857
841.29	139.130
841.59	190.000
841.88	200.000
842.18	311.111
842.48	153.571
842.78	162.963
843.08	246.154
843.38	186.364
843.68	271.429
843.97	571.429
844.27	160.870
844.57	1350.000
844.87	335.714
845.17	238.889
845.47	195.238
845.76	191.667
846.06	571.429
846.36	123.529
846.66	253.846
846.96	237.500
847.25	184.615
847.55	178.947
847.85	111.111
848.15	440.000
848.44	272.727
848.74	190.476
849.04	191.667
849.34	182.353
849.63	231.250
849.93	268.750
850.23	1000.000
850.53	475.000
850.82	318.182
851.12	217.647
851.42	179.167
851.71	243.750
852.01	0.000
852.31	158.824
852.61	330.000
852.90	112.500
853.20	255.556
853.50	-1900.000
853.79	128.000
854.09	153.125
854.39	137.931
854.68	175.862
854.98	185.714
855.28	119.355
855.57	221.429
855.87	222.222
856.17	140.741
856.46	189.474
856.76	109.677
857.05	217.647
857.35	300.000
857.65	246.154
857.94	170.000
858.24	388.889
858.53	257.143
858.83	428.571
859.13	208.696
859.42	300.000
859.72	350.000
860.01	308.333
860.31	1050.000
860.60	330.000
860.90	575.000
861.20	276.923
861.49	528.571
861.79	-3200.000
862.08	428.571
862.38	288.889
862.67	221.429
862.97	350.000
863.26	130.000
863.56	625.000
863.85	353.846
864.15	270.588
864.44	200.000
864.74	358.333
865.03	281.818
865.33	400.000
865.62	253.333
865.92	683.333
866.21	850.000
866.51	480.000
866.80	200.000
867.10	1200.000
867.39	4400.000
867.69	720.000
867.98	900.000
868.27	180.952
868.57	286.667
868.86	800.000
869.16	161.905
869.45	3100.000
869.75	-450.000
870.04	700.000
870.33	620.000
870.63	387.500
870.92	211.765
871.22	750.000
871.51	514.286
871.80	325.000
872.10	269.231
>>>>>End Processed Spectral Data<<<<<
